PE UV       SUBTECH     SPECTRUM    ASCII       PEDS        4.00        
   -1
CICIMAUCR0020-1.Sample.ASC
24/04/12
14:23:27.00
24/04/12
14:23:27.00
Vinicio Soto Monge
C. resplendens
250,000000
1
Lambda 1050
1050L1511233
PerkinElmer UV WinLab 6.3.2.0749 / 2.02.05 Lambda 900 UV/VIS/NIR, Aug  7 2015 09:38:08

0
0
3350/servo 860,8/2
0
0
UV/VIS
1
1
1
DoubleDePol,CommonBeamDepol,RBeamAtt,SBeamAtt,60mm sphere, WB InGaAs Detector
0
0
0
0
Program
Program
3350/servo 860,8/2
3350/0,2 860,8/0,2
3350/0,2 860,8/0,2
0
15.00
 
 
 
0
 
860,8
319,2
860,8
Front
100
on
S:100 R:100
0
0
0
0
 
0
 
 
 
0
 
 
0
0
0
0
0
 
 
 
 
0
0


0
0
#HDR
-1
-1
#GR
nm
%R
1.0
0.0
2500,000000
-1,000000
2251
8
48,794800
3,290600
#DATA
2482.000000	8.267047
2481.000000	8.312451
2480.000000	8.266854
2479.000000	8.297091
2478.000000	8.312934
2477.000000	8.309070
2476.000000	8.333994
2475.000000	8.357372
2474.000000	8.376210
2473.000000	8.329164
2472.000000	8.304530
2471.000000	8.354088
2470.000000	8.336119
2469.000000	8.419199
2468.000000	8.413210
2467.000000	8.425286
2466.000000	8.471366
2465.000000	8.504308
2464.000000	8.556185
2463.000000	8.578211
2462.000000	8.625740
2461.000000	8.678197
2460.000000	8.733165
2459.000000	8.807744
2458.000000	8.875174
2457.000000	8.912173
2456.000000	8.986945
2455.000000	9.060462
2454.000000	9.124221
2453.000000	9.165374
2452.000000	9.234737
2451.000000	9.307480
2450.000000	9.381769
2449.000000	9.407756
2448.000000	9.472288
2447.000000	9.517982
2446.000000	9.594589
2445.000000	9.653615
2444.000000	9.709549
2443.000000	9.760363
2442.000000	9.829629
2441.000000	9.896962
2440.000000	9.951544
2439.000000	9.999653
2438.000000	10.045927
2437.000000	10.104179
2436.000000	10.181849
2435.000000	10.222134
2434.000000	10.255076
2433.000000	10.298162
2432.000000	10.346464
2431.000000	10.394283
2430.000000	10.450797
2429.000000	10.492917
2428.000000	10.545470
2427.000000	10.569041
2426.000000	10.562472
2425.000000	10.526439
2424.000000	10.468186
2423.000000	10.418917
2422.000000	10.414184
2421.000000	10.454082
2420.000000	10.478426
2419.000000	10.499196
2418.000000	10.533394
2417.000000	10.501804
2416.000000	10.484899
2415.000000	10.472726
2414.000000	10.498133
2413.000000	10.510306
2412.000000	10.526632
2411.000000	10.504606
2410.000000	10.498906
2409.000000	10.526535
2408.000000	10.534167
2407.000000	10.541992
2406.000000	10.519290
2405.000000	10.512624
2404.000000	10.521705
2403.000000	10.524893
2402.000000	10.518227
2401.000000	10.532718
2400.000000	10.533877
2399.000000	10.521898
2398.000000	10.540156
2397.000000	10.540833
2396.000000	10.538611
2395.000000	10.547015
2394.000000	10.548754
2393.000000	10.531752
2392.000000	10.544890
2391.000000	10.527211
2390.000000	10.507987
2389.000000	10.523637
2388.000000	10.506635
2387.000000	10.476011
2386.000000	10.467606
2385.000000	10.468766
2384.000000	10.427805
2383.000000	10.391578
2382.000000	10.394380
2381.000000	10.378440
2380.000000	10.371678
2379.000000	10.352453
2378.000000	10.306663
2377.000000	10.290916
2376.000000	10.260293
2375.000000	10.218946
2374.000000	10.205035
2373.000000	10.189964
2372.000000	10.144657
2371.000000	10.094229
2370.000000	10.054911
2369.000000	10.029311
2368.000000	9.980332
2367.000000	9.926137
2366.000000	9.893581
2365.000000	9.856002
2364.000000	9.786253
2363.000000	9.705975
2362.000000	9.679215
2361.000000	9.616036
2360.000000	9.548895
2359.000000	9.530251
2358.000000	9.502428
2357.000000	9.475476
2356.000000	9.432100
2355.000000	9.394617
2354.000000	9.388628
2353.000000	9.382542
2352.000000	9.371819
2351.000000	9.380417
2350.000000	9.392879
2349.000000	9.395294
2348.000000	9.403795
2347.000000	9.416643
2346.000000	9.447074
2345.000000	9.464849
2344.000000	9.457217
2343.000000	9.437703
2342.000000	9.440311
2341.000000	9.444176
2340.000000	9.431810
2339.000000	9.416837
2338.000000	9.395004
2337.000000	9.356652
2336.000000	9.348730
2335.000000	9.343031
2334.000000	9.283232
2333.000000	9.214063
2332.000000	9.168852
2331.000000	9.148179
2330.000000	9.128375
2329.000000	9.056694
2328.000000	9.011869
2327.000000	8.958930
2326.000000	8.902996
2325.000000	8.866576
2324.000000	8.789872
2323.000000	8.738961
2322.000000	8.700126
2321.000000	8.610573
2320.000000	8.548167
2319.000000	8.497449
2318.000000	8.416301
2317.000000	8.357469
2316.000000	8.310229
2315.000000	8.224734
2314.000000	8.173340
2313.000000	8.143876
2312.000000	8.123686
2311.000000	8.062342
2310.000000	8.033940
2309.000000	8.029206
2308.000000	8.009402
2307.000000	8.002640
2306.000000	8.041668
2305.000000	8.086686
2304.000000	8.093062
2303.000000	8.120691
2302.000000	8.166288
2301.000000	8.215267
2300.000000	8.257870
2299.000000	8.289363
2298.000000	8.355923
2297.000000	8.372153
2296.000000	8.401714
2295.000000	8.434946
2294.000000	8.464410
2293.000000	8.478708
2292.000000	8.486436
2291.000000	8.481026
2290.000000	8.456199
2289.000000	8.455909
2288.000000	8.443544
2287.000000	8.403356
2286.000000	8.373988
2285.000000	8.348098
2284.000000	8.310133
2283.000000	8.262024
2282.000000	8.202322
2281.000000	8.191502
2280.000000	8.157207
2279.000000	8.105524
2278.000000	8.053357
2277.000000	8.030076
2276.000000	8.012493
2275.000000	7.963225
2274.000000	7.939750
2273.000000	7.924680
2272.000000	7.949507
2271.000000	7.940137
2270.000000	7.952405
2269.000000	7.979261
2268.000000	8.037321
2267.000000	8.056835
2266.000000	8.130641
2265.000000	8.221836
2264.000000	8.309263
2263.000000	8.430019
2262.000000	8.515225
2261.000000	8.643999
2260.000000	8.774125
2259.000000	8.926278
2258.000000	9.078720
2257.000000	9.208364
2256.000000	9.358970
2255.000000	9.504360
2254.000000	9.616615
2253.000000	9.784224
2252.000000	9.913288
2251.000000	10.037329
2250.000000	10.166393
2249.000000	10.263963
2248.000000	10.374286
2247.000000	10.478329
2246.000000	10.558125
2245.000000	10.623430
2244.000000	10.719068
2243.000000	10.815094
2242.000000	10.904646
2241.000000	10.938554
2240.000000	11.005405
2239.000000	11.076796
2238.000000	11.137947
2237.000000	11.193977
2236.000000	11.225567
2235.000000	11.281791
2234.000000	11.324780
2233.000000	11.358978
2232.000000	11.409116
2231.000000	11.414043
2230.000000	11.435393
2229.000000	11.439643
2228.000000	11.461186
2227.000000	11.483405
2226.000000	11.483308
2225.000000	11.510841
2224.000000	11.502629
2223.000000	11.438967
2222.000000	11.453071
2221.000000	11.452395
2220.000000	11.442251
2219.000000	11.425056
2218.000000	11.431432
2217.000000	11.412497
2216.000000	11.407184
2215.000000	11.378782
2214.000000	11.375498
2213.000000	11.373469
2212.000000	11.365161
2211.000000	11.324297
2210.000000	11.327775
2209.000000	11.302561
2208.000000	11.305266
2207.000000	11.288940
2206.000000	11.228079
2205.000000	11.210497
2204.000000	11.192721
2203.000000	11.210593
2202.000000	11.209627
2201.000000	11.183930
2200.000000	11.194847
2199.000000	11.174463
2198.000000	11.145965
2197.000000	11.122876
2196.000000	11.102493
2195.000000	11.076313
2194.000000	11.084041
2193.000000	11.064720
2192.000000	11.056992
2191.000000	11.037381
2190.000000	11.042404
2189.000000	11.014486
2188.000000	11.008303
2187.000000	10.999029
2186.000000	10.996324
2185.000000	10.954494
2184.000000	10.935560
2183.000000	10.953528
2182.000000	10.940776
2181.000000	10.940197
2180.000000	10.943191
2179.000000	10.935173
2178.000000	10.904839
2177.000000	10.894792
2176.000000	10.948311
2175.000000	10.920682
2174.000000	10.919233
2173.000000	10.929377
2172.000000	10.900009
2171.000000	10.913051
2170.000000	10.941839
2169.000000	10.931599
2168.000000	10.935463
2167.000000	10.952272
2166.000000	10.990334
2165.000000	10.982896
2164.000000	10.995261
2163.000000	11.001154
2162.000000	11.049843
2161.000000	11.066169
2160.000000	11.077955
2159.000000	11.088292
2158.000000	11.094378
2157.000000	11.127996
2156.000000	11.127320
2155.000000	11.155818
2154.000000	11.180936
2153.000000	11.201899
2152.000000	11.201223
2151.000000	11.211753
2150.000000	11.244502
2149.000000	11.257736
2148.000000	11.311352
2147.000000	11.326422
2146.000000	11.335793
2145.000000	11.338305
2144.000000	11.349897
2143.000000	11.353375
2142.000000	11.362070
2141.000000	11.363036
2140.000000	11.351540
2139.000000	11.358109
2138.000000	11.365547
2137.000000	11.372503
2136.000000	11.372020
2135.000000	11.372986
2134.000000	11.362939
2133.000000	11.350091
2132.000000	11.313767
2131.000000	11.314154
2130.000000	11.313477
2129.000000	11.288650
2128.000000	11.264016
2127.000000	11.257640
2126.000000	11.223828
2125.000000	11.187118
2124.000000	11.184510
2123.000000	11.153113
2122.000000	11.096890
2121.000000	11.094474
2120.000000	11.071289
2119.000000	11.032454
2118.000000	11.001637
2117.000000	10.973622
2116.000000	10.936043
2115.000000	10.906578
2114.000000	10.883103
2113.000000	10.864845
2112.000000	10.834801
2111.000000	10.776838
2110.000000	10.726410
2109.000000	10.693082
2108.000000	10.688638
2107.000000	10.657531
2106.000000	10.624686
2105.000000	10.589521
2104.000000	10.551846
2103.000000	10.545083
2102.000000	10.544021
2101.000000	10.510789
2100.000000	10.473209
2099.000000	10.451860
2098.000000	10.442875
2097.000000	10.438818
2096.000000	10.408581
2095.000000	10.381338
2094.000000	10.369939
2093.000000	10.341924
2092.000000	10.323858
2091.000000	10.319511
2090.000000	10.303185
2089.000000	10.292558
2088.000000	10.281159
2087.000000	10.259037
2086.000000	10.251598
2085.000000	10.244353
2084.000000	10.233823
2083.000000	10.225901
2082.000000	10.219719
2081.000000	10.188032
2080.000000	10.157119
2079.000000	10.155863
2078.000000	10.148038
2077.000000	10.127558
2076.000000	10.104855
2075.000000	10.083506
2074.000000	10.088433
2073.000000	10.089592
2072.000000	10.083699
2071.000000	10.063026
2070.000000	10.032885
2069.000000	10.016172
2068.000000	10.026799
2067.000000	10.030856
2066.000000	10.004290
2065.000000	10.000329
2064.000000	10.016172
2063.000000	10.004870
2062.000000	9.994533
2061.000000	9.990765
2060.000000	9.984872
2059.000000	10.017815
2058.000000	10.039937
2057.000000	10.059258
2056.000000	10.066793
2055.000000	10.091910
2054.000000	10.141469
2053.000000	10.166103
2052.000000	10.214405
2051.000000	10.273431
2050.000000	10.324631
2049.000000	10.382208
2048.000000	10.467606
2047.000000	10.524313
2046.000000	10.597733
2045.000000	10.683518
2044.000000	10.763217
2043.000000	10.827652
2042.000000	10.902521
2041.000000	10.982413
2040.000000	11.069647
2039.000000	11.162677
2038.000000	11.238898
2037.000000	11.308357
2036.000000	11.389022
2035.000000	11.457515
2034.000000	11.514995
2033.000000	11.568417
2032.000000	11.646087
2031.000000	11.687724
2030.000000	11.741050
2029.000000	11.799882
2028.000000	11.847412
2027.000000	11.898129
2026.000000	11.957541
2025.000000	11.980340
2024.000000	12.004298
2023.000000	12.040042
2022.000000	12.106506
2021.000000	12.137709
2020.000000	12.183789
2019.000000	12.199150
2018.000000	12.228228
2017.000000	12.262329
2016.000000	12.278848
2015.000000	12.308506
2014.000000	12.322031
2013.000000	12.326185
2012.000000	12.333527
2011.000000	12.354104
2010.000000	12.354683
2009.000000	12.363667
2008.000000	12.374584
2007.000000	12.375260
2006.000000	12.373135
2005.000000	12.344636
2004.000000	12.349563
2003.000000	12.350239
2002.000000	12.322321
2001.000000	12.324446
2000.000000	12.296334
1999.000000	12.260204
1998.000000	12.238274
1997.000000	12.221755
1996.000000	12.186881
1995.000000	12.142732
1994.000000	12.113171
1993.000000	12.093561
1992.000000	12.047094
1991.000000	12.025841
1990.000000	11.984880
1989.000000	11.958604
1988.000000	11.871853
1987.000000	11.848378
1986.000000	11.805485
1985.000000	11.758729
1984.000000	11.710523
1983.000000	11.660385
1982.000000	11.594114
1981.000000	11.573634
1980.000000	11.514802
1979.000000	11.460993
1978.000000	11.430272
1977.000000	11.373662
1976.000000	11.318501
1975.000000	11.277734
1974.000000	11.244019
1973.000000	11.179100
1972.000000	11.139009
1971.000000	11.079307
1970.000000	11.058827
1969.000000	10.997966
1968.000000	10.954301
1967.000000	10.911408
1966.000000	10.888320
1965.000000	10.838665
1964.000000	10.795773
1963.000000	10.771718
1962.000000	10.736554
1961.000000	10.699844
1960.000000	10.643137
1959.000000	10.609325
1958.000000	10.551363
1957.000000	10.528660
1956.000000	10.465674
1955.000000	10.417855
1954.000000	10.399693
1953.000000	10.368780
1952.000000	10.345401
1951.000000	10.291786
1950.000000	10.250825
1949.000000	10.231987
1948.000000	10.204455
1947.000000	10.157891
1946.000000	10.161369
1945.000000	10.151033
1944.000000	10.111811
1943.000000	10.113163
1942.000000	10.077710
1941.000000	10.071720
1940.000000	10.077323
1939.000000	10.095678
1938.000000	10.133547
1937.000000	10.173928
1936.000000	10.177212
1935.000000	10.190930
1934.000000	10.202716
1933.000000	10.221071
1932.000000	10.246478
1931.000000	10.277585
1930.000000	10.320767
1929.000000	10.412445
1928.000000	10.524313
1927.000000	10.606717
1926.000000	10.682262
1925.000000	10.768047
1924.000000	10.791619
1923.000000	10.812872
1922.000000	10.937395
1921.000000	11.130605
1920.000000	11.300339
1919.000000	11.450270
1918.000000	11.549386
1917.000000	11.570543
1916.000000	11.588028
1915.000000	11.694873
1914.000000	11.896873
1913.000000	12.143698
1912.000000	12.372072
1911.000000	12.544028
1910.000000	12.626046
1909.000000	12.647492
1908.000000	12.722844
1907.000000	12.923685
1906.000000	13.143654
1905.000000	13.464285
1904.000000	13.755645
1903.000000	13.900939
1902.000000	14.001794
1901.000000	14.171722
1900.000000	14.416518
1899.000000	14.696672
1898.000000	14.969677
1897.000000	15.165591
1896.000000	15.230123
1895.000000	15.273112
1894.000000	15.406234
1893.000000	15.585339
1892.000000	15.857668
1891.000000	16.217037
1890.000000	16.481638
1889.000000	16.672045
1888.000000	16.843616
1887.000000	16.978379
1886.000000	17.186659
1885.000000	17.497050
1884.000000	17.842412
1883.000000	18.167100
1882.000000	18.474303
1881.000000	18.768948
1880.000000	18.974619
1879.000000	19.201544
1878.000000	19.450784
1877.000000	19.708719
1876.000000	19.970614
1875.000000	20.277721
1874.000000	20.522324
1873.000000	20.782867
1872.000000	21.089200
1871.000000	21.329456
1870.000000	21.547300
1869.000000	21.768622
1868.000000	21.885803
1867.000000	21.864550
1866.000000	21.814122
1865.000000	21.761473
1864.000000	21.657816
1863.000000	21.567201
1862.000000	21.543533
1861.000000	21.566331
1860.000000	21.638978
1859.000000	21.759831
1858.000000	21.859913
1857.000000	21.816634
1856.000000	21.705152
1855.000000	21.669505
1854.000000	21.709306
1853.000000	21.703027
1852.000000	21.664288
1851.000000	21.541214
1850.000000	21.308976
1849.000000	21.234397
1848.000000	21.392636
1847.000000	21.613281
1846.000000	21.664482
1845.000000	21.453400
1844.000000	21.150448
1843.000000	20.943134
1842.000000	20.953084
1841.000000	21.105430
1840.000000	21.192085
1839.000000	21.175082
1838.000000	21.102435
1837.000000	21.080409
1836.000000	21.110937
1835.000000	21.096542
1834.000000	20.979458
1833.000000	20.761710
1832.000000	20.594294
1831.000000	20.521358
1830.000000	20.535559
1829.000000	20.523000
1828.000000	20.439437
1827.000000	20.403114
1826.000000	20.393067
1825.000000	20.336360
1824.000000	20.190583
1823.000000	20.006551
1822.000000	19.956413
1821.000000	20.083932
1820.000000	20.243812
1819.000000	20.273277
1818.000000	20.171745
1817.000000	20.047222
1816.000000	20.014086
1815.000000	20.040363
1814.000000	20.025196
1813.000000	19.976604
1812.000000	19.968199
1811.000000	20.000465
1810.000000	19.984622
1809.000000	19.925596
1808.000000	19.825707
1807.000000	19.785423
1806.000000	19.781269
1805.000000	19.768131
1804.000000	19.733063
1803.000000	19.668531
1802.000000	19.635203
1801.000000	19.641192
1800.000000	19.610375
1799.000000	19.566806
1798.000000	19.504303
1797.000000	19.433975
1796.000000	19.411080
1795.000000	19.382871
1794.000000	19.357561
1793.000000	19.344326
1792.000000	19.307519
1791.000000	19.249653
1790.000000	19.195458
1789.000000	19.146479
1788.000000	19.103780
1787.000000	19.046204
1786.000000	18.989786
1785.000000	18.957037
1784.000000	18.900524
1783.000000	18.837054
1782.000000	18.773875
1781.000000	18.717071
1780.000000	18.675531
1779.000000	18.627422
1778.000000	18.569556
1777.000000	18.499807
1776.000000	18.429479
1775.000000	18.335289
1774.000000	18.241969
1773.000000	18.142370
1772.000000	18.027700
1771.000000	17.928873
1770.000000	17.843668
1769.000000	17.745517
1768.000000	17.664080
1767.000000	17.566702
1766.000000	17.517627
1765.000000	17.438894
1764.000000	17.412231
1763.000000	17.403440
1762.000000	17.413487
1761.000000	17.447975
1760.000000	17.494731
1759.000000	17.542744
1758.000000	17.593751
1757.000000	17.641377
1756.000000	17.675672
1755.000000	17.717019
1754.000000	17.731413
1753.000000	17.714507
1752.000000	17.693930
1751.000000	17.668717
1750.000000	17.635388
1749.000000	17.593461
1748.000000	17.507290
1747.000000	17.443917
1746.000000	17.367117
1745.000000	17.266261
1744.000000	17.132464
1743.000000	16.988040
1742.000000	16.794927
1741.000000	16.634466
1740.000000	16.436137
1739.000000	16.267078
1738.000000	16.083336
1737.000000	15.941810
1736.000000	15.823759
1735.000000	15.752948
1734.000000	15.730149
1733.000000	15.719909
1732.000000	15.761256
1731.000000	15.832647
1730.000000	15.916113
1729.000000	16.001415
1728.000000	16.083336
1727.000000	16.175787
1726.000000	16.235875
1725.000000	16.291906
1724.000000	16.343203
1723.000000	16.355568
1722.000000	16.358563
1721.000000	16.365808
1720.000000	16.380589
1719.000000	16.399524
1718.000000	16.417589
1717.000000	16.456037
1716.000000	16.462606
1715.000000	16.515159
1714.000000	16.553511
1713.000000	16.611668
1712.000000	16.632341
1711.000000	16.657265
1710.000000	16.654560
1709.000000	16.656589
1708.000000	16.649633
1707.000000	16.631665
1706.000000	16.607031
1705.000000	16.575054
1704.000000	16.513710
1703.000000	16.451883
1702.000000	16.382424
1701.000000	16.316443
1700.000000	16.170087
1699.000000	16.047496
1698.000000	15.924808
1697.000000	15.831294
1696.000000	15.779804
1695.000000	15.752272
1694.000000	15.801347
1693.000000	15.907419
1692.000000	16.010303
1691.000000	16.156080
1690.000000	16.309295
1689.000000	16.373730
1688.000000	16.422032
1687.000000	16.423578
1686.000000	16.439325
1685.000000	16.461640
1684.000000	16.506272
1683.000000	16.670307
1682.000000	16.926985
1681.000000	17.270125
1680.000000	17.682531
1679.000000	18.150001
1678.000000	18.541251
1677.000000	18.931051
1676.000000	19.298149
1675.000000	19.586610
1674.000000	19.858746
1673.000000	20.067895
1672.000000	20.290859
1671.000000	20.460883
1670.000000	20.603858
1669.000000	20.737076
1668.000000	20.857156
1667.000000	20.941395
1666.000000	21.010951
1665.000000	21.096059
1664.000000	21.175565
1663.000000	21.251593
1662.000000	21.289849
1661.000000	21.341242
1660.000000	21.377372
1659.000000	21.404229
1658.000000	21.420265
1657.000000	21.443064
1656.000000	21.458520
1655.000000	21.470886
1654.000000	21.466345
1653.000000	21.446928
1652.000000	21.444126
1651.000000	21.423646
1650.000000	21.397563
1649.000000	21.364524
1648.000000	21.361046
1647.000000	21.317381
1646.000000	21.285791
1645.000000	21.249275
1644.000000	21.209377
1643.000000	21.136247
1642.000000	21.102242
1641.000000	21.054326
1640.000000	21.017133
1639.000000	20.985640
1638.000000	20.944390
1637.000000	20.884302
1636.000000	20.824987
1635.000000	20.748476
1634.000000	20.714374
1633.000000	20.653996
1632.000000	20.590044
1631.000000	20.544833
1630.000000	20.494115
1629.000000	20.422435
1628.000000	20.344861
1627.000000	20.265935
1626.000000	20.212996
1625.000000	20.161698
1624.000000	20.104702
1623.000000	20.019206
1622.000000	19.953419
1621.000000	19.899996
1620.000000	19.835271
1619.000000	19.760982
1618.000000	19.686500
1617.000000	19.619649
1616.000000	19.561686
1615.000000	19.502951
1614.000000	19.446630
1613.000000	19.392821
1612.000000	19.346354
1611.000000	19.284914
1610.000000	19.217097
1609.000000	19.168602
1608.000000	19.108514
1607.000000	19.055671
1606.000000	18.988530
1605.000000	18.930857
1604.000000	18.875986
1603.000000	18.794838
1602.000000	18.746246
1601.000000	18.712144
1600.000000	18.652539
1599.000000	18.592354
1598.000000	18.537676
1597.000000	18.471888
1596.000000	18.429769
1595.000000	18.390064
1594.000000	18.362628
1593.000000	18.336835
1592.000000	18.289788
1591.000000	18.246703
1590.000000	18.218687
1589.000000	18.191155
1588.000000	18.165458
1587.000000	18.137926
1586.000000	18.097352
1585.000000	18.073587
1584.000000	18.050595
1583.000000	18.032916
1582.000000	18.022773
1581.000000	17.999974
1580.000000	17.996786
1579.000000	17.990893
1578.000000	17.986256
1577.000000	17.999201
1576.000000	18.003066
1575.000000	17.995917
1574.000000	17.993985
1573.000000	18.004708
1572.000000	18.026444
1571.000000	18.053300
1570.000000	18.066438
1569.000000	18.082861
1568.000000	18.113002
1567.000000	18.123049
1566.000000	18.146717
1565.000000	18.168453
1564.000000	18.176954
1563.000000	18.207288
1562.000000	18.217914
1561.000000	18.245737
1560.000000	18.269308
1559.000000	18.273462
1558.000000	18.288339
1557.000000	18.294522
1556.000000	18.298966
1555.000000	18.295585
1554.000000	18.289788
1553.000000	18.285345
1552.000000	18.293846
1551.000000	18.286117
1550.000000	18.263222
1549.000000	18.258488
1548.000000	18.244867
1547.000000	18.225160
1546.000000	18.217914
1545.000000	18.219170
1544.000000	18.209703
1543.000000	18.204197
1542.000000	18.217142
1541.000000	18.215016
1540.000000	18.206515
1539.000000	18.210766
1538.000000	18.199656
1537.000000	18.195502
1536.000000	18.197724
1535.000000	18.199463
1534.000000	18.207095
1533.000000	18.190962
1532.000000	18.182364
1531.000000	18.164009
1530.000000	18.131646
1529.000000	18.134834
1528.000000	18.120440
1527.000000	18.079577
1526.000000	18.057454
1525.000000	18.048953
1524.000000	18.033593
1523.000000	18.006543
1522.000000	17.983745
1521.000000	17.979784
1520.000000	17.967032
1519.000000	17.948001
1518.000000	17.921145
1517.000000	17.912450
1516.000000	17.896704
1515.000000	17.875644
1514.000000	17.853232
1513.000000	17.821738
1512.000000	17.819227
1511.000000	17.800679
1510.000000	17.769669
1509.000000	17.741846
1508.000000	17.740784
1507.000000	17.725810
1506.000000	17.707938
1505.000000	17.686878
1504.000000	17.686009
1503.000000	17.672871
1502.000000	17.644952
1501.000000	17.633552
1500.000000	17.615874
1499.000000	17.617709
1498.000000	17.612879
1497.000000	17.615874
1496.000000	17.622346
1495.000000	17.635098
1494.000000	17.632007
1493.000000	17.636740
1492.000000	17.652487
1491.000000	17.674030
1490.000000	17.682628
1489.000000	17.695476
1488.000000	17.698954
1487.000000	17.716246
1486.000000	17.756434
1485.000000	17.764065
1484.000000	17.786188
1483.000000	17.790342
1482.000000	17.807151
1481.000000	17.841639
1480.000000	17.888396
1479.000000	17.911967
1478.000000	17.947711
1477.000000	17.978431
1476.000000	18.009152
1475.000000	18.049049
1474.000000	18.070109
1473.000000	18.092522
1472.000000	18.136380
1471.000000	18.190575
1470.000000	18.229507
1469.000000	18.264478
1468.000000	18.285538
1467.000000	18.317224
1466.000000	18.370164
1465.000000	18.413732
1464.000000	18.453823
1463.000000	18.513718
1462.000000	18.590229
1461.000000	18.622109
1460.000000	18.715429
1459.000000	18.760157
1458.000000	18.826331
1457.000000	18.895307
1456.000000	18.947956
1455.000000	19.045624
1454.000000	19.119720
1453.000000	19.195265
1452.000000	19.277668
1451.000000	19.366738
1450.000000	19.504496
1449.000000	19.593373
1448.000000	19.644283
1447.000000	19.710844
1446.000000	19.836044
1445.000000	20.001528
1444.000000	20.084221
1443.000000	20.145855
1442.000000	20.243812
1441.000000	20.377513
1440.000000	20.454990
1439.000000	20.554686
1438.000000	20.703458
1437.000000	20.797164
1436.000000	20.899855
1435.000000	20.966223
1434.000000	21.111806
1433.000000	21.169189
1432.000000	21.289849
1431.000000	21.457844
1430.000000	21.569616
1429.000000	21.649991
1428.000000	21.797796
1427.000000	21.949562
1426.000000	22.097078
1425.000000	22.251066
1424.000000	22.407082
1423.000000	22.619516
1422.000000	22.790023
1421.000000	22.909717
1420.000000	23.078678
1419.000000	23.307535
1418.000000	23.530402
1417.000000	23.659563
1416.000000	23.758583
1415.000000	23.876730
1414.000000	24.183643
1413.000000	24.427474
1412.000000	24.529199
1411.000000	24.628798
1410.000000	24.820075
1409.000000	25.129500
1408.000000	25.378354
1407.000000	25.671839
1406.000000	25.869589
1405.000000	26.137571
1404.000000	26.474721
1403.000000	26.757580
1402.000000	26.802598
1401.000000	27.127190
1400.000000	27.582584
1399.000000	27.862448
1398.000000	27.810668
1397.000000	27.825352
1396.000000	28.057107
1395.000000	28.428359
1394.000000	28.565827
1393.000000	28.571334
1392.000000	28.712087
1391.000000	28.911866
1390.000000	28.924328
1389.000000	28.951957
1388.000000	29.278481
1387.000000	29.533421
1386.000000	29.697262
1385.000000	29.859172
1384.000000	30.098558
1383.000000	30.373882
1382.000000	30.703401
1381.000000	31.005677
1380.000000	31.049245
1379.000000	31.116772
1378.000000	31.028089
1377.000000	31.035528
1376.000000	31.096775
1375.000000	31.242745
1374.000000	31.362824
1373.000000	31.495753
1372.000000	31.707027
1371.000000	32.054901
1370.000000	32.306943
1369.000000	32.422289
1368.000000	32.662255
1367.000000	32.908983
1366.000000	32.980084
1365.000000	33.088861
1364.000000	33.276757
1363.000000	33.289316
1362.000000	33.372879
1361.000000	33.654965
1360.000000	33.756400
1359.000000	33.696988
1358.000000	33.691095
1357.000000	33.753888
1356.000000	33.886430
1355.000000	34.190638
1354.000000	34.588167
1353.000000	34.887158
1352.000000	35.193589
1351.000000	35.522335
1350.000000	35.809637
1349.000000	36.018400
1348.000000	36.277880
1347.000000	36.563057
1346.000000	36.777230
1345.000000	36.932474
1344.000000	37.142010
1343.000000	37.315608
1342.000000	37.478001
1341.000000	37.648701
1340.000000	37.793995
1339.000000	37.951461
1338.000000	38.107477
1337.000000	38.240888
1336.000000	38.352370
1335.000000	38.467040
1334.000000	38.569151
1333.000000	38.667881
1332.000000	38.767384
1331.000000	38.850175
1330.000000	38.947842
1329.000000	39.051112
1328.000000	39.116224
1327.000000	39.180659
1326.000000	39.244419
1325.000000	39.311559
1324.000000	39.354355
1323.000000	39.396281
1322.000000	39.450090
1321.000000	39.509502
1320.000000	39.565919
1319.000000	39.620018
1318.000000	39.662910
1317.000000	39.678270
1316.000000	39.716816
1315.000000	39.763766
1314.000000	39.796611
1313.000000	39.836412
1312.000000	39.873122
1311.000000	39.883652
1310.000000	39.893892
1309.000000	39.911861
1308.000000	39.922874
1307.000000	39.937751
1306.000000	39.955333
1305.000000	39.963351
1304.000000	39.959294
1303.000000	39.976006
1302.000000	39.995714
1301.000000	39.987792
1300.000000	39.980160
1299.000000	39.960936
1298.000000	39.956106
1297.000000	39.965669
1296.000000	39.973881
1295.000000	39.963544
1294.000000	39.941905
1293.000000	39.916401
1292.000000	39.896017
1291.000000	39.885584
1290.000000	39.861047
1289.000000	39.844720
1288.000000	39.822211
1287.000000	39.784342
1286.000000	39.738165
1285.000000	39.708508
1284.000000	39.679140
1283.000000	39.633156
1282.000000	39.601470
1281.000000	39.579251
1280.000000	39.531624
1279.000000	39.480520
1278.000000	39.434343
1277.000000	39.412511
1276.000000	39.396281
1275.000000	39.368942
1274.000000	39.341120
1273.000000	39.298324
1272.000000	39.256108
1271.000000	39.228865
1270.000000	39.206839
1269.000000	39.181819
1268.000000	39.154093
1267.000000	39.133323
1266.000000	39.121924
1265.000000	39.118639
1264.000000	39.081640
1263.000000	39.042418
1262.000000	39.001651
1261.000000	38.968226
1260.000000	38.934994
1259.000000	38.901085
1258.000000	38.878963
1257.000000	38.854329
1256.000000	38.825057
1255.000000	38.797718
1254.000000	38.744296
1253.000000	38.681020
1252.000000	38.633973
1251.000000	38.572919
1250.000000	38.528384
1249.000000	38.485202
1248.000000	38.434871
1247.000000	38.391785
1246.000000	38.335851
1245.000000	38.258084
1244.000000	38.175004
1243.000000	38.094339
1242.000000	38.016476
1241.000000	37.924798
1240.000000	37.827903
1239.000000	37.744244
1238.000000	37.664931
1237.000000	37.577214
1236.000000	37.490656
1235.000000	37.392312
1234.000000	37.279092
1233.000000	37.158722
1232.000000	37.072744
1231.000000	36.955369
1230.000000	36.835386
1229.000000	36.729604
1228.000000	36.624401
1227.000000	36.517267
1226.000000	36.393033
1225.000000	36.285898
1224.000000	36.170359
1223.000000	36.075107
1222.000000	35.961886
1221.000000	35.859678
1220.000000	35.772348
1219.000000	35.676516
1218.000000	35.580491
1217.000000	35.476254
1216.000000	35.392305
1215.000000	35.316180
1214.000000	35.246335
1213.000000	35.174847
1212.000000	35.101428
1211.000000	35.040374
1210.000000	34.947247
1209.000000	34.898268
1208.000000	34.853540
1207.000000	34.815864
1206.000000	34.780603
1205.000000	34.768624
1204.000000	34.737228
1203.000000	34.700711
1202.000000	34.702740
1201.000000	34.675594
1200.000000	34.659751
1199.000000	34.598310
1198.000000	34.506053
1197.000000	34.414375
1196.000000	34.302217
1195.000000	34.165714
1194.000000	33.987575
1193.000000	33.762196
1192.000000	33.507063
1191.000000	33.188944
1190.000000	32.919706
1189.000000	32.650083
1188.000000	32.472813
1187.000000	32.369542
1186.000000	32.327906
1185.000000	32.394563
1184.000000	32.521115
1183.000000	32.728912
1182.000000	32.985784
1181.000000	33.273473
1180.000000	33.609368
1179.000000	33.899085
1178.000000	34.144171
1177.000000	34.336028
1176.000000	34.560055
1175.000000	34.724862
1174.000000	34.908218
1173.000000	35.094279
1172.000000	35.257444
1171.000000	35.450267
1170.000000	35.622417
1169.000000	35.844608
1168.000000	36.024100
1167.000000	36.239818
1166.000000	36.447711
1165.000000	36.628555
1164.000000	36.830556
1163.000000	37.038932
1162.000000	37.246826
1161.000000	37.434046
1160.000000	37.607838
1159.000000	37.782596
1158.000000	37.950881
1157.000000	38.070768
1156.000000	38.226398
1155.000000	38.322906
1154.000000	38.391882
1153.000000	38.422699
1152.000000	38.432262
1151.000000	38.426273
1150.000000	38.419994
1149.000000	38.379420
1148.000000	38.375362
1147.000000	38.408401
1146.000000	38.446367
1145.000000	38.515729
1144.000000	38.644503
1143.000000	38.789314
1142.000000	38.908427
1141.000000	39.078452
1140.000000	39.228479
1139.000000	39.349621
1138.000000	39.512593
1137.000000	39.678753
1136.000000	39.806948
1135.000000	40.038123
1134.000000	40.253262
1133.000000	40.416137
1132.000000	40.497189
1131.000000	40.555441
1130.000000	40.591378
1129.000000	40.705082
1128.000000	40.796084
1127.000000	40.831151
1126.000000	40.867475
1125.000000	40.891336
1124.000000	40.898388
1123.000000	40.929688
1122.000000	40.976155
1121.000000	40.994896
1120.000000	41.021559
1119.000000	41.021559
1118.000000	41.006586
1117.000000	40.999147
1116.000000	40.993640
1115.000000	40.965335
1114.000000	40.946594
1113.000000	40.912492
1112.000000	40.873851
1111.000000	40.880806
1110.000000	40.878874
1109.000000	40.884767
1108.000000	40.867765
1107.000000	40.835885
1106.000000	40.803619
1105.000000	40.784201
1104.000000	40.749230
1103.000000	40.718607
1102.000000	40.697161
1101.000000	40.692040
1100.000000	40.684409
1099.000000	40.648472
1098.000000	40.605386
1097.000000	40.588963
1096.000000	40.552543
1095.000000	40.517476
1094.000000	40.498928
1093.000000	40.450432
1092.000000	40.411983
1091.000000	40.393145
1090.000000	40.357885
1089.000000	40.319243
1088.000000	40.283113
1087.000000	40.236259
1086.000000	40.194429
1085.000000	40.162453
1084.000000	40.131636
1083.000000	40.110190
1082.000000	40.106906
1081.000000	40.064786
1080.000000	40.021604
1079.000000	39.993975
1078.000000	39.976876
1077.000000	39.935722
1076.000000	39.892057
1075.000000	39.874958
1074.000000	39.855154
1073.000000	39.827718
1072.000000	39.814483
1071.000000	39.788303
1070.000000	39.760191
1069.000000	39.727732
1068.000000	39.711406
1067.000000	39.669866
1066.000000	39.624172
1065.000000	39.588042
1064.000000	39.547178
1063.000000	39.520708
1062.000000	39.491533
1061.000000	39.467189
1060.000000	39.464774
1059.000000	39.454630
1058.000000	39.407197
1057.000000	39.354065
1056.000000	39.314843
1055.000000	39.290402
1054.000000	39.253016
1053.000000	39.217852
1052.000000	39.185973
1051.000000	39.155735
1050.000000	39.123276
1049.000000	39.108109
1048.000000	39.086180
1047.000000	39.057682
1046.000000	39.034207
1045.000000	38.991701
1044.000000	38.947166
1043.000000	38.926589
1042.000000	38.911229
1041.000000	38.877514
1040.000000	38.847083
1039.000000	38.820903
1038.000000	38.782841
1037.000000	38.748643
1036.000000	38.711547
1035.000000	38.659187
1034.000000	38.617164
1033.000000	38.594172
1032.000000	38.571083
1031.000000	38.531186
1030.000000	38.486748
1029.000000	38.450328
1028.000000	38.410913
1027.000000	38.369566
1026.000000	38.327446
1025.000000	38.284361
1024.000000	38.237894
1023.000000	38.196644
1022.000000	38.173458
1021.000000	38.139550
1020.000000	38.107091
1019.000000	38.090861
1018.000000	38.073956
1017.000000	38.072796
1016.000000	38.060914
1015.000000	38.036859
1014.000000	38.029807
1013.000000	38.021306
1012.000000	38.009810
1011.000000	38.039081
1010.000000	38.061397
1009.000000	38.072700
1008.000000	38.095402
1007.000000	38.094822
1006.000000	38.092697
1005.000000	38.112308
1004.000000	38.128634
1003.000000	38.128634
1002.000000	38.138198
1001.000000	38.166503
1000.000000	38.181960
999.000000	38.184278
998.000000	38.198865
997.000000	38.219346
996.000000	38.249293
995.000000	38.256442
994.000000	38.244173
993.000000	38.238377
992.000000	38.232967
991.000000	38.248713
990.000000	38.272092
989.000000	38.280690
988.000000	38.279627
987.000000	38.282139
986.000000	38.279917
985.000000	38.307932
984.000000	38.319428
983.000000	38.345222
982.000000	38.355075
981.000000	38.349279
980.000000	38.350342
979.000000	38.355075
978.000000	38.347057
977.000000	38.337590
976.000000	38.360775
975.000000	38.367827
974.000000	38.358070
973.000000	38.344739
972.000000	38.340198
971.000000	38.344352
970.000000	38.354399
969.000000	38.346477
968.000000	38.366571
967.000000	38.351018
966.000000	38.348313
965.000000	38.342903
964.000000	38.347733
963.000000	38.357587
962.000000	38.351018
961.000000	38.336914
960.000000	38.338652
959.000000	38.340681
958.000000	38.350535
957.000000	38.362707
956.000000	38.382994
955.000000	38.387148
954.000000	38.398934
953.000000	38.406662
952.000000	38.395166
951.000000	38.403378
950.000000	38.449651
949.000000	38.456993
948.000000	38.436030
947.000000	38.436127
946.000000	38.448395
945.000000	38.460278
944.000000	38.449845
943.000000	38.473899
942.000000	38.482207
941.000000	38.494379
940.000000	38.465978
939.000000	38.446463
938.000000	38.453805
937.000000	38.496311
936.000000	38.538141
935.000000	38.588472
934.000000	38.632234
933.000000	38.667978
932.000000	38.710677
931.000000	38.700244
930.000000	38.688168
929.000000	38.719855
928.000000	38.719372
927.000000	38.753666
926.000000	38.792115
925.000000	38.829598
924.000000	38.883213
923.000000	38.881378
922.000000	38.895675
921.000000	38.951899
920.000000	38.962526
919.000000	39.012084
918.000000	39.047635
917.000000	39.100574
916.000000	39.124242
915.000000	39.155349
914.000000	39.197469
913.000000	39.240651
912.000000	39.254079
911.000000	39.299000
910.000000	39.321606
909.000000	39.368652
908.000000	39.432315
907.000000	39.463132
906.000000	39.504575
905.000000	39.538194
904.000000	39.600890
903.000000	39.679140
902.000000	39.745797
901.000000	39.780188
900.000000	39.844044
899.000000	39.875634
898.000000	39.944513
897.000000	40.025275
896.000000	40.103911
895.000000	40.157430
894.000000	40.211335
893.000000	40.247465
892.000000	40.328420
891.000000	40.408023
890.000000	40.508008
889.000000	40.573120
888.000000	40.618524
887.000000	40.703343
886.000000	40.801783
885.000000	40.882931
884.000000	41.006489
883.000000	41.155647
882.000000	41.240272
881.000000	41.356198
880.000000	41.541389
879.000000	41.629686
878.000000	41.749766
877.000000	41.876125
876.000000	42.035523
875.000000	42.195500
874.000000	42.388323
873.000000	42.598149
872.000000	42.742090
871.000000	42.873375
870.000000	43.066295
869.000000	43.267813
868.000000	43.450202
867.000000	43.672973
866.000000	43.868404
865.000000	44.055045
864.000000	44.267189
863.000000	44.498364
862.000000	44.694761
861.000000	44.904393
860.000000	45.074514
859.000000	45.290716
858.000000	45.159333
857.000000	44.995200
856.000000	45.169300
855.000000	45.313500
854.000000	45.301300
853.000000	45.399900
852.000000	45.491500
851.000000	45.742100
850.000000	45.680300
849.000000	45.693000
848.000000	45.974700
847.000000	45.770600
846.000000	45.908800
845.000000	45.862200
844.000000	45.874400
843.000000	46.097500
842.000000	46.166500
841.000000	46.065900
840.000000	45.957600
839.000000	46.145500
838.000000	46.192100
837.000000	46.131500
836.000000	46.266300
835.000000	46.291400
834.000000	46.468100
833.000000	46.378900
832.000000	46.312500
831.000000	46.337300
830.000000	46.369400
829.000000	46.474000
828.000000	46.380100
827.000000	46.390100
826.000000	46.339600
825.000000	46.343000
824.000000	46.319200
823.000000	46.401500
822.000000	46.397400
821.000000	46.421200
820.000000	46.556100
819.000000	46.510800
818.000000	46.519900
817.000000	46.536500
816.000000	46.693000
815.000000	46.671900
814.000000	46.719300
813.000000	46.864300
812.000000	46.986900
811.000000	46.889100
810.000000	46.965100
809.000000	47.140400
808.000000	47.181100
807.000000	47.287400
806.000000	47.355100
805.000000	47.389800
804.000000	47.467400
803.000000	47.512000
802.000000	47.577500
801.000000	47.652100
800.000000	47.729700
799.000000	47.808000
798.000000	47.882300
797.000000	47.987400
796.000000	48.054300
795.000000	48.107000
794.000000	48.111500
793.000000	48.174500
792.000000	48.242600
791.000000	48.332300
790.000000	48.366400
789.000000	48.431000
788.000000	48.354800
787.000000	48.423300
786.000000	48.499200
785.000000	48.490800
784.000000	48.556600
783.000000	48.584300
782.000000	48.597400
781.000000	48.654300
780.000000	48.715100
779.000000	48.690700
778.000000	48.654300
777.000000	48.655600
776.000000	48.687200
775.000000	48.736400
774.000000	48.770900
773.000000	48.768000
772.000000	48.763100
771.000000	48.794800
770.000000	48.788300
769.000000	48.764500
768.000000	48.752900
767.000000	48.765400
766.000000	48.719700
765.000000	48.701400
764.000000	48.718000
763.000000	48.702300
762.000000	48.599800
761.000000	48.485600
760.000000	48.545800
759.000000	48.607300
758.000000	48.562800
757.000000	48.473000
756.000000	48.410900
755.000000	48.356000
754.000000	48.271300
753.000000	48.185400
752.000000	48.086700
751.000000	47.987900
750.000000	47.891900
749.000000	47.816500
748.000000	47.747900
747.000000	47.604900
746.000000	47.515800
745.000000	47.487800
744.000000	47.465600
743.000000	47.387300
742.000000	47.215000
741.000000	47.079500
740.000000	47.009400
739.000000	46.957400
738.000000	46.861700
737.000000	46.816600
736.000000	46.699200
735.000000	46.564000
734.000000	46.492000
733.000000	46.354800
732.000000	46.234800
731.000000	46.170900
730.000000	46.100000
729.000000	46.057500
728.000000	45.974200
727.000000	45.851800
726.000000	45.759900
725.000000	45.676500
724.000000	45.597900
723.000000	45.518700
722.000000	45.406200
721.000000	45.260100
720.000000	45.159100
719.000000	45.087500
718.000000	45.043900
717.000000	44.953100
716.000000	44.860900
715.000000	44.774200
714.000000	44.738100
713.000000	44.685100
712.000000	44.603800
711.000000	44.584000
710.000000	44.569800
709.000000	44.489900
708.000000	44.446300
707.000000	44.440600
706.000000	44.418800
705.000000	44.423200
704.000000	44.361800
703.000000	44.281500
702.000000	44.225100
701.000000	44.187300
700.000000	44.106600
699.000000	44.026800
698.000000	43.991100
697.000000	43.922400
696.000000	43.875800
695.000000	43.789100
694.000000	43.726300
693.000000	43.654700
692.000000	43.524500
691.000000	43.425600
690.000000	43.359700
689.000000	43.253300
688.000000	43.188200
687.000000	43.162900
686.000000	43.117100
685.000000	43.057900
684.000000	42.963300
683.000000	42.860100
682.000000	42.748800
681.000000	42.653700
680.000000	42.526900
679.000000	42.418600
678.000000	42.273000
677.000000	42.156900
676.000000	42.047500
675.000000	41.921600
674.000000	41.774500
673.000000	41.605500
672.000000	41.429900
671.000000	41.229300
670.000000	41.039400
669.000000	40.846900
668.000000	40.626500
667.000000	40.418100
666.000000	40.171200
665.000000	39.916400
664.000000	39.671900
663.000000	39.388100
662.000000	39.132600
661.000000	38.883300
660.000000	38.623300
659.000000	38.331800
658.000000	38.026000
657.000000	37.765500
656.000000	37.458400
655.000000	37.146500
654.000000	36.835700
653.000000	36.524700
652.000000	36.184300
651.000000	35.871300
650.000000	35.565100
649.000000	35.237600
648.000000	34.948400
647.000000	34.647100
646.000000	34.376100
645.000000	34.133300
644.000000	33.893200
643.000000	33.639600
642.000000	33.426100
641.000000	33.213400
640.000000	33.021800
639.000000	32.865300
638.000000	32.731500
637.000000	32.580100
636.000000	32.480200
635.000000	32.374800
634.000000	32.335500
633.000000	32.312100
632.000000	32.352600
631.000000	32.337200
630.000000	32.356100
629.000000	32.448800
628.000000	32.531600
627.000000	32.578300
626.000000	32.625400
625.000000	32.721800
624.000000	32.830800
623.000000	32.917600
622.000000	33.042700
621.000000	33.197900
620.000000	33.369900
619.000000	33.486800
618.000000	33.643200
617.000000	33.780700
616.000000	33.899500
615.000000	34.045300
614.000000	34.167000
613.000000	34.348700
612.000000	34.560900
611.000000	34.752500
610.000000	34.910200
609.000000	35.103100
608.000000	35.264500
607.000000	35.503800
606.000000	35.725100
605.000000	35.950300
604.000000	36.185600
603.000000	36.428700
602.000000	36.691300
601.000000	36.960300
600.000000	37.207900
599.000000	37.481000
598.000000	37.778800
597.000000	38.034500
596.000000	38.277100
595.000000	38.478900
594.000000	38.762100
593.000000	39.013800
592.000000	39.238100
591.000000	39.499600
590.000000	39.706000
589.000000	39.851800
588.000000	40.041200
587.000000	40.204000
586.000000	40.342900
585.000000	40.569400
584.000000	40.697000
583.000000	40.837400
582.000000	40.924600
581.000000	41.044400
580.000000	41.150200
579.000000	41.249000
578.000000	41.403000
577.000000	41.563600
576.000000	41.660900
575.000000	41.708600
574.000000	41.691900
573.000000	41.755700
572.000000	41.772700
571.000000	41.912000
570.000000	41.995100
569.000000	41.990200
568.000000	41.986000
567.000000	42.023900
566.000000	42.012000
565.000000	41.996300
564.000000	41.937000
563.000000	41.919000
562.000000	41.877500
561.000000	41.729900
560.000000	41.654900
559.000000	41.722900
558.000000	41.672400
557.000000	41.638600
556.000000	41.543400
555.000000	41.457400
554.000000	41.353800
553.000000	41.232500
552.000000	41.154500
551.000000	40.997500
550.000000	40.828100
549.000000	40.677100
548.000000	40.547700
547.000000	40.415900
546.000000	40.185100
545.000000	39.888300
544.000000	39.664700
543.000000	39.433400
542.000000	39.188600
541.000000	38.971500
540.000000	38.743000
539.000000	38.444200
538.000000	38.130600
537.000000	37.782700
536.000000	37.454100
535.000000	37.125300
534.000000	36.795700
533.000000	36.472200
532.000000	36.143500
531.000000	35.799700
530.000000	35.449300
529.000000	35.096600
528.000000	34.750700
527.000000	34.416300
526.000000	34.087900
525.000000	33.769300
524.000000	33.444000
523.000000	33.048700
522.000000	32.693900
521.000000	32.358100
520.000000	31.992800
519.000000	31.656100
518.000000	31.304000
517.000000	30.930100
516.000000	30.567600
515.000000	30.188800
514.000000	29.787500
513.000000	29.379300
512.000000	28.968200
511.000000	28.573400
510.000000	28.173900
509.000000	27.754700
508.000000	27.364700
507.000000	26.976600
506.000000	26.620700
505.000000	26.243000
504.000000	25.842400
503.000000	25.447100
502.000000	25.035800
501.000000	24.635400
500.000000	24.264900
499.000000	23.854800
498.000000	23.446500
497.000000	23.032900
496.000000	22.608700
495.000000	22.183700
494.000000	21.743200
493.000000	21.305100
492.000000	20.876300
491.000000	20.441100
490.000000	20.012800
489.000000	19.619000
488.000000	19.210100
487.000000	18.818000
486.000000	18.451100
485.000000	18.096100
484.000000	17.752900
483.000000	17.406300
482.000000	17.034200
481.000000	16.624200
480.000000	16.214600
479.000000	15.888200
478.000000	15.630300
477.000000	15.372200
476.000000	15.120400
475.000000	14.901900
474.000000	14.697800
473.000000	14.493100
472.000000	14.302600
471.000000	14.134800
470.000000	13.997300
469.000000	13.880500
468.000000	13.772100
467.000000	13.674400
466.000000	13.596500
465.000000	13.533000
464.000000	13.479000
463.000000	13.435600
462.000000	13.397800
461.000000	13.350600
460.000000	13.316600
459.000000	13.301400
458.000000	13.285800
457.000000	13.275700
456.000000	13.255400
455.000000	13.225400
454.000000	13.212700
453.000000	13.221100
452.000000	13.237800
451.000000	13.253800
450.000000	13.259100
449.000000	13.246200
448.000000	13.236300
447.000000	13.225700
446.000000	13.227300
445.000000	13.259500
444.000000	13.259400
443.000000	13.209400
442.000000	13.152000
441.000000	13.106100
440.000000	13.051000
439.000000	12.968200
438.000000	12.890100
437.000000	12.821600
436.000000	12.764200
435.000000	12.685000
434.000000	12.595000
433.000000	12.506000
432.000000	12.424000
431.000000	12.329400
430.000000	12.220200
429.000000	12.128400
428.000000	12.013800
427.000000	11.873400
426.000000	11.745500
425.000000	11.605700
424.000000	11.461000
423.000000	11.324800
422.000000	11.179200
421.000000	11.018600
420.000000	10.863600
419.000000	10.714800
418.000000	10.560400
417.000000	10.392700
416.000000	10.217000
415.000000	10.041600
414.000000	9.878600
413.000000	9.703200
412.000000	9.523600
411.000000	9.341500
410.000000	9.166800
409.000000	8.995000
408.000000	8.827800
407.000000	8.651600
406.000000	8.482400
405.000000	8.309000
404.000000	8.130000
403.000000	7.964900
402.000000	7.813900
401.000000	7.655200
400.000000	7.486000
399.000000	7.331000
398.000000	7.183400
397.000000	7.025800
396.000000	6.864900
395.000000	6.727100
394.000000	6.590800
393.000000	6.461300
392.000000	6.325500
391.000000	6.192800
390.000000	6.075700
389.000000	5.974500
388.000000	5.848000
387.000000	5.727500
386.000000	5.630800
385.000000	5.539500
384.000000	5.445700
383.000000	5.343500
382.000000	5.235100
381.000000	5.157000
380.000000	5.071900
379.000000	5.003800
378.000000	4.929300
377.000000	4.858000
376.000000	4.838100
375.000000	4.819500
374.000000	4.734700
373.000000	4.627300
372.000000	4.576900
371.000000	4.517400
370.000000	4.445800
369.000000	4.396700
368.000000	4.384100
367.000000	4.325100
366.000000	4.315500
365.000000	4.246300
364.000000	4.220400
363.000000	4.184300
362.000000	4.116900
361.000000	4.062900
360.000000	4.039100
359.000000	4.086700
358.000000	4.024600
357.000000	4.016300
356.000000	3.941200
355.000000	3.929200
354.000000	3.854500
353.000000	3.838200
352.000000	3.754000
351.000000	3.759700
350.000000	3.785600
349.000000	3.758700
348.000000	3.749500
347.000000	3.688500
346.000000	3.681300
345.000000	3.650100
344.000000	3.661900
343.000000	3.661300
342.000000	3.645000
341.000000	3.628400
340.000000	3.622500
339.000000	3.610100
338.000000	3.637100
337.000000	3.599500
336.000000	3.566200
335.000000	3.540600
334.000000	3.497300
333.000000	3.512200
332.000000	3.463000
331.000000	3.474600
330.000000	3.479000
329.000000	3.450800
328.000000	3.426300
327.000000	3.434800
326.000000	3.439000
325.000000	3.290600
324.000000	3.518000
323.000000	3.458500
322.000000	3.418800
321.000000	3.473200
320.000000	3.438800
319.000000	3.541100
318.000000	3.363500
317.000000	3.489500
316.000000	3.513000
315.000000	3.536200
314.000000	3.488100
313.000000	3.533000
312.000000	3.516500
311.000000	3.527200
310.000000	3.522000
309.000000	3.528700
308.000000	3.526900
307.000000	3.530300
306.000000	3.499400
305.000000	3.509500
304.000000	3.517400
303.000000	3.513100
302.000000	3.537500
301.000000	3.497600
300.000000	3.515400
299.000000	3.488300
298.000000	3.505600
297.000000	3.490800
296.000000	3.476800
295.000000	3.521000
294.000000	3.528900
293.000000	3.521000
292.000000	3.493600
291.000000	3.513500
290.000000	3.493400
289.000000	3.504100
288.000000	3.500700
287.000000	3.509800
286.000000	3.489200
285.000000	3.472200
284.000000	3.466300
283.000000	3.489400
282.000000	3.481300
281.000000	3.460200
280.000000	3.485900
279.000000	3.495500
278.000000	3.487200
277.000000	3.443300
276.000000	3.501500
275.000000	3.518600
274.000000	3.470200
273.000000	3.504600
272.000000	3.491600
271.000000	3.510600
270.000000	3.518900
269.000000	3.498100
268.000000	3.520600
267.000000	3.526700
266.000000	3.548700
265.000000	3.519600
264.000000	3.538600
263.000000	3.527000
262.000000	3.559300
261.000000	3.582700
260.000000	3.573700
259.000000	3.568900
258.000000	3.593900
257.000000	3.612600
256.000000	3.614400
255.000000	3.625900
254.000000	3.640100
253.000000	3.640500
252.000000	3.619500
251.000000	3.647800
250.000000	3.651100
