PE UV       SUBTECH     SPECTRUM    ASCII       PEDS        4.00        
   -1
CICIMAUCR0001-3.Sample.ASC
24/04/04
15:45:00.00
24/04/04
15:45:00.00
Vinicio Soto Monge
C. kalinini
250,000000
1
Lambda 1050
1050L1511233
PerkinElmer UV WinLab 6.3.2.0749 / 2.02.05 Lambda 900 UV/VIS/NIR, Aug  7 2015 09:38:08

0
0
3350/servo 860,8/2
0
0
UV/VIS
1
1
1
DoubleDePol,CommonBeamDepol,RBeamAtt,SBeamAtt,60mm sphere, WB InGaAs Detector
0
0
0
0
Program
Program
3350/servo 860,8/2
3350/0,2 860,8/0,2
3350/0,2 860,8/0,2
0
15.00
 
 
 
0
 
860,8
319,2
860,8
Front
100
on
S:100 R:100
0
0
0
0
 
0
 
 
 
0
 
 
0
0
0
0
0
 
 
 
 
0
0


0
0
#HDR
-1
-1
#GR
nm
%R
1.0
0.0
2500,000000
-1,000000
2251
8
73,921900
4,917300
#DATA
250.000000	2250.000000	4.749433
251.000000	2249.000000	4.757000
252.000000	2248.000000	4.745167
253.000000	2247.000000	4.716467
254.000000	2246.000000	4.745367
255.000000	2245.000000	4.728367
256.000000	2244.000000	4.715733
257.000000	2243.000000	4.704733
258.000000	2242.000000	4.679467
259.000000	2241.000000	4.688900
260.000000	2240.000000	4.675833
261.000000	2239.000000	4.657533
262.000000	2238.000000	4.624933
263.000000	2237.000000	4.631867
264.000000	2236.000000	4.577233
265.000000	2235.000000	4.596900
266.000000	2234.000000	4.560500
267.000000	2233.000000	4.520867
268.000000	2232.000000	4.524200
269.000000	2231.000000	4.515100
270.000000	2230.000000	4.502033
271.000000	2229.000000	4.481000
272.000000	2228.000000	4.457500
273.000000	2227.000000	4.461300
274.000000	2226.000000	4.458167
275.000000	2225.000000	4.423300
276.000000	2224.000000	4.446500
277.000000	2223.000000	4.400433
278.000000	2222.000000	4.401967
279.000000	2221.000000	4.412267
280.000000	2220.000000	4.406200
281.000000	2219.000000	4.390633
282.000000	2218.000000	4.366300
283.000000	2217.000000	4.394600
284.000000	2216.000000	4.401667
285.000000	2215.000000	4.374800
286.000000	2214.000000	4.395267
287.000000	2213.000000	4.370200
288.000000	2212.000000	4.388300
289.000000	2211.000000	4.386500
290.000000	2210.000000	4.376967
291.000000	2209.000000	4.377567
292.000000	2208.000000	4.413800
293.000000	2207.000000	4.403867
294.000000	2206.000000	4.410067
295.000000	2205.000000	4.368467
296.000000	2204.000000	4.387067
297.000000	2203.000000	4.370167
298.000000	2202.000000	4.385167
299.000000	2201.000000	4.361300
300.000000	2200.000000	4.377300
301.000000	2199.000000	4.384500
302.000000	2198.000000	4.378100
303.000000	2197.000000	4.380733
304.000000	2196.000000	4.382933
305.000000	2195.000000	4.321667
306.000000	2194.000000	4.354500
307.000000	2193.000000	4.356800
308.000000	2192.000000	4.394267
309.000000	2191.000000	4.371600
310.000000	2190.000000	4.340200
311.000000	2189.000000	4.358867
312.000000	2188.000000	4.386733
313.000000	2187.000000	4.370067
314.000000	2186.000000	4.353033
315.000000	2185.000000	4.361133
316.000000	2184.000000	4.388967
317.000000	2183.000000	4.743700
318.000000	2182.000000	4.736767
319.000000	2181.000000	4.799800
320.000000	2180.000000	4.783167
321.000000	2179.000000	4.712333
322.000000	2178.000000	4.742867
323.000000	2177.000000	4.691400
324.000000	2176.000000	4.641167
325.000000	2175.000000	4.602767
326.000000	2174.000000	4.688500
327.000000	2173.000000	4.620967
328.000000	2172.000000	4.645700
329.000000	2171.000000	4.571800
330.000000	2170.000000	4.599767
331.000000	2169.000000	4.495100
332.000000	2168.000000	4.557700
333.000000	2167.000000	4.615133
334.000000	2166.000000	4.588633
335.000000	2165.000000	4.552200
336.000000	2164.000000	4.542667
337.000000	2163.000000	4.627633
338.000000	2162.000000	4.538767
339.000000	2161.000000	4.582900
340.000000	2160.000000	4.584367
341.000000	2159.000000	4.574067
342.000000	2158.000000	4.552133
343.000000	2157.000000	4.538300
344.000000	2156.000000	4.565967
345.000000	2155.000000	4.638400
346.000000	2154.000000	4.583300
347.000000	2153.000000	4.556633
348.000000	2152.000000	4.558933
349.000000	2151.000000	4.602933
350.000000	2150.000000	4.612267
351.000000	2149.000000	4.634967
352.000000	2148.000000	4.635233
353.000000	2147.000000	4.645733
354.000000	2146.000000	4.653067
355.000000	2145.000000	4.655433
356.000000	2144.000000	4.646300
357.000000	2143.000000	4.668167
358.000000	2142.000000	4.704433
359.000000	2141.000000	4.713167
360.000000	2140.000000	4.694067
361.000000	2139.000000	4.704533
362.000000	2138.000000	4.723867
363.000000	2137.000000	4.732700
364.000000	2136.000000	4.708800
365.000000	2135.000000	4.701900
366.000000	2134.000000	4.690567
367.000000	2133.000000	4.764400
368.000000	2132.000000	4.726367
369.000000	2131.000000	4.715467
370.000000	2130.000000	4.772967
371.000000	2129.000000	4.770933
372.000000	2128.000000	4.732567
373.000000	2127.000000	4.673333
374.000000	2126.000000	4.654367
375.000000	2125.000000	4.727967
376.000000	2124.000000	4.843567
377.000000	2123.000000	4.765000
378.000000	2122.000000	4.791133
379.000000	2121.000000	4.796733
380.000000	2120.000000	4.821233
381.000000	2119.000000	4.831467
382.000000	2118.000000	4.846733
383.000000	2117.000000	4.872633
384.000000	2116.000000	4.894300
385.000000	2115.000000	4.912633
386.000000	2114.000000	4.928600
387.000000	2113.000000	4.953333
388.000000	2112.000000	4.971500
389.000000	2111.000000	4.987933
390.000000	2110.000000	5.002267
391.000000	2109.000000	5.022733
392.000000	2108.000000	5.043467
393.000000	2107.000000	5.059967
394.000000	2106.000000	5.076133
395.000000	2105.000000	5.092700
396.000000	2104.000000	5.107700
397.000000	2103.000000	5.119700
398.000000	2102.000000	5.135067
399.000000	2101.000000	5.151500
400.000000	2100.000000	5.163833
401.000000	2099.000000	5.187633
402.000000	2098.000000	5.210133
403.000000	2097.000000	5.225733
404.000000	2096.000000	5.249667
405.000000	2095.000000	5.272933
406.000000	2094.000000	5.302733
407.000000	2093.000000	5.332133
408.000000	2092.000000	5.362300
409.000000	2091.000000	5.398267
410.000000	2090.000000	5.437167
411.000000	2089.000000	5.475233
412.000000	2088.000000	5.522800
413.000000	2087.000000	5.572433
414.000000	2086.000000	5.623400
415.000000	2085.000000	5.688600
416.000000	2084.000000	5.757200
417.000000	2083.000000	5.823867
418.000000	2082.000000	5.896200
419.000000	2081.000000	5.977267
420.000000	2080.000000	6.066867
421.000000	2079.000000	6.165933
422.000000	2078.000000	6.272833
423.000000	2077.000000	6.388467
424.000000	2076.000000	6.514100
425.000000	2075.000000	6.645033
426.000000	2074.000000	6.790100
427.000000	2073.000000	6.945333
428.000000	2072.000000	7.115700
429.000000	2071.000000	7.301500
430.000000	2070.000000	7.498467
431.000000	2069.000000	7.709033
432.000000	2068.000000	7.930000
433.000000	2067.000000	8.159300
434.000000	2066.000000	8.407800
435.000000	2065.000000	8.668767
436.000000	2064.000000	8.935433
437.000000	2063.000000	9.204267
438.000000	2062.000000	9.484700
439.000000	2061.000000	9.784533
440.000000	2060.000000	10.091967
441.000000	2059.000000	10.399133
442.000000	2058.000000	10.715200
443.000000	2057.000000	11.040567
444.000000	2056.000000	11.369100
445.000000	2055.000000	11.690767
446.000000	2054.000000	12.009667
447.000000	2053.000000	12.333667
448.000000	2052.000000	12.654733
449.000000	2051.000000	12.965400
450.000000	2050.000000	13.281500
451.000000	2049.000000	13.598000
452.000000	2048.000000	13.898733
453.000000	2047.000000	14.191800
454.000000	2046.000000	14.482933
455.000000	2045.000000	14.764633
456.000000	2044.000000	15.043600
457.000000	2043.000000	15.314333
458.000000	2042.000000	15.566867
459.000000	2041.000000	15.818633
460.000000	2040.000000	16.067367
461.000000	2039.000000	16.305800
462.000000	2038.000000	16.536900
463.000000	2037.000000	16.761967
464.000000	2036.000000	16.976800
465.000000	2035.000000	17.181300
466.000000	2034.000000	17.381267
467.000000	2033.000000	17.580100
468.000000	2032.000000	17.769333
469.000000	2031.000000	17.951300
470.000000	2030.000000	18.122467
471.000000	2029.000000	18.295667
472.000000	2028.000000	18.464900
473.000000	2027.000000	18.627733
474.000000	2026.000000	18.787267
475.000000	2025.000000	18.941367
476.000000	2024.000000	19.092000
477.000000	2023.000000	19.237100
478.000000	2022.000000	19.380233
479.000000	2021.000000	19.517800
480.000000	2020.000000	19.662333
481.000000	2019.000000	19.786233
482.000000	2018.000000	19.908033
483.000000	2017.000000	20.026833
484.000000	2016.000000	20.134767
485.000000	2015.000000	20.231267
486.000000	2014.000000	20.322400
487.000000	2013.000000	20.427500
488.000000	2012.000000	20.532000
489.000000	2011.000000	20.636400
490.000000	2010.000000	20.734967
491.000000	2009.000000	20.839733
492.000000	2008.000000	20.950500
493.000000	2007.000000	21.047400
494.000000	2006.000000	21.147767
495.000000	2005.000000	21.262600
496.000000	2004.000000	21.373033
497.000000	2003.000000	21.491500
498.000000	2002.000000	21.600700
499.000000	2001.000000	21.724800
500.000000	2000.000000	21.873033
501.000000	1999.000000	22.013600
502.000000	1998.000000	22.173967
503.000000	1997.000000	22.340667
504.000000	1996.000000	22.524500
505.000000	1995.000000	22.713100
506.000000	1994.000000	22.918733
507.000000	1993.000000	23.128933
508.000000	1992.000000	23.374300
509.000000	1991.000000	23.635333
510.000000	1990.000000	23.914000
511.000000	1989.000000	24.206633
512.000000	1988.000000	24.533600
513.000000	1987.000000	24.875467
514.000000	1986.000000	25.234067
515.000000	1985.000000	25.617033
516.000000	1984.000000	26.040600
517.000000	1983.000000	26.465867
518.000000	1982.000000	26.920100
519.000000	1981.000000	27.403400
520.000000	1980.000000	27.917533
521.000000	1979.000000	28.460300
522.000000	1978.000000	29.026367
523.000000	1977.000000	29.642567
524.000000	1976.000000	30.288000
525.000000	1975.000000	30.947933
526.000000	1974.000000	31.617433
527.000000	1973.000000	32.320333
528.000000	1972.000000	33.028400
529.000000	1971.000000	33.755067
530.000000	1970.000000	34.488600
531.000000	1969.000000	35.231333
532.000000	1968.000000	35.941833
533.000000	1967.000000	36.652467
534.000000	1966.000000	37.332500
535.000000	1965.000000	38.012733
536.000000	1964.000000	38.640233
537.000000	1963.000000	39.256433
538.000000	1962.000000	39.833933
539.000000	1961.000000	40.387300
540.000000	1960.000000	40.923800
541.000000	1959.000000	41.433233
542.000000	1958.000000	41.903733
543.000000	1957.000000	42.353133
544.000000	1956.000000	42.784933
545.000000	1955.000000	43.188867
546.000000	1954.000000	43.584767
547.000000	1953.000000	43.957233
548.000000	1952.000000	44.308233
549.000000	1951.000000	44.644933
550.000000	1950.000000	44.969300
551.000000	1949.000000	45.265667
552.000000	1948.000000	45.551833
553.000000	1947.000000	45.834433
554.000000	1946.000000	46.072433
555.000000	1945.000000	46.330767
556.000000	1944.000000	46.570533
557.000000	1943.000000	46.779200
558.000000	1942.000000	46.981333
559.000000	1941.000000	47.137933
560.000000	1940.000000	47.163000
561.000000	1939.000000	47.299533
562.000000	1938.000000	47.449067
563.000000	1937.000000	47.600533
564.000000	1936.000000	47.707433
565.000000	1935.000000	47.838200
566.000000	1934.000000	47.951933
567.000000	1933.000000	48.059100
568.000000	1932.000000	48.152533
569.000000	1931.000000	48.242500
570.000000	1930.000000	48.318667
571.000000	1929.000000	48.373300
572.000000	1928.000000	48.422933
573.000000	1927.000000	48.486167
574.000000	1926.000000	48.509133
575.000000	1925.000000	48.567833
576.000000	1924.000000	48.585200
577.000000	1923.000000	48.594267
578.000000	1922.000000	48.617033
579.000000	1921.000000	48.595100
580.000000	1920.000000	48.562533
581.000000	1919.000000	48.522067
582.000000	1918.000000	48.457833
583.000000	1917.000000	48.341400
584.000000	1916.000000	48.266867
585.000000	1915.000000	48.122533
586.000000	1914.000000	47.987000
587.000000	1913.000000	47.833733
588.000000	1912.000000	47.653233
589.000000	1911.000000	47.475100
590.000000	1910.000000	47.251167
591.000000	1909.000000	47.014867
592.000000	1908.000000	46.745233
593.000000	1907.000000	46.445767
594.000000	1906.000000	46.121433
595.000000	1905.000000	45.783800
596.000000	1904.000000	45.408000
597.000000	1903.000000	45.044400
598.000000	1902.000000	44.661000
599.000000	1901.000000	44.229633
600.000000	1900.000000	43.770400
601.000000	1899.000000	43.304300
602.000000	1898.000000	42.816633
603.000000	1897.000000	42.318400
604.000000	1896.000000	41.840567
605.000000	1895.000000	41.311067
606.000000	1894.000000	40.791400
607.000000	1893.000000	40.302700
608.000000	1892.000000	39.792200
609.000000	1891.000000	39.299200
610.000000	1890.000000	38.796000
611.000000	1889.000000	38.298700
612.000000	1888.000000	37.855567
613.000000	1887.000000	37.413033
614.000000	1886.000000	36.985467
615.000000	1885.000000	36.584633
616.000000	1884.000000	36.219200
617.000000	1883.000000	35.867567
618.000000	1882.000000	35.532600
619.000000	1881.000000	35.267967
620.000000	1880.000000	35.029400
621.000000	1879.000000	34.812667
622.000000	1878.000000	34.641500
623.000000	1877.000000	34.517233
624.000000	1876.000000	34.460933
625.000000	1875.000000	34.463767
626.000000	1874.000000	34.501333
627.000000	1873.000000	34.615267
628.000000	1872.000000	34.754967
629.000000	1871.000000	34.947100
630.000000	1870.000000	35.159700
631.000000	1869.000000	35.426533
632.000000	1868.000000	35.705933
633.000000	1867.000000	36.021133
634.000000	1866.000000	36.308600
635.000000	1865.000000	36.613567
636.000000	1864.000000	36.898767
637.000000	1863.000000	37.192033
638.000000	1862.000000	37.429733
639.000000	1861.000000	37.641367
640.000000	1860.000000	37.841667
641.000000	1859.000000	37.985667
642.000000	1858.000000	38.094633
643.000000	1857.000000	38.161367
644.000000	1856.000000	38.217633
645.000000	1855.000000	38.217833
646.000000	1854.000000	38.205500
647.000000	1853.000000	38.168233
648.000000	1852.000000	38.106167
649.000000	1851.000000	38.071467
650.000000	1850.000000	38.019600
651.000000	1849.000000	37.967500
652.000000	1848.000000	37.933467
653.000000	1847.000000	37.941000
654.000000	1846.000000	37.945433
655.000000	1845.000000	37.962867
656.000000	1844.000000	38.033967
657.000000	1843.000000	38.117400
658.000000	1842.000000	38.233100
659.000000	1841.000000	38.377867
660.000000	1840.000000	38.568767
661.000000	1839.000000	38.761700
662.000000	1838.000000	38.972833
663.000000	1837.000000	39.219733
664.000000	1836.000000	39.470467
665.000000	1835.000000	39.751267
666.000000	1834.000000	40.025467
667.000000	1833.000000	40.328133
668.000000	1832.000000	40.638400
669.000000	1831.000000	40.944100
670.000000	1830.000000	41.251200
671.000000	1829.000000	41.580367
672.000000	1828.000000	41.917433
673.000000	1827.000000	42.251667
674.000000	1826.000000	42.597100
675.000000	1825.000000	42.926600
676.000000	1824.000000	43.250500
677.000000	1823.000000	43.590300
678.000000	1822.000000	43.922333
679.000000	1821.000000	44.273200
680.000000	1820.000000	44.612033
681.000000	1819.000000	44.926300
682.000000	1818.000000	45.253533
683.000000	1817.000000	45.594400
684.000000	1816.000000	45.892267
685.000000	1815.000000	46.187900
686.000000	1814.000000	46.480067
687.000000	1813.000000	46.804100
688.000000	1812.000000	47.105800
689.000000	1811.000000	47.394067
690.000000	1810.000000	47.685133
691.000000	1809.000000	47.948967
692.000000	1808.000000	48.242233
693.000000	1807.000000	48.541967
694.000000	1806.000000	48.778800
695.000000	1805.000000	49.014367
696.000000	1804.000000	49.259900
697.000000	1803.000000	49.515967
698.000000	1802.000000	49.764567
699.000000	1801.000000	49.989867
700.000000	1800.000000	50.238867
701.000000	1799.000000	50.496067
702.000000	1798.000000	50.762967
703.000000	1797.000000	51.059400
704.000000	1796.000000	51.316600
705.000000	1795.000000	51.575167
706.000000	1794.000000	51.879933
707.000000	1793.000000	52.174733
708.000000	1792.000000	52.467667
709.000000	1791.000000	52.732833
710.000000	1790.000000	53.024267
711.000000	1789.000000	53.319367
712.000000	1788.000000	53.593800
713.000000	1787.000000	53.898700
714.000000	1786.000000	54.203167
715.000000	1785.000000	54.493667
716.000000	1784.000000	54.800000
717.000000	1783.000000	55.088733
718.000000	1782.000000	55.342400
719.000000	1781.000000	55.624133
720.000000	1780.000000	55.926500
721.000000	1779.000000	56.224300
722.000000	1778.000000	56.517833
723.000000	1777.000000	56.771333
724.000000	1776.000000	57.011800
725.000000	1775.000000	57.264300
726.000000	1774.000000	57.536567
727.000000	1773.000000	57.766700
728.000000	1772.000000	58.007600
729.000000	1771.000000	58.241100
730.000000	1770.000000	58.434600
731.000000	1769.000000	58.599833
732.000000	1768.000000	58.791067
733.000000	1767.000000	59.003567
734.000000	1766.000000	59.213100
735.000000	1765.000000	59.400833
736.000000	1764.000000	59.571200
737.000000	1763.000000	59.740300
738.000000	1762.000000	59.857967
739.000000	1761.000000	60.010167
740.000000	1760.000000	60.191500
741.000000	1759.000000	60.357367
742.000000	1758.000000	60.475800
743.000000	1757.000000	60.572933
744.000000	1756.000000	60.759567
745.000000	1755.000000	60.924567
746.000000	1754.000000	61.018867
747.000000	1753.000000	61.107233
748.000000	1752.000000	61.221533
749.000000	1751.000000	61.373400
750.000000	1750.000000	61.537167
751.000000	1749.000000	61.651867
752.000000	1748.000000	61.754100
753.000000	1747.000000	61.867200
754.000000	1746.000000	62.007300
755.000000	1745.000000	62.112567
756.000000	1744.000000	62.173633
757.000000	1743.000000	62.279400
758.000000	1742.000000	62.402900
759.000000	1741.000000	62.497600
760.000000	1740.000000	62.573367
761.000000	1739.000000	62.626533
762.000000	1738.000000	62.693867
763.000000	1737.000000	62.809200
764.000000	1736.000000	62.853200
765.000000	1735.000000	62.819233
766.000000	1734.000000	62.871967
767.000000	1733.000000	62.912733
768.000000	1732.000000	62.897700
769.000000	1731.000000	62.903800
770.000000	1730.000000	62.933333
771.000000	1729.000000	62.962833
772.000000	1728.000000	62.974567
773.000000	1727.000000	62.959333
774.000000	1726.000000	63.001367
775.000000	1725.000000	62.996033
776.000000	1724.000000	62.940433
777.000000	1723.000000	63.006667
778.000000	1722.000000	63.008633
779.000000	1721.000000	62.988733
780.000000	1720.000000	62.985800
781.000000	1719.000000	62.943033
782.000000	1718.000000	62.944767
783.000000	1717.000000	62.964467
784.000000	1716.000000	62.948033
785.000000	1715.000000	62.958233
786.000000	1714.000000	62.945533
787.000000	1713.000000	62.855433
788.000000	1712.000000	62.848833
789.000000	1711.000000	62.822833
790.000000	1710.000000	62.803500
791.000000	1709.000000	62.778633
792.000000	1708.000000	62.675367
793.000000	1707.000000	62.598800
794.000000	1706.000000	62.506667
795.000000	1705.000000	62.407367
796.000000	1704.000000	62.297600
797.000000	1703.000000	62.166600
798.000000	1702.000000	62.091433
799.000000	1701.000000	61.972067
800.000000	1700.000000	61.849967
801.000000	1699.000000	61.690467
802.000000	1698.000000	61.506633
803.000000	1697.000000	61.322500
804.000000	1696.000000	61.216300
805.000000	1695.000000	61.094200
806.000000	1694.000000	60.918967
807.000000	1693.000000	60.690100
808.000000	1692.000000	60.460067
809.000000	1691.000000	60.282233
810.000000	1690.000000	60.081033
811.000000	1689.000000	59.878700
812.000000	1688.000000	59.571733
813.000000	1687.000000	59.390133
814.000000	1686.000000	59.213767
815.000000	1685.000000	58.921967
816.000000	1684.000000	58.681367
817.000000	1683.000000	58.387700
818.000000	1682.000000	58.147500
819.000000	1681.000000	57.879900
820.000000	1680.000000	57.621833
821.000000	1679.000000	57.253367
822.000000	1678.000000	56.982967
823.000000	1677.000000	56.645933
824.000000	1676.000000	56.366733
825.000000	1675.000000	56.115167
826.000000	1674.000000	55.819933
827.000000	1673.000000	55.545300
828.000000	1672.000000	55.237633
829.000000	1671.000000	54.901133
830.000000	1670.000000	54.600200
831.000000	1669.000000	54.401933
832.000000	1668.000000	54.030600
833.000000	1667.000000	53.759567
834.000000	1666.000000	53.500200
835.000000	1665.000000	53.213167
836.000000	1664.000000	52.879167
837.000000	1663.000000	52.753700
838.000000	1662.000000	52.507200
839.000000	1661.000000	52.189133
840.000000	1660.000000	51.985933
841.000000	1659.000000	51.748467
842.000000	1658.000000	51.473967
843.000000	1657.000000	51.246333
844.000000	1656.000000	51.086433
845.000000	1655.000000	50.877200
846.000000	1654.000000	50.663867
847.000000	1653.000000	50.646500
848.000000	1652.000000	50.626700
849.000000	1651.000000	50.205800
850.000000	1650.000000	50.168167
851.000000	1649.000000	49.875900
852.000000	1648.000000	49.995533
853.000000	1647.000000	49.922033
854.000000	1646.000000	49.633600
855.000000	1645.000000	49.394633
856.000000	1644.000000	49.311333
857.000000	1643.000000	49.722167
858.000000	1642.000000	49.476044
859.000000	1641.000000	49.306341
860.000000	1640.000000	49.308417
861.000000	1639.000000	49.320467
862.000000	1638.000000	49.366717
863.000000	1637.000000	49.420523
864.000000	1636.000000	49.448120
865.000000	1635.000000	49.478545
866.000000	1634.000000	49.501985
867.000000	1633.000000	49.543967
868.000000	1632.000000	49.543291
869.000000	1631.000000	49.548046
870.000000	1630.000000	49.537467
871.000000	1629.000000	49.544466
872.000000	1628.000000	49.557278
873.000000	1627.000000	49.566603
874.000000	1626.000000	49.562750
875.000000	1625.000000	49.581723
876.000000	1624.000000	49.596156
877.000000	1623.000000	49.595610
878.000000	1622.000000	49.588409
879.000000	1621.000000	49.609929
880.000000	1620.000000	49.593411
881.000000	1619.000000	49.575046
882.000000	1618.000000	49.561313
883.000000	1617.000000	49.531880
884.000000	1616.000000	49.523502
885.000000	1615.000000	49.497712
886.000000	1614.000000	49.491680
887.000000	1613.000000	49.460085
888.000000	1612.000000	49.426308
889.000000	1611.000000	49.381148
890.000000	1610.000000	49.347220
891.000000	1609.000000	49.296844
892.000000	1608.000000	49.272656
893.000000	1607.000000	49.240166
894.000000	1606.000000	49.194685
895.000000	1605.000000	49.164262
896.000000	1604.000000	49.118509
897.000000	1603.000000	49.082881
898.000000	1602.000000	49.042053
899.000000	1601.000000	49.000228
900.000000	1600.000000	48.979515
901.000000	1599.000000	48.933465
902.000000	1598.000000	48.910595
903.000000	1597.000000	48.879402
904.000000	1596.000000	48.855411
905.000000	1595.000000	48.816317
906.000000	1594.000000	48.801435
907.000000	1593.000000	48.777076
908.000000	1592.000000	48.738960
909.000000	1591.000000	48.727743
910.000000	1590.000000	48.702245
911.000000	1589.000000	48.679884
912.000000	1588.000000	48.661467
913.000000	1587.000000	48.657352
914.000000	1586.000000	48.628593
915.000000	1585.000000	48.603244
916.000000	1584.000000	48.585469
917.000000	1583.000000	48.568851
918.000000	1582.000000	48.567537
919.000000	1581.000000	48.519251
920.000000	1580.000000	48.508538
921.000000	1579.000000	48.478148
922.000000	1578.000000	48.472298
923.000000	1577.000000	48.456014
924.000000	1576.000000	48.447329
925.000000	1575.000000	48.430575
926.000000	1574.000000	48.414613
927.000000	1573.000000	48.398195
928.000000	1572.000000	48.387331
929.000000	1571.000000	48.400791
930.000000	1570.000000	48.393286
931.000000	1569.000000	48.385599
932.000000	1568.000000	48.388353
933.000000	1567.000000	48.388057
934.000000	1566.000000	48.386891
935.000000	1565.000000	48.390950
936.000000	1564.000000	48.402872
937.000000	1563.000000	48.392398
938.000000	1562.000000	48.395196
939.000000	1561.000000	48.383918
940.000000	1560.000000	48.391175
941.000000	1559.000000	48.400397
942.000000	1558.000000	48.405172
943.000000	1557.000000	48.398561
944.000000	1556.000000	48.397234
945.000000	1555.000000	48.420130
946.000000	1554.000000	48.427263
947.000000	1553.000000	48.437749
948.000000	1552.000000	48.453533
949.000000	1551.000000	48.465436
950.000000	1550.000000	48.495031
951.000000	1549.000000	48.496804
952.000000	1548.000000	48.494447
953.000000	1547.000000	48.500718
954.000000	1546.000000	48.502366
955.000000	1545.000000	48.513618
956.000000	1544.000000	48.503689
957.000000	1543.000000	48.510268
958.000000	1542.000000	48.507458
959.000000	1541.000000	48.508603
960.000000	1540.000000	48.501801
961.000000	1539.000000	48.507115
962.000000	1538.000000	48.510752
963.000000	1537.000000	48.501118
964.000000	1536.000000	48.502274
965.000000	1535.000000	48.504644
966.000000	1534.000000	48.512966
967.000000	1533.000000	48.506543
968.000000	1532.000000	48.502415
969.000000	1531.000000	48.512571
970.000000	1530.000000	48.521804
971.000000	1529.000000	48.516220
972.000000	1528.000000	48.519950
973.000000	1527.000000	48.526806
974.000000	1526.000000	48.535118
975.000000	1525.000000	48.525155
976.000000	1524.000000	48.519603
977.000000	1523.000000	48.525228
978.000000	1522.000000	48.533546
979.000000	1521.000000	48.534413
980.000000	1520.000000	48.532441
981.000000	1519.000000	48.546443
982.000000	1518.000000	48.551039
983.000000	1517.000000	48.544027
984.000000	1516.000000	48.557579
985.000000	1515.000000	48.565508
986.000000	1514.000000	48.572989
987.000000	1513.000000	48.565667
988.000000	1512.000000	48.572660
989.000000	1511.000000	48.593009
990.000000	1510.000000	48.598097
991.000000	1509.000000	48.611108
992.000000	1508.000000	48.622859
993.000000	1507.000000	48.629901
994.000000	1506.000000	48.644828
995.000000	1505.000000	48.659837
996.000000	1504.000000	48.674546
997.000000	1503.000000	48.680418
998.000000	1502.000000	48.682078
999.000000	1501.000000	48.692979
1000.000000	1500.000000	48.707150
1001.000000	1499.000000	48.720824
1002.000000	1498.000000	48.732925
1003.000000	1497.000000	48.744033
1004.000000	1496.000000	48.751270
1005.000000	1495.000000	48.753042
1006.000000	1494.000000	48.757821
1007.000000	1493.000000	48.762719
1008.000000	1492.000000	48.762185
1009.000000	1491.000000	48.767352
1010.000000	1490.000000	48.779261
1011.000000	1489.000000	48.794027
1012.000000	1488.000000	48.799568
1013.000000	1487.000000	48.800504
1014.000000	1486.000000	48.801284
1015.000000	1485.000000	48.813279
1016.000000	1484.000000	48.839554
1017.000000	1483.000000	48.846918
1018.000000	1482.000000	48.853008
1019.000000	1481.000000	48.859631
1020.000000	1480.000000	48.864597
1021.000000	1479.000000	48.882596
1022.000000	1478.000000	48.900908
1023.000000	1477.000000	48.911346
1024.000000	1476.000000	48.920889
1025.000000	1475.000000	48.933729
1026.000000	1474.000000	48.946990
1027.000000	1473.000000	48.960720
1028.000000	1472.000000	48.979725
1029.000000	1471.000000	49.001764
1030.000000	1470.000000	49.016113
1031.000000	1469.000000	49.025648
1032.000000	1468.000000	49.041047
1033.000000	1467.000000	49.062006
1034.000000	1466.000000	49.079497
1035.000000	1465.000000	49.097721
1036.000000	1464.000000	49.114408
1037.000000	1463.000000	49.132453
1038.000000	1462.000000	49.150644
1039.000000	1461.000000	49.165213
1040.000000	1460.000000	49.181142
1041.000000	1459.000000	49.201432
1042.000000	1458.000000	49.221489
1043.000000	1457.000000	49.243545
1044.000000	1456.000000	49.262093
1045.000000	1455.000000	49.267930
1046.000000	1454.000000	49.286155
1047.000000	1453.000000	49.313583
1048.000000	1452.000000	49.327579
1049.000000	1451.000000	49.342822
1050.000000	1450.000000	49.369824
1051.000000	1449.000000	49.395918
1052.000000	1448.000000	49.415837
1053.000000	1447.000000	49.436983
1054.000000	1446.000000	49.465287
1055.000000	1445.000000	49.494216
1056.000000	1444.000000	49.523447
1057.000000	1443.000000	49.545904
1058.000000	1442.000000	49.571733
1059.000000	1441.000000	49.597353
1060.000000	1440.000000	49.616963
1061.000000	1439.000000	49.637520
1062.000000	1438.000000	49.654497
1063.000000	1437.000000	49.679123
1064.000000	1436.000000	49.707143
1065.000000	1435.000000	49.733747
1066.000000	1434.000000	49.762408
1067.000000	1433.000000	49.785074
1068.000000	1432.000000	49.805745
1069.000000	1431.000000	49.834433
1070.000000	1430.000000	49.861639
1071.000000	1429.000000	49.877563
1072.000000	1428.000000	49.903273
1073.000000	1427.000000	49.924517
1074.000000	1426.000000	49.944417
1075.000000	1425.000000	49.961102
1076.000000	1424.000000	49.977305
1077.000000	1423.000000	49.993468
1078.000000	1422.000000	50.010784
1079.000000	1421.000000	50.036404
1080.000000	1420.000000	50.058048
1081.000000	1419.000000	50.077410
1082.000000	1418.000000	50.085340
1083.000000	1417.000000	50.110542
1084.000000	1416.000000	50.124362
1085.000000	1415.000000	50.142119
1086.000000	1414.000000	50.170559
1087.000000	1413.000000	50.198255
1088.000000	1412.000000	50.211777
1089.000000	1411.000000	50.235254
1090.000000	1410.000000	50.251195
1091.000000	1409.000000	50.270134
1092.000000	1408.000000	50.296157
1093.000000	1407.000000	50.318259
1094.000000	1406.000000	50.323603
1095.000000	1405.000000	50.336545
1096.000000	1404.000000	50.371342
1097.000000	1403.000000	50.382859
1098.000000	1402.000000	50.390121
1099.000000	1401.000000	50.415170
1100.000000	1400.000000	50.437513
1101.000000	1399.000000	50.449100
1102.000000	1398.000000	50.468763
1103.000000	1397.000000	50.480134
1104.000000	1396.000000	50.493076
1105.000000	1395.000000	50.506232
1106.000000	1394.000000	50.520312
1107.000000	1393.000000	50.538953
1108.000000	1392.000000	50.547602
1109.000000	1391.000000	50.553840
1110.000000	1390.000000	50.567370
1111.000000	1389.000000	50.578152
1112.000000	1388.000000	50.593967
1113.000000	1387.000000	50.597351
1114.000000	1386.000000	50.602713
1115.000000	1385.000000	50.607569
1116.000000	1384.000000	50.604117
1117.000000	1383.000000	50.621704
1118.000000	1382.000000	50.631883
1119.000000	1381.000000	50.625169
1120.000000	1380.000000	50.625276
1121.000000	1379.000000	50.626667
1122.000000	1378.000000	50.634977
1123.000000	1377.000000	50.618744
1124.000000	1376.000000	50.603390
1125.000000	1375.000000	50.585010
1126.000000	1374.000000	50.532902
1127.000000	1373.000000	50.512390
1128.000000	1372.000000	50.461021
1129.000000	1371.000000	50.408300
1130.000000	1370.000000	50.353193
1131.000000	1369.000000	50.286161
1132.000000	1368.000000	50.213887
1133.000000	1367.000000	50.151371
1134.000000	1366.000000	50.108248
1135.000000	1365.000000	50.038096
1136.000000	1364.000000	49.944362
1137.000000	1363.000000	49.818355
1138.000000	1362.000000	49.716556
1139.000000	1361.000000	49.634206
1140.000000	1360.000000	49.551331
1141.000000	1359.000000	49.482004
1142.000000	1358.000000	49.403382
1143.000000	1357.000000	49.329332
1144.000000	1356.000000	49.270563
1145.000000	1355.000000	49.228034
1146.000000	1354.000000	49.169766
1147.000000	1353.000000	49.111295
1148.000000	1352.000000	49.055933
1149.000000	1351.000000	48.998767
1150.000000	1350.000000	48.928380
1151.000000	1349.000000	48.866928
1152.000000	1348.000000	48.804470
1153.000000	1347.000000	48.738440
1154.000000	1346.000000	48.673168
1155.000000	1345.000000	48.583826
1156.000000	1344.000000	48.502424
1157.000000	1343.000000	48.432524
1158.000000	1342.000000	48.332232
1159.000000	1341.000000	48.227251
1160.000000	1340.000000	48.134393
1161.000000	1339.000000	48.027481
1162.000000	1338.000000	47.919640
1163.000000	1337.000000	47.817390
1164.000000	1336.000000	47.696009
1165.000000	1335.000000	47.603918
1166.000000	1334.000000	47.502465
1167.000000	1333.000000	47.398419
1168.000000	1332.000000	47.302504
1169.000000	1331.000000	47.212296
1170.000000	1330.000000	47.129993
1171.000000	1329.000000	47.042927
1172.000000	1328.000000	46.968502
1173.000000	1327.000000	46.912479
1174.000000	1326.000000	46.845242
1175.000000	1325.000000	46.783473
1176.000000	1324.000000	46.717750
1177.000000	1323.000000	46.674986
1178.000000	1322.000000	46.621358
1179.000000	1321.000000	46.551758
1180.000000	1320.000000	46.507183
1181.000000	1319.000000	46.459518
1182.000000	1318.000000	46.413546
1183.000000	1317.000000	46.379436
1184.000000	1316.000000	46.364695
1185.000000	1315.000000	46.353490
1186.000000	1314.000000	46.350434
1187.000000	1313.000000	46.346781
1188.000000	1312.000000	46.341325
1189.000000	1311.000000	46.378962
1190.000000	1310.000000	46.411897
1191.000000	1309.000000	46.454858
1192.000000	1308.000000	46.504568
1193.000000	1307.000000	46.561721
1194.000000	1306.000000	46.610741
1195.000000	1305.000000	46.670452
1196.000000	1304.000000	46.724784
1197.000000	1303.000000	46.782449
1198.000000	1302.000000	46.841967
1199.000000	1301.000000	46.889657
1200.000000	1300.000000	46.946253
1201.000000	1299.000000	46.996030
1202.000000	1298.000000	47.052496
1203.000000	1297.000000	47.107340
1204.000000	1296.000000	47.163596
1205.000000	1295.000000	47.213417
1206.000000	1294.000000	47.267109
1207.000000	1293.000000	47.325413
1208.000000	1292.000000	47.385144
1209.000000	1291.000000	47.432278
1210.000000	1290.000000	47.481966
1211.000000	1289.000000	47.530268
1212.000000	1288.000000	47.585139
1213.000000	1287.000000	47.629386
1214.000000	1286.000000	47.674219
1215.000000	1285.000000	47.713437
1216.000000	1284.000000	47.751816
1217.000000	1283.000000	47.778593
1218.000000	1282.000000	47.808775
1219.000000	1281.000000	47.844593
1220.000000	1280.000000	47.873113
1221.000000	1279.000000	47.903329
1222.000000	1278.000000	47.928989
1223.000000	1277.000000	47.955975
1224.000000	1276.000000	47.984638
1225.000000	1275.000000	48.002749
1226.000000	1274.000000	48.032623
1227.000000	1273.000000	48.056964
1228.000000	1272.000000	48.072389
1229.000000	1271.000000	48.088182
1230.000000	1270.000000	48.108642
1231.000000	1269.000000	48.122467
1232.000000	1268.000000	48.141612
1233.000000	1267.000000	48.149764
1234.000000	1266.000000	48.150977
1235.000000	1265.000000	48.160503
1236.000000	1264.000000	48.165911
1237.000000	1263.000000	48.163854
1238.000000	1262.000000	48.172877
1239.000000	1261.000000	48.195930
1240.000000	1260.000000	48.205889
1241.000000	1259.000000	48.214939
1242.000000	1258.000000	48.238230
1243.000000	1257.000000	48.257347
1244.000000	1256.000000	48.284639
1245.000000	1255.000000	48.331470
1246.000000	1254.000000	48.356484
1247.000000	1253.000000	48.390238
1248.000000	1252.000000	48.432177
1249.000000	1251.000000	48.465900
1250.000000	1250.000000	48.491020
1251.000000	1249.000000	48.531302
1252.000000	1248.000000	48.561686
1253.000000	1247.000000	48.595447
1254.000000	1246.000000	48.621224
1255.000000	1245.000000	48.642496
1256.000000	1244.000000	48.667008
1257.000000	1243.000000	48.694221
1258.000000	1242.000000	48.701413
1259.000000	1241.000000	48.724804
1260.000000	1240.000000	48.746057
1261.000000	1239.000000	48.751151
1262.000000	1238.000000	48.756495
1263.000000	1237.000000	48.780923
1264.000000	1236.000000	48.791073
1265.000000	1235.000000	48.801922
1266.000000	1234.000000	48.805381
1267.000000	1233.000000	48.805323
1268.000000	1232.000000	48.805336
1269.000000	1231.000000	48.809658
1270.000000	1230.000000	48.813235
1271.000000	1229.000000	48.809388
1272.000000	1228.000000	48.811469
1273.000000	1227.000000	48.818500
1274.000000	1226.000000	48.824840
1275.000000	1225.000000	48.826864
1276.000000	1224.000000	48.828748
1277.000000	1223.000000	48.833390
1278.000000	1222.000000	48.843219
1279.000000	1221.000000	48.859683
1280.000000	1220.000000	48.872900
1281.000000	1219.000000	48.893650
1282.000000	1218.000000	48.915162
1283.000000	1217.000000	48.938204
1284.000000	1216.000000	48.960323
1285.000000	1215.000000	48.979263
1286.000000	1214.000000	48.996161
1287.000000	1213.000000	49.007508
1288.000000	1212.000000	49.017189
1289.000000	1211.000000	49.027180
1290.000000	1210.000000	49.038297
1291.000000	1209.000000	49.047561
1292.000000	1208.000000	49.053887
1293.000000	1207.000000	49.062315
1294.000000	1206.000000	49.061717
1295.000000	1205.000000	49.056673
1296.000000	1204.000000	49.058036
1297.000000	1203.000000	49.057214
1298.000000	1202.000000	49.050787
1299.000000	1201.000000	49.037286
1300.000000	1200.000000	49.025696
1301.000000	1199.000000	49.013965
1302.000000	1198.000000	48.997269
1303.000000	1197.000000	48.976298
1304.000000	1196.000000	48.953421
1305.000000	1195.000000	48.934113
1306.000000	1194.000000	48.904395
1307.000000	1193.000000	48.870618
1308.000000	1192.000000	48.844703
1309.000000	1191.000000	48.822080
1310.000000	1190.000000	48.788588
1311.000000	1189.000000	48.746921
1312.000000	1188.000000	48.700376
1313.000000	1187.000000	48.645018
1314.000000	1186.000000	48.590391
1315.000000	1185.000000	48.550507
1316.000000	1184.000000	48.503273
1317.000000	1183.000000	48.443746
1318.000000	1182.000000	48.386984
1319.000000	1181.000000	48.329484
1320.000000	1180.000000	48.276150
1321.000000	1179.000000	48.218750
1322.000000	1178.000000	48.151563
1323.000000	1177.000000	48.092474
1324.000000	1176.000000	48.026078
1325.000000	1175.000000	47.958825
1326.000000	1174.000000	47.883402
1327.000000	1173.000000	47.799469
1328.000000	1172.000000	47.718851
1329.000000	1171.000000	47.634343
1330.000000	1170.000000	47.550726
1331.000000	1169.000000	47.459561
1332.000000	1168.000000	47.373557
1333.000000	1167.000000	47.275909
1334.000000	1166.000000	47.165184
1335.000000	1165.000000	47.056288
1336.000000	1164.000000	46.948624
1337.000000	1163.000000	46.835628
1338.000000	1162.000000	46.718087
1339.000000	1161.000000	46.593617
1340.000000	1160.000000	46.460757
1341.000000	1159.000000	46.325682
1342.000000	1158.000000	46.186786
1343.000000	1157.000000	46.053716
1344.000000	1156.000000	45.921028
1345.000000	1155.000000	45.758892
1346.000000	1154.000000	45.608096
1347.000000	1153.000000	45.481632
1348.000000	1152.000000	45.340204
1349.000000	1151.000000	45.181884
1350.000000	1150.000000	45.026279
1351.000000	1149.000000	44.875023
1352.000000	1148.000000	44.727199
1353.000000	1147.000000	44.594854
1354.000000	1146.000000	44.510435
1355.000000	1145.000000	44.415862
1356.000000	1144.000000	44.306392
1357.000000	1143.000000	44.209722
1358.000000	1142.000000	44.125659
1359.000000	1141.000000	44.054129
1360.000000	1140.000000	43.989738
1361.000000	1139.000000	43.946552
1362.000000	1138.000000	43.888776
1363.000000	1137.000000	43.785076
1364.000000	1136.000000	43.663270
1365.000000	1135.000000	43.535895
1366.000000	1134.000000	43.387847
1367.000000	1133.000000	43.231308
1368.000000	1132.000000	43.073478
1369.000000	1131.000000	42.861543
1370.000000	1130.000000	42.627397
1371.000000	1129.000000	42.340174
1372.000000	1128.000000	42.016319
1373.000000	1127.000000	41.617632
1374.000000	1126.000000	41.144551
1375.000000	1125.000000	40.693362
1376.000000	1124.000000	40.227542
1377.000000	1123.000000	39.739552
1378.000000	1122.000000	39.274910
1379.000000	1121.000000	38.867915
1380.000000	1120.000000	38.479514
1381.000000	1119.000000	38.197888
1382.000000	1118.000000	37.949494
1383.000000	1117.000000	37.701677
1384.000000	1116.000000	37.497449
1385.000000	1115.000000	37.272545
1386.000000	1114.000000	37.080893
1387.000000	1113.000000	36.926293
1388.000000	1112.000000	36.825949
1389.000000	1111.000000	36.676590
1390.000000	1110.000000	36.504994
1391.000000	1109.000000	36.375536
1392.000000	1108.000000	36.271438
1393.000000	1107.000000	36.137235
1394.000000	1106.000000	36.011445
1395.000000	1105.000000	35.891286
1396.000000	1104.000000	35.743436
1397.000000	1103.000000	35.521277
1398.000000	1102.000000	35.259899
1399.000000	1101.000000	35.094948
1400.000000	1100.000000	34.933413
1401.000000	1099.000000	34.776012
1402.000000	1098.000000	34.442601
1403.000000	1097.000000	34.153477
1404.000000	1096.000000	33.895296
1405.000000	1095.000000	33.666581
1406.000000	1094.000000	33.412664
1407.000000	1093.000000	33.154254
1408.000000	1092.000000	32.895057
1409.000000	1091.000000	32.649136
1410.000000	1090.000000	32.373376
1411.000000	1089.000000	32.090904
1412.000000	1088.000000	31.831682
1413.000000	1087.000000	31.599445
1414.000000	1086.000000	31.412649
1415.000000	1085.000000	31.190317
1416.000000	1084.000000	30.939760
1417.000000	1083.000000	30.733712
1418.000000	1082.000000	30.548112
1419.000000	1081.000000	30.402577
1420.000000	1080.000000	30.216671
1421.000000	1079.000000	30.012111
1422.000000	1078.000000	29.822867
1423.000000	1077.000000	29.685698
1424.000000	1076.000000	29.562052
1425.000000	1075.000000	29.396531
1426.000000	1074.000000	29.251165
1427.000000	1073.000000	29.126147
1428.000000	1072.000000	29.022579
1429.000000	1071.000000	28.888748
1430.000000	1070.000000	28.770301
1431.000000	1069.000000	28.674141
1432.000000	1068.000000	28.610506
1433.000000	1067.000000	28.509832
1434.000000	1066.000000	28.410001
1435.000000	1065.000000	28.310716
1436.000000	1064.000000	28.229851
1437.000000	1063.000000	28.154992
1438.000000	1062.000000	28.103353
1439.000000	1061.000000	28.030705
1440.000000	1060.000000	27.956577
1441.000000	1059.000000	27.894610
1442.000000	1058.000000	27.825247
1443.000000	1057.000000	27.749763
1444.000000	1056.000000	27.699493
1445.000000	1055.000000	27.643910
1446.000000	1054.000000	27.616674
1447.000000	1053.000000	27.549637
1448.000000	1052.000000	27.468376
1449.000000	1051.000000	27.419889
1450.000000	1050.000000	27.381446
1451.000000	1049.000000	27.339913
1452.000000	1048.000000	27.281985
1453.000000	1047.000000	27.196466
1454.000000	1046.000000	27.148951
1455.000000	1045.000000	27.091884
1456.000000	1044.000000	27.039745
1457.000000	1043.000000	26.994969
1458.000000	1042.000000	26.926174
1459.000000	1041.000000	26.864772
1460.000000	1040.000000	26.827176
1461.000000	1039.000000	26.768619
1462.000000	1038.000000	26.713319
1463.000000	1037.000000	26.669409
1464.000000	1036.000000	26.624101
1465.000000	1035.000000	26.595180
1466.000000	1034.000000	26.547997
1467.000000	1033.000000	26.513738
1468.000000	1032.000000	26.472176
1469.000000	1031.000000	26.427430
1470.000000	1030.000000	26.414380
1471.000000	1029.000000	26.384807
1472.000000	1028.000000	26.357069
1473.000000	1027.000000	26.337519
1474.000000	1026.000000	26.294935
1475.000000	1025.000000	26.270800
1476.000000	1024.000000	26.254785
1477.000000	1023.000000	26.249978
1478.000000	1022.000000	26.247005
1479.000000	1021.000000	26.231404
1480.000000	1020.000000	26.235843
1481.000000	1019.000000	26.236626
1482.000000	1018.000000	26.230578
1483.000000	1017.000000	26.235137
1484.000000	1016.000000	26.230390
1485.000000	1015.000000	26.234867
1486.000000	1014.000000	26.241493
1487.000000	1013.000000	26.240765
1488.000000	1012.000000	26.253696
1489.000000	1011.000000	26.265543
1490.000000	1010.000000	26.268121
1491.000000	1009.000000	26.277232
1492.000000	1008.000000	26.292849
1493.000000	1007.000000	26.299095
1494.000000	1006.000000	26.326812
1495.000000	1005.000000	26.347406
1496.000000	1004.000000	26.371754
1497.000000	1003.000000	26.403235
1498.000000	1002.000000	26.439486
1499.000000	1001.000000	26.476778
1500.000000	1000.000000	26.523814
1501.000000	999.000000	26.573804
1502.000000	998.000000	26.628347
1503.000000	997.000000	26.679965
1504.000000	996.000000	26.740396
1505.000000	995.000000	26.795763
1506.000000	994.000000	26.847812
1507.000000	993.000000	26.914205
1508.000000	992.000000	26.979583
1509.000000	991.000000	27.038293
1510.000000	990.000000	27.107829
1511.000000	989.000000	27.165622
1512.000000	988.000000	27.226757
1513.000000	987.000000	27.305042
1514.000000	986.000000	27.357068
1515.000000	985.000000	27.415363
1516.000000	984.000000	27.484395
1517.000000	983.000000	27.542033
1518.000000	982.000000	27.599825
1519.000000	981.000000	27.663999
1520.000000	980.000000	27.717618
1521.000000	979.000000	27.769988
1522.000000	978.000000	27.838475
1523.000000	977.000000	27.887434
1524.000000	976.000000	27.940555
1525.000000	975.000000	27.991250
1526.000000	974.000000	28.047737
1527.000000	973.000000	28.098320
1528.000000	972.000000	28.150169
1529.000000	971.000000	28.199338
1530.000000	970.000000	28.243931
1531.000000	969.000000	28.282892
1532.000000	968.000000	28.335790
1533.000000	967.000000	28.383904
1534.000000	966.000000	28.419975
1535.000000	965.000000	28.460867
1536.000000	964.000000	28.502530
1537.000000	963.000000	28.537202
1538.000000	962.000000	28.573857
1539.000000	961.000000	28.601155
1540.000000	960.000000	28.630233
1541.000000	959.000000	28.671888
1542.000000	958.000000	28.704653
1543.000000	957.000000	28.732346
1544.000000	956.000000	28.770084
1545.000000	955.000000	28.822140
1546.000000	954.000000	28.885969
1547.000000	953.000000	28.936567
1548.000000	952.000000	28.992533
1549.000000	951.000000	29.051007
1550.000000	950.000000	29.110457
1551.000000	949.000000	29.175038
1552.000000	948.000000	29.230912
1553.000000	947.000000	29.286189
1554.000000	946.000000	29.330524
1555.000000	945.000000	29.375561
1556.000000	944.000000	29.424583
1557.000000	943.000000	29.461933
1558.000000	942.000000	29.490350
1559.000000	941.000000	29.518502
1560.000000	940.000000	29.543444
1561.000000	939.000000	29.560409
1562.000000	938.000000	29.566623
1563.000000	937.000000	29.576620
1564.000000	936.000000	29.575186
1565.000000	935.000000	29.569175
1566.000000	934.000000	29.566333
1567.000000	933.000000	29.561629
1568.000000	932.000000	29.559260
1569.000000	931.000000	29.556470
1570.000000	930.000000	29.559372
1571.000000	929.000000	29.559439
1572.000000	928.000000	29.559971
1573.000000	927.000000	29.566111
1574.000000	926.000000	29.571762
1575.000000	925.000000	29.588777
1576.000000	924.000000	29.609940
1577.000000	923.000000	29.630368
1578.000000	922.000000	29.658539
1579.000000	921.000000	29.677952
1580.000000	920.000000	29.697939
1581.000000	919.000000	29.737020
1582.000000	918.000000	29.776465
1583.000000	917.000000	29.821517
1584.000000	916.000000	29.852112
1585.000000	915.000000	29.885815
1586.000000	914.000000	29.931940
1587.000000	913.000000	29.969785
1588.000000	912.000000	30.018336
1589.000000	911.000000	30.065093
1590.000000	910.000000	30.106209
1591.000000	909.000000	30.147769
1592.000000	908.000000	30.194152
1593.000000	907.000000	30.248502
1594.000000	906.000000	30.300915
1595.000000	905.000000	30.356979
1596.000000	904.000000	30.408825
1597.000000	903.000000	30.462435
1598.000000	902.000000	30.522207
1599.000000	901.000000	30.579699
1600.000000	900.000000	30.646923
1601.000000	899.000000	30.712445
1602.000000	898.000000	30.777146
1603.000000	897.000000	30.836697
1604.000000	896.000000	30.899840
1605.000000	895.000000	30.957301
1606.000000	894.000000	31.023552
1607.000000	893.000000	31.079877
1608.000000	892.000000	31.124178
1609.000000	891.000000	31.192595
1610.000000	890.000000	31.251583
1611.000000	889.000000	31.290218
1612.000000	888.000000	31.332370
1613.000000	887.000000	31.373429
1614.000000	886.000000	31.414617
1615.000000	885.000000	31.461821
1616.000000	884.000000	31.499807
1617.000000	883.000000	31.532045
1618.000000	882.000000	31.565783
1619.000000	881.000000	31.597673
1620.000000	880.000000	31.628415
1621.000000	879.000000	31.667450
1622.000000	878.000000	31.708529
1623.000000	877.000000	31.740766
1624.000000	876.000000	31.783979
1625.000000	875.000000	31.821280
1626.000000	874.000000	31.857179
1627.000000	873.000000	31.890585
1628.000000	872.000000	31.931524
1629.000000	871.000000	31.966751
1630.000000	870.000000	32.004320
1631.000000	869.000000	32.033706
1632.000000	868.000000	32.071175
1633.000000	867.000000	32.101496
1634.000000	866.000000	32.119708
1635.000000	865.000000	32.146646
1636.000000	864.000000	32.166538
1637.000000	863.000000	32.185480
1638.000000	862.000000	32.210862
1639.000000	861.000000	32.222355
1640.000000	860.000000	32.234552
1641.000000	859.000000	32.241144
1642.000000	858.000000	32.258875
1643.000000	857.000000	32.267889
1644.000000	856.000000	32.273934
1645.000000	855.000000	32.281752
1646.000000	854.000000	32.295920
1647.000000	853.000000	32.303254
1648.000000	852.000000	32.308682
1649.000000	851.000000	32.301884
1650.000000	850.000000	32.305733
1651.000000	849.000000	32.309402
1652.000000	848.000000	32.291092
1653.000000	847.000000	32.262129
1654.000000	846.000000	32.240371
1655.000000	845.000000	32.208683
1656.000000	844.000000	32.169896
1657.000000	843.000000	32.116220
1658.000000	842.000000	32.066149
1659.000000	841.000000	31.983131
1660.000000	840.000000	31.926802
1661.000000	839.000000	31.836245
1662.000000	838.000000	31.754489
1663.000000	837.000000	31.671600
1664.000000	836.000000	31.557540
1665.000000	835.000000	31.450456
1666.000000	834.000000	31.342660
1667.000000	833.000000	31.241623
1668.000000	832.000000	31.098998
1669.000000	831.000000	30.970570
1670.000000	830.000000	30.840898
1671.000000	829.000000	30.708811
1672.000000	828.000000	30.575836
1673.000000	827.000000	30.448781
1674.000000	826.000000	30.314466
1675.000000	825.000000	30.183525
1676.000000	824.000000	30.059139
1677.000000	823.000000	29.931216
1678.000000	822.000000	29.793159
1679.000000	821.000000	29.645694
1680.000000	820.000000	29.480771
1681.000000	819.000000	29.323703
1682.000000	818.000000	29.165561
1683.000000	817.000000	29.008986
1684.000000	816.000000	28.864517
1685.000000	815.000000	28.733384
1686.000000	814.000000	28.637701
1687.000000	813.000000	28.565400
1688.000000	812.000000	28.509030
1689.000000	811.000000	28.509139
1690.000000	810.000000	28.526720
1691.000000	809.000000	28.567747
1692.000000	808.000000	28.624379
1693.000000	807.000000	28.682283
1694.000000	806.000000	28.727309
1695.000000	805.000000	28.769733
1696.000000	804.000000	28.795393
1697.000000	803.000000	28.811033
1698.000000	802.000000	28.830043
1699.000000	801.000000	28.835759
1700.000000	800.000000	28.829168
1701.000000	799.000000	28.836914
1702.000000	798.000000	28.820821
1703.000000	797.000000	28.810173
1704.000000	796.000000	28.800499
1705.000000	795.000000	28.768209
1706.000000	794.000000	28.741209
1707.000000	793.000000	28.679296
1708.000000	792.000000	28.636820
1709.000000	791.000000	28.551947
1710.000000	790.000000	28.466160
1711.000000	789.000000	28.372500
1712.000000	788.000000	28.283146
1713.000000	787.000000	28.163769
1714.000000	786.000000	28.034275
1715.000000	785.000000	27.893577
1716.000000	784.000000	27.742815
1717.000000	783.000000	27.599526
1718.000000	782.000000	27.459759
1719.000000	781.000000	27.311773
1720.000000	780.000000	27.183464
1721.000000	779.000000	27.069600
1722.000000	778.000000	26.996484
1723.000000	777.000000	26.944206
1724.000000	776.000000	26.937249
1725.000000	775.000000	26.927959
1726.000000	774.000000	26.945260
1727.000000	773.000000	26.957792
1728.000000	772.000000	26.994382
1729.000000	771.000000	27.021963
1730.000000	770.000000	27.055116
1731.000000	769.000000	27.086618
1732.000000	768.000000	27.123510
1733.000000	767.000000	27.161685
1734.000000	766.000000	27.194656
1735.000000	765.000000	27.227270
1736.000000	764.000000	27.262126
1737.000000	763.000000	27.295527
1738.000000	762.000000	27.352072
1739.000000	761.000000	27.397139
1740.000000	760.000000	27.452089
1741.000000	759.000000	27.507128
1742.000000	758.000000	27.559472
1743.000000	757.000000	27.600921
1744.000000	756.000000	27.648506
1745.000000	755.000000	27.710037
1746.000000	754.000000	27.747146
1747.000000	753.000000	27.789606
1748.000000	752.000000	27.822843
1749.000000	751.000000	27.853206
1750.000000	750.000000	27.875245
1751.000000	749.000000	27.892187
1752.000000	748.000000	27.898878
1753.000000	747.000000	27.903373
1754.000000	746.000000	27.905744
1755.000000	745.000000	27.904817
1756.000000	744.000000	27.903706
1757.000000	743.000000	27.905541
1758.000000	742.000000	27.916165
1759.000000	741.000000	27.914772
1760.000000	740.000000	27.913809
1761.000000	739.000000	27.913794
1762.000000	738.000000	27.932822
1763.000000	737.000000	27.942719
1764.000000	736.000000	27.947090
1765.000000	735.000000	27.956497
1766.000000	734.000000	27.979132
1767.000000	733.000000	28.000507
1768.000000	732.000000	28.024918
1769.000000	731.000000	28.045810
1770.000000	730.000000	28.073960
1771.000000	729.000000	28.095173
1772.000000	728.000000	28.117246
1773.000000	727.000000	28.137493
1774.000000	726.000000	28.160770
1775.000000	725.000000	28.191102
1776.000000	724.000000	28.211410
1777.000000	723.000000	28.234589
1778.000000	722.000000	28.254760
1779.000000	721.000000	28.272818
1780.000000	720.000000	28.286552
1781.000000	719.000000	28.295618
1782.000000	718.000000	28.294120
1783.000000	717.000000	28.294288
1784.000000	716.000000	28.293903
1785.000000	715.000000	28.295830
1786.000000	714.000000	28.300662
1787.000000	713.000000	28.297400
1788.000000	712.000000	28.290116
1789.000000	711.000000	28.291742
1790.000000	710.000000	28.282616
1791.000000	709.000000	28.287282
1792.000000	708.000000	28.300851
1793.000000	707.000000	28.316737
1794.000000	706.000000	28.331515
1795.000000	705.000000	28.347134
1796.000000	704.000000	28.362149
1797.000000	703.000000	28.371032
1798.000000	702.000000	28.380999
1799.000000	701.000000	28.400393
1800.000000	700.000000	28.426147
1801.000000	699.000000	28.457454
1802.000000	698.000000	28.484558
1803.000000	697.000000	28.495449
1804.000000	696.000000	28.489785
1805.000000	695.000000	28.510799
1806.000000	694.000000	28.540083
1807.000000	693.000000	28.566725
1808.000000	692.000000	28.578898
1809.000000	691.000000	28.584381
1810.000000	690.000000	28.605357
1811.000000	689.000000	28.636669
1812.000000	688.000000	28.669491
1813.000000	687.000000	28.683626
1814.000000	686.000000	28.689024
1815.000000	685.000000	28.708869
1816.000000	684.000000	28.722784
1817.000000	683.000000	28.717881
1818.000000	682.000000	28.713019
1819.000000	681.000000	28.728348
1820.000000	680.000000	28.767179
1821.000000	679.000000	28.806265
1822.000000	678.000000	28.827006
1823.000000	677.000000	28.801140
1824.000000	676.000000	28.757311
1825.000000	675.000000	28.753406
1826.000000	674.000000	28.783891
1827.000000	673.000000	28.811307
1828.000000	672.000000	28.841384
1829.000000	671.000000	28.888269
1830.000000	670.000000	28.925341
1831.000000	669.000000	28.945497
1832.000000	668.000000	28.965736
1833.000000	667.000000	28.975785
1834.000000	666.000000	28.985181
1835.000000	665.000000	29.021631
1836.000000	664.000000	29.075281
1837.000000	663.000000	29.139631
1838.000000	662.000000	29.183193
1839.000000	661.000000	29.205764
1840.000000	660.000000	29.232615
1841.000000	659.000000	29.282795
1842.000000	658.000000	29.312168
1843.000000	657.000000	29.295737
1844.000000	656.000000	29.258150
1845.000000	655.000000	29.197661
1846.000000	654.000000	29.195379
1847.000000	653.000000	29.253297
1848.000000	652.000000	29.309803
1849.000000	651.000000	29.347045
1850.000000	650.000000	29.304157
1851.000000	649.000000	29.215890
1852.000000	648.000000	29.153418
1853.000000	647.000000	29.128505
1854.000000	646.000000	29.120174
1855.000000	645.000000	29.086367
1856.000000	644.000000	29.038737
1857.000000	643.000000	28.979583
1858.000000	642.000000	28.915555
1859.000000	641.000000	28.860861
1860.000000	640.000000	28.794275
1861.000000	639.000000	28.705419
1862.000000	638.000000	28.596338
1863.000000	637.000000	28.485737
1864.000000	636.000000	28.371524
1865.000000	635.000000	28.240553
1866.000000	634.000000	28.121971
1867.000000	633.000000	28.019559
1868.000000	632.000000	27.898091
1869.000000	631.000000	27.748725
1870.000000	630.000000	27.602671
1871.000000	629.000000	27.458901
1872.000000	628.000000	27.273177
1873.000000	627.000000	27.056927
1874.000000	626.000000	26.806196
1875.000000	625.000000	26.551552
1876.000000	624.000000	26.290685
1877.000000	623.000000	25.995475
1878.000000	622.000000	25.695879
1879.000000	621.000000	25.389654
1880.000000	620.000000	25.064263
1881.000000	619.000000	24.727823
1882.000000	618.000000	24.375303
1883.000000	617.000000	24.017527
1884.000000	616.000000	23.649893
1885.000000	615.000000	23.231407
1886.000000	614.000000	22.815318
1887.000000	613.000000	22.408817
1888.000000	612.000000	21.995954
1889.000000	611.000000	21.542767
1890.000000	610.000000	21.115043
1891.000000	609.000000	20.677915
1892.000000	608.000000	20.212995
1893.000000	607.000000	19.755576
1894.000000	606.000000	19.326444
1895.000000	605.000000	18.908211
1896.000000	604.000000	18.521177
1897.000000	603.000000	18.133256
1898.000000	602.000000	17.714080
1899.000000	601.000000	17.318348
1900.000000	600.000000	16.925272
1901.000000	599.000000	16.547796
1902.000000	598.000000	16.212452
1903.000000	597.000000	15.885721
1904.000000	596.000000	15.573170
1905.000000	595.000000	15.259951
1906.000000	594.000000	14.952488
1907.000000	593.000000	14.668780
1908.000000	592.000000	14.406626
1909.000000	591.000000	14.181581
1910.000000	590.000000	13.964530
1911.000000	589.000000	13.757371
1912.000000	588.000000	13.573055
1913.000000	587.000000	13.378269
1914.000000	586.000000	13.184151
1915.000000	585.000000	12.999309
1916.000000	584.000000	12.854055
1917.000000	583.000000	12.713940
1918.000000	582.000000	12.584424
1919.000000	581.000000	12.447607
1920.000000	580.000000	12.333141
1921.000000	579.000000	12.225558
1922.000000	578.000000	12.119169
1923.000000	577.000000	12.022488
1924.000000	576.000000	11.942116
1925.000000	575.000000	11.856832
1926.000000	574.000000	11.772428
1927.000000	573.000000	11.717190
1928.000000	572.000000	11.664321
1929.000000	571.000000	11.612455
1930.000000	570.000000	11.560781
1931.000000	569.000000	11.519270
1932.000000	568.000000	11.490937
1933.000000	567.000000	11.472414
1934.000000	566.000000	11.452408
1935.000000	565.000000	11.430002
1936.000000	564.000000	11.419315
1937.000000	563.000000	11.437806
1938.000000	562.000000	11.444376
1939.000000	561.000000	11.446379
1940.000000	560.000000	11.472125
1941.000000	559.000000	11.488995
1942.000000	558.000000	11.511628
1943.000000	557.000000	11.520112
1944.000000	556.000000	11.551515
1945.000000	555.000000	11.589733
1946.000000	554.000000	11.625197
1947.000000	553.000000	11.665475
1948.000000	552.000000	11.710178
1949.000000	551.000000	11.766345
1950.000000	550.000000	11.804651
1951.000000	549.000000	11.855128
1952.000000	548.000000	11.909983
1953.000000	547.000000	11.960359
1954.000000	546.000000	12.014846
1955.000000	545.000000	12.086948
1956.000000	544.000000	12.151254
1957.000000	543.000000	12.201641
1958.000000	542.000000	12.269148
1959.000000	541.000000	12.329830
1960.000000	540.000000	12.389282
1961.000000	539.000000	12.445890
1962.000000	538.000000	12.524657
1963.000000	537.000000	12.580532
1964.000000	536.000000	12.630074
1965.000000	535.000000	12.709134
1966.000000	534.000000	12.774928
1967.000000	533.000000	12.838895
1968.000000	532.000000	12.898638
1969.000000	531.000000	12.963043
1970.000000	530.000000	13.021926
1971.000000	529.000000	13.088409
1972.000000	528.000000	13.158194
1973.000000	527.000000	13.223454
1974.000000	526.000000	13.300896
1975.000000	525.000000	13.383155
1976.000000	524.000000	13.442175
1977.000000	523.000000	13.522302
1978.000000	522.000000	13.589466
1979.000000	521.000000	13.669901
1980.000000	520.000000	13.751235
1981.000000	519.000000	13.817856
1982.000000	518.000000	13.887865
1983.000000	517.000000	13.975609
1984.000000	516.000000	14.042475
1985.000000	515.000000	14.136431
1986.000000	514.000000	14.206345
1987.000000	513.000000	14.278139
1988.000000	512.000000	14.356709
1989.000000	511.000000	14.438785
1990.000000	510.000000	14.508219
1991.000000	509.000000	14.583841
1992.000000	508.000000	14.649507
1993.000000	507.000000	14.726875
1994.000000	506.000000	14.794534
1995.000000	505.000000	14.868284
1996.000000	504.000000	14.939037
1997.000000	503.000000	14.999212
1998.000000	502.000000	15.064319
1999.000000	501.000000	15.122512
