PE UV       SUBTECH     SPECTRUM    ASCII       PEDS        4.00        
   -1
CICIMAUCR0021-1.Sample.ASC
24/03/08
13:20:54.00
24/03/08
13:20:54.00
Vinicio Soto Monge
C. resplendens. 
250,000000
1
Lambda 1050
1050L1511233
PerkinElmer UV WinLab 6.3.2.0749 / 2.02.05 Lambda 900 UV/VIS/NIR, Aug  7 2015 09:38:08

0
0
3350/servo 860,8/2
0
0
UV/VIS
1
1
1
DoubleDePol,CommonBeamDepol,RBeamAtt,SBeamAtt,60mm sphere, WB InGaAs Detector
0
0
0
0
Program
Program
3350/servo 860,8/2
3350/0,2 860,8/0,2
3350/0,2 860,8/0,2
0
15.00
 
 
 
0
 
860,8
319,2
860,8
Front
100
on
S:100 R:100
0
0
0
0
 
0
 
 
 
0
 
 
0
0
0
0
0
 
 
 
 
0
0


0
0
#HDR
-1
-1
#GR
nm
%R
1.0
0.0
2500,000000
-1,000000
2251
8
31,927300
2,181000
#DATA
501.000000	1999.000000	7.711889
502.000000	1998.000000	7.719626
503.000000	1997.000000	7.710922
504.000000	1996.000000	7.692546
505.000000	1995.000000	7.659234
506.000000	1994.000000	7.658911
507.000000	1993.000000	7.643437
508.000000	1992.000000	7.613134
509.000000	1991.000000	7.587989
510.000000	1990.000000	7.593469
511.000000	1989.000000	7.548766
512.000000	1988.000000	7.525448
513.000000	1987.000000	7.505353
514.000000	1986.000000	7.473545
515.000000	1985.000000	7.443134
516.000000	1984.000000	7.413583
517.000000	1983.000000	7.368020
518.000000	1982.000000	7.368343
519.000000	1981.000000	7.345024
520.000000	1980.000000	7.312357
521.000000	1979.000000	7.303975
522.000000	1978.000000	7.241112
523.000000	1977.000000	7.193615
524.000000	1976.000000	7.172660
525.000000	1975.000000	7.142787
526.000000	1974.000000	7.134835
527.000000	1973.000000	7.098191
528.000000	1972.000000	7.072724
529.000000	1971.000000	7.051554
530.000000	1970.000000	7.016200
531.000000	1969.000000	7.000726
532.000000	1968.000000	6.939475
533.000000	1967.000000	6.946245
534.000000	1966.000000	6.915082
535.000000	1965.000000	6.869841
536.000000	1964.000000	6.856194
537.000000	1963.000000	6.835777
538.000000	1962.000000	6.795695
539.000000	1961.000000	6.768830
540.000000	1960.000000	6.748520
541.000000	1959.000000	6.706074
542.000000	1958.000000	6.660942
543.000000	1957.000000	6.679962
544.000000	1956.000000	6.618818
545.000000	1955.000000	6.613337
546.000000	1954.000000	6.584861
547.000000	1953.000000	6.543489
548.000000	1952.000000	6.537149
549.000000	1951.000000	6.524791
550.000000	1950.000000	6.467838
551.000000	1949.000000	6.448925
552.000000	1948.000000	6.452364
553.000000	1947.000000	6.428078
554.000000	1946.000000	6.422920
555.000000	1945.000000	6.401751
556.000000	1944.000000	6.376498
557.000000	1943.000000	6.377143
558.000000	1942.000000	6.364893
559.000000	1941.000000	6.392617
560.000000	1940.000000	6.372952
561.000000	1939.000000	6.345228
562.000000	1938.000000	6.356403
563.000000	1937.000000	6.366397
564.000000	1936.000000	6.379077
565.000000	1935.000000	6.373597
566.000000	1934.000000	6.393369
567.000000	1933.000000	6.435385
568.000000	1932.000000	6.477294
569.000000	1931.000000	6.492768
570.000000	1930.000000	6.536827
571.000000	1929.000000	6.551226
572.000000	1928.000000	6.598078
573.000000	1927.000000	6.634507
574.000000	1926.000000	6.672440
575.000000	1925.000000	6.718539
576.000000	1924.000000	6.779361
577.000000	1923.000000	6.862319
578.000000	1922.000000	6.931953
579.000000	1921.000000	7.005777
580.000000	1920.000000	7.060258
581.000000	1919.000000	7.112376
582.000000	1918.000000	7.187060
583.000000	1917.000000	7.280871
584.000000	1916.000000	7.395208
585.000000	1915.000000	7.489986
586.000000	1914.000000	7.599379
587.000000	1913.000000	7.655043
588.000000	1912.000000	7.762932
589.000000	1911.000000	7.830738
590.000000	1910.000000	7.969252
591.000000	1909.000000	8.073273
592.000000	1908.000000	8.193412
593.000000	1907.000000	8.319676
594.000000	1906.000000	8.423911
595.000000	1905.000000	8.507729
596.000000	1904.000000	8.624644
597.000000	1903.000000	8.767027
598.000000	1902.000000	8.904574
599.000000	1901.000000	9.009561
600.000000	1900.000000	9.144744
601.000000	1899.000000	9.282614
602.000000	1898.000000	9.405332
603.000000	1897.000000	9.547930
604.000000	1896.000000	9.694289
605.000000	1895.000000	9.835060
606.000000	1894.000000	9.963795
607.000000	1893.000000	10.110799
608.000000	1892.000000	10.238782
609.000000	1891.000000	10.351399
610.000000	1890.000000	10.464231
611.000000	1889.000000	10.597910
612.000000	1888.000000	10.750071
613.000000	1887.000000	10.922113
614.000000	1886.000000	11.094584
615.000000	1885.000000	11.251152
616.000000	1884.000000	11.445008
617.000000	1883.000000	11.645526
618.000000	1882.000000	11.839596
619.000000	1881.000000	12.061391
620.000000	1880.000000	12.271473
621.000000	1879.000000	12.482522
622.000000	1878.000000	12.692067
623.000000	1877.000000	12.856586
624.000000	1876.000000	13.010145
625.000000	1875.000000	13.160158
626.000000	1874.000000	13.296953
627.000000	1873.000000	13.391194
628.000000	1872.000000	13.488659
629.000000	1871.000000	13.558615
630.000000	1870.000000	13.580214
631.000000	1869.000000	13.618040
632.000000	1868.000000	13.701965
633.000000	1867.000000	13.744733
634.000000	1866.000000	13.793197
635.000000	1865.000000	13.856598
636.000000	1864.000000	13.923545
637.000000	1863.000000	13.976092
638.000000	1862.000000	13.997477
639.000000	1861.000000	14.002635
640.000000	1860.000000	13.993715
641.000000	1859.000000	13.965776
642.000000	1858.000000	13.916023
643.000000	1857.000000	13.914841
644.000000	1856.000000	13.919354
645.000000	1855.000000	13.892167
646.000000	1854.000000	13.855094
647.000000	1853.000000	13.807060
648.000000	1852.000000	13.786320
649.000000	1851.000000	13.790618
650.000000	1850.000000	13.793412
651.000000	1849.000000	13.787395
652.000000	1848.000000	13.698096
653.000000	1847.000000	13.586017
654.000000	1846.000000	13.515309
655.000000	1845.000000	13.518962
656.000000	1844.000000	13.560871
657.000000	1843.000000	13.573229
658.000000	1842.000000	13.562376
659.000000	1841.000000	13.511655
660.000000	1840.000000	13.455992
661.000000	1839.000000	13.427837
662.000000	1838.000000	13.408172
663.000000	1837.000000	13.360138
664.000000	1836.000000	13.301681
665.000000	1835.000000	13.253969
666.000000	1834.000000	13.222591
667.000000	1833.000000	13.215606
668.000000	1832.000000	13.211523
669.000000	1831.000000	13.170259
670.000000	1830.000000	13.112983
671.000000	1829.000000	13.080745
672.000000	1828.000000	13.025189
673.000000	1827.000000	12.970923
674.000000	1826.000000	12.932237
675.000000	1825.000000	12.892048
676.000000	1824.000000	12.893230
677.000000	1823.000000	12.912143
678.000000	1822.000000	12.914077
679.000000	1821.000000	12.885815
680.000000	1820.000000	12.831871
681.000000	1819.000000	12.787920
682.000000	1818.000000	12.797699
683.000000	1817.000000	12.824886
684.000000	1816.000000	12.843906
685.000000	1815.000000	12.825961
686.000000	1814.000000	12.808337
687.000000	1813.000000	12.826498
688.000000	1812.000000	12.821447
689.000000	1811.000000	12.793078
690.000000	1810.000000	12.749665
691.000000	1809.000000	12.739886
692.000000	1808.000000	12.743970
693.000000	1807.000000	12.730537
694.000000	1806.000000	12.685619
695.000000	1805.000000	12.640164
696.000000	1804.000000	12.622111
697.000000	1803.000000	12.617920
698.000000	1802.000000	12.604166
699.000000	1801.000000	12.565373
700.000000	1800.000000	12.519596
701.000000	1799.000000	12.510569
702.000000	1798.000000	12.492946
703.000000	1797.000000	12.467693
704.000000	1796.000000	12.444697
705.000000	1795.000000	12.432447
706.000000	1794.000000	12.414608
707.000000	1793.000000	12.387529
708.000000	1792.000000	12.345405
709.000000	1791.000000	12.312093
710.000000	1790.000000	12.291031
711.000000	1789.000000	12.269646
712.000000	1788.000000	12.230961
713.000000	1787.000000	12.203774
714.000000	1786.000000	12.173793
715.000000	1785.000000	12.133496
716.000000	1784.000000	12.081164
717.000000	1783.000000	12.029583
718.000000	1782.000000	11.988534
719.000000	1781.000000	11.930829
720.000000	1780.000000	11.884192
721.000000	1779.000000	11.865386
722.000000	1778.000000	11.807788
723.000000	1777.000000	11.738478
724.000000	1776.000000	11.695064
725.000000	1775.000000	11.624249
726.000000	1774.000000	11.546019
727.000000	1773.000000	11.497447
728.000000	1772.000000	11.409654
729.000000	1771.000000	11.343674
730.000000	1770.000000	11.268453
731.000000	1769.000000	11.186247
732.000000	1768.000000	11.129723
733.000000	1767.000000	11.078680
734.000000	1766.000000	11.013346
735.000000	1765.000000	10.967676
736.000000	1764.000000	10.963485
737.000000	1763.000000	10.952631
738.000000	1762.000000	10.940166
739.000000	1761.000000	10.966816
740.000000	1760.000000	11.000665
741.000000	1759.000000	11.066538
742.000000	1758.000000	11.091468
743.000000	1757.000000	11.111240
744.000000	1756.000000	11.136063
745.000000	1755.000000	11.131335
746.000000	1754.000000	11.138750
747.000000	1753.000000	11.135204
748.000000	1752.000000	11.141007
749.000000	1751.000000	11.131980
750.000000	1750.000000	11.081797
751.000000	1749.000000	11.047088
752.000000	1748.000000	10.989167
753.000000	1747.000000	10.931892
754.000000	1746.000000	10.880634
755.000000	1745.000000	10.797246
756.000000	1744.000000	10.705691
757.000000	1743.000000	10.599199
758.000000	1742.000000	10.514092
759.000000	1741.000000	10.364294
760.000000	1740.000000	10.245660
761.000000	1739.000000	10.115742
762.000000	1738.000000	9.998719
763.000000	1737.000000	9.887607
764.000000	1736.000000	9.828290
765.000000	1735.000000	9.751672
766.000000	1734.000000	9.741678
767.000000	1733.000000	9.748233
768.000000	1732.000000	9.781868
769.000000	1731.000000	9.820123
770.000000	1730.000000	9.859883
771.000000	1729.000000	9.948536
772.000000	1728.000000	10.000439
773.000000	1727.000000	10.043960
774.000000	1726.000000	10.093606
775.000000	1725.000000	10.136697
776.000000	1724.000000	10.156254
777.000000	1723.000000	10.162917
778.000000	1722.000000	10.153460
779.000000	1721.000000	10.174844
780.000000	1720.000000	10.189566
781.000000	1719.000000	10.217721
782.000000	1718.000000	10.212777
783.000000	1717.000000	10.224383
784.000000	1716.000000	10.259092
785.000000	1715.000000	10.288428
786.000000	1714.000000	10.310135
787.000000	1713.000000	10.340546
788.000000	1712.000000	10.359029
789.000000	1711.000000	10.375040
790.000000	1710.000000	10.367518
791.000000	1709.000000	10.386968
792.000000	1708.000000	10.371709
793.000000	1707.000000	10.346241
794.000000	1706.000000	10.322385
795.000000	1705.000000	10.322600
796.000000	1704.000000	10.307341
797.000000	1703.000000	10.238138
798.000000	1702.000000	10.211918
799.000000	1701.000000	10.130464
800.000000	1700.000000	10.043637
801.000000	1699.000000	9.965515
802.000000	1698.000000	9.895022
803.000000	1697.000000	9.836994
804.000000	1696.000000	9.788745
805.000000	1695.000000	9.788960
806.000000	1694.000000	9.825926
807.000000	1693.000000	9.893195
808.000000	1692.000000	9.958530
809.000000	1691.000000	10.030742
810.000000	1690.000000	10.120040
811.000000	1689.000000	10.164528
812.000000	1688.000000	10.204718
813.000000	1687.000000	10.211380
814.000000	1686.000000	10.199560
815.000000	1685.000000	10.209124
816.000000	1684.000000	10.253397
817.000000	1683.000000	10.374288
818.000000	1682.000000	10.532038
819.000000	1681.000000	10.747600
820.000000	1680.000000	11.047625
821.000000	1679.000000	11.333788
822.000000	1678.000000	11.628870
823.000000	1677.000000	11.883332
824.000000	1676.000000	12.138547
825.000000	1675.000000	12.355076
826.000000	1674.000000	12.504014
827.000000	1673.000000	12.643711
828.000000	1672.000000	12.766321
829.000000	1671.000000	12.903653
830.000000	1670.000000	13.000904
831.000000	1669.000000	13.098046
832.000000	1668.000000	13.180575
833.000000	1667.000000	13.257623
834.000000	1666.000000	13.305012
835.000000	1665.000000	13.384209
836.000000	1664.000000	13.413116
837.000000	1663.000000	13.427622
838.000000	1662.000000	13.475549
839.000000	1661.000000	13.490701
840.000000	1660.000000	13.498868
841.000000	1659.000000	13.524765
842.000000	1658.000000	13.541851
843.000000	1657.000000	13.546472
844.000000	1656.000000	13.557648
845.000000	1655.000000	13.545075
846.000000	1654.000000	13.545612
847.000000	1653.000000	13.528634
848.000000	1652.000000	13.523798
849.000000	1651.000000	13.542711
850.000000	1650.000000	13.498115
851.000000	1649.000000	13.493172
852.000000	1648.000000	13.465341
853.000000	1647.000000	13.444601
854.000000	1646.000000	13.405164
855.000000	1645.000000	13.382597
856.000000	1644.000000	13.365726
857.000000	1643.000000	13.334886
858.000000	1642.000000	13.298350
859.000000	1641.000000	13.279007
860.000000	1640.000000	13.229361
861.000000	1639.000000	13.204538
862.000000	1638.000000	13.187774
863.000000	1637.000000	13.155537
864.000000	1636.000000	13.109115
865.000000	1635.000000	13.066453
866.000000	1634.000000	13.014336
867.000000	1633.000000	12.984033
868.000000	1632.000000	12.955878
869.000000	1631.000000	12.919450
870.000000	1630.000000	12.874102
871.000000	1629.000000	12.834020
872.000000	1628.000000	12.791251
873.000000	1627.000000	12.733224
874.000000	1626.000000	12.694861
875.000000	1625.000000	12.641991
876.000000	1624.000000	12.598793
877.000000	1623.000000	12.568167
878.000000	1622.000000	12.519058
879.000000	1621.000000	12.485639
880.000000	1620.000000	12.434703
881.000000	1619.000000	12.411170
882.000000	1618.000000	12.373989
883.000000	1617.000000	12.344330
884.000000	1616.000000	12.286303
885.000000	1615.000000	12.244501
886.000000	1614.000000	12.212801
887.000000	1613.000000	12.162295
888.000000	1612.000000	12.132529
889.000000	1611.000000	12.088578
890.000000	1610.000000	12.073534
891.000000	1609.000000	12.040867
892.000000	1608.000000	11.987889
893.000000	1607.000000	11.938673
894.000000	1606.000000	11.915892
895.000000	1605.000000	11.887201
896.000000	1604.000000	11.846796
897.000000	1603.000000	11.811764
898.000000	1602.000000	11.782536
899.000000	1601.000000	11.745677
900.000000	1600.000000	11.710861
901.000000	1599.000000	11.673465
902.000000	1598.000000	11.647567
903.000000	1597.000000	11.621670
904.000000	1596.000000	11.593301
905.000000	1595.000000	11.559666
906.000000	1594.000000	11.529685
907.000000	1593.000000	11.507226
908.000000	1592.000000	11.471227
909.000000	1591.000000	11.455539
910.000000	1590.000000	11.451240
911.000000	1589.000000	11.414059
912.000000	1588.000000	11.386980
913.000000	1587.000000	11.358933
914.000000	1586.000000	11.348617
915.000000	1585.000000	11.357966
916.000000	1584.000000	11.348295
917.000000	1583.000000	11.326266
918.000000	1582.000000	11.317776
919.000000	1581.000000	11.305741
920.000000	1580.000000	11.288655
921.000000	1579.000000	11.283927
922.000000	1578.000000	11.291879
923.000000	1577.000000	11.290267
924.000000	1576.000000	11.288762
925.000000	1575.000000	11.296929
926.000000	1574.000000	11.300153
927.000000	1573.000000	11.296499
928.000000	1572.000000	11.314445
929.000000	1571.000000	11.325836
930.000000	1570.000000	11.348080
931.000000	1569.000000	11.368067
932.000000	1568.000000	11.369786
933.000000	1567.000000	11.374515
934.000000	1566.000000	11.393750
935.000000	1565.000000	11.410513
936.000000	1564.000000	11.434799
937.000000	1563.000000	11.453067
938.000000	1562.000000	11.449951
939.000000	1561.000000	11.459085
940.000000	1560.000000	11.476063
941.000000	1559.000000	11.500779
942.000000	1558.000000	11.508516
943.000000	1557.000000	11.518939
944.000000	1556.000000	11.544622
945.000000	1555.000000	11.540109
946.000000	1554.000000	11.537959
947.000000	1553.000000	11.544944
948.000000	1552.000000	11.548383
949.000000	1551.000000	11.543225
950.000000	1550.000000	11.529900
951.000000	1549.000000	11.526246
952.000000	1548.000000	11.532801
953.000000	1547.000000	11.541720
954.000000	1546.000000	11.544085
955.000000	1545.000000	11.545374
956.000000	1544.000000	11.535380
957.000000	1543.000000	11.544944
958.000000	1542.000000	11.558162
959.000000	1541.000000	11.550425
960.000000	1540.000000	11.555690
961.000000	1539.000000	11.559988
962.000000	1538.000000	11.553326
963.000000	1537.000000	11.553971
964.000000	1536.000000	11.553326
965.000000	1535.000000	11.547523
966.000000	1534.000000	11.554401
967.000000	1533.000000	11.556335
968.000000	1532.000000	11.552466
969.000000	1531.000000	11.540968
970.000000	1530.000000	11.544729
971.000000	1529.000000	11.538497
972.000000	1528.000000	11.525924
973.000000	1527.000000	11.530115
974.000000	1526.000000	11.518724
975.000000	1525.000000	11.490785
976.000000	1524.000000	11.479717
977.000000	1523.000000	11.477890
978.000000	1522.000000	11.481006
979.000000	1521.000000	11.461341
980.000000	1520.000000	11.436948
981.000000	1519.000000	11.428566
982.000000	1518.000000	11.422119
983.000000	1517.000000	11.416423
984.000000	1516.000000	11.417176
985.000000	1515.000000	11.400627
986.000000	1514.000000	11.362049
987.000000	1513.000000	11.367960
988.000000	1512.000000	11.354742
989.000000	1511.000000	11.338731
990.000000	1510.000000	11.307568
991.000000	1509.000000	11.322719
992.000000	1508.000000	11.307245
993.000000	1507.000000	11.300368
994.000000	1506.000000	11.271354
995.000000	1505.000000	11.252334
996.000000	1504.000000	11.237182
997.000000	1503.000000	11.252656
998.000000	1502.000000	11.246424
999.000000	1501.000000	11.219881
1000.000000	1500.000000	11.205589
1001.000000	1499.000000	11.195273
1002.000000	1498.000000	11.205482
1003.000000	1497.000000	11.231057
1004.000000	1496.000000	11.203225
1005.000000	1495.000000	11.223105
1006.000000	1494.000000	11.220096
1007.000000	1493.000000	11.210210
1008.000000	1492.000000	11.241051
1009.000000	1491.000000	11.249325
1010.000000	1490.000000	11.262757
1011.000000	1489.000000	11.263510
1012.000000	1488.000000	11.270817
1013.000000	1487.000000	11.272214
1014.000000	1486.000000	11.288010
1015.000000	1485.000000	11.282745
1016.000000	1484.000000	11.314875
1017.000000	1483.000000	11.305526
1018.000000	1482.000000	11.362587
1019.000000	1481.000000	11.365918
1020.000000	1480.000000	11.374085
1021.000000	1479.000000	11.415994
1022.000000	1478.000000	11.427492
1023.000000	1477.000000	11.451992
1024.000000	1476.000000	11.455861
1025.000000	1475.000000	11.508086
1026.000000	1474.000000	11.542473
1027.000000	1473.000000	11.555368
1028.000000	1472.000000	11.572346
1029.000000	1471.000000	11.589002
1030.000000	1470.000000	11.611461
1031.000000	1469.000000	11.606303
1032.000000	1468.000000	11.646708
1033.000000	1467.000000	11.680342
1034.000000	1466.000000	11.707207
1035.000000	1465.000000	11.730955
1036.000000	1464.000000	11.763945
1037.000000	1463.000000	11.809615
1038.000000	1462.000000	11.826271
1039.000000	1461.000000	11.864204
1040.000000	1460.000000	11.894293
1041.000000	1459.000000	11.963604
1042.000000	1458.000000	12.008951
1043.000000	1457.000000	12.047529
1044.000000	1456.000000	12.082238
1045.000000	1455.000000	12.136720
1046.000000	1454.000000	12.199691
1047.000000	1453.000000	12.245253
1048.000000	1452.000000	12.314564
1049.000000	1451.000000	12.346372
1050.000000	1450.000000	12.400209
1051.000000	1449.000000	12.469197
1052.000000	1448.000000	12.519166
1053.000000	1447.000000	12.597718
1054.000000	1446.000000	12.652415
1055.000000	1445.000000	12.711732
1056.000000	1444.000000	12.774166
1057.000000	1443.000000	12.834235
1058.000000	1442.000000	12.931055
1059.000000	1441.000000	12.955878
1060.000000	1440.000000	13.036580
1061.000000	1439.000000	13.118464
1062.000000	1438.000000	13.173590
1063.000000	1437.000000	13.220764
1064.000000	1436.000000	13.293084
1065.000000	1435.000000	13.368735
1066.000000	1434.000000	13.432566
1067.000000	1433.000000	13.501769
1068.000000	1432.000000	13.571295
1069.000000	1431.000000	13.618899
1070.000000	1430.000000	13.712066
1071.000000	1429.000000	13.808134
1072.000000	1428.000000	13.871212
1073.000000	1427.000000	13.968033
1074.000000	1426.000000	14.063349
1075.000000	1425.000000	14.173172
1076.000000	1424.000000	14.273108
1077.000000	1423.000000	14.368317
1078.000000	1422.000000	14.464600
1079.000000	1421.000000	14.561958
1080.000000	1420.000000	14.680700
1081.000000	1419.000000	14.791060
1082.000000	1418.000000	14.864884
1083.000000	1417.000000	14.952463
1084.000000	1416.000000	15.020162
1085.000000	1415.000000	15.152444
1086.000000	1414.000000	15.226698
1087.000000	1413.000000	15.287842
1088.000000	1412.000000	15.357798
1089.000000	1411.000000	15.484814
1090.000000	1410.000000	15.587759
1091.000000	1409.000000	15.707683
1092.000000	1408.000000	15.806975
1093.000000	1407.000000	15.954946
1094.000000	1406.000000	16.093568
1095.000000	1405.000000	16.244870
1096.000000	1404.000000	16.354478
1097.000000	1403.000000	16.469566
1098.000000	1402.000000	16.656975
1099.000000	1401.000000	16.804515
1100.000000	1400.000000	16.812682
1101.000000	1399.000000	16.852335
1102.000000	1398.000000	16.917562
1103.000000	1397.000000	17.002025
1104.000000	1396.000000	17.036304
1105.000000	1395.000000	16.980318
1106.000000	1394.000000	16.943030
1107.000000	1393.000000	16.930672
1108.000000	1392.000000	16.929598
1109.000000	1391.000000	16.899939
1110.000000	1390.000000	16.921323
1111.000000	1389.000000	16.954313
1112.000000	1388.000000	16.979996
1113.000000	1387.000000	17.029212
1114.000000	1386.000000	17.099275
1115.000000	1385.000000	17.224357
1116.000000	1384.000000	17.389951
1117.000000	1383.000000	17.537814
1118.000000	1382.000000	17.650001
1119.000000	1381.000000	17.756063
1120.000000	1380.000000	17.855355
1121.000000	1379.000000	18.026859
1122.000000	1378.000000	18.190412
1123.000000	1377.000000	18.381903
1124.000000	1376.000000	18.599507
1125.000000	1375.000000	18.849134
1126.000000	1374.000000	19.157541
1127.000000	1373.000000	19.460360
1128.000000	1372.000000	19.774999
1129.000000	1371.000000	20.030536
1130.000000	1370.000000	20.245239
1131.000000	1369.000000	20.451775
1132.000000	1368.000000	20.651218
1133.000000	1367.000000	20.796395
1134.000000	1366.000000	20.937811
1135.000000	1365.000000	21.087609
1136.000000	1364.000000	21.174328
1137.000000	1363.000000	21.302956
1138.000000	1362.000000	21.378714
1139.000000	1361.000000	21.393866
1140.000000	1360.000000	21.403000
1141.000000	1359.000000	21.472419
1142.000000	1358.000000	21.527437
1143.000000	1357.000000	21.629416
1144.000000	1356.000000	21.771691
1145.000000	1355.000000	21.961893
1146.000000	1354.000000	22.221406
1147.000000	1353.000000	22.521109
1148.000000	1352.000000	22.821779
1149.000000	1351.000000	23.095584
1150.000000	1350.000000	23.352088
1151.000000	1349.000000	23.588282
1152.000000	1348.000000	23.815665
1153.000000	1347.000000	24.011025
1154.000000	1346.000000	24.193061
1155.000000	1345.000000	24.397232
1156.000000	1344.000000	24.564331
1157.000000	1343.000000	24.703275
1158.000000	1342.000000	24.852320
1159.000000	1341.000000	24.988686
1160.000000	1340.000000	25.121290
1161.000000	1339.000000	25.256688
1162.000000	1338.000000	25.390796
1163.000000	1337.000000	25.522326
1164.000000	1336.000000	25.656112
1165.000000	1335.000000	25.761422
1166.000000	1334.000000	25.845132
1167.000000	1333.000000	25.932604
1168.000000	1332.000000	26.050808
1169.000000	1331.000000	26.145372
1170.000000	1330.000000	26.227578
1171.000000	1329.000000	26.307527
1172.000000	1328.000000	26.391560
1173.000000	1327.000000	26.470113
1174.000000	1326.000000	26.523627
1175.000000	1325.000000	26.576604
1176.000000	1324.000000	26.636136
1177.000000	1323.000000	26.707812
1178.000000	1322.000000	26.773254
1179.000000	1321.000000	26.822578
1180.000000	1320.000000	26.883184
1181.000000	1319.000000	26.921225
1182.000000	1318.000000	26.951313
1183.000000	1317.000000	26.997413
1184.000000	1316.000000	27.038785
1185.000000	1315.000000	27.083273
1186.000000	1314.000000	27.123032
1187.000000	1313.000000	27.136572
1188.000000	1312.000000	27.152046
1189.000000	1311.000000	27.181168
1190.000000	1310.000000	27.207388
1191.000000	1309.000000	27.223291
1192.000000	1308.000000	27.230061
1193.000000	1307.000000	27.253595
1194.000000	1306.000000	27.272078
1195.000000	1305.000000	27.264233
1196.000000	1304.000000	27.252520
1197.000000	1303.000000	27.234682
1198.000000	1302.000000	27.234897
1199.000000	1301.000000	27.244138
1200.000000	1300.000000	27.230061
1201.000000	1299.000000	27.216307
1202.000000	1298.000000	27.211471
1203.000000	1297.000000	27.205346
1204.000000	1296.000000	27.188260
1205.000000	1295.000000	27.154733
1206.000000	1294.000000	27.140118
1207.000000	1293.000000	27.118949
1208.000000	1292.000000	27.101541
1209.000000	1291.000000	27.088968
1210.000000	1290.000000	27.078544
1211.000000	1289.000000	27.062211
1212.000000	1288.000000	27.008159
1213.000000	1287.000000	26.968292
1214.000000	1286.000000	26.939708
1215.000000	1285.000000	26.903172
1216.000000	1284.000000	26.864594
1217.000000	1283.000000	26.818709
1218.000000	1282.000000	26.770460
1219.000000	1281.000000	26.745422
1220.000000	1280.000000	26.725757
1221.000000	1279.000000	26.693734
1222.000000	1278.000000	26.648709
1223.000000	1277.000000	26.620877
1224.000000	1276.000000	26.593368
1225.000000	1275.000000	26.561130
1226.000000	1274.000000	26.533728
1227.000000	1273.000000	26.517502
1228.000000	1272.000000	26.502458
1229.000000	1271.000000	26.474411
1230.000000	1270.000000	26.445290
1231.000000	1269.000000	26.423153
1232.000000	1268.000000	26.395321
1233.000000	1267.000000	26.368349
1234.000000	1266.000000	26.322249
1235.000000	1265.000000	26.291946
1236.000000	1264.000000	26.282919
1237.000000	1263.000000	26.262610
1238.000000	1262.000000	26.235638
1239.000000	1261.000000	26.188033
1240.000000	1260.000000	26.155151
1241.000000	1259.000000	26.101421
1242.000000	1258.000000	26.068002
1243.000000	1257.000000	26.024481
1244.000000	1256.000000	26.006858
1245.000000	1255.000000	25.959791
1246.000000	1254.000000	25.929810
1247.000000	1253.000000	25.889190
1248.000000	1252.000000	25.839007
1249.000000	1251.000000	25.797098
1250.000000	1250.000000	25.753685
1251.000000	1249.000000	25.710594
1252.000000	1248.000000	25.654823
1253.000000	1247.000000	25.609797
1254.000000	1246.000000	25.541454
1255.000000	1245.000000	25.476656
1256.000000	1244.000000	25.427332
1257.000000	1243.000000	25.383059
1258.000000	1242.000000	25.313534
1259.000000	1241.000000	25.234014
1260.000000	1240.000000	25.181467
1261.000000	1239.000000	25.101302
1262.000000	1238.000000	25.024899
1263.000000	1237.000000	24.958490
1264.000000	1236.000000	24.878540
1265.000000	1235.000000	24.816214
1266.000000	1234.000000	24.737447
1267.000000	1233.000000	24.652339
1268.000000	1232.000000	24.581202
1269.000000	1231.000000	24.509419
1270.000000	1230.000000	24.407978
1271.000000	1229.000000	24.319969
1272.000000	1228.000000	24.239053
1273.000000	1227.000000	24.161575
1274.000000	1226.000000	24.075930
1275.000000	1225.000000	23.982871
1276.000000	1224.000000	23.895937
1277.000000	1223.000000	23.824369
1278.000000	1222.000000	23.734319
1279.000000	1221.000000	23.630621
1280.000000	1220.000000	23.554218
1281.000000	1219.000000	23.465994
1282.000000	1218.000000	23.383896
1283.000000	1217.000000	23.335754
1284.000000	1216.000000	23.263757
1285.000000	1215.000000	23.200893
1286.000000	1214.000000	23.114389
1287.000000	1213.000000	23.063024
1288.000000	1212.000000	23.022297
1289.000000	1211.000000	22.953523
1290.000000	1210.000000	22.898397
1291.000000	1209.000000	22.859282
1292.000000	1208.000000	22.811355
1293.000000	1207.000000	22.785135
1294.000000	1206.000000	22.767512
1295.000000	1205.000000	22.722164
1296.000000	1204.000000	22.737531
1297.000000	1203.000000	22.724314
1298.000000	1202.000000	22.713998
1299.000000	1201.000000	22.705078
1300.000000	1200.000000	22.690142
1301.000000	1199.000000	22.639851
1302.000000	1198.000000	22.594611
1303.000000	1197.000000	22.514984
1304.000000	1196.000000	22.426223
1305.000000	1195.000000	22.291255
1306.000000	1194.000000	22.147905
1307.000000	1193.000000	21.941691
1308.000000	1192.000000	21.712911
1309.000000	1191.000000	21.480048
1310.000000	1190.000000	21.264486
1311.000000	1189.000000	21.060959
1312.000000	1188.000000	20.916319
1313.000000	1187.000000	20.850232
1314.000000	1186.000000	20.803487
1315.000000	1185.000000	20.875700
1316.000000	1184.000000	21.015719
1317.000000	1183.000000	21.208607
1318.000000	1182.000000	21.445446
1319.000000	1181.000000	21.699801
1320.000000	1180.000000	21.952867
1321.000000	1179.000000	22.210983
1322.000000	1178.000000	22.424396
1323.000000	1177.000000	22.620616
1324.000000	1176.000000	22.781589
1325.000000	1175.000000	22.944604
1326.000000	1174.000000	23.124490
1327.000000	1173.000000	23.280950
1328.000000	1172.000000	23.454174
1329.000000	1171.000000	23.616759
1330.000000	1170.000000	23.816955
1331.000000	1169.000000	24.046917
1332.000000	1168.000000	24.197466
1333.000000	1167.000000	24.385089
1334.000000	1166.000000	24.586145
1335.000000	1165.000000	24.797194
1336.000000	1164.000000	25.024254
1337.000000	1163.000000	25.201132
1338.000000	1162.000000	25.414007
1339.000000	1161.000000	25.598299
1340.000000	1160.000000	25.777433
1341.000000	1159.000000	25.975695
1342.000000	1158.000000	26.152572
1343.000000	1157.000000	26.297426
1344.000000	1156.000000	26.433254
1345.000000	1155.000000	26.521908
1346.000000	1154.000000	26.569727
1347.000000	1153.000000	26.599386
1348.000000	1152.000000	26.614107
1349.000000	1151.000000	26.619695
1350.000000	1150.000000	26.582944
1351.000000	1149.000000	26.599601
1352.000000	1148.000000	26.592508
1353.000000	1147.000000	26.615612
1354.000000	1146.000000	26.667407
1355.000000	1145.000000	26.798077
1356.000000	1144.000000	26.892533
1357.000000	1143.000000	27.060276
1358.000000	1142.000000	27.225226
1359.000000	1141.000000	27.421445
1360.000000	1140.000000	27.583601
1361.000000	1139.000000	27.759618
1362.000000	1138.000000	27.965617
1363.000000	1137.000000	28.160762
1364.000000	1136.000000	28.371704
1365.000000	1135.000000	28.576520
1366.000000	1134.000000	28.692038
1367.000000	1133.000000	28.859137
1368.000000	1132.000000	29.018176
1369.000000	1131.000000	29.141968
1370.000000	1130.000000	29.294452
1371.000000	1129.000000	29.402663
1372.000000	1128.000000	29.474231
1373.000000	1127.000000	29.528820
1374.000000	1126.000000	29.601677
1375.000000	1125.000000	29.655407
1376.000000	1124.000000	29.698820
1377.000000	1123.000000	29.737290
1378.000000	1122.000000	29.762973
1379.000000	1121.000000	29.775653
1380.000000	1120.000000	29.800368
1381.000000	1119.000000	29.819711
1382.000000	1118.000000	29.833358
1383.000000	1117.000000	29.841310
1384.000000	1116.000000	29.846683
1385.000000	1115.000000	29.851949
1386.000000	1114.000000	29.857322
1387.000000	1113.000000	29.840666
1388.000000	1112.000000	29.832069
1389.000000	1111.000000	29.837119
1390.000000	1110.000000	29.853023
1391.000000	1109.000000	29.842170
1392.000000	1108.000000	29.834648
1393.000000	1107.000000	29.843137
1394.000000	1106.000000	29.837334
1395.000000	1105.000000	29.831639
1396.000000	1104.000000	29.847650
1397.000000	1103.000000	29.837657
1398.000000	1102.000000	29.815628
1399.000000	1101.000000	29.794243
1400.000000	1100.000000	29.804774
1401.000000	1099.000000	29.779736
1402.000000	1098.000000	29.774471
1403.000000	1097.000000	29.774149
1404.000000	1096.000000	29.746532
1405.000000	1095.000000	29.730950
1406.000000	1094.000000	29.704085
1407.000000	1093.000000	29.670451
1408.000000	1092.000000	29.662929
1409.000000	1091.000000	29.644553
1410.000000	1090.000000	29.602322
1411.000000	1089.000000	29.571481
1412.000000	1088.000000	29.562992
1413.000000	1087.000000	29.548163
1414.000000	1086.000000	29.504212
1415.000000	1085.000000	29.462733
1416.000000	1084.000000	29.447151
1417.000000	1083.000000	29.421361
1418.000000	1082.000000	29.377518
1419.000000	1081.000000	29.350653
1420.000000	1080.000000	29.331418
1421.000000	1079.000000	29.305521
1422.000000	1078.000000	29.277796
1423.000000	1077.000000	29.250394
1424.000000	1076.000000	29.252651
1425.000000	1075.000000	29.232879
1426.000000	1074.000000	29.208593
1427.000000	1073.000000	29.175388
1428.000000	1072.000000	29.146159
1429.000000	1071.000000	29.125527
1430.000000	1070.000000	29.099092
1431.000000	1069.000000	29.079857
1432.000000	1068.000000	29.066962
1433.000000	1067.000000	29.046545
1434.000000	1066.000000	29.035584
1435.000000	1065.000000	29.022367
1436.000000	1064.000000	28.999048
1437.000000	1063.000000	28.987765
1438.000000	1062.000000	28.970357
1439.000000	1061.000000	28.943385
1440.000000	1060.000000	28.921355
1441.000000	1059.000000	28.903410
1442.000000	1058.000000	28.894491
1443.000000	1057.000000	28.885894
1444.000000	1056.000000	28.884390
1445.000000	1055.000000	28.877190
1446.000000	1054.000000	28.859674
1447.000000	1053.000000	28.832165
1448.000000	1052.000000	28.810136
1449.000000	1051.000000	28.809491
1450.000000	1050.000000	28.807127
1451.000000	1049.000000	28.810243
1452.000000	1048.000000	28.794447
1453.000000	1047.000000	28.782519
1454.000000	1046.000000	28.774137
1455.000000	1045.000000	28.772847
1456.000000	1044.000000	28.761672
1457.000000	1043.000000	28.735452
1458.000000	1042.000000	28.724491
1459.000000	1041.000000	28.721375
1460.000000	1040.000000	28.705901
1461.000000	1039.000000	28.691179
1462.000000	1038.000000	28.677746
1463.000000	1037.000000	28.660123
1464.000000	1036.000000	28.654320
1465.000000	1035.000000	28.640995
1466.000000	1034.000000	28.628853
1467.000000	1033.000000	28.610047
1468.000000	1032.000000	28.576520
1469.000000	1031.000000	28.543853
1470.000000	1030.000000	28.522468
1471.000000	1029.000000	28.499902
1472.000000	1028.000000	28.467235
1473.000000	1027.000000	28.432525
1474.000000	1026.000000	28.410281
1475.000000	1025.000000	28.385136
1476.000000	1024.000000	28.347096
1477.000000	1023.000000	28.325604
1478.000000	1022.000000	28.298417
1479.000000	1021.000000	28.262848
1480.000000	1020.000000	28.240174
1481.000000	1019.000000	28.233512
1482.000000	1018.000000	28.222873
1483.000000	1017.000000	28.200092
1484.000000	1016.000000	28.175162
1485.000000	1015.000000	28.174517
1486.000000	1014.000000	28.175376
1487.000000	1013.000000	28.173012
1488.000000	1012.000000	28.197191
1489.000000	1011.000000	28.226527
1490.000000	1010.000000	28.237703
1491.000000	1009.000000	28.246944
1492.000000	1008.000000	28.256508
1493.000000	1007.000000	28.290680
1494.000000	1006.000000	28.328183
1495.000000	1005.000000	28.350749
1496.000000	1004.000000	28.369877
1497.000000	1003.000000	28.381482
1498.000000	1002.000000	28.392873
1499.000000	1001.000000	28.417696
1500.000000	1000.000000	28.444238
1501.000000	999.000000	28.469276
1502.000000	998.000000	28.497323
1503.000000	997.000000	28.517310
1504.000000	996.000000	28.526659
1505.000000	995.000000	28.542456
1506.000000	994.000000	28.589415
1507.000000	993.000000	28.619611
1508.000000	992.000000	28.640028
1509.000000	991.000000	28.660768
1510.000000	990.000000	28.690534
1511.000000	989.000000	28.704719
1512.000000	988.000000	28.732443
1513.000000	987.000000	28.766400
1514.000000	986.000000	28.783378
1515.000000	985.000000	28.803581
1516.000000	984.000000	28.833347
1517.000000	983.000000	28.866337
1518.000000	982.000000	28.877190
1519.000000	981.000000	28.891589
1520.000000	980.000000	28.925546
1521.000000	979.000000	28.938764
1522.000000	978.000000	28.958214
1523.000000	977.000000	28.976052
1524.000000	976.000000	28.993138
1525.000000	975.000000	29.022259
1526.000000	974.000000	29.057291
1527.000000	973.000000	29.091893
1528.000000	972.000000	29.110161
1529.000000	971.000000	29.114459
1530.000000	970.000000	29.156798
1531.000000	969.000000	29.175173
1532.000000	968.000000	29.188068
1533.000000	967.000000	29.205691
1534.000000	966.000000	29.224067
1535.000000	965.000000	29.255875
1536.000000	964.000000	29.289724
1537.000000	963.000000	29.298536
1538.000000	962.000000	29.342809
1539.000000	961.000000	29.371178
1540.000000	960.000000	29.398687
1541.000000	959.000000	29.415558
1542.000000	958.000000	29.442960
1543.000000	957.000000	29.447366
1544.000000	956.000000	29.460261
1545.000000	955.000000	29.488523
1546.000000	954.000000	29.497872
1547.000000	953.000000	29.502063
1548.000000	952.000000	29.487771
1549.000000	951.000000	29.506898
1550.000000	950.000000	29.497764
1551.000000	949.000000	29.506361
1552.000000	948.000000	29.531829
1553.000000	947.000000	29.521620
1554.000000	946.000000	29.537954
1555.000000	945.000000	29.576854
1556.000000	944.000000	29.621772
1557.000000	943.000000	29.640470
1558.000000	942.000000	29.693340
1559.000000	941.000000	29.706557
1560.000000	940.000000	29.755558
1561.000000	939.000000	29.801980
1562.000000	938.000000	29.863124
1563.000000	937.000000	29.922012
1564.000000	936.000000	29.954787
1565.000000	935.000000	30.017113
1566.000000	934.000000	30.100179
1567.000000	933.000000	30.158636
1568.000000	932.000000	30.231923
1569.000000	931.000000	30.325197
1570.000000	930.000000	30.395260
1571.000000	929.000000	30.464571
1572.000000	928.000000	30.542909
1573.000000	927.000000	30.633926
1574.000000	926.000000	30.720753
1575.000000	925.000000	30.802207
1576.000000	924.000000	30.856151
1577.000000	923.000000	30.971562
1578.000000	922.000000	31.059033
1579.000000	921.000000	31.135544
1580.000000	920.000000	31.213129
1581.000000	919.000000	31.303287
1582.000000	918.000000	31.366151
1583.000000	917.000000	31.452333
1584.000000	916.000000	31.511650
1585.000000	915.000000	31.585582
1586.000000	914.000000	31.695512
1587.000000	913.000000	31.733982
1588.000000	912.000000	31.808881
1589.000000	911.000000	31.841441
1590.000000	910.000000	31.898072
1591.000000	909.000000	31.995644
1592.000000	908.000000	32.033577
1593.000000	907.000000	32.138457
1594.000000	906.000000	32.183482
1595.000000	905.000000	32.241618
1596.000000	904.000000	32.333817
1597.000000	903.000000	32.426017
1598.000000	902.000000	32.456428
1599.000000	901.000000	32.503925
1600.000000	900.000000	32.596124
1601.000000	899.000000	32.672098
1602.000000	898.000000	32.714221
1603.000000	897.000000	32.775366
1604.000000	896.000000	32.785682
1605.000000	895.000000	32.857142
1606.000000	894.000000	32.889594
1607.000000	893.000000	32.941174
1608.000000	892.000000	32.958045
1609.000000	891.000000	32.996516
1610.000000	890.000000	33.016073
1611.000000	889.000000	33.022843
1612.000000	888.000000	32.985447
1613.000000	887.000000	33.005220
1614.000000	886.000000	33.004575
1615.000000	885.000000	33.005005
1616.000000	884.000000	32.964171
1617.000000	883.000000	32.855960
1618.000000	882.000000	32.805561
1619.000000	881.000000	32.784822
1620.000000	880.000000	32.712287
1621.000000	879.000000	32.569152
1622.000000	878.000000	32.485657
1623.000000	877.000000	32.327692
1624.000000	876.000000	32.262680
1625.000000	875.000000	32.199494
1626.000000	874.000000	32.095581
1627.000000	873.000000	31.917414
1628.000000	872.000000	31.797168
1629.000000	871.000000	31.626523
1630.000000	870.000000	31.468129
1631.000000	869.000000	31.309520
1632.000000	868.000000	31.226132
1633.000000	867.000000	31.037864
1634.000000	866.000000	30.930298
1635.000000	865.000000	30.759761
1636.000000	864.000000	30.648756
1637.000000	863.000000	30.431689
1638.000000	862.000000	30.228914
1639.000000	861.000000	30.011740
1640.000000	860.000000	29.835293
1641.000000	859.000000	29.739977
1642.000000	858.000000	30.098567
1643.000000	857.000000	30.255600
1644.000000	856.000000	30.005600
1645.000000	855.000000	30.034500
1646.000000	854.000000	30.388000
1647.000000	853.000000	30.470400
1648.000000	852.000000	30.653000
1649.000000	851.000000	30.544100
1650.000000	850.000000	30.595500
1651.000000	849.000000	30.764100
1652.000000	848.000000	30.806000
1653.000000	847.000000	30.948100
1654.000000	846.000000	30.920700
1655.000000	845.000000	31.138200
1656.000000	844.000000	31.093300
1657.000000	843.000000	31.009000
1658.000000	842.000000	31.237500
1659.000000	841.000000	31.237300
1660.000000	840.000000	31.425000
1661.000000	839.000000	31.499500
1662.000000	838.000000	31.499500
1663.000000	837.000000	31.635000
1664.000000	836.000000	31.615600
1665.000000	835.000000	31.529500
1666.000000	834.000000	31.640600
1667.000000	833.000000	31.713900
1668.000000	832.000000	31.714500
1669.000000	831.000000	31.643200
1670.000000	830.000000	31.742500
1671.000000	829.000000	31.889800
1672.000000	828.000000	31.712500
1673.000000	827.000000	31.802000
1674.000000	826.000000	31.731000
1675.000000	825.000000	31.667300
1676.000000	824.000000	31.643100
1677.000000	823.000000	31.652400
1678.000000	822.000000	31.587800
1679.000000	821.000000	31.526400
1680.000000	820.000000	31.554900
1681.000000	819.000000	31.536200
1682.000000	818.000000	31.467000
1683.000000	817.000000	31.435700
1684.000000	816.000000	31.413600
1685.000000	815.000000	31.335900
1686.000000	814.000000	31.337200
1687.000000	813.000000	31.184600
1688.000000	812.000000	31.142300
1689.000000	811.000000	31.034800
1690.000000	810.000000	30.957500
1691.000000	809.000000	30.931900
1692.000000	808.000000	30.849100
1693.000000	807.000000	30.746900
1694.000000	806.000000	30.675100
1695.000000	805.000000	30.595500
1696.000000	804.000000	30.494500
1697.000000	803.000000	30.411700
1698.000000	802.000000	30.283900
1699.000000	801.000000	30.197100
1700.000000	800.000000	30.097100
1701.000000	799.000000	29.975600
1702.000000	798.000000	29.870600
1703.000000	797.000000	29.726500
1704.000000	796.000000	29.568200
1705.000000	795.000000	29.457500
1706.000000	794.000000	29.370300
1707.000000	793.000000	29.208200
1708.000000	792.000000	29.081700
1709.000000	791.000000	28.931500
1710.000000	790.000000	28.777200
1711.000000	789.000000	28.607100
1712.000000	788.000000	28.498400
1713.000000	787.000000	28.259000
1714.000000	786.000000	28.120500
1715.000000	785.000000	28.010700
1716.000000	784.000000	27.849600
1717.000000	783.000000	27.685800
1718.000000	782.000000	27.558900
1719.000000	781.000000	27.396000
1720.000000	780.000000	27.260100
1721.000000	779.000000	27.106600
1722.000000	778.000000	26.875800
1723.000000	777.000000	26.754000
1724.000000	776.000000	26.665400
1725.000000	775.000000	26.493000
1726.000000	774.000000	26.313700
1727.000000	773.000000	26.210900
1728.000000	772.000000	26.138200
1729.000000	771.000000	26.036300
1730.000000	770.000000	25.928100
1731.000000	769.000000	25.806700
1732.000000	768.000000	25.667200
1733.000000	767.000000	25.644100
1734.000000	766.000000	25.589000
1735.000000	765.000000	25.475000
1736.000000	764.000000	25.400700
1737.000000	763.000000	25.336400
1738.000000	762.000000	25.360700
1739.000000	761.000000	25.337600
1740.000000	760.000000	25.241300
1741.000000	759.000000	25.182700
1742.000000	758.000000	25.135300
1743.000000	757.000000	25.104700
1744.000000	756.000000	25.072700
1745.000000	755.000000	25.068300
1746.000000	754.000000	25.047800
1747.000000	753.000000	25.016000
1748.000000	752.000000	24.997900
1749.000000	751.000000	24.995100
1750.000000	750.000000	24.994800
1751.000000	749.000000	24.977000
1752.000000	748.000000	24.997300
1753.000000	747.000000	25.011200
1754.000000	746.000000	25.041300
1755.000000	745.000000	25.078100
1756.000000	744.000000	25.101700
1757.000000	743.000000	25.111900
1758.000000	742.000000	25.080200
1759.000000	741.000000	25.116300
1760.000000	740.000000	25.145400
1761.000000	739.000000	25.116600
1762.000000	738.000000	25.131700
1763.000000	737.000000	25.145800
1764.000000	736.000000	25.135300
1765.000000	735.000000	25.129000
1766.000000	734.000000	25.120300
1767.000000	733.000000	25.127400
1768.000000	732.000000	25.114000
1769.000000	731.000000	25.099700
1770.000000	730.000000	25.121900
1771.000000	729.000000	25.085100
1772.000000	728.000000	25.055600
1773.000000	727.000000	25.040500
1774.000000	726.000000	25.023000
1775.000000	725.000000	25.009400
1776.000000	724.000000	24.981300
1777.000000	723.000000	24.934200
1778.000000	722.000000	24.898100
1779.000000	721.000000	24.880000
1780.000000	720.000000	24.812300
1781.000000	719.000000	24.751100
1782.000000	718.000000	24.713400
1783.000000	717.000000	24.636300
1784.000000	716.000000	24.551500
1785.000000	715.000000	24.504500
1786.000000	714.000000	24.483300
1787.000000	713.000000	24.401800
1788.000000	712.000000	24.307300
1789.000000	711.000000	24.224000
1790.000000	710.000000	24.110500
1791.000000	709.000000	24.022600
1792.000000	708.000000	23.911600
1793.000000	707.000000	23.822400
1794.000000	706.000000	23.724500
1795.000000	705.000000	23.608400
1796.000000	704.000000	23.494400
1797.000000	703.000000	23.360300
1798.000000	702.000000	23.208600
1799.000000	701.000000	23.082900
1800.000000	700.000000	22.956500
1801.000000	699.000000	22.805000
1802.000000	698.000000	22.627200
1803.000000	697.000000	22.485800
1804.000000	696.000000	22.328800
1805.000000	695.000000	22.153500
1806.000000	694.000000	21.999700
1807.000000	693.000000	21.842400
1808.000000	692.000000	21.652000
1809.000000	691.000000	21.491500
1810.000000	690.000000	21.310500
1811.000000	689.000000	21.128200
1812.000000	688.000000	20.989000
1813.000000	687.000000	20.842200
1814.000000	686.000000	20.688200
1815.000000	685.000000	20.541500
1816.000000	684.000000	20.396100
1817.000000	683.000000	20.250100
1818.000000	682.000000	20.119800
1819.000000	681.000000	19.986800
1820.000000	680.000000	19.876900
1821.000000	679.000000	19.770800
1822.000000	678.000000	19.693500
1823.000000	677.000000	19.631300
1824.000000	676.000000	19.588100
1825.000000	675.000000	19.561600
1826.000000	674.000000	19.547000
1827.000000	673.000000	19.539500
1828.000000	672.000000	19.563600
1829.000000	671.000000	19.595500
1830.000000	670.000000	19.660800
1831.000000	669.000000	19.765000
1832.000000	668.000000	19.850400
1833.000000	667.000000	19.970200
1834.000000	666.000000	20.088300
1835.000000	665.000000	20.236600
1836.000000	664.000000	20.380900
1837.000000	663.000000	20.561400
1838.000000	662.000000	20.751100
1839.000000	661.000000	20.928300
1840.000000	660.000000	21.114200
1841.000000	659.000000	21.300800
1842.000000	658.000000	21.477400
1843.000000	657.000000	21.683100
1844.000000	656.000000	21.881100
1845.000000	655.000000	22.059700
1846.000000	654.000000	22.268000
1847.000000	653.000000	22.509700
1848.000000	652.000000	22.708700
1849.000000	651.000000	22.925800
1850.000000	650.000000	23.192300
1851.000000	649.000000	23.404700
1852.000000	648.000000	23.629400
1853.000000	647.000000	23.855300
1854.000000	646.000000	24.081300
1855.000000	645.000000	24.311000
1856.000000	644.000000	24.549400
1857.000000	643.000000	24.787500
1858.000000	642.000000	25.013100
1859.000000	641.000000	25.233600
1860.000000	640.000000	25.449900
1861.000000	639.000000	25.658300
1862.000000	638.000000	25.873900
1863.000000	637.000000	26.051800
1864.000000	636.000000	26.217800
1865.000000	635.000000	26.407300
1866.000000	634.000000	26.605400
1867.000000	633.000000	26.780800
1868.000000	632.000000	26.980900
1869.000000	631.000000	27.165000
1870.000000	630.000000	27.358700
1871.000000	629.000000	27.540000
1872.000000	628.000000	27.723700
1873.000000	627.000000	27.917300
1874.000000	626.000000	28.092200
1875.000000	625.000000	28.315200
1876.000000	624.000000	28.497600
1877.000000	623.000000	28.684800
1878.000000	622.000000	28.876700
1879.000000	621.000000	29.065700
1880.000000	620.000000	29.241200
1881.000000	619.000000	29.417900
1882.000000	618.000000	29.585500
1883.000000	617.000000	29.730200
1884.000000	616.000000	29.881300
1885.000000	615.000000	30.039900
1886.000000	614.000000	30.210700
1887.000000	613.000000	30.301900
1888.000000	612.000000	30.439600
1889.000000	611.000000	30.576900
1890.000000	610.000000	30.712800
1891.000000	609.000000	30.830800
1892.000000	608.000000	30.939300
1893.000000	607.000000	31.060800
1894.000000	606.000000	31.164900
1895.000000	605.000000	31.235900
1896.000000	604.000000	31.337600
1897.000000	603.000000	31.424300
1898.000000	602.000000	31.509000
1899.000000	601.000000	31.565000
1900.000000	600.000000	31.638400
1901.000000	599.000000	31.694800
1902.000000	598.000000	31.753000
1903.000000	597.000000	31.787700
1904.000000	596.000000	31.838900
1905.000000	595.000000	31.826400
1906.000000	594.000000	31.885500
1907.000000	593.000000	31.878700
1908.000000	592.000000	31.908700
1909.000000	591.000000	31.927300
1910.000000	590.000000	31.893300
1911.000000	589.000000	31.914400
1912.000000	588.000000	31.873600
1913.000000	587.000000	31.857200
1914.000000	586.000000	31.853900
1915.000000	585.000000	31.855400
1916.000000	584.000000	31.789000
1917.000000	583.000000	31.760900
1918.000000	582.000000	31.725500
1919.000000	581.000000	31.684500
1920.000000	580.000000	31.631600
1921.000000	579.000000	31.569900
1922.000000	578.000000	31.494300
1923.000000	577.000000	31.428800
1924.000000	576.000000	31.365700
1925.000000	575.000000	31.252400
1926.000000	574.000000	31.182200
1927.000000	573.000000	31.083100
1928.000000	572.000000	30.969400
1929.000000	571.000000	30.876600
1930.000000	570.000000	30.756300
1931.000000	569.000000	30.611300
1932.000000	568.000000	30.447600
1933.000000	567.000000	30.341400
1934.000000	566.000000	30.166000
1935.000000	565.000000	30.023700
1936.000000	564.000000	29.858300
1937.000000	563.000000	29.683900
1938.000000	562.000000	29.473700
1939.000000	561.000000	29.304700
1940.000000	560.000000	29.178700
1941.000000	559.000000	29.692800
1942.000000	558.000000	29.490100
1943.000000	557.000000	29.215300
1944.000000	556.000000	28.947800
1945.000000	555.000000	28.686700
1946.000000	554.000000	28.398200
1947.000000	553.000000	28.072500
1948.000000	552.000000	27.744200
1949.000000	551.000000	27.403800
1950.000000	550.000000	27.053200
1951.000000	549.000000	26.682800
1952.000000	548.000000	26.296400
1953.000000	547.000000	25.896500
1954.000000	546.000000	25.490600
1955.000000	545.000000	25.052100
1956.000000	544.000000	24.630500
1957.000000	543.000000	24.166100
1958.000000	542.000000	23.723400
1959.000000	541.000000	23.251900
1960.000000	540.000000	22.791100
1961.000000	539.000000	22.319400
1962.000000	538.000000	21.867800
1963.000000	537.000000	21.407600
1964.000000	536.000000	20.952400
1965.000000	535.000000	20.502800
1966.000000	534.000000	20.056200
1967.000000	533.000000	19.613300
1968.000000	532.000000	19.202800
1969.000000	531.000000	18.792000
1970.000000	530.000000	18.415900
1971.000000	529.000000	18.051000
1972.000000	528.000000	17.707100
1973.000000	527.000000	17.366200
1974.000000	526.000000	17.048100
1975.000000	525.000000	16.753100
1976.000000	524.000000	16.460600
1977.000000	523.000000	16.191200
1978.000000	522.000000	15.938600
1979.000000	521.000000	15.701200
1980.000000	520.000000	15.455600
1981.000000	519.000000	15.218100
1982.000000	518.000000	14.990700
1983.000000	517.000000	14.773500
1984.000000	516.000000	14.559000
1985.000000	515.000000	14.348000
1986.000000	514.000000	14.123600
1987.000000	513.000000	13.902200
1988.000000	512.000000	13.671800
1989.000000	511.000000	13.437000
1990.000000	510.000000	13.192700
1991.000000	509.000000	12.940600
1992.000000	508.000000	12.680900
1993.000000	507.000000	12.434500
1994.000000	506.000000	12.179100
1995.000000	505.000000	11.930900
1996.000000	504.000000	11.673400
1997.000000	503.000000	11.443000
1998.000000	502.000000	11.214800
1999.000000	501.000000	10.988200
2000.000000	500.000000	10.783200
2001.000000	499.000000	10.608000
2002.000000	498.000000	10.440200
2003.000000	497.000000	10.289500
2004.000000	496.000000	10.173200
2005.000000	495.000000	10.073400
2006.000000	494.000000	9.994000
2007.000000	493.000000	9.938800
2008.000000	492.000000	9.889600
2009.000000	491.000000	9.868800
2010.000000	490.000000	9.878300
2011.000000	489.000000	9.881100
2012.000000	488.000000	9.911000
2013.000000	487.000000	9.957800
2014.000000	486.000000	9.996200
2015.000000	485.000000	10.046600
2016.000000	484.000000	10.108500
2017.000000	483.000000	10.176200
2018.000000	482.000000	10.254500
2019.000000	481.000000	10.335100
2020.000000	480.000000	10.419400
2021.000000	479.000000	10.501200
2022.000000	478.000000	10.569500
2023.000000	477.000000	10.634200
2024.000000	476.000000	10.683800
2025.000000	475.000000	10.734800
2026.000000	474.000000	10.787000
2027.000000	473.000000	10.828700
2028.000000	472.000000	10.857400
2029.000000	471.000000	10.878700
2030.000000	470.000000	10.892900
2031.000000	469.000000	10.899100
2032.000000	468.000000	10.893700
2033.000000	467.000000	10.889400
2034.000000	466.000000	10.885300
2035.000000	465.000000	10.859700
2036.000000	464.000000	10.834500
2037.000000	463.000000	10.808000
2038.000000	462.000000	10.776900
2039.000000	461.000000	10.733400
2040.000000	460.000000	10.691300
2041.000000	459.000000	10.655300
2042.000000	458.000000	10.613000
2043.000000	457.000000	10.552300
2044.000000	456.000000	10.488200
2045.000000	455.000000	10.424600
2046.000000	454.000000	10.372400
2047.000000	453.000000	10.302600
2048.000000	452.000000	10.211100
2049.000000	451.000000	10.137800
2050.000000	450.000000	10.058800
2051.000000	449.000000	9.965700
2052.000000	448.000000	9.876800
2053.000000	447.000000	9.782500
2054.000000	446.000000	9.671000
2055.000000	445.000000	9.558700
2056.000000	444.000000	9.452300
2057.000000	443.000000	9.339700
2058.000000	442.000000	9.213400
2059.000000	441.000000	9.084100
2060.000000	440.000000	8.941600
2061.000000	439.000000	8.795400
2062.000000	438.000000	8.655300
2063.000000	437.000000	8.501400
2064.000000	436.000000	8.343500
2065.000000	435.000000	8.194200
2066.000000	434.000000	8.031800
2067.000000	433.000000	7.861100
2068.000000	432.000000	7.685200
2069.000000	431.000000	7.508200
2070.000000	430.000000	7.332500
2071.000000	429.000000	7.156700
2072.000000	428.000000	6.983400
2073.000000	427.000000	6.799000
2074.000000	426.000000	6.616600
2075.000000	425.000000	6.437400
2076.000000	424.000000	6.258800
2077.000000	423.000000	6.085400
2078.000000	422.000000	5.910400
2079.000000	421.000000	5.733700
2080.000000	420.000000	5.561200
2081.000000	419.000000	5.395700
2082.000000	418.000000	5.236700
2083.000000	417.000000	5.081500
2084.000000	416.000000	4.925300
2085.000000	415.000000	4.771900
2086.000000	414.000000	4.629500
2087.000000	413.000000	4.499300
2088.000000	412.000000	4.365800
2089.000000	411.000000	4.245800
2090.000000	410.000000	4.126900
2091.000000	409.000000	4.016700
2092.000000	408.000000	3.917400
2093.000000	407.000000	3.809100
2094.000000	406.000000	3.720300
2095.000000	405.000000	3.643800
2096.000000	404.000000	3.565100
2097.000000	403.000000	3.486500
2098.000000	402.000000	3.412400
2099.000000	401.000000	3.354200
2100.000000	400.000000	3.296600
2101.000000	399.000000	3.243000
2102.000000	398.000000	3.192200
2103.000000	397.000000	3.147200
2104.000000	396.000000	3.102400
2105.000000	395.000000	3.055600
2106.000000	394.000000	3.023800
2107.000000	393.000000	2.985600
2108.000000	392.000000	2.952600
2109.000000	391.000000	2.916800
2110.000000	390.000000	2.894300
2111.000000	389.000000	2.874800
2112.000000	388.000000	2.839900
2113.000000	387.000000	2.818900
2114.000000	386.000000	2.801900
2115.000000	385.000000	2.788600
2116.000000	384.000000	2.766000
2117.000000	383.000000	2.747500
2118.000000	382.000000	2.716500
2119.000000	381.000000	2.706800
2120.000000	380.000000	2.688000
2121.000000	379.000000	2.666300
2122.000000	378.000000	2.656600
2123.000000	377.000000	2.639400
2124.000000	376.000000	2.880600
2125.000000	375.000000	2.951200
2126.000000	374.000000	2.882700
2127.000000	373.000000	2.747500
2128.000000	372.000000	2.891500
2129.000000	371.000000	2.846900
2130.000000	370.000000	2.862600
2131.000000	369.000000	2.924400
2132.000000	368.000000	2.919400
2133.000000	367.000000	2.888000
2134.000000	366.000000	2.903400
2135.000000	365.000000	2.927300
2136.000000	364.000000	2.914500
2137.000000	363.000000	2.879900
2138.000000	362.000000	2.852900
2139.000000	361.000000	2.903400
2140.000000	360.000000	2.876600
2141.000000	359.000000	2.836800
2142.000000	358.000000	2.865200
2143.000000	357.000000	2.842700
2144.000000	356.000000	2.863900
2145.000000	355.000000	2.816700
2146.000000	354.000000	2.803800
2147.000000	353.000000	2.793000
2148.000000	352.000000	2.783800
2149.000000	351.000000	2.748300
2150.000000	350.000000	2.715000
2151.000000	349.000000	2.787400
2152.000000	348.000000	2.838800
2153.000000	347.000000	2.863600
2154.000000	346.000000	2.839400
2155.000000	345.000000	2.792600
2156.000000	344.000000	2.728200
2157.000000	343.000000	2.822700
2158.000000	342.000000	2.805600
2159.000000	341.000000	2.811400
2160.000000	340.000000	2.823800
2161.000000	339.000000	2.665100
2162.000000	338.000000	2.857100
2163.000000	337.000000	2.794400
2164.000000	336.000000	2.748100
2165.000000	335.000000	2.700700
2166.000000	334.000000	2.831900
2167.000000	333.000000	2.859900
2168.000000	332.000000	2.750700
2169.000000	331.000000	2.891400
2170.000000	330.000000	2.857100
2171.000000	329.000000	2.795400
2172.000000	328.000000	2.938700
2173.000000	327.000000	2.798400
2174.000000	326.000000	2.808900
2175.000000	325.000000	2.741400
2176.000000	324.000000	2.973600
2177.000000	323.000000	3.066600
2178.000000	322.000000	3.154100
2179.000000	321.000000	3.036200
2180.000000	320.000000	2.607500
2181.000000	319.000000	2.881200
2182.000000	318.000000	3.134100
2183.000000	317.000000	3.430300
2184.000000	316.000000	2.758900
2185.000000	315.000000	2.647100
2186.000000	314.000000	2.619100
2187.000000	313.000000	2.586300
2188.000000	312.000000	2.631600
2189.000000	311.000000	2.651600
2190.000000	310.000000	2.612700
2191.000000	309.000000	2.691500
2192.000000	308.000000	2.614100
2193.000000	307.000000	2.656400
2194.000000	306.000000	2.632200
2195.000000	305.000000	2.632500
2196.000000	304.000000	2.656000
2197.000000	303.000000	2.641500
2198.000000	302.000000	2.656100
2199.000000	301.000000	2.633300
2200.000000	300.000000	2.608100
2201.000000	299.000000	2.605000
2202.000000	298.000000	2.638900
2203.000000	297.000000	2.683200
2204.000000	296.000000	2.687400
2205.000000	295.000000	2.648200
2206.000000	294.000000	2.660000
2207.000000	293.000000	2.669300
2208.000000	292.000000	2.697100
2209.000000	291.000000	2.712300
2210.000000	290.000000	2.713700
2211.000000	289.000000	2.742600
2212.000000	288.000000	2.659900
2213.000000	287.000000	2.699800
2214.000000	286.000000	2.688200
2215.000000	285.000000	2.690600
2216.000000	284.000000	2.714800
2217.000000	283.000000	2.736700
2218.000000	282.000000	2.754700
2219.000000	281.000000	2.721100
2220.000000	280.000000	2.734800
2221.000000	279.000000	2.727500
2222.000000	278.000000	2.744200
2223.000000	277.000000	2.773400
2224.000000	276.000000	2.754200
2225.000000	275.000000	2.763300
2226.000000	274.000000	2.742500
2227.000000	273.000000	2.769200
2228.000000	272.000000	2.756200
2229.000000	271.000000	2.802200
2230.000000	270.000000	2.799200
2231.000000	269.000000	2.810100
2232.000000	268.000000	2.805500
2233.000000	267.000000	2.779900
2234.000000	266.000000	2.844200
2235.000000	265.000000	2.824200
2236.000000	264.000000	2.851400
2237.000000	263.000000	2.847900
2238.000000	262.000000	2.884400
2239.000000	261.000000	2.854700
2240.000000	260.000000	2.872200
2241.000000	259.000000	2.924900
2242.000000	258.000000	2.892900
2243.000000	257.000000	2.902500
2244.000000	256.000000	2.907000
2245.000000	255.000000	2.917100
2246.000000	254.000000	2.908300
2247.000000	253.000000	2.949000
2248.000000	252.000000	2.948900
2249.000000	251.000000	2.910200
2250.000000	250.000000	2.936400
