PE UV       SUBTECH     SPECTRUM    ASCII       PEDS        4.00        
   -1
CICIMAUCR0013-3.Sample.ASC
24/04/04
14:19:19.00
24/04/04
14:19:19.00
Vinicio Soto Monge
C. resplendens
250,000000
1
Lambda 1050
1050L1511233
PerkinElmer UV WinLab 6.3.2.0749 / 2.02.05 Lambda 900 UV/VIS/NIR, Aug  7 2015 09:38:08

0
0
3350/servo 860,8/2
0
0
UV/VIS
1
1
1
DoubleDePol,CommonBeamDepol,RBeamAtt,SBeamAtt,60mm sphere, WB InGaAs Detector
0
0
0
0
Program
Program
3350/servo 860,8/2
3350/0,2 860,8/0,2
3350/0,2 860,8/0,2
0
15.00
 
 
 
0
 
860,8
319,2
860,8
Front
100
on
S:100 R:100
0
0
0
0
 
0
 
 
 
0
 
 
0
0
0
0
0
 
 
 
 
0
0


0
0
#HDR
-1
-1
#GR
nm
%R
1.0
0.0
2500,000000
-1,000000
2251
8
70,616200
5,151800
#DATA
250.000000	2250.000000	5.547500
251.000000	2249.000000	5.552933
252.000000	2248.000000	5.534967
253.000000	2247.000000	5.520033
254.000000	2246.000000	5.534833
255.000000	2245.000000	5.516867
256.000000	2244.000000	5.496633
257.000000	2243.000000	5.522133
258.000000	2242.000000	5.493767
259.000000	2241.000000	5.482800
260.000000	2240.000000	5.466567
261.000000	2239.000000	5.430233
262.000000	2238.000000	5.466000
263.000000	2237.000000	5.410167
264.000000	2236.000000	5.406333
265.000000	2235.000000	5.377333
266.000000	2234.000000	5.351933
267.000000	2233.000000	5.319700
268.000000	2232.000000	5.335000
269.000000	2231.000000	5.331633
270.000000	2230.000000	5.300000
271.000000	2229.000000	5.305133
272.000000	2228.000000	5.299933
273.000000	2227.000000	5.263733
274.000000	2226.000000	5.253167
275.000000	2225.000000	5.267200
276.000000	2224.000000	5.269933
277.000000	2223.000000	5.269767
278.000000	2222.000000	5.279500
279.000000	2221.000000	5.229533
280.000000	2220.000000	5.244667
281.000000	2219.000000	5.225100
282.000000	2218.000000	5.220967
283.000000	2217.000000	5.223167
284.000000	2216.000000	5.207300
285.000000	2215.000000	5.195200
286.000000	2214.000000	5.199567
287.000000	2213.000000	5.179533
288.000000	2212.000000	5.197267
289.000000	2211.000000	5.167967
290.000000	2210.000000	5.179533
291.000000	2209.000000	5.167367
292.000000	2208.000000	5.177000
293.000000	2207.000000	5.156000
294.000000	2206.000000	5.176533
295.000000	2205.000000	5.189233
296.000000	2204.000000	5.123333
297.000000	2203.000000	5.182367
298.000000	2202.000000	5.169767
299.000000	2201.000000	5.143433
300.000000	2200.000000	5.162967
301.000000	2199.000000	5.175533
302.000000	2198.000000	5.113733
303.000000	2197.000000	5.166033
304.000000	2196.000000	5.128200
305.000000	2195.000000	5.149833
306.000000	2194.000000	5.159000
307.000000	2193.000000	5.162000
308.000000	2192.000000	5.106333
309.000000	2191.000000	5.118733
310.000000	2190.000000	5.117033
311.000000	2189.000000	5.111533
312.000000	2188.000000	5.122367
313.000000	2187.000000	5.130567
314.000000	2186.000000	5.098867
315.000000	2185.000000	5.111133
316.000000	2184.000000	5.168067
317.000000	2183.000000	5.578367
318.000000	2182.000000	5.522967
319.000000	2181.000000	5.330267
320.000000	2180.000000	5.223900
321.000000	2179.000000	5.337733
322.000000	2178.000000	5.229833
323.000000	2177.000000	5.322200
324.000000	2176.000000	5.304800
325.000000	2175.000000	5.261500
326.000000	2174.000000	5.309833
327.000000	2173.000000	5.317533
328.000000	2172.000000	5.327767
329.000000	2171.000000	5.403000
330.000000	2170.000000	5.275867
331.000000	2169.000000	5.266567
332.000000	2168.000000	5.354700
333.000000	2167.000000	5.311233
334.000000	2166.000000	5.155033
335.000000	2165.000000	5.195167
336.000000	2164.000000	5.267600
337.000000	2163.000000	5.205667
338.000000	2162.000000	5.294100
339.000000	2161.000000	5.272967
340.000000	2160.000000	5.270967
341.000000	2159.000000	5.216500
342.000000	2158.000000	5.257900
343.000000	2157.000000	5.296667
344.000000	2156.000000	5.264033
345.000000	2155.000000	5.305300
346.000000	2154.000000	5.288133
347.000000	2153.000000	5.296500
348.000000	2152.000000	5.286567
349.000000	2151.000000	5.256533
350.000000	2150.000000	5.366200
351.000000	2149.000000	5.301133
352.000000	2148.000000	5.380633
353.000000	2147.000000	5.443200
354.000000	2146.000000	5.456367
355.000000	2145.000000	5.465267
356.000000	2144.000000	5.541833
357.000000	2143.000000	5.569333
358.000000	2142.000000	5.596400
359.000000	2141.000000	5.663267
360.000000	2140.000000	5.690000
361.000000	2139.000000	5.692700
362.000000	2138.000000	5.759600
363.000000	2137.000000	5.773567
364.000000	2136.000000	5.767667
365.000000	2135.000000	5.825567
366.000000	2134.000000	5.887867
367.000000	2133.000000	5.931233
368.000000	2132.000000	5.977733
369.000000	2131.000000	6.025900
370.000000	2130.000000	6.103500
371.000000	2129.000000	6.170700
372.000000	2128.000000	6.246167
373.000000	2127.000000	6.275333
374.000000	2126.000000	6.356933
375.000000	2125.000000	6.527867
376.000000	2124.000000	6.785233
377.000000	2123.000000	6.857067
378.000000	2122.000000	6.997333
379.000000	2121.000000	7.144800
380.000000	2120.000000	7.307700
381.000000	2119.000000	7.504467
382.000000	2118.000000	7.697400
383.000000	2117.000000	7.892700
384.000000	2116.000000	8.099733
385.000000	2115.000000	8.332067
386.000000	2114.000000	8.579067
387.000000	2113.000000	8.837633
388.000000	2112.000000	9.098867
389.000000	2111.000000	9.365233
390.000000	2110.000000	9.641300
391.000000	2109.000000	9.923700
392.000000	2108.000000	10.219567
393.000000	2107.000000	10.530100
394.000000	2106.000000	10.835033
395.000000	2105.000000	11.151633
396.000000	2104.000000	11.452800
397.000000	2103.000000	11.756767
398.000000	2102.000000	12.074567
399.000000	2101.000000	12.393100
400.000000	2100.000000	12.690033
401.000000	2099.000000	12.987633
402.000000	2098.000000	13.292500
403.000000	2097.000000	13.594100
404.000000	2096.000000	13.888833
405.000000	2095.000000	14.161667
406.000000	2094.000000	14.421333
407.000000	2093.000000	14.679667
408.000000	2092.000000	14.931500
409.000000	2091.000000	15.178867
410.000000	2090.000000	15.416633
411.000000	2089.000000	15.638000
412.000000	2088.000000	15.858600
413.000000	2087.000000	16.074933
414.000000	2086.000000	16.275467
415.000000	2085.000000	16.472500
416.000000	2084.000000	16.655233
417.000000	2083.000000	16.820667
418.000000	2082.000000	16.972833
419.000000	2081.000000	17.126033
420.000000	2080.000000	17.273400
421.000000	2079.000000	17.404267
422.000000	2078.000000	17.526200
423.000000	2077.000000	17.627333
424.000000	2076.000000	17.714133
425.000000	2075.000000	17.807200
426.000000	2074.000000	17.872433
427.000000	2073.000000	17.929967
428.000000	2072.000000	17.974633
429.000000	2071.000000	17.994367
430.000000	2070.000000	18.004933
431.000000	2069.000000	18.009433
432.000000	2068.000000	17.995800
433.000000	2067.000000	17.955667
434.000000	2066.000000	17.913767
435.000000	2065.000000	17.847700
436.000000	2064.000000	17.756700
437.000000	2063.000000	17.674100
438.000000	2062.000000	17.574033
439.000000	2061.000000	17.456367
440.000000	2060.000000	17.335867
441.000000	2059.000000	17.208533
442.000000	2058.000000	17.080300
443.000000	2057.000000	16.964267
444.000000	2056.000000	16.845000
445.000000	2055.000000	16.725333
446.000000	2054.000000	16.620667
447.000000	2053.000000	16.544767
448.000000	2052.000000	16.503133
449.000000	2051.000000	16.485567
450.000000	2050.000000	16.497167
451.000000	2049.000000	16.543867
452.000000	2048.000000	16.632633
453.000000	2047.000000	16.759000
454.000000	2046.000000	16.932800
455.000000	2045.000000	17.148100
456.000000	2044.000000	17.387233
457.000000	2043.000000	17.666033
458.000000	2042.000000	17.974233
459.000000	2041.000000	18.302267
460.000000	2040.000000	18.646333
461.000000	2039.000000	19.015467
462.000000	2038.000000	19.401067
463.000000	2037.000000	19.782867
464.000000	2036.000000	20.165500
465.000000	2035.000000	20.537900
466.000000	2034.000000	20.905200
467.000000	2033.000000	21.256300
468.000000	2032.000000	21.584500
469.000000	2031.000000	21.899700
470.000000	2030.000000	22.199333
471.000000	2029.000000	22.461933
472.000000	2028.000000	22.708433
473.000000	2027.000000	22.931167
474.000000	2026.000000	23.130667
475.000000	2025.000000	23.306700
476.000000	2024.000000	23.457900
477.000000	2023.000000	23.587567
478.000000	2022.000000	23.690033
479.000000	2021.000000	23.788000
480.000000	2020.000000	23.867033
481.000000	2019.000000	23.941833
482.000000	2018.000000	24.008100
483.000000	2017.000000	24.066200
484.000000	2016.000000	24.128600
485.000000	2015.000000	24.212900
486.000000	2014.000000	24.306800
487.000000	2013.000000	24.424033
488.000000	2012.000000	24.578800
489.000000	2011.000000	24.767400
490.000000	2010.000000	24.979933
491.000000	2009.000000	25.239200
492.000000	2008.000000	25.535333
493.000000	2007.000000	25.878400
494.000000	2006.000000	26.227067
495.000000	2005.000000	26.616400
496.000000	2004.000000	27.028933
497.000000	2003.000000	27.470733
498.000000	2002.000000	27.941067
499.000000	2001.000000	28.444767
500.000000	2000.000000	28.969367
501.000000	1999.000000	29.519400
502.000000	1998.000000	30.099300
503.000000	1997.000000	30.714067
504.000000	1996.000000	31.350167
505.000000	1995.000000	32.000600
506.000000	1994.000000	32.694233
507.000000	1993.000000	33.405533
508.000000	1992.000000	34.142067
509.000000	1991.000000	34.925600
510.000000	1990.000000	35.729233
511.000000	1989.000000	36.579333
512.000000	1988.000000	37.459667
513.000000	1987.000000	38.377533
514.000000	1986.000000	39.321433
515.000000	1985.000000	40.291033
516.000000	1984.000000	41.259833
517.000000	1983.000000	42.261067
518.000000	1982.000000	43.272600
519.000000	1981.000000	44.296867
520.000000	1980.000000	45.335533
521.000000	1979.000000	46.382733
522.000000	1978.000000	47.448833
523.000000	1977.000000	48.502900
524.000000	1976.000000	49.568033
525.000000	1975.000000	50.599033
526.000000	1974.000000	51.625300
527.000000	1973.000000	52.617767
528.000000	1972.000000	53.589000
529.000000	1971.000000	54.542933
530.000000	1970.000000	55.451900
531.000000	1969.000000	56.309133
532.000000	1968.000000	57.144000
533.000000	1967.000000	57.948067
534.000000	1966.000000	58.710300
535.000000	1965.000000	59.427567
536.000000	1964.000000	60.081733
537.000000	1963.000000	60.706300
538.000000	1962.000000	61.302467
539.000000	1961.000000	61.868067
540.000000	1960.000000	62.402133
541.000000	1959.000000	62.896700
542.000000	1958.000000	63.383467
543.000000	1957.000000	63.845233
544.000000	1956.000000	64.269767
545.000000	1955.000000	64.680867
546.000000	1954.000000	65.077733
547.000000	1953.000000	65.426767
548.000000	1952.000000	65.763267
549.000000	1951.000000	66.112900
550.000000	1950.000000	66.417633
551.000000	1949.000000	66.695500
552.000000	1948.000000	67.002667
553.000000	1947.000000	67.231667
554.000000	1946.000000	67.473133
555.000000	1945.000000	67.697700
556.000000	1944.000000	67.875833
557.000000	1943.000000	68.056767
558.000000	1942.000000	68.223967
559.000000	1941.000000	68.338600
560.000000	1940.000000	68.459033
561.000000	1939.000000	68.595000
562.000000	1938.000000	68.697200
563.000000	1937.000000	68.809200
564.000000	1936.000000	68.892400
565.000000	1935.000000	68.940867
566.000000	1934.000000	69.023633
567.000000	1933.000000	69.089000
568.000000	1932.000000	69.122267
569.000000	1931.000000	69.165733
570.000000	1930.000000	69.182133
571.000000	1929.000000	69.213267
572.000000	1928.000000	69.208267
573.000000	1927.000000	69.211433
574.000000	1926.000000	69.181400
575.000000	1925.000000	69.146133
576.000000	1924.000000	69.073500
577.000000	1923.000000	69.006200
578.000000	1922.000000	68.931400
579.000000	1921.000000	68.844400
580.000000	1920.000000	68.713167
581.000000	1919.000000	68.593633
582.000000	1918.000000	68.459367
583.000000	1917.000000	68.273767
584.000000	1916.000000	68.088800
585.000000	1915.000000	67.878567
586.000000	1914.000000	67.654500
587.000000	1913.000000	67.419133
588.000000	1912.000000	67.144400
589.000000	1911.000000	66.888667
590.000000	1910.000000	66.599467
591.000000	1909.000000	66.293000
592.000000	1908.000000	65.955133
593.000000	1907.000000	65.650100
594.000000	1906.000000	65.316367
595.000000	1905.000000	65.003667
596.000000	1904.000000	64.675133
597.000000	1903.000000	64.332767
598.000000	1902.000000	64.021600
599.000000	1901.000000	63.691433
600.000000	1900.000000	63.382833
601.000000	1899.000000	63.052967
602.000000	1898.000000	62.716433
603.000000	1897.000000	62.366667
604.000000	1896.000000	62.018367
605.000000	1895.000000	61.611833
606.000000	1894.000000	61.215833
607.000000	1893.000000	60.764267
608.000000	1892.000000	60.304600
609.000000	1891.000000	59.863300
610.000000	1890.000000	59.362700
611.000000	1889.000000	58.814933
612.000000	1888.000000	58.282600
613.000000	1887.000000	57.731200
614.000000	1886.000000	57.179233
615.000000	1885.000000	56.605867
616.000000	1884.000000	56.014400
617.000000	1883.000000	55.437033
618.000000	1882.000000	54.862900
619.000000	1881.000000	54.247433
620.000000	1880.000000	53.635067
621.000000	1879.000000	53.008267
622.000000	1878.000000	52.333133
623.000000	1877.000000	51.674067
624.000000	1876.000000	51.024633
625.000000	1875.000000	50.342300
626.000000	1874.000000	49.683200
627.000000	1873.000000	49.035067
628.000000	1872.000000	48.395067
629.000000	1871.000000	47.788167
630.000000	1870.000000	47.184367
631.000000	1869.000000	46.603300
632.000000	1868.000000	46.040667
633.000000	1867.000000	45.580433
634.000000	1866.000000	45.146500
635.000000	1865.000000	44.769967
636.000000	1864.000000	44.474433
637.000000	1863.000000	44.232900
638.000000	1862.000000	44.043867
639.000000	1861.000000	43.935300
640.000000	1860.000000	43.849567
641.000000	1859.000000	43.842967
642.000000	1858.000000	43.914433
643.000000	1857.000000	44.034333
644.000000	1856.000000	44.231567
645.000000	1855.000000	44.454500
646.000000	1854.000000	44.695433
647.000000	1853.000000	45.025600
648.000000	1852.000000	45.404833
649.000000	1851.000000	45.803300
650.000000	1850.000000	46.229700
651.000000	1849.000000	46.698133
652.000000	1848.000000	47.202600
653.000000	1847.000000	47.728100
654.000000	1846.000000	48.244733
655.000000	1845.000000	48.751000
656.000000	1844.000000	49.266267
657.000000	1843.000000	49.776433
658.000000	1842.000000	50.253800
659.000000	1841.000000	50.746833
660.000000	1840.000000	51.227900
661.000000	1839.000000	51.686100
662.000000	1838.000000	52.083767
663.000000	1837.000000	52.481867
664.000000	1836.000000	52.888767
665.000000	1835.000000	53.225333
666.000000	1834.000000	53.557267
667.000000	1833.000000	53.872200
668.000000	1832.000000	54.201567
669.000000	1831.000000	54.502100
670.000000	1830.000000	54.797967
671.000000	1829.000000	55.094333
672.000000	1828.000000	55.396033
673.000000	1827.000000	55.674367
674.000000	1826.000000	55.948133
675.000000	1825.000000	56.224867
676.000000	1824.000000	56.448733
677.000000	1823.000000	56.709233
678.000000	1822.000000	56.958933
679.000000	1821.000000	57.188700
680.000000	1820.000000	57.377233
681.000000	1819.000000	57.561100
682.000000	1818.000000	57.735167
683.000000	1817.000000	57.857833
684.000000	1816.000000	57.976700
685.000000	1815.000000	58.073600
686.000000	1814.000000	58.135233
687.000000	1813.000000	58.160367
688.000000	1812.000000	58.179667
689.000000	1811.000000	58.204667
690.000000	1810.000000	58.191233
691.000000	1809.000000	58.134433
692.000000	1808.000000	58.032000
693.000000	1807.000000	57.963800
694.000000	1806.000000	57.868133
695.000000	1805.000000	57.753133
696.000000	1804.000000	57.639200
697.000000	1803.000000	57.508667
698.000000	1802.000000	57.363667
699.000000	1801.000000	57.193533
700.000000	1800.000000	57.052833
701.000000	1799.000000	56.901833
702.000000	1798.000000	56.699500
703.000000	1797.000000	56.555600
704.000000	1796.000000	56.411200
705.000000	1795.000000	56.241733
706.000000	1794.000000	56.120967
707.000000	1793.000000	56.016333
708.000000	1792.000000	55.924600
709.000000	1791.000000	55.878333
710.000000	1790.000000	55.830900
711.000000	1789.000000	55.808467
712.000000	1788.000000	55.837367
713.000000	1787.000000	55.936633
714.000000	1786.000000	56.035667
715.000000	1785.000000	56.163600
716.000000	1784.000000	56.307567
717.000000	1783.000000	56.474033
718.000000	1782.000000	56.665700
719.000000	1781.000000	56.884867
720.000000	1780.000000	57.125467
721.000000	1779.000000	57.365467
722.000000	1778.000000	57.630067
723.000000	1777.000000	57.915200
724.000000	1776.000000	58.206000
725.000000	1775.000000	58.504733
726.000000	1774.000000	58.799433
727.000000	1773.000000	59.100500
728.000000	1772.000000	59.415533
729.000000	1771.000000	59.744133
730.000000	1770.000000	60.066400
731.000000	1769.000000	60.393200
732.000000	1768.000000	60.772900
733.000000	1767.000000	61.145500
734.000000	1766.000000	61.457867
735.000000	1765.000000	61.813767
736.000000	1764.000000	62.170300
737.000000	1763.000000	62.485433
738.000000	1762.000000	62.821433
739.000000	1761.000000	63.140733
740.000000	1760.000000	63.412233
741.000000	1759.000000	63.691967
742.000000	1758.000000	64.006633
743.000000	1757.000000	64.277500
744.000000	1756.000000	64.502733
745.000000	1755.000000	64.770567
746.000000	1754.000000	65.023333
747.000000	1753.000000	65.252833
748.000000	1752.000000	65.453400
749.000000	1751.000000	65.637167
750.000000	1750.000000	65.803933
751.000000	1749.000000	65.994067
752.000000	1748.000000	66.177333
753.000000	1747.000000	66.290100
754.000000	1746.000000	66.404600
755.000000	1745.000000	66.547033
756.000000	1744.000000	66.652467
757.000000	1743.000000	66.765133
758.000000	1742.000000	66.861500
759.000000	1741.000000	66.990200
760.000000	1740.000000	67.132200
761.000000	1739.000000	67.267033
762.000000	1738.000000	67.406067
763.000000	1737.000000	67.518867
764.000000	1736.000000	67.637433
765.000000	1735.000000	67.783033
766.000000	1734.000000	67.941933
767.000000	1733.000000	68.093133
768.000000	1732.000000	68.222967
769.000000	1731.000000	68.365100
770.000000	1730.000000	68.493133
771.000000	1729.000000	68.657500
772.000000	1728.000000	68.810067
773.000000	1727.000000	68.923667
774.000000	1726.000000	69.028467
775.000000	1725.000000	69.145033
776.000000	1724.000000	69.215667
777.000000	1723.000000	69.317200
778.000000	1722.000000	69.417367
779.000000	1721.000000	69.430867
780.000000	1720.000000	69.440167
781.000000	1719.000000	69.491967
782.000000	1718.000000	69.451700
783.000000	1717.000000	69.397967
784.000000	1716.000000	69.371633
785.000000	1715.000000	69.389400
786.000000	1714.000000	69.364967
787.000000	1713.000000	69.369800
788.000000	1712.000000	69.310133
789.000000	1711.000000	69.284000
790.000000	1710.000000	69.269433
791.000000	1709.000000	69.280233
792.000000	1708.000000	69.230733
793.000000	1707.000000	69.178967
794.000000	1706.000000	69.182500
795.000000	1705.000000	69.116267
796.000000	1704.000000	69.102733
797.000000	1703.000000	69.145967
798.000000	1702.000000	69.199633
799.000000	1701.000000	69.272633
800.000000	1700.000000	69.268933
801.000000	1699.000000	69.328100
802.000000	1698.000000	69.486500
803.000000	1697.000000	69.504633
804.000000	1696.000000	69.474233
805.000000	1695.000000	69.564867
806.000000	1694.000000	69.644567
807.000000	1693.000000	69.694167
808.000000	1692.000000	69.635800
809.000000	1691.000000	69.754967
810.000000	1690.000000	69.739367
811.000000	1689.000000	69.740967
812.000000	1688.000000	69.729800
813.000000	1687.000000	69.635600
814.000000	1686.000000	69.621400
815.000000	1685.000000	69.565500
816.000000	1684.000000	69.512033
817.000000	1683.000000	69.437167
818.000000	1682.000000	69.361700
819.000000	1681.000000	69.225833
820.000000	1680.000000	69.111833
821.000000	1679.000000	69.002000
822.000000	1678.000000	68.921200
823.000000	1677.000000	68.764967
824.000000	1676.000000	68.638200
825.000000	1675.000000	68.531667
826.000000	1674.000000	68.286833
827.000000	1673.000000	68.091167
828.000000	1672.000000	68.085533
829.000000	1671.000000	67.804467
830.000000	1670.000000	67.633800
831.000000	1669.000000	67.331567
832.000000	1668.000000	67.186867
833.000000	1667.000000	67.044067
834.000000	1666.000000	66.805233
835.000000	1665.000000	66.644033
836.000000	1664.000000	66.449700
837.000000	1663.000000	66.172733
838.000000	1662.000000	66.019933
839.000000	1661.000000	65.955667
840.000000	1660.000000	65.566367
841.000000	1659.000000	65.424233
842.000000	1658.000000	65.251233
843.000000	1657.000000	65.041867
844.000000	1656.000000	64.821133
845.000000	1655.000000	64.550767
846.000000	1654.000000	64.289033
847.000000	1653.000000	64.222533
848.000000	1652.000000	64.134867
849.000000	1651.000000	63.818333
850.000000	1650.000000	63.520700
851.000000	1649.000000	63.333600
852.000000	1648.000000	63.255600
853.000000	1647.000000	63.156500
854.000000	1646.000000	62.943000
855.000000	1645.000000	62.575700
856.000000	1644.000000	62.494200
857.000000	1643.000000	62.480267
858.000000	1642.000000	62.516722
859.000000	1641.000000	62.185759
860.000000	1640.000000	62.172257
861.000000	1639.000000	62.206839
862.000000	1638.000000	62.212913
863.000000	1637.000000	62.200147
864.000000	1636.000000	62.135116
865.000000	1635.000000	62.081023
866.000000	1634.000000	61.999526
867.000000	1633.000000	61.929283
868.000000	1632.000000	61.837806
869.000000	1631.000000	61.754946
870.000000	1630.000000	61.660638
871.000000	1629.000000	61.576627
872.000000	1628.000000	61.501451
873.000000	1627.000000	61.416756
874.000000	1626.000000	61.325724
875.000000	1625.000000	61.240985
876.000000	1624.000000	61.179704
877.000000	1623.000000	61.096051
878.000000	1622.000000	61.036107
879.000000	1621.000000	60.960449
880.000000	1620.000000	60.870241
881.000000	1619.000000	60.791835
882.000000	1618.000000	60.747004
883.000000	1617.000000	60.688118
884.000000	1616.000000	60.605761
885.000000	1615.000000	60.544852
886.000000	1614.000000	60.495489
887.000000	1613.000000	60.435564
888.000000	1612.000000	60.359775
889.000000	1611.000000	60.308160
890.000000	1610.000000	60.239724
891.000000	1609.000000	60.168126
892.000000	1608.000000	60.107240
893.000000	1607.000000	60.046459
894.000000	1606.000000	59.963482
895.000000	1605.000000	59.894080
896.000000	1604.000000	59.808010
897.000000	1603.000000	59.722115
898.000000	1602.000000	59.643657
899.000000	1601.000000	59.547503
900.000000	1600.000000	59.457638
901.000000	1599.000000	59.375959
902.000000	1598.000000	59.271519
903.000000	1597.000000	59.177386
904.000000	1596.000000	59.106988
905.000000	1595.000000	59.013585
906.000000	1594.000000	58.946514
907.000000	1593.000000	58.868266
908.000000	1592.000000	58.811468
909.000000	1591.000000	58.757539
910.000000	1590.000000	58.712125
911.000000	1589.000000	58.661614
912.000000	1588.000000	58.611506
913.000000	1587.000000	58.577711
914.000000	1586.000000	58.540603
915.000000	1585.000000	58.504277
916.000000	1584.000000	58.476818
917.000000	1583.000000	58.413854
918.000000	1582.000000	58.388307
919.000000	1581.000000	58.353738
920.000000	1580.000000	58.315009
921.000000	1579.000000	58.243361
922.000000	1578.000000	58.205175
923.000000	1577.000000	58.162937
924.000000	1576.000000	58.125983
925.000000	1575.000000	58.099762
926.000000	1574.000000	58.049179
927.000000	1573.000000	58.007164
928.000000	1572.000000	57.974421
929.000000	1571.000000	57.949447
930.000000	1570.000000	57.898116
931.000000	1569.000000	57.868811
932.000000	1568.000000	57.820509
933.000000	1567.000000	57.757727
934.000000	1566.000000	57.704279
935.000000	1565.000000	57.655608
936.000000	1564.000000	57.590362
937.000000	1563.000000	57.535331
938.000000	1562.000000	57.464986
939.000000	1561.000000	57.413148
940.000000	1560.000000	57.363299
941.000000	1559.000000	57.312600
942.000000	1558.000000	57.259257
943.000000	1557.000000	57.220572
944.000000	1556.000000	57.188070
945.000000	1555.000000	57.149207
946.000000	1554.000000	57.106199
947.000000	1553.000000	57.064260
948.000000	1552.000000	57.030034
949.000000	1551.000000	57.006723
950.000000	1550.000000	56.978070
951.000000	1549.000000	56.945821
952.000000	1548.000000	56.909922
953.000000	1547.000000	56.859542
954.000000	1546.000000	56.832841
955.000000	1545.000000	56.782627
956.000000	1544.000000	56.734429
957.000000	1543.000000	56.692980
958.000000	1542.000000	56.637982
959.000000	1541.000000	56.586323
960.000000	1540.000000	56.542060
961.000000	1539.000000	56.487947
962.000000	1538.000000	56.438468
963.000000	1537.000000	56.393681
964.000000	1536.000000	56.348510
965.000000	1535.000000	56.313733
966.000000	1534.000000	56.280569
967.000000	1533.000000	56.235334
968.000000	1532.000000	56.211539
969.000000	1531.000000	56.166174
970.000000	1530.000000	56.132178
971.000000	1529.000000	56.083985
972.000000	1528.000000	56.033248
973.000000	1527.000000	55.978600
974.000000	1526.000000	55.926068
975.000000	1525.000000	55.861409
976.000000	1524.000000	55.795264
977.000000	1523.000000	55.733708
978.000000	1522.000000	55.676079
979.000000	1521.000000	55.592069
980.000000	1520.000000	55.520224
981.000000	1519.000000	55.437542
982.000000	1518.000000	55.362226
983.000000	1517.000000	55.298072
984.000000	1516.000000	55.212164
985.000000	1515.000000	55.139384
986.000000	1514.000000	55.071726
987.000000	1513.000000	54.994435
988.000000	1512.000000	54.925944
989.000000	1511.000000	54.861421
990.000000	1510.000000	54.792171
991.000000	1509.000000	54.733662
992.000000	1508.000000	54.685291
993.000000	1507.000000	54.630129
994.000000	1506.000000	54.569321
995.000000	1505.000000	54.519636
996.000000	1504.000000	54.475057
997.000000	1503.000000	54.429235
998.000000	1502.000000	54.392624
999.000000	1501.000000	54.354261
1000.000000	1500.000000	54.313435
1001.000000	1499.000000	54.280978
1002.000000	1498.000000	54.252166
1003.000000	1497.000000	54.218770
1004.000000	1496.000000	54.188582
1005.000000	1495.000000	54.154594
1006.000000	1494.000000	54.122167
1007.000000	1493.000000	54.089582
1008.000000	1492.000000	54.053670
1009.000000	1491.000000	54.018432
1010.000000	1490.000000	53.985533
1011.000000	1489.000000	53.959092
1012.000000	1488.000000	53.945287
1013.000000	1487.000000	53.942880
1014.000000	1486.000000	53.936195
1015.000000	1485.000000	53.939787
1016.000000	1484.000000	53.963573
1017.000000	1483.000000	53.982365
1018.000000	1482.000000	54.001852
1019.000000	1481.000000	54.025718
1020.000000	1480.000000	54.059260
1021.000000	1479.000000	54.101455
1022.000000	1478.000000	54.139020
1023.000000	1477.000000	54.169178
1024.000000	1476.000000	54.209421
1025.000000	1475.000000	54.260948
1026.000000	1474.000000	54.303817
1027.000000	1473.000000	54.340512
1028.000000	1472.000000	54.386178
1029.000000	1471.000000	54.423911
1030.000000	1470.000000	54.456045
1031.000000	1469.000000	54.496288
1032.000000	1468.000000	54.539324
1033.000000	1467.000000	54.581586
1034.000000	1466.000000	54.617284
1035.000000	1465.000000	54.650484
1036.000000	1464.000000	54.680636
1037.000000	1463.000000	54.716463
1038.000000	1462.000000	54.756227
1039.000000	1461.000000	54.786921
1040.000000	1460.000000	54.807653
1041.000000	1459.000000	54.835353
1042.000000	1458.000000	54.870712
1043.000000	1457.000000	54.899996
1044.000000	1456.000000	54.927462
1045.000000	1455.000000	54.961839
1046.000000	1454.000000	54.995916
1047.000000	1453.000000	55.026726
1048.000000	1452.000000	55.060609
1049.000000	1451.000000	55.099334
1050.000000	1450.000000	55.138685
1051.000000	1449.000000	55.180884
1052.000000	1448.000000	55.221690
1053.000000	1447.000000	55.271616
1054.000000	1446.000000	55.325822
1055.000000	1445.000000	55.377646
1056.000000	1444.000000	55.431200
1057.000000	1443.000000	55.482272
1058.000000	1442.000000	55.542547
1059.000000	1441.000000	55.592933
1060.000000	1440.000000	55.644160
1061.000000	1439.000000	55.690760
1062.000000	1438.000000	55.738426
1063.000000	1437.000000	55.788357
1064.000000	1436.000000	55.841709
1065.000000	1435.000000	55.895764
1066.000000	1434.000000	55.945236
1067.000000	1433.000000	55.991748
1068.000000	1432.000000	56.043194
1069.000000	1431.000000	56.085456
1070.000000	1430.000000	56.133894
1071.000000	1429.000000	56.183042
1072.000000	1428.000000	56.230661
1073.000000	1427.000000	56.278293
1074.000000	1426.000000	56.333546
1075.000000	1425.000000	56.382190
1076.000000	1424.000000	56.428281
1077.000000	1423.000000	56.479868
1078.000000	1422.000000	56.530903
1079.000000	1421.000000	56.581359
1080.000000	1420.000000	56.627300
1081.000000	1419.000000	56.686482
1082.000000	1418.000000	56.748800
1083.000000	1417.000000	56.807149
1084.000000	1416.000000	56.863485
1085.000000	1415.000000	56.910374
1086.000000	1414.000000	56.968352
1087.000000	1413.000000	57.023983
1088.000000	1412.000000	57.083836
1089.000000	1411.000000	57.138639
1090.000000	1410.000000	57.193306
1091.000000	1409.000000	57.244139
1092.000000	1408.000000	57.288032
1093.000000	1407.000000	57.324534
1094.000000	1406.000000	57.373019
1095.000000	1405.000000	57.419017
1096.000000	1404.000000	57.460356
1097.000000	1403.000000	57.487481
1098.000000	1402.000000	57.524307
1099.000000	1401.000000	57.543504
1100.000000	1400.000000	57.572817
1101.000000	1399.000000	57.600912
1102.000000	1398.000000	57.626017
1103.000000	1397.000000	57.634877
1104.000000	1396.000000	57.656745
1105.000000	1395.000000	57.677688
1106.000000	1394.000000	57.690727
1107.000000	1393.000000	57.698230
1108.000000	1392.000000	57.709644
1109.000000	1391.000000	57.719400
1110.000000	1390.000000	57.725902
1111.000000	1389.000000	57.742110
1112.000000	1388.000000	57.745411
1113.000000	1387.000000	57.757630
1114.000000	1386.000000	57.762127
1115.000000	1385.000000	57.764868
1116.000000	1384.000000	57.784948
1117.000000	1383.000000	57.784529
1118.000000	1382.000000	57.779608
1119.000000	1381.000000	57.759001
1120.000000	1380.000000	57.730970
1121.000000	1379.000000	57.689414
1122.000000	1378.000000	57.653875
1123.000000	1377.000000	57.585140
1124.000000	1376.000000	57.513745
1125.000000	1375.000000	57.441847
1126.000000	1374.000000	57.361464
1127.000000	1373.000000	57.251452
1128.000000	1372.000000	57.106323
1129.000000	1371.000000	56.950192
1130.000000	1370.000000	56.750931
1131.000000	1369.000000	56.515191
1132.000000	1368.000000	56.221216
1133.000000	1367.000000	55.935964
1134.000000	1366.000000	55.660040
1135.000000	1365.000000	55.306839
1136.000000	1364.000000	54.917764
1137.000000	1363.000000	54.506909
1138.000000	1362.000000	54.118825
1139.000000	1361.000000	53.730338
1140.000000	1360.000000	53.363018
1141.000000	1359.000000	53.006623
1142.000000	1358.000000	52.645397
1143.000000	1357.000000	52.302175
1144.000000	1356.000000	51.991045
1145.000000	1355.000000	51.742509
1146.000000	1354.000000	51.547125
1147.000000	1353.000000	51.460701
1148.000000	1352.000000	51.434015
1149.000000	1351.000000	51.462330
1150.000000	1350.000000	51.485943
1151.000000	1349.000000	51.519318
1152.000000	1348.000000	51.523505
1153.000000	1347.000000	51.508337
1154.000000	1346.000000	51.441124
1155.000000	1345.000000	51.304783
1156.000000	1344.000000	51.099012
1157.000000	1343.000000	50.829905
1158.000000	1342.000000	50.545152
1159.000000	1341.000000	50.181809
1160.000000	1340.000000	49.819703
1161.000000	1339.000000	49.439450
1162.000000	1338.000000	49.053832
1163.000000	1337.000000	48.644485
1164.000000	1336.000000	48.257699
1165.000000	1335.000000	47.838374
1166.000000	1334.000000	47.423071
1167.000000	1333.000000	47.047666
1168.000000	1332.000000	46.659747
1169.000000	1331.000000	46.272681
1170.000000	1330.000000	45.900246
1171.000000	1329.000000	45.513328
1172.000000	1328.000000	45.159859
1173.000000	1327.000000	44.815727
1174.000000	1326.000000	44.463204
1175.000000	1325.000000	44.140833
1176.000000	1324.000000	43.835811
1177.000000	1323.000000	43.487615
1178.000000	1322.000000	43.102153
1179.000000	1321.000000	42.628431
1180.000000	1320.000000	42.101051
1181.000000	1319.000000	41.550401
1182.000000	1318.000000	41.019847
1183.000000	1317.000000	40.541953
1184.000000	1316.000000	40.180225
1185.000000	1315.000000	39.967659
1186.000000	1314.000000	39.890258
1187.000000	1313.000000	39.957550
1188.000000	1312.000000	40.138870
1189.000000	1311.000000	40.471729
1190.000000	1310.000000	40.909221
1191.000000	1309.000000	41.416624
1192.000000	1308.000000	41.938999
1193.000000	1307.000000	42.418132
1194.000000	1306.000000	42.843291
1195.000000	1305.000000	43.181957
1196.000000	1304.000000	43.453018
1197.000000	1303.000000	43.654700
1198.000000	1302.000000	43.811977
1199.000000	1301.000000	43.909594
1200.000000	1300.000000	43.992011
1201.000000	1299.000000	44.034522
1202.000000	1298.000000	44.063682
1203.000000	1297.000000	44.087875
1204.000000	1296.000000	44.099781
1205.000000	1295.000000	44.119070
1206.000000	1294.000000	44.134385
1207.000000	1293.000000	44.187377
1208.000000	1292.000000	44.239794
1209.000000	1291.000000	44.319151
1210.000000	1290.000000	44.412181
1211.000000	1289.000000	44.499579
1212.000000	1288.000000	44.602970
1213.000000	1287.000000	44.715055
1214.000000	1286.000000	44.833018
1215.000000	1285.000000	44.947976
1216.000000	1284.000000	45.074064
1217.000000	1283.000000	45.214501
1218.000000	1282.000000	45.351974
1219.000000	1281.000000	45.499179
1220.000000	1280.000000	45.655455
1221.000000	1279.000000	45.820001
1222.000000	1278.000000	45.997883
1223.000000	1277.000000	46.177360
1224.000000	1276.000000	46.360813
1225.000000	1275.000000	46.547630
1226.000000	1274.000000	46.734704
1227.000000	1273.000000	46.913050
1228.000000	1272.000000	47.118539
1229.000000	1271.000000	47.308451
1230.000000	1270.000000	47.499027
1231.000000	1269.000000	47.689669
1232.000000	1268.000000	47.882118
1233.000000	1267.000000	48.060223
1234.000000	1266.000000	48.236079
1235.000000	1265.000000	48.409457
1236.000000	1264.000000	48.578464
1237.000000	1263.000000	48.743353
1238.000000	1262.000000	48.910666
1239.000000	1261.000000	49.072468
1240.000000	1260.000000	49.229776
1241.000000	1259.000000	49.379132
1242.000000	1258.000000	49.535242
1243.000000	1257.000000	49.685363
1244.000000	1256.000000	49.830167
1245.000000	1255.000000	49.972908
1246.000000	1254.000000	50.101472
1247.000000	1253.000000	50.218185
1248.000000	1252.000000	50.337242
1249.000000	1251.000000	50.459360
1250.000000	1250.000000	50.554273
1251.000000	1249.000000	50.659285
1252.000000	1248.000000	50.752848
1253.000000	1247.000000	50.835326
1254.000000	1246.000000	50.928810
1255.000000	1245.000000	51.013130
1256.000000	1244.000000	51.089748
1257.000000	1243.000000	51.179651
1258.000000	1242.000000	51.243061
1259.000000	1241.000000	51.307587
1260.000000	1240.000000	51.373711
1261.000000	1239.000000	51.434458
1262.000000	1238.000000	51.498682
1263.000000	1237.000000	51.561499
1264.000000	1236.000000	51.617121
1265.000000	1235.000000	51.676190
1266.000000	1234.000000	51.739945
1267.000000	1233.000000	51.802897
1268.000000	1232.000000	51.859728
1269.000000	1231.000000	51.917956
1270.000000	1230.000000	51.974231
1271.000000	1229.000000	52.024936
1272.000000	1228.000000	52.078948
1273.000000	1227.000000	52.132542
1274.000000	1226.000000	52.189862
1275.000000	1225.000000	52.242438
1276.000000	1224.000000	52.304331
1277.000000	1223.000000	52.379996
1278.000000	1222.000000	52.446437
1279.000000	1221.000000	52.514188
1280.000000	1220.000000	52.588392
1281.000000	1219.000000	52.668115
1282.000000	1218.000000	52.745919
1283.000000	1217.000000	52.828297
1284.000000	1216.000000	52.912634
1285.000000	1215.000000	52.987432
1286.000000	1214.000000	53.057032
1287.000000	1213.000000	53.125613
1288.000000	1212.000000	53.193667
1289.000000	1211.000000	53.249111
1290.000000	1210.000000	53.302333
1291.000000	1209.000000	53.349098
1292.000000	1208.000000	53.383234
1293.000000	1207.000000	53.415547
1294.000000	1206.000000	53.438606
1295.000000	1205.000000	53.462589
1296.000000	1204.000000	53.484931
1297.000000	1203.000000	53.502727
1298.000000	1202.000000	53.527567
1299.000000	1201.000000	53.543908
1300.000000	1200.000000	53.547703
1301.000000	1199.000000	53.556685
1302.000000	1198.000000	53.566539
1303.000000	1197.000000	53.567557
1304.000000	1196.000000	53.560151
1305.000000	1195.000000	53.549062
1306.000000	1194.000000	53.531926
1307.000000	1193.000000	53.505710
1308.000000	1192.000000	53.475540
1309.000000	1191.000000	53.444456
1310.000000	1190.000000	53.405674
1311.000000	1189.000000	53.358045
1312.000000	1188.000000	53.301945
1313.000000	1187.000000	53.250897
1314.000000	1186.000000	53.192890
1315.000000	1185.000000	53.121256
1316.000000	1184.000000	53.045472
1317.000000	1183.000000	52.973264
1318.000000	1182.000000	52.901207
1319.000000	1181.000000	52.817468
1320.000000	1180.000000	52.728069
1321.000000	1179.000000	52.637771
1322.000000	1178.000000	52.540848
1323.000000	1177.000000	52.442368
1324.000000	1176.000000	52.334785
1325.000000	1175.000000	52.222236
1326.000000	1174.000000	52.102477
1327.000000	1173.000000	51.971555
1328.000000	1172.000000	51.840172
1329.000000	1171.000000	51.695399
1330.000000	1170.000000	51.533622
1331.000000	1169.000000	51.368925
1332.000000	1168.000000	51.190307
1333.000000	1167.000000	50.996529
1334.000000	1166.000000	50.789312
1335.000000	1165.000000	50.585617
1336.000000	1164.000000	50.364210
1337.000000	1163.000000	50.128131
1338.000000	1162.000000	49.880401
1339.000000	1161.000000	49.622600
1340.000000	1160.000000	49.353705
1341.000000	1159.000000	49.058626
1342.000000	1158.000000	48.751759
1343.000000	1157.000000	48.440399
1344.000000	1156.000000	48.105931
1345.000000	1155.000000	47.718655
1346.000000	1154.000000	47.356628
1347.000000	1153.000000	46.975329
1348.000000	1152.000000	46.539993
1349.000000	1151.000000	46.078417
1350.000000	1150.000000	45.567417
1351.000000	1149.000000	44.995483
1352.000000	1148.000000	44.382421
1353.000000	1147.000000	43.762382
1354.000000	1146.000000	43.178923
1355.000000	1145.000000	42.612731
1356.000000	1144.000000	42.165212
1357.000000	1143.000000	41.855241
1358.000000	1142.000000	41.665618
1359.000000	1141.000000	41.559114
1360.000000	1140.000000	41.500962
1361.000000	1139.000000	41.438665
1362.000000	1138.000000	41.327131
1363.000000	1137.000000	41.132215
1364.000000	1136.000000	40.941046
1365.000000	1135.000000	40.720452
1366.000000	1134.000000	40.456791
1367.000000	1133.000000	40.180473
1368.000000	1132.000000	39.862096
1369.000000	1131.000000	39.459155
1370.000000	1130.000000	39.027663
1371.000000	1129.000000	38.533699
1372.000000	1128.000000	37.958199
1373.000000	1127.000000	37.326282
1374.000000	1126.000000	36.721447
1375.000000	1125.000000	36.166747
1376.000000	1124.000000	35.672977
1377.000000	1123.000000	35.259489
1378.000000	1122.000000	34.912968
1379.000000	1121.000000	34.639946
1380.000000	1120.000000	34.343448
1381.000000	1119.000000	34.155553
1382.000000	1118.000000	33.895086
1383.000000	1117.000000	33.593723
1384.000000	1116.000000	33.331154
1385.000000	1115.000000	33.035719
1386.000000	1114.000000	32.818501
1387.000000	1113.000000	32.681545
1388.000000	1112.000000	32.629123
1389.000000	1111.000000	32.533583
1390.000000	1110.000000	32.495772
1391.000000	1109.000000	32.510953
1392.000000	1108.000000	32.562364
1393.000000	1107.000000	32.590968
1394.000000	1106.000000	32.644812
1395.000000	1105.000000	32.733746
1396.000000	1104.000000	32.755838
1397.000000	1103.000000	32.691233
1398.000000	1102.000000	32.561626
1399.000000	1101.000000	32.508258
1400.000000	1100.000000	32.416128
1401.000000	1099.000000	32.221147
1402.000000	1098.000000	31.923008
1403.000000	1097.000000	31.662503
1404.000000	1096.000000	31.399882
1405.000000	1095.000000	31.164707
1406.000000	1094.000000	30.877027
1407.000000	1093.000000	30.615803
1408.000000	1092.000000	30.365669
1409.000000	1091.000000	30.144300
1410.000000	1090.000000	29.907449
1411.000000	1089.000000	29.731976
1412.000000	1088.000000	29.565585
1413.000000	1087.000000	29.464424
1414.000000	1086.000000	29.370325
1415.000000	1085.000000	29.220734
1416.000000	1084.000000	29.050065
1417.000000	1083.000000	28.873167
1418.000000	1082.000000	28.769541
1419.000000	1081.000000	28.635469
1420.000000	1080.000000	28.450342
1421.000000	1079.000000	28.238256
1422.000000	1078.000000	28.034915
1423.000000	1077.000000	27.875374
1424.000000	1076.000000	27.714801
1425.000000	1075.000000	27.520527
1426.000000	1074.000000	27.319137
1427.000000	1073.000000	27.158045
1428.000000	1072.000000	27.019015
1429.000000	1071.000000	26.852141
1430.000000	1070.000000	26.699096
1431.000000	1069.000000	26.599148
1432.000000	1068.000000	26.495388
1433.000000	1067.000000	26.364710
1434.000000	1066.000000	26.251355
1435.000000	1065.000000	26.136126
1436.000000	1064.000000	26.029964
1437.000000	1063.000000	25.916047
1438.000000	1062.000000	25.828573
1439.000000	1061.000000	25.689116
1440.000000	1060.000000	25.578353
1441.000000	1059.000000	25.456605
1442.000000	1058.000000	25.337194
1443.000000	1057.000000	25.183472
1444.000000	1056.000000	25.080949
1445.000000	1055.000000	24.969500
1446.000000	1054.000000	24.854104
1447.000000	1053.000000	24.706164
1448.000000	1052.000000	24.561368
1449.000000	1051.000000	24.452328
1450.000000	1050.000000	24.358613
1451.000000	1049.000000	24.271701
1452.000000	1048.000000	24.142489
1453.000000	1047.000000	24.020436
1454.000000	1046.000000	23.917837
1455.000000	1045.000000	23.801007
1456.000000	1044.000000	23.712987
1457.000000	1043.000000	23.611794
1458.000000	1042.000000	23.510382
1459.000000	1041.000000	23.420816
1460.000000	1040.000000	23.334115
1461.000000	1039.000000	23.258705
1462.000000	1038.000000	23.188963
1463.000000	1037.000000	23.108723
1464.000000	1036.000000	23.045080
1465.000000	1035.000000	22.996655
1466.000000	1034.000000	22.945634
1467.000000	1033.000000	22.896795
1468.000000	1032.000000	22.832289
1469.000000	1031.000000	22.779471
1470.000000	1030.000000	22.752800
1471.000000	1029.000000	22.719896
1472.000000	1028.000000	22.662439
1473.000000	1027.000000	22.618183
1474.000000	1026.000000	22.556454
1475.000000	1025.000000	22.502214
1476.000000	1024.000000	22.466956
1477.000000	1023.000000	22.424667
1478.000000	1022.000000	22.388742
1479.000000	1021.000000	22.330410
1480.000000	1020.000000	22.301185
1481.000000	1019.000000	22.265773
1482.000000	1018.000000	22.228197
1483.000000	1017.000000	22.190344
1484.000000	1016.000000	22.159624
1485.000000	1015.000000	22.131997
1486.000000	1014.000000	22.123440
1487.000000	1013.000000	22.116099
1488.000000	1012.000000	22.081608
1489.000000	1011.000000	22.061788
1490.000000	1010.000000	22.041542
1491.000000	1009.000000	22.029927
1492.000000	1008.000000	22.014439
1493.000000	1007.000000	21.991875
1494.000000	1006.000000	21.981646
1495.000000	1005.000000	21.972728
1496.000000	1004.000000	21.970654
1497.000000	1003.000000	21.969679
1498.000000	1002.000000	21.978919
1499.000000	1001.000000	21.982077
1500.000000	1000.000000	21.982871
1501.000000	999.000000	21.996446
1502.000000	998.000000	22.000318
1503.000000	997.000000	22.012113
1504.000000	996.000000	22.025915
1505.000000	995.000000	22.046800
1506.000000	994.000000	22.063433
1507.000000	993.000000	22.080275
1508.000000	992.000000	22.101649
1509.000000	991.000000	22.123419
1510.000000	990.000000	22.138892
1511.000000	989.000000	22.160556
1512.000000	988.000000	22.175426
1513.000000	987.000000	22.194057
1514.000000	986.000000	22.218098
1515.000000	985.000000	22.236849
1516.000000	984.000000	22.251601
1517.000000	983.000000	22.267905
1518.000000	982.000000	22.291205
1519.000000	981.000000	22.302306
1520.000000	980.000000	22.319573
1521.000000	979.000000	22.339872
1522.000000	978.000000	22.352322
1523.000000	977.000000	22.358589
1524.000000	976.000000	22.374183
1525.000000	975.000000	22.390611
1526.000000	974.000000	22.395822
1527.000000	973.000000	22.410412
1528.000000	972.000000	22.421720
1529.000000	971.000000	22.424009
1530.000000	970.000000	22.435355
1531.000000	969.000000	22.442374
1532.000000	968.000000	22.443719
1533.000000	967.000000	22.443459
1534.000000	966.000000	22.445091
1535.000000	965.000000	22.447549
1536.000000	964.000000	22.447161
1537.000000	963.000000	22.443651
1538.000000	962.000000	22.434064
1539.000000	961.000000	22.431819
1540.000000	960.000000	22.425649
1541.000000	959.000000	22.416238
1542.000000	958.000000	22.408907
1543.000000	957.000000	22.404208
1544.000000	956.000000	22.398914
1545.000000	955.000000	22.395116
1546.000000	954.000000	22.382002
1547.000000	953.000000	22.385646
1548.000000	952.000000	22.395261
1549.000000	951.000000	22.393578
1550.000000	950.000000	22.399256
1551.000000	949.000000	22.396314
1552.000000	948.000000	22.391977
1553.000000	947.000000	22.389133
1554.000000	946.000000	22.375978
1555.000000	945.000000	22.371557
1556.000000	944.000000	22.367511
1557.000000	943.000000	22.350226
1558.000000	942.000000	22.328733
1559.000000	941.000000	22.309591
1560.000000	940.000000	22.282890
1561.000000	939.000000	22.250957
1562.000000	938.000000	22.222053
1563.000000	937.000000	22.194297
1564.000000	936.000000	22.162673
1565.000000	935.000000	22.131183
1566.000000	934.000000	22.098443
1567.000000	933.000000	22.069770
1568.000000	932.000000	22.044466
1569.000000	931.000000	22.010201
1570.000000	930.000000	21.985085
1571.000000	929.000000	21.963857
1572.000000	928.000000	21.936811
1573.000000	927.000000	21.924181
1574.000000	926.000000	21.911889
1575.000000	925.000000	21.894948
1576.000000	924.000000	21.885624
1577.000000	923.000000	21.880858
1578.000000	922.000000	21.878701
1579.000000	921.000000	21.878450
1580.000000	920.000000	21.885206
1581.000000	919.000000	21.897626
1582.000000	918.000000	21.912120
1583.000000	917.000000	21.931289
1584.000000	916.000000	21.956939
1585.000000	915.000000	21.987632
1586.000000	914.000000	22.013534
1587.000000	913.000000	22.041065
1588.000000	912.000000	22.065049
1589.000000	911.000000	22.095583
1590.000000	910.000000	22.133967
1591.000000	909.000000	22.180410
1592.000000	908.000000	22.217618
1593.000000	907.000000	22.259472
1594.000000	906.000000	22.302939
1595.000000	905.000000	22.351755
1596.000000	904.000000	22.406104
1597.000000	903.000000	22.466877
1598.000000	902.000000	22.523021
1599.000000	901.000000	22.579221
1600.000000	900.000000	22.637395
1601.000000	899.000000	22.690469
1602.000000	898.000000	22.757015
1603.000000	897.000000	22.833739
1604.000000	896.000000	22.896700
1605.000000	895.000000	22.957732
1606.000000	894.000000	23.029574
1607.000000	893.000000	23.095754
1608.000000	892.000000	23.173116
1609.000000	891.000000	23.243478
1610.000000	890.000000	23.304671
1611.000000	889.000000	23.376752
1612.000000	888.000000	23.446131
1613.000000	887.000000	23.517944
1614.000000	886.000000	23.594087
1615.000000	885.000000	23.665488
1616.000000	884.000000	23.735396
1617.000000	883.000000	23.811863
1618.000000	882.000000	23.890105
1619.000000	881.000000	23.971451
1620.000000	880.000000	24.052787
1621.000000	879.000000	24.126157
1622.000000	878.000000	24.201152
1623.000000	877.000000	24.290204
1624.000000	876.000000	24.365695
1625.000000	875.000000	24.439769
1626.000000	874.000000	24.529502
1627.000000	873.000000	24.619785
1628.000000	872.000000	24.699646
1629.000000	871.000000	24.774062
1630.000000	870.000000	24.854778
1631.000000	869.000000	24.926248
1632.000000	868.000000	25.009086
1633.000000	867.000000	25.087127
1634.000000	866.000000	25.162326
1635.000000	865.000000	25.229985
1636.000000	864.000000	25.292650
1637.000000	863.000000	25.359350
1638.000000	862.000000	25.424866
1639.000000	861.000000	25.488701
1640.000000	860.000000	25.556350
1641.000000	859.000000	25.616722
1642.000000	858.000000	25.663497
1643.000000	857.000000	25.725330
1644.000000	856.000000	25.773808
1645.000000	855.000000	25.825296
1646.000000	854.000000	25.878732
1647.000000	853.000000	25.922066
1648.000000	852.000000	25.967660
1649.000000	851.000000	26.001389
1650.000000	850.000000	26.032283
1651.000000	849.000000	26.053860
1652.000000	848.000000	26.074501
1653.000000	847.000000	26.086570
1654.000000	846.000000	26.094603
1655.000000	845.000000	26.095628
1656.000000	844.000000	26.096744
1657.000000	843.000000	26.080236
1658.000000	842.000000	26.054884
1659.000000	841.000000	26.023959
1660.000000	840.000000	25.999400
1661.000000	839.000000	25.957932
1662.000000	838.000000	25.899287
1663.000000	837.000000	25.835065
1664.000000	836.000000	25.752431
1665.000000	835.000000	25.668646
1666.000000	834.000000	25.568249
1667.000000	833.000000	25.460629
1668.000000	832.000000	25.348582
1669.000000	831.000000	25.202533
1670.000000	830.000000	25.037352
1671.000000	829.000000	24.840475
1672.000000	828.000000	24.601625
1673.000000	827.000000	24.342052
1674.000000	826.000000	24.031656
1675.000000	825.000000	23.677701
1676.000000	824.000000	23.280037
1677.000000	823.000000	22.817543
1678.000000	822.000000	22.313626
1679.000000	821.000000	21.766551
1680.000000	820.000000	21.203771
1681.000000	819.000000	20.683544
1682.000000	818.000000	20.264359
1683.000000	817.000000	19.975571
1684.000000	816.000000	19.788828
1685.000000	815.000000	19.719085
1686.000000	814.000000	19.700875
1687.000000	813.000000	19.707815
1688.000000	812.000000	19.704408
1689.000000	811.000000	19.633050
1690.000000	810.000000	19.520217
1691.000000	809.000000	19.376462
1692.000000	808.000000	19.200418
1693.000000	807.000000	19.056219
1694.000000	806.000000	18.939935
1695.000000	805.000000	18.896781
1696.000000	804.000000	18.918164
1697.000000	803.000000	18.983738
1698.000000	802.000000	19.105919
1699.000000	801.000000	19.247324
1700.000000	800.000000	19.406024
1701.000000	799.000000	19.550483
1702.000000	798.000000	19.672401
1703.000000	797.000000	19.782470
1704.000000	796.000000	19.864765
1705.000000	795.000000	19.916880
1706.000000	794.000000	19.954042
1707.000000	793.000000	19.996053
1708.000000	792.000000	20.024641
1709.000000	791.000000	20.036563
1710.000000	790.000000	20.041350
1711.000000	789.000000	20.029919
1712.000000	788.000000	20.011773
1713.000000	787.000000	19.974265
1714.000000	786.000000	19.920499
1715.000000	785.000000	19.874672
1716.000000	784.000000	19.821320
1717.000000	783.000000	19.784251
1718.000000	782.000000	19.770139
1719.000000	781.000000	19.750071
1720.000000	780.000000	19.738655
1721.000000	779.000000	19.736462
1722.000000	778.000000	19.742350
1723.000000	777.000000	19.730717
1724.000000	776.000000	19.709977
1725.000000	775.000000	19.650762
1726.000000	774.000000	19.585596
1727.000000	773.000000	19.493521
1728.000000	772.000000	19.387221
1729.000000	771.000000	19.272139
1730.000000	770.000000	19.161048
1731.000000	769.000000	19.065288
1732.000000	768.000000	18.997947
1733.000000	767.000000	18.958907
1734.000000	766.000000	18.956979
1735.000000	765.000000	18.990817
1736.000000	764.000000	19.087360
1737.000000	763.000000	19.223021
1738.000000	762.000000	19.395083
1739.000000	761.000000	19.609933
1740.000000	760.000000	19.846903
1741.000000	759.000000	20.088947
1742.000000	758.000000	20.323657
1743.000000	757.000000	20.522448
1744.000000	756.000000	20.717723
1745.000000	755.000000	20.890960
1746.000000	754.000000	21.035306
1747.000000	753.000000	21.156430
1748.000000	752.000000	21.257692
1749.000000	751.000000	21.345811
1750.000000	750.000000	21.412942
1751.000000	749.000000	21.465117
1752.000000	748.000000	21.510530
1753.000000	747.000000	21.532333
1754.000000	746.000000	21.535481
1755.000000	745.000000	21.533604
1756.000000	744.000000	21.503154
1757.000000	743.000000	21.462528
1758.000000	742.000000	21.407389
1759.000000	741.000000	21.344226
1760.000000	740.000000	21.275117
1761.000000	739.000000	21.219492
1762.000000	738.000000	21.187047
1763.000000	737.000000	21.174822
1764.000000	736.000000	21.194817
1765.000000	735.000000	21.245188
1766.000000	734.000000	21.316956
1767.000000	733.000000	21.414779
1768.000000	732.000000	21.525470
1769.000000	731.000000	21.647416
1770.000000	730.000000	21.773204
1771.000000	729.000000	21.901075
1772.000000	728.000000	22.043446
1773.000000	727.000000	22.180490
1774.000000	726.000000	22.327546
1775.000000	725.000000	22.453730
1776.000000	724.000000	22.579996
1777.000000	723.000000	22.692814
1778.000000	722.000000	22.786059
1779.000000	721.000000	22.871051
1780.000000	720.000000	22.952942
1781.000000	719.000000	23.041544
1782.000000	718.000000	23.123415
1783.000000	717.000000	23.204014
1784.000000	716.000000	23.281597
1785.000000	715.000000	23.361808
1786.000000	714.000000	23.440896
1787.000000	713.000000	23.517161
1788.000000	712.000000	23.578958
1789.000000	711.000000	23.635308
1790.000000	710.000000	23.697074
1791.000000	709.000000	23.754003
1792.000000	708.000000	23.809197
1793.000000	707.000000	23.864932
1794.000000	706.000000	23.912561
1795.000000	705.000000	23.953117
1796.000000	704.000000	23.995698
1797.000000	703.000000	24.035652
1798.000000	702.000000	24.071031
1799.000000	701.000000	24.110643
1800.000000	700.000000	24.167708
1801.000000	699.000000	24.225638
1802.000000	698.000000	24.272690
1803.000000	697.000000	24.304393
1804.000000	696.000000	24.337042
1805.000000	695.000000	24.391914
1806.000000	694.000000	24.453767
1807.000000	693.000000	24.493735
1808.000000	692.000000	24.515270
1809.000000	691.000000	24.542928
1810.000000	690.000000	24.580768
1811.000000	689.000000	24.628365
1812.000000	688.000000	24.659647
1813.000000	687.000000	24.667847
1814.000000	686.000000	24.665031
1815.000000	685.000000	24.676559
1816.000000	684.000000	24.685045
1817.000000	683.000000	24.679266
1818.000000	682.000000	24.677084
1819.000000	681.000000	24.698303
1820.000000	680.000000	24.752131
1821.000000	679.000000	24.799597
1822.000000	678.000000	24.812891
1823.000000	677.000000	24.814048
1824.000000	676.000000	24.825090
1825.000000	675.000000	24.869732
1826.000000	674.000000	24.943732
1827.000000	673.000000	25.018937
1828.000000	672.000000	25.101136
1829.000000	671.000000	25.201096
1830.000000	670.000000	25.298369
1831.000000	669.000000	25.383467
1832.000000	668.000000	25.462050
1833.000000	667.000000	25.538131
1834.000000	666.000000	25.613448
1835.000000	665.000000	25.710051
1836.000000	664.000000	25.804546
1837.000000	663.000000	25.876795
1838.000000	662.000000	25.946119
1839.000000	661.000000	25.996245
1840.000000	660.000000	26.050553
1841.000000	659.000000	26.119227
1842.000000	658.000000	26.161085
1843.000000	657.000000	26.181589
1844.000000	656.000000	26.197528
1845.000000	655.000000	26.252716
1846.000000	654.000000	26.343616
1847.000000	653.000000	26.452221
1848.000000	652.000000	26.567223
1849.000000	651.000000	26.659067
1850.000000	650.000000	26.711651
1851.000000	649.000000	26.760629
1852.000000	648.000000	26.817215
1853.000000	647.000000	26.903328
1854.000000	646.000000	27.000896
1855.000000	645.000000	27.071797
1856.000000	644.000000	27.130278
1857.000000	643.000000	27.185255
1858.000000	642.000000	27.222693
1859.000000	641.000000	27.261259
1860.000000	640.000000	27.291428
1861.000000	639.000000	27.294667
1862.000000	638.000000	27.285598
1863.000000	637.000000	27.265933
1864.000000	636.000000	27.239985
1865.000000	635.000000	27.208898
1866.000000	634.000000	27.181621
1867.000000	633.000000	27.157585
1868.000000	632.000000	27.109104
1869.000000	631.000000	27.011362
1870.000000	630.000000	26.892510
1871.000000	629.000000	26.766627
1872.000000	628.000000	26.592661
1873.000000	627.000000	26.385527
1874.000000	626.000000	26.157673
1875.000000	625.000000	25.911976
1876.000000	624.000000	25.623606
1877.000000	623.000000	25.318092
1878.000000	622.000000	24.988586
1879.000000	621.000000	24.621839
1880.000000	620.000000	24.261570
1881.000000	619.000000	23.888932
1882.000000	618.000000	23.511047
1883.000000	617.000000	23.135037
1884.000000	616.000000	22.777374
1885.000000	615.000000	22.435196
1886.000000	614.000000	22.139463
1887.000000	613.000000	21.880664
1888.000000	612.000000	21.645833
1889.000000	611.000000	21.412871
1890.000000	610.000000	21.221008
1891.000000	609.000000	21.004481
1892.000000	608.000000	20.774164
1893.000000	607.000000	20.552350
1894.000000	606.000000	20.344568
1895.000000	605.000000	20.139035
1896.000000	604.000000	19.944769
1897.000000	603.000000	19.754877
1898.000000	602.000000	19.525743
1899.000000	601.000000	19.300588
1900.000000	600.000000	19.066427
1901.000000	599.000000	18.836123
1902.000000	598.000000	18.628410
1903.000000	597.000000	18.416346
1904.000000	596.000000	18.220172
1905.000000	595.000000	17.996463
1906.000000	594.000000	17.753206
1907.000000	593.000000	17.522588
1908.000000	592.000000	17.310045
1909.000000	591.000000	17.125357
1910.000000	590.000000	16.960558
1911.000000	589.000000	16.776785
1912.000000	588.000000	16.609665
1913.000000	587.000000	16.397524
1914.000000	586.000000	16.202712
1915.000000	585.000000	16.009784
1916.000000	584.000000	15.839760
1917.000000	583.000000	15.694204
1918.000000	582.000000	15.544947
1919.000000	581.000000	15.403399
1920.000000	580.000000	15.260184
1921.000000	579.000000	15.107985
1922.000000	578.000000	14.950151
1923.000000	577.000000	14.817881
1924.000000	576.000000	14.707096
1925.000000	575.000000	14.607842
1926.000000	574.000000	14.491704
1927.000000	573.000000	14.403986
1928.000000	572.000000	14.298598
1929.000000	571.000000	14.214240
1930.000000	570.000000	14.128849
1931.000000	569.000000	14.055072
1932.000000	568.000000	13.987900
1933.000000	567.000000	13.936747
1934.000000	566.000000	13.873841
1935.000000	565.000000	13.826552
1936.000000	564.000000	13.801983
1937.000000	563.000000	13.768028
1938.000000	562.000000	13.748214
1939.000000	561.000000	13.737346
1940.000000	560.000000	13.719353
1941.000000	559.000000	13.696599
1942.000000	558.000000	13.698551
1943.000000	557.000000	13.706981
1944.000000	556.000000	13.709379
1945.000000	555.000000	13.729056
1946.000000	554.000000	13.750878
1947.000000	553.000000	13.781692
1948.000000	552.000000	13.802220
1949.000000	551.000000	13.836876
1950.000000	550.000000	13.865849
1951.000000	549.000000	13.918105
1952.000000	548.000000	13.953781
1953.000000	547.000000	13.991128
1954.000000	546.000000	14.039253
1955.000000	545.000000	14.081688
1956.000000	544.000000	14.126312
1957.000000	543.000000	14.180149
1958.000000	542.000000	14.219760
1959.000000	541.000000	14.268820
1960.000000	540.000000	14.320131
1961.000000	539.000000	14.363955
1962.000000	538.000000	14.408030
1963.000000	537.000000	14.463714
1964.000000	536.000000	14.509781
1965.000000	535.000000	14.544778
1966.000000	534.000000	14.600488
1967.000000	533.000000	14.641825
1968.000000	532.000000	14.671340
1969.000000	531.000000	14.740280
1970.000000	530.000000	14.783433
1971.000000	529.000000	14.842670
1972.000000	528.000000	14.887164
1973.000000	527.000000	14.936853
1974.000000	526.000000	14.989652
1975.000000	525.000000	15.046367
1976.000000	524.000000	15.108785
1977.000000	523.000000	15.145229
1978.000000	522.000000	15.217365
1979.000000	521.000000	15.282631
1980.000000	520.000000	15.326811
1981.000000	519.000000	15.386286
1982.000000	518.000000	15.440356
1983.000000	517.000000	15.496381
1984.000000	516.000000	15.532906
1985.000000	515.000000	15.590830
1986.000000	514.000000	15.644844
1987.000000	513.000000	15.689210
1988.000000	512.000000	15.743252
1989.000000	511.000000	15.785897
1990.000000	510.000000	15.834886
1991.000000	509.000000	15.864763
1992.000000	508.000000	15.901025
1993.000000	507.000000	15.942606
1994.000000	506.000000	15.972206
1995.000000	505.000000	15.997769
1996.000000	504.000000	16.018085
1997.000000	503.000000	16.042156
1998.000000	502.000000	16.051833
1999.000000	501.000000	16.073053
