PE UV       SUBTECH     SPECTRUM    ASCII       PEDS        4.00        
   -1
CICIMAUCR0006-1.Sample.ASC
24/03/08
11:34:28.00
24/03/08
11:34:28.00
Vinicio Soto Monge
C. kalinini
250,000000
1
Lambda 1050
1050L1511233
PerkinElmer UV WinLab 6.3.2.0749 / 2.02.05 Lambda 900 UV/VIS/NIR, Aug  7 2015 09:38:08

0
0
3350/servo 860,8/2
0
0
UV/VIS
1
1
1
DoubleDePol,CommonBeamDepol,RBeamAtt,SBeamAtt,60mm sphere, WB InGaAs Detector
0
0
0
0
Program
Program
3350/servo 860,8/2
3350/0,2 860,8/0,2
3350/0,2 860,8/0,2
0
15.00
 
 
 
0
 
860,8
319,2
860,8
Front
100
on
S:100 R:100
0
0
0
0
 
0
 
 
 
0
 
 
0
0
0
0
0
 
 
 
 
0
0


0
0
#HDR
-1
-1
#GR
nm
%R
1.0
0.0
2500,000000
-1,000000
2251
8
34,259900
1,836500
#DATA
501.000000	1999.000000	6.688553
502.000000	1998.000000	6.668865
503.000000	1997.000000	6.653759
504.000000	1996.000000	6.646330
505.000000	1995.000000	6.627262
506.000000	1994.000000	6.598164
507.000000	1993.000000	6.572904
508.000000	1992.000000	6.544302
509.000000	1991.000000	6.544673
510.000000	1990.000000	6.486477
511.000000	1989.000000	6.462208
512.000000	1988.000000	6.445988
513.000000	1987.000000	6.412928
514.000000	1986.000000	6.409832
515.000000	1985.000000	6.369343
516.000000	1984.000000	6.320805
517.000000	1983.000000	6.310033
518.000000	1982.000000	6.263600
519.000000	1981.000000	6.261495
520.000000	1980.000000	6.209242
521.000000	1979.000000	6.183735
522.000000	1978.000000	6.155504
523.000000	1977.000000	6.111300
524.000000	1976.000000	6.090746
525.000000	1975.000000	6.050133
526.000000	1974.000000	6.004195
527.000000	1973.000000	5.998623
528.000000	1972.000000	5.991813
529.000000	1971.000000	5.957886
530.000000	1970.000000	5.906996
531.000000	1969.000000	5.884213
532.000000	1968.000000	5.859077
533.000000	1967.000000	5.839637
534.000000	1966.000000	5.808311
535.000000	1965.000000	5.767326
536.000000	1964.000000	5.734018
537.000000	1963.000000	5.710492
538.000000	1962.000000	5.679413
539.000000	1961.000000	5.642019
540.000000	1960.000000	5.638057
541.000000	1959.000000	5.605368
542.000000	1958.000000	5.575280
543.000000	1957.000000	5.565498
544.000000	1956.000000	5.508664
545.000000	1955.000000	5.478700
546.000000	1954.000000	5.468299
547.000000	1953.000000	5.433010
548.000000	1952.000000	5.443658
549.000000	1951.000000	5.388310
550.000000	1950.000000	5.368128
551.000000	1949.000000	5.371223
552.000000	1948.000000	5.331724
553.000000	1947.000000	5.314018
554.000000	1946.000000	5.286901
555.000000	1945.000000	5.282444
556.000000	1944.000000	5.269442
557.000000	1943.000000	5.247031
558.000000	1942.000000	5.225115
559.000000	1941.000000	5.226353
560.000000	1940.000000	5.217314
561.000000	1939.000000	5.204932
562.000000	1938.000000	5.198245
563.000000	1937.000000	5.209637
564.000000	1936.000000	5.243440
565.000000	1935.000000	5.228334
566.000000	1934.000000	5.230315
567.000000	1933.000000	5.225362
568.000000	1932.000000	5.285168
569.000000	1931.000000	5.306217
570.000000	1930.000000	5.300521
571.000000	1929.000000	5.339896
572.000000	1928.000000	5.360203
573.000000	1927.000000	5.379767
574.000000	1926.000000	5.399578
575.000000	1925.000000	5.432267
576.000000	1924.000000	5.479938
577.000000	1923.000000	5.522285
578.000000	1922.000000	5.563765
579.000000	1921.000000	5.596206
580.000000	1920.000000	5.654525
581.000000	1919.000000	5.724484
582.000000	1918.000000	5.774879
583.000000	1917.000000	5.823417
584.000000	1916.000000	5.876164
585.000000	1915.000000	5.940675
586.000000	1914.000000	6.016825
587.000000	1913.000000	6.070935
588.000000	1912.000000	6.133093
589.000000	1911.000000	6.225834
590.000000	1910.000000	6.278458
591.000000	1909.000000	6.359932
592.000000	1908.000000	6.452550
593.000000	1907.000000	6.547892
594.000000	1906.000000	6.637910
595.000000	1905.000000	6.725080
596.000000	1904.000000	6.789838
597.000000	1903.000000	6.895334
598.000000	1902.000000	7.005039
599.000000	1901.000000	7.102733
600.000000	1900.000000	7.185074
601.000000	1899.000000	7.265682
602.000000	1898.000000	7.377120
603.000000	1897.000000	7.489054
604.000000	1896.000000	7.588359
605.000000	1895.000000	7.722333
606.000000	1894.000000	7.835505
607.000000	1893.000000	7.967869
608.000000	1892.000000	8.072746
609.000000	1891.000000	8.180594
610.000000	1890.000000	8.293642
611.000000	1889.000000	8.432321
612.000000	1888.000000	8.568648
613.000000	1887.000000	8.722062
614.000000	1886.000000	8.878076
615.000000	1885.000000	9.043625
616.000000	1884.000000	9.218584
617.000000	1883.000000	9.397257
618.000000	1882.000000	9.585217
619.000000	1881.000000	9.807723
620.000000	1880.000000	10.015990
621.000000	1879.000000	10.196768
622.000000	1878.000000	10.390548
623.000000	1877.000000	10.580860
624.000000	1876.000000	10.732293
625.000000	1875.000000	10.873077
626.000000	1874.000000	11.019433
627.000000	1873.000000	11.130501
628.000000	1872.000000	11.239835
629.000000	1871.000000	11.333938
630.000000	1870.000000	11.408850
631.000000	1869.000000	11.486857
632.000000	1868.000000	11.593219
633.000000	1867.000000	11.704534
634.000000	1866.000000	11.776969
635.000000	1865.000000	11.844080
636.000000	1864.000000	11.938432
637.000000	1863.000000	12.039717
638.000000	1862.000000	12.101132
639.000000	1861.000000	12.119705
640.000000	1860.000000	12.122801
641.000000	1859.000000	12.118343
642.000000	1858.000000	12.128744
643.000000	1857.000000	12.168862
644.000000	1856.000000	12.213685
645.000000	1855.000000	12.228915
646.000000	1854.000000	12.205018
647.000000	1853.000000	12.175053
648.000000	1852.000000	12.183721
649.000000	1851.000000	12.231763
650.000000	1850.000000	12.270148
651.000000	1849.000000	12.243650
652.000000	1848.000000	12.159576
653.000000	1847.000000	12.053585
654.000000	1846.000000	12.024859
655.000000	1845.000000	12.070920
656.000000	1844.000000	12.125896
657.000000	1843.000000	12.160690
658.000000	1842.000000	12.139517
659.000000	1841.000000	12.064481
660.000000	1840.000000	12.020401
661.000000	1839.000000	12.008267
662.000000	1838.000000	11.984245
663.000000	1837.000000	11.952176
664.000000	1836.000000	11.922954
665.000000	1835.000000	11.896952
666.000000	1834.000000	11.887789
667.000000	1833.000000	11.872187
668.000000	1832.000000	11.872807
669.000000	1831.000000	11.863520
670.000000	1830.000000	11.813249
671.000000	1829.000000	11.764959
672.000000	1828.000000	11.716916
673.000000	1827.000000	11.667883
674.000000	1826.000000	11.632099
675.000000	1825.000000	11.613773
676.000000	1824.000000	11.621450
677.000000	1823.000000	11.669369
678.000000	1822.000000	11.667883
679.000000	1821.000000	11.585171
680.000000	1820.000000	11.505802
681.000000	1819.000000	11.477570
682.000000	1818.000000	11.484752
683.000000	1817.000000	11.498868
684.000000	1816.000000	11.490324
685.000000	1815.000000	11.463703
686.000000	1814.000000	11.468655
687.000000	1813.000000	11.473732
688.000000	1812.000000	11.455902
689.000000	1811.000000	11.428785
690.000000	1810.000000	11.419870
691.000000	1809.000000	11.427918
692.000000	1808.000000	11.408355
693.000000	1807.000000	11.365513
694.000000	1806.000000	11.333815
695.000000	1805.000000	11.300383
696.000000	1804.000000	11.279457
697.000000	1803.000000	11.264103
698.000000	1802.000000	11.229186
699.000000	1801.000000	11.201202
700.000000	1800.000000	11.174333
701.000000	1799.000000	11.149693
702.000000	1798.000000	11.145235
703.000000	1797.000000	11.135825
704.000000	1796.000000	11.103384
705.000000	1795.000000	11.084935
706.000000	1794.000000	11.074534
707.000000	1793.000000	11.042712
708.000000	1792.000000	11.029463
709.000000	1791.000000	11.002099
710.000000	1790.000000	10.969534
711.000000	1789.000000	10.937340
712.000000	1788.000000	10.930530
713.000000	1787.000000	10.919634
714.000000	1786.000000	10.886450
715.000000	1785.000000	10.832836
716.000000	1784.000000	10.810672
717.000000	1783.000000	10.803490
718.000000	1782.000000	10.758048
719.000000	1781.000000	10.738360
720.000000	1780.000000	10.730560
721.000000	1779.000000	10.698985
722.000000	1778.000000	10.665554
723.000000	1777.000000	10.605500
724.000000	1776.000000	10.570088
725.000000	1775.000000	10.529722
726.000000	1774.000000	10.502234
727.000000	1773.000000	10.470783
728.000000	1772.000000	10.433018
729.000000	1771.000000	10.391167
730.000000	1770.000000	10.344239
731.000000	1769.000000	10.307092
732.000000	1768.000000	10.290005
733.000000	1767.000000	10.234905
734.000000	1766.000000	10.209893
735.000000	1765.000000	10.197263
736.000000	1764.000000	10.189834
737.000000	1763.000000	10.202340
738.000000	1762.000000	10.206426
739.000000	1761.000000	10.219551
740.000000	1760.000000	10.276509
741.000000	1759.000000	10.329380
742.000000	1758.000000	10.329628
743.000000	1757.000000	10.371232
744.000000	1756.000000	10.421007
745.000000	1755.000000	10.471650
746.000000	1754.000000	10.488242
747.000000	1753.000000	10.479203
748.000000	1752.000000	10.511397
749.000000	1751.000000	10.495795
750.000000	1750.000000	10.519816
751.000000	1749.000000	10.520064
752.000000	1748.000000	10.483042
753.000000	1747.000000	10.467812
754.000000	1746.000000	10.427570
755.000000	1745.000000	10.365288
756.000000	1744.000000	10.330247
757.000000	1743.000000	10.287405
758.000000	1742.000000	10.246172
759.000000	1741.000000	10.155288
760.000000	1740.000000	10.067623
761.000000	1739.000000	10.001998
762.000000	1738.000000	9.919533
763.000000	1737.000000	9.854775
764.000000	1736.000000	9.808218
765.000000	1735.000000	9.761785
766.000000	1734.000000	9.731821
767.000000	1733.000000	9.743831
768.000000	1732.000000	9.765995
769.000000	1731.000000	9.803018
770.000000	1730.000000	9.822086
771.000000	1729.000000	9.900712
772.000000	1728.000000	9.920028
773.000000	1727.000000	9.997664
774.000000	1726.000000	10.032210
775.000000	1725.000000	10.035553
776.000000	1724.000000	10.070099
777.000000	1723.000000	10.109598
778.000000	1722.000000	10.111084
779.000000	1721.000000	10.116656
780.000000	1720.000000	10.145506
781.000000	1719.000000	10.155536
782.000000	1718.000000	10.151821
783.000000	1717.000000	10.168289
784.000000	1716.000000	10.200111
785.000000	1715.000000	10.228590
786.000000	1714.000000	10.263755
787.000000	1713.000000	10.267470
788.000000	1712.000000	10.300777
789.000000	1711.000000	10.279109
790.000000	1710.000000	10.283690
791.000000	1709.000000	10.300282
792.000000	1708.000000	10.268336
793.000000	1707.000000	10.269946
794.000000	1706.000000	10.251992
795.000000	1705.000000	10.241096
796.000000	1704.000000	10.218808
797.000000	1703.000000	10.154917
798.000000	1702.000000	10.117523
799.000000	1701.000000	10.060565
800.000000	1700.000000	10.008437
801.000000	1699.000000	9.946526
802.000000	1698.000000	9.852670
803.000000	1697.000000	9.778377
804.000000	1696.000000	9.765005
805.000000	1695.000000	9.777263
806.000000	1694.000000	9.773920
807.000000	1693.000000	9.806237
808.000000	1692.000000	9.869881
809.000000	1691.000000	9.905046
810.000000	1690.000000	9.963118
811.000000	1689.000000	10.017723
812.000000	1688.000000	10.056108
813.000000	1687.000000	10.057841
814.000000	1686.000000	10.040382
815.000000	1685.000000	10.047316
816.000000	1684.000000	10.090158
817.000000	1683.000000	10.142782
818.000000	1682.000000	10.274651
819.000000	1681.000000	10.417045
820.000000	1680.000000	10.617016
821.000000	1679.000000	10.817853
822.000000	1678.000000	11.022158
823.000000	1677.000000	11.230177
824.000000	1676.000000	11.386686
825.000000	1675.000000	11.529204
826.000000	1674.000000	11.655872
827.000000	1673.000000	11.793809
828.000000	1672.000000	11.883950
829.000000	1671.000000	11.979045
830.000000	1670.000000	12.040955
831.000000	1669.000000	12.101751
832.000000	1668.000000	12.167376
833.000000	1667.000000	12.232877
834.000000	1666.000000	12.255784
835.000000	1665.000000	12.304446
836.000000	1664.000000	12.322276
837.000000	1663.000000	12.341840
838.000000	1662.000000	12.367471
839.000000	1661.000000	12.407712
840.000000	1660.000000	12.417742
841.000000	1659.000000	12.412541
842.000000	1658.000000	12.426657
843.000000	1657.000000	12.434582
844.000000	1656.000000	12.442258
845.000000	1655.000000	12.446097
846.000000	1654.000000	12.442506
847.000000	1653.000000	12.431238
848.000000	1652.000000	12.442382
849.000000	1651.000000	12.432724
850.000000	1650.000000	12.435077
851.000000	1649.000000	12.416751
852.000000	1648.000000	12.388396
853.000000	1647.000000	12.385549
854.000000	1646.000000	12.393845
855.000000	1645.000000	12.360661
856.000000	1644.000000	12.343078
857.000000	1643.000000	12.326610
858.000000	1642.000000	12.309770
859.000000	1641.000000	12.284015
860.000000	1640.000000	12.275719
861.000000	1639.000000	12.277701
862.000000	1638.000000	12.269033
863.000000	1637.000000	12.250708
864.000000	1636.000000	12.223591
865.000000	1635.000000	12.216781
866.000000	1634.000000	12.189664
867.000000	1633.000000	12.158956
868.000000	1632.000000	12.143355
869.000000	1631.000000	12.127630
870.000000	1630.000000	12.114629
871.000000	1629.000000	12.104723
872.000000	1628.000000	12.088502
873.000000	1627.000000	12.067453
874.000000	1626.000000	12.040831
875.000000	1625.000000	12.011238
876.000000	1624.000000	12.015077
877.000000	1623.000000	11.996132
878.000000	1622.000000	11.975702
879.000000	1621.000000	11.954157
880.000000	1620.000000	11.924440
881.000000	1619.000000	11.896209
882.000000	1618.000000	11.877512
883.000000	1617.000000	11.860177
884.000000	1616.000000	11.837394
885.000000	1615.000000	11.811639
886.000000	1614.000000	11.789970
887.000000	1613.000000	11.780931
888.000000	1612.000000	11.763101
889.000000	1611.000000	11.751214
890.000000	1610.000000	11.739575
891.000000	1609.000000	11.722364
892.000000	1608.000000	11.686456
893.000000	1607.000000	11.672464
894.000000	1606.000000	11.657854
895.000000	1605.000000	11.632718
896.000000	1604.000000	11.598048
897.000000	1603.000000	11.566598
898.000000	1602.000000	11.547158
899.000000	1601.000000	11.540595
900.000000	1600.000000	11.513850
901.000000	1599.000000	11.489953
902.000000	1598.000000	11.467789
903.000000	1597.000000	11.440796
904.000000	1596.000000	11.407736
905.000000	1595.000000	11.370094
906.000000	1594.000000	11.342730
907.000000	1593.000000	11.330348
908.000000	1592.000000	11.314127
909.000000	1591.000000	11.287382
910.000000	1590.000000	11.280200
911.000000	1589.000000	11.260636
912.000000	1588.000000	11.218909
913.000000	1587.000000	11.198974
914.000000	1586.000000	11.195383
915.000000	1585.000000	11.168761
916.000000	1584.000000	11.137930
917.000000	1583.000000	11.129758
918.000000	1582.000000	11.113661
919.000000	1581.000000	11.081344
920.000000	1580.000000	11.049398
921.000000	1579.000000	11.040978
922.000000	1578.000000	11.014976
923.000000	1577.000000	10.993926
924.000000	1576.000000	10.979316
925.000000	1575.000000	10.966686
926.000000	1574.000000	10.961981
927.000000	1573.000000	10.969410
928.000000	1572.000000	10.957895
929.000000	1571.000000	10.946874
930.000000	1570.000000	10.953808
931.000000	1569.000000	10.955542
932.000000	1568.000000	10.955418
933.000000	1567.000000	10.952446
934.000000	1566.000000	10.959752
935.000000	1565.000000	10.964952
936.000000	1564.000000	10.955542
937.000000	1563.000000	10.961857
938.000000	1562.000000	10.968419
939.000000	1561.000000	10.964952
940.000000	1560.000000	10.963962
941.000000	1559.000000	10.966191
942.000000	1558.000000	10.959504
943.000000	1557.000000	10.948979
944.000000	1556.000000	10.952570
945.000000	1555.000000	10.939074
946.000000	1554.000000	10.933626
947.000000	1553.000000	10.936474
948.000000	1552.000000	10.933130
949.000000	1551.000000	10.932883
950.000000	1550.000000	10.931768
951.000000	1549.000000	10.929168
952.000000	1548.000000	10.937712
953.000000	1547.000000	10.936474
954.000000	1546.000000	10.931645
955.000000	1545.000000	10.956037
956.000000	1544.000000	10.962228
957.000000	1543.000000	10.952075
958.000000	1542.000000	10.943655
959.000000	1541.000000	10.951084
960.000000	1540.000000	10.950837
961.000000	1539.000000	10.955294
962.000000	1538.000000	10.967800
963.000000	1537.000000	10.983402
964.000000	1536.000000	11.004327
965.000000	1535.000000	11.010147
966.000000	1534.000000	10.985383
967.000000	1533.000000	10.988850
968.000000	1532.000000	10.987859
969.000000	1531.000000	10.978820
970.000000	1530.000000	10.977830
971.000000	1529.000000	10.981297
972.000000	1528.000000	10.997889
973.000000	1527.000000	10.996898
974.000000	1526.000000	10.985630
975.000000	1525.000000	10.979935
976.000000	1524.000000	10.966191
977.000000	1523.000000	10.959628
978.000000	1522.000000	10.960619
979.000000	1521.000000	10.979439
980.000000	1520.000000	10.963343
981.000000	1519.000000	10.946627
982.000000	1518.000000	10.954799
983.000000	1517.000000	10.926939
984.000000	1516.000000	10.926568
985.000000	1515.000000	10.924587
986.000000	1514.000000	10.920624
987.000000	1513.000000	10.929292
988.000000	1512.000000	10.910100
989.000000	1511.000000	10.901061
990.000000	1510.000000	10.876297
991.000000	1509.000000	10.846332
992.000000	1508.000000	10.845218
993.000000	1507.000000	10.828378
994.000000	1506.000000	10.805471
995.000000	1505.000000	10.820949
996.000000	1504.000000	10.799280
997.000000	1503.000000	10.792965
998.000000	1502.000000	10.768201
999.000000	1501.000000	10.754457
1000.000000	1500.000000	10.735017
1001.000000	1499.000000	10.728207
1002.000000	1498.000000	10.738360
1003.000000	1497.000000	10.702824
1004.000000	1496.000000	10.671621
1005.000000	1495.000000	10.672611
1006.000000	1494.000000	10.658496
1007.000000	1493.000000	10.654657
1008.000000	1492.000000	10.642771
1009.000000	1491.000000	10.634475
1010.000000	1490.000000	10.610330
1011.000000	1489.000000	10.593738
1012.000000	1488.000000	10.585194
1013.000000	1487.000000	10.577641
1014.000000	1486.000000	10.569592
1015.000000	1485.000000	10.555972
1016.000000	1484.000000	10.543962
1017.000000	1483.000000	10.531827
1018.000000	1482.000000	10.536285
1019.000000	1481.000000	10.509787
1020.000000	1480.000000	10.501739
1021.000000	1479.000000	10.489480
1022.000000	1478.000000	10.489852
1023.000000	1477.000000	10.487623
1024.000000	1476.000000	10.488861
1025.000000	1475.000000	10.478584
1026.000000	1474.000000	10.459268
1027.000000	1473.000000	10.440200
1028.000000	1472.000000	10.440695
1029.000000	1471.000000	10.450477
1030.000000	1470.000000	10.453325
1031.000000	1469.000000	10.452334
1032.000000	1468.000000	10.479822
1033.000000	1467.000000	10.470783
1034.000000	1466.000000	10.460630
1035.000000	1465.000000	10.474870
1036.000000	1464.000000	10.501120
1037.000000	1463.000000	10.514616
1038.000000	1462.000000	10.504463
1039.000000	1461.000000	10.488614
1040.000000	1460.000000	10.528608
1041.000000	1459.000000	10.543342
1042.000000	1458.000000	10.553867
1043.000000	1457.000000	10.598319
1044.000000	1456.000000	10.626921
1045.000000	1455.000000	10.643018
1046.000000	1454.000000	10.677193
1047.000000	1453.000000	10.743065
1048.000000	1452.000000	10.748885
1049.000000	1451.000000	10.794946
1050.000000	1450.000000	10.834074
1051.000000	1449.000000	10.867629
1052.000000	1448.000000	10.919015
1053.000000	1447.000000	10.967676
1054.000000	1446.000000	11.025625
1055.000000	1445.000000	11.049150
1056.000000	1444.000000	11.104251
1057.000000	1443.000000	11.153779
1058.000000	1442.000000	11.201698
1059.000000	1441.000000	11.253207
1060.000000	1440.000000	11.301250
1061.000000	1439.000000	11.395353
1062.000000	1438.000000	11.436957
1063.000000	1437.000000	11.469027
1064.000000	1436.000000	11.529080
1065.000000	1435.000000	11.596934
1066.000000	1434.000000	11.650920
1067.000000	1433.000000	11.684599
1068.000000	1432.000000	11.754062
1069.000000	1431.000000	11.793561
1070.000000	1430.000000	11.890637
1071.000000	1429.000000	11.966044
1072.000000	1428.000000	12.018667
1073.000000	1427.000000	12.106333
1074.000000	1426.000000	12.180873
1075.000000	1425.000000	12.295778
1076.000000	1424.000000	12.365366
1077.000000	1423.000000	12.430619
1078.000000	1422.000000	12.509741
1079.000000	1421.000000	12.634552
1080.000000	1420.000000	12.690272
1081.000000	1419.000000	12.779299
1082.000000	1418.000000	12.885166
1083.000000	1417.000000	12.931227
1084.000000	1416.000000	13.062477
1085.000000	1415.000000	13.136026
1086.000000	1414.000000	13.228025
1087.000000	1413.000000	13.290431
1088.000000	1412.000000	13.368562
1089.000000	1411.000000	13.457342
1090.000000	1410.000000	13.595649
1091.000000	1409.000000	13.720956
1092.000000	1408.000000	13.833757
1093.000000	1407.000000	13.926994
1094.000000	1406.000000	14.037813
1095.000000	1405.000000	14.166959
1096.000000	1404.000000	14.245213
1097.000000	1403.000000	14.356900
1098.000000	1402.000000	14.499789
1099.000000	1401.000000	14.652336
1100.000000	1400.000000	14.631410
1101.000000	1399.000000	14.680320
1102.000000	1398.000000	14.765632
1103.000000	1397.000000	14.854164
1104.000000	1396.000000	14.885862
1105.000000	1395.000000	14.823580
1106.000000	1394.000000	14.863575
1107.000000	1393.000000	14.882767
1108.000000	1392.000000	14.903321
1109.000000	1391.000000	14.913474
1110.000000	1390.000000	14.967708
1111.000000	1389.000000	15.050792
1112.000000	1388.000000	15.091281
1113.000000	1387.000000	15.156658
1114.000000	1386.000000	15.299424
1115.000000	1385.000000	15.463982
1116.000000	1384.000000	15.638321
1117.000000	1383.000000	15.819100
1118.000000	1382.000000	15.975733
1119.000000	1381.000000	16.114289
1120.000000	1380.000000	16.302496
1121.000000	1379.000000	16.473617
1122.000000	1378.000000	16.696494
1123.000000	1377.000000	16.903275
1124.000000	1376.000000	17.102007
1125.000000	1375.000000	17.361659
1126.000000	1374.000000	17.618588
1127.000000	1373.000000	17.909319
1128.000000	1372.000000	18.159313
1129.000000	1371.000000	18.365599
1130.000000	1370.000000	18.580923
1131.000000	1369.000000	18.778417
1132.000000	1368.000000	18.929355
1133.000000	1367.000000	19.036336
1134.000000	1366.000000	19.190245
1135.000000	1365.000000	19.295988
1136.000000	1364.000000	19.386254
1137.000000	1363.000000	19.494225
1138.000000	1362.000000	19.569508
1139.000000	1361.000000	19.603683
1140.000000	1360.000000	19.608883
1141.000000	1359.000000	19.706083
1142.000000	1358.000000	19.758335
1143.000000	1357.000000	19.866431
1144.000000	1356.000000	20.001395
1145.000000	1355.000000	20.167934
1146.000000	1354.000000	20.362828
1147.000000	1353.000000	20.561932
1148.000000	1352.000000	20.830128
1149.000000	1351.000000	21.084332
1150.000000	1350.000000	21.269568
1151.000000	1349.000000	21.433755
1152.000000	1348.000000	21.641031
1153.000000	1347.000000	21.792092
1154.000000	1346.000000	21.961479
1155.000000	1345.000000	22.120960
1156.000000	1344.000000	22.276603
1157.000000	1343.000000	22.417387
1158.000000	1342.000000	22.567458
1159.000000	1341.000000	22.709728
1160.000000	1340.000000	22.858437
1161.000000	1339.000000	23.001326
1162.000000	1338.000000	23.130719
1163.000000	1337.000000	23.249215
1164.000000	1336.000000	23.370684
1165.000000	1335.000000	23.506763
1166.000000	1334.000000	23.621668
1167.000000	1333.000000	23.736946
1168.000000	1332.000000	23.858538
1169.000000	1331.000000	23.951032
1170.000000	1330.000000	24.072624
1171.000000	1329.000000	24.158803
1172.000000	1328.000000	24.240773
1173.000000	1327.000000	24.331781
1174.000000	1326.000000	24.399635
1175.000000	1325.000000	24.483833
1176.000000	1324.000000	24.570260
1177.000000	1323.000000	24.656439
1178.000000	1322.000000	24.724045
1179.000000	1321.000000	24.791775
1180.000000	1320.000000	24.844770
1181.000000	1319.000000	24.904204
1182.000000	1318.000000	24.966858
1183.000000	1317.000000	25.004004
1184.000000	1316.000000	25.048456
1185.000000	1315.000000	25.094393
1186.000000	1314.000000	25.141445
1187.000000	1313.000000	25.168067
1188.000000	1312.000000	25.208308
1189.000000	1311.000000	25.238025
1190.000000	1310.000000	25.270095
1191.000000	1309.000000	25.306622
1192.000000	1308.000000	25.331139
1193.000000	1307.000000	25.341044
1194.000000	1306.000000	25.345502
1195.000000	1305.000000	25.355779
1196.000000	1304.000000	25.359617
1197.000000	1303.000000	25.355036
1198.000000	1302.000000	25.351569
1199.000000	1301.000000	25.357512
1200.000000	1300.000000	25.354788
1201.000000	1299.000000	25.350826
1202.000000	1298.000000	25.364942
1203.000000	1297.000000	25.360360
1204.000000	1296.000000	25.347359
1205.000000	1295.000000	25.338073
1206.000000	1294.000000	25.333491
1207.000000	1293.000000	25.335968
1208.000000	1292.000000	25.319747
1209.000000	1291.000000	25.301793
1210.000000	1290.000000	25.302536
1211.000000	1289.000000	25.297831
1212.000000	1288.000000	25.279753
1213.000000	1287.000000	25.268609
1214.000000	1286.000000	25.269847
1215.000000	1285.000000	25.252884
1216.000000	1284.000000	25.214499
1217.000000	1283.000000	25.191221
1218.000000	1282.000000	25.183297
1219.000000	1281.000000	25.162247
1220.000000	1280.000000	25.140455
1221.000000	1279.000000	25.119281
1222.000000	1278.000000	25.097613
1223.000000	1277.000000	25.077801
1224.000000	1276.000000	25.051304
1225.000000	1275.000000	25.038798
1226.000000	1274.000000	25.025054
1227.000000	1273.000000	25.007595
1228.000000	1272.000000	25.002023
1229.000000	1271.000000	24.999051
1230.000000	1270.000000	24.982335
1231.000000	1269.000000	24.969334
1232.000000	1268.000000	24.931197
1233.000000	1267.000000	24.884393
1234.000000	1266.000000	24.870525
1235.000000	1265.000000	24.856781
1236.000000	1264.000000	24.816415
1237.000000	1263.000000	24.783232
1238.000000	1262.000000	24.752648
1239.000000	1261.000000	24.731598
1240.000000	1260.000000	24.699281
1241.000000	1259.000000	24.654334
1242.000000	1258.000000	24.630808
1243.000000	1257.000000	24.582642
1244.000000	1256.000000	24.528780
1245.000000	1255.000000	24.491757
1246.000000	1254.000000	24.460926
1247.000000	1253.000000	24.396044
1248.000000	1252.000000	24.345030
1249.000000	1251.000000	24.294758
1250.000000	1250.000000	24.235572
1251.000000	1249.000000	24.202017
1252.000000	1248.000000	24.147164
1253.000000	1247.000000	24.093673
1254.000000	1246.000000	24.011085
1255.000000	1245.000000	23.953756
1256.000000	1244.000000	23.889369
1257.000000	1243.000000	23.835755
1258.000000	1242.000000	23.771615
1259.000000	1241.000000	23.721097
1260.000000	1240.000000	23.649033
1261.000000	1239.000000	23.581922
1262.000000	1238.000000	23.515802
1263.000000	1237.000000	23.454387
1264.000000	1236.000000	23.378608
1265.000000	1235.000000	23.295153
1266.000000	1234.000000	23.233490
1267.000000	1233.000000	23.176285
1268.000000	1232.000000	23.092211
1269.000000	1231.000000	22.997859
1270.000000	1230.000000	22.916261
1271.000000	1229.000000	22.848779
1272.000000	1228.000000	22.759133
1273.000000	1227.000000	22.667505
1274.000000	1226.000000	22.561762
1275.000000	1225.000000	22.496385
1276.000000	1224.000000	22.441037
1277.000000	1223.000000	22.355848
1278.000000	1222.000000	22.273260
1279.000000	1221.000000	22.208254
1280.000000	1220.000000	22.119103
1281.000000	1219.000000	22.037753
1282.000000	1218.000000	21.973613
1283.000000	1217.000000	21.928914
1284.000000	1216.000000	21.823790
1285.000000	1215.000000	21.783177
1286.000000	1214.000000	21.771414
1287.000000	1213.000000	21.695759
1288.000000	1212.000000	21.648088
1289.000000	1211.000000	21.616267
1290.000000	1210.000000	21.571320
1291.000000	1209.000000	21.555594
1292.000000	1208.000000	21.539498
1293.000000	1207.000000	21.522906
1294.000000	1206.000000	21.508047
1295.000000	1205.000000	21.518572
1296.000000	1204.000000	21.479073
1297.000000	1203.000000	21.528106
1298.000000	1202.000000	21.507676
1299.000000	1201.000000	21.497027
1300.000000	1200.000000	21.489103
1301.000000	1199.000000	21.475606
1302.000000	1198.000000	21.422363
1303.000000	1197.000000	21.408000
1304.000000	1196.000000	21.306467
1305.000000	1195.000000	21.231679
1306.000000	1194.000000	21.132251
1307.000000	1193.000000	20.944662
1308.000000	1192.000000	20.792982
1309.000000	1191.000000	20.613937
1310.000000	1190.000000	20.424120
1311.000000	1189.000000	20.281726
1312.000000	1188.000000	20.168554
1313.000000	1187.000000	20.128312
1314.000000	1186.000000	20.110977
1315.000000	1185.000000	20.139208
1316.000000	1184.000000	20.246932
1317.000000	1183.000000	20.383259
1318.000000	1182.000000	20.575057
1319.000000	1181.000000	20.765865
1320.000000	1180.000000	20.980942
1321.000000	1179.000000	21.193171
1322.000000	1178.000000	21.354757
1323.000000	1177.000000	21.505571
1324.000000	1176.000000	21.633354
1325.000000	1175.000000	21.750488
1326.000000	1174.000000	21.904645
1327.000000	1173.000000	22.040600
1328.000000	1172.000000	22.185223
1329.000000	1171.000000	22.325760
1330.000000	1170.000000	22.469392
1331.000000	1169.000000	22.640388
1332.000000	1168.000000	22.765448
1333.000000	1167.000000	22.895955
1334.000000	1166.000000	23.066084
1335.000000	1165.000000	23.232995
1336.000000	1164.000000	23.389628
1337.000000	1163.000000	23.576721
1338.000000	1162.000000	23.762205
1339.000000	1161.000000	23.951899
1340.000000	1160.000000	24.092188
1341.000000	1159.000000	24.225914
1342.000000	1158.000000	24.433438
1343.000000	1157.000000	24.560478
1344.000000	1156.000000	24.703615
1345.000000	1155.000000	24.779393
1346.000000	1154.000000	24.868792
1347.000000	1153.000000	24.918072
1348.000000	1152.000000	24.952123
1349.000000	1151.000000	24.949151
1350.000000	1150.000000	24.985679
1351.000000	1149.000000	25.027035
1352.000000	1148.000000	25.058485
1353.000000	1147.000000	25.129806
1354.000000	1146.000000	25.169924
1355.000000	1145.000000	25.258703
1356.000000	1144.000000	25.405060
1357.000000	1143.000000	25.546215
1358.000000	1142.000000	25.699877
1359.000000	1141.000000	25.854901
1360.000000	1140.000000	26.050785
1361.000000	1139.000000	26.197018
1362.000000	1138.000000	26.368633
1363.000000	1137.000000	26.532077
1364.000000	1136.000000	26.751363
1365.000000	1135.000000	26.877165
1366.000000	1134.000000	27.034542
1367.000000	1133.000000	27.200957
1368.000000	1132.000000	27.355485
1369.000000	1131.000000	27.492679
1370.000000	1130.000000	27.608946
1371.000000	1129.000000	27.695126
1372.000000	1128.000000	27.760751
1373.000000	1127.000000	27.829966
1374.000000	1126.000000	27.880857
1375.000000	1125.000000	27.893858
1376.000000	1124.000000	27.938310
1377.000000	1123.000000	27.994153
1378.000000	1122.000000	28.003192
1379.000000	1121.000000	28.012478
1380.000000	1120.000000	28.020651
1381.000000	1119.000000	28.045043
1382.000000	1118.000000	28.043186
1383.000000	1117.000000	28.052349
1384.000000	1116.000000	28.028699
1385.000000	1115.000000	28.030309
1386.000000	1114.000000	28.022384
1387.000000	1113.000000	28.020651
1388.000000	1112.000000	28.027461
1389.000000	1111.000000	28.025108
1390.000000	1110.000000	28.003811
1391.000000	1109.000000	27.992667
1392.000000	1108.000000	28.015698
1393.000000	1107.000000	28.017307
1394.000000	1106.000000	28.007649
1395.000000	1105.000000	27.998858
1396.000000	1104.000000	27.999849
1397.000000	1103.000000	27.995886
1398.000000	1102.000000	27.988952
1399.000000	1101.000000	27.979790
1400.000000	1100.000000	27.969141
1401.000000	1099.000000	27.967779
1402.000000	1098.000000	27.976447
1403.000000	1097.000000	27.952549
1404.000000	1096.000000	27.932242
1405.000000	1095.000000	27.916889
1406.000000	1094.000000	27.904383
1407.000000	1093.000000	27.896582
1408.000000	1092.000000	27.858941
1409.000000	1091.000000	27.848663
1410.000000	1090.000000	27.837767
1411.000000	1089.000000	27.824642
1412.000000	1088.000000	27.789229
1413.000000	1087.000000	27.769542
1414.000000	1086.000000	27.723728
1415.000000	1085.000000	27.698469
1416.000000	1084.000000	27.662313
1417.000000	1083.000000	27.633215
1418.000000	1082.000000	27.604860
1419.000000	1081.000000	27.551989
1420.000000	1080.000000	27.515338
1421.000000	1079.000000	27.477201
1422.000000	1078.000000	27.429406
1423.000000	1077.000000	27.391765
1424.000000	1076.000000	27.368239
1425.000000	1075.000000	27.329730
1426.000000	1074.000000	27.284783
1427.000000	1073.000000	27.250485
1428.000000	1072.000000	27.221140
1429.000000	1071.000000	27.165668
1430.000000	1070.000000	27.130874
1431.000000	1069.000000	27.094595
1432.000000	1068.000000	27.061039
1433.000000	1067.000000	27.033799
1434.000000	1066.000000	27.003091
1435.000000	1065.000000	26.988109
1436.000000	1064.000000	26.963097
1437.000000	1063.000000	26.915921
1438.000000	1062.000000	26.898091
1439.000000	1061.000000	26.889795
1440.000000	1060.000000	26.864040
1441.000000	1059.000000	26.853268
1442.000000	1058.000000	26.819341
1443.000000	1057.000000	26.805968
1444.000000	1056.000000	26.794948
1445.000000	1055.000000	26.774270
1446.000000	1054.000000	26.733657
1447.000000	1053.000000	26.708274
1448.000000	1052.000000	26.707531
1449.000000	1051.000000	26.702330
1450.000000	1050.000000	26.685862
1451.000000	1049.000000	26.661098
1452.000000	1048.000000	26.647973
1453.000000	1047.000000	26.654040
1454.000000	1046.000000	26.630143
1455.000000	1045.000000	26.612684
1456.000000	1044.000000	26.583834
1457.000000	1043.000000	26.563775
1458.000000	1042.000000	26.549535
1459.000000	1041.000000	26.532696
1460.000000	1040.000000	26.536287
1461.000000	1039.000000	26.522543
1462.000000	1038.000000	26.496045
1463.000000	1037.000000	26.478710
1464.000000	1036.000000	26.448498
1465.000000	1035.000000	26.441068
1466.000000	1034.000000	26.439211
1467.000000	1033.000000	26.406770
1468.000000	1032.000000	26.367890
1469.000000	1031.000000	26.349812
1470.000000	1030.000000	26.333592
1471.000000	1029.000000	26.308704
1472.000000	1028.000000	26.296446
1473.000000	1027.000000	26.290378
1474.000000	1026.000000	26.265862
1475.000000	1025.000000	26.233545
1476.000000	1024.000000	26.217077
1477.000000	1023.000000	26.193303
1478.000000	1022.000000	26.153804
1479.000000	1021.000000	26.142660
1480.000000	1020.000000	26.126811
1481.000000	1019.000000	26.114801
1482.000000	1018.000000	26.106876
1483.000000	1017.000000	26.086446
1484.000000	1016.000000	26.060196
1485.000000	1015.000000	26.057472
1486.000000	1014.000000	26.058462
1487.000000	1013.000000	26.055367
1488.000000	1012.000000	26.080750
1489.000000	1011.000000	26.108733
1490.000000	1010.000000	26.096723
1491.000000	1009.000000	26.098704
1492.000000	1008.000000	26.142536
1493.000000	1007.000000	26.175844
1494.000000	1006.000000	26.192436
1495.000000	1005.000000	26.201351
1496.000000	1004.000000	26.229087
1497.000000	1003.000000	26.263881
1498.000000	1002.000000	26.288645
1499.000000	1001.000000	26.312666
1500.000000	1000.000000	26.316752
1501.000000	999.000000	26.343621
1502.000000	998.000000	26.369748
1503.000000	997.000000	26.387825
1504.000000	996.000000	26.409494
1505.000000	995.000000	26.426705
1506.000000	994.000000	26.453946
1507.000000	993.000000	26.486263
1508.000000	992.000000	26.500131
1509.000000	991.000000	26.510656
1510.000000	990.000000	26.543221
1511.000000	989.000000	26.562660
1512.000000	988.000000	26.580986
1513.000000	987.000000	26.630762
1514.000000	986.000000	26.665184
1515.000000	985.000000	26.692796
1516.000000	984.000000	26.708769
1517.000000	983.000000	26.758421
1518.000000	982.000000	26.790615
1519.000000	981.000000	26.808197
1520.000000	980.000000	26.858345
1521.000000	979.000000	26.911959
1522.000000	978.000000	26.931399
1523.000000	977.000000	26.936475
1524.000000	976.000000	26.975108
1525.000000	975.000000	27.022283
1526.000000	974.000000	27.029589
1527.000000	973.000000	27.056953
1528.000000	972.000000	27.097443
1529.000000	971.000000	27.134589
1530.000000	970.000000	27.144866
1531.000000	969.000000	27.175573
1532.000000	968.000000	27.193899
1533.000000	967.000000	27.258533
1534.000000	966.000000	27.286022
1535.000000	965.000000	27.298899
1536.000000	964.000000	27.328121
1537.000000	963.000000	27.369601
1538.000000	962.000000	27.398451
1539.000000	961.000000	27.427054
1540.000000	960.000000	27.471381
1541.000000	959.000000	27.514966
1542.000000	958.000000	27.546788
1543.000000	957.000000	27.562761
1544.000000	956.000000	27.577496
1545.000000	955.000000	27.611918
1546.000000	954.000000	27.627891
1547.000000	953.000000	27.681629
1548.000000	952.000000	27.711346
1549.000000	951.000000	27.729795
1550.000000	950.000000	27.733262
1551.000000	949.000000	27.747873
1552.000000	948.000000	27.765456
1553.000000	947.000000	27.786877
1554.000000	946.000000	27.842349
1555.000000	945.000000	27.856093
1556.000000	944.000000	27.869589
1557.000000	943.000000	27.937319
1558.000000	942.000000	27.967903
1559.000000	941.000000	27.980285
1560.000000	940.000000	28.025480
1561.000000	939.000000	28.057921
1562.000000	938.000000	28.085904
1563.000000	937.000000	28.104353
1564.000000	936.000000	28.138776
1565.000000	935.000000	28.157101
1566.000000	934.000000	28.211087
1567.000000	933.000000	28.232260
1568.000000	932.000000	28.281665
1569.000000	931.000000	28.321659
1570.000000	930.000000	28.365368
1571.000000	929.000000	28.390627
1572.000000	928.000000	28.400904
1573.000000	927.000000	28.462939
1574.000000	926.000000	28.496989
1575.000000	925.000000	28.503676
1576.000000	924.000000	28.493027
1577.000000	923.000000	28.562862
1578.000000	922.000000	28.594312
1579.000000	921.000000	28.605580
1580.000000	920.000000	28.615114
1581.000000	919.000000	28.613009
1582.000000	918.000000	28.607933
1583.000000	917.000000	28.596046
1584.000000	916.000000	28.612019
1585.000000	915.000000	28.599141
1586.000000	914.000000	28.598894
1587.000000	913.000000	28.653127
1588.000000	912.000000	28.619696
1589.000000	911.000000	28.594189
1590.000000	910.000000	28.533764
1591.000000	909.000000	28.490674
1592.000000	908.000000	28.538222
1593.000000	907.000000	28.542927
1594.000000	906.000000	28.513457
1595.000000	905.000000	28.475073
1596.000000	904.000000	28.465043
1597.000000	903.000000	28.425668
1598.000000	902.000000	28.399790
1599.000000	901.000000	28.381588
1600.000000	900.000000	28.366977
1601.000000	899.000000	28.263587
1602.000000	898.000000	28.262225
1603.000000	897.000000	28.246128
1604.000000	896.000000	28.211458
1605.000000	895.000000	28.198705
1606.000000	894.000000	28.150043
1607.000000	893.000000	28.135680
1608.000000	892.000000	28.114135
1609.000000	891.000000	28.049996
1610.000000	890.000000	27.905002
1611.000000	889.000000	27.862284
1612.000000	888.000000	27.836900
1613.000000	887.000000	27.783038
1614.000000	886.000000	27.698593
1615.000000	885.000000	27.496517
1616.000000	884.000000	27.475839
1617.000000	883.000000	27.419253
1618.000000	882.000000	27.299766
1619.000000	881.000000	27.115273
1620.000000	880.000000	27.032932
1621.000000	879.000000	26.887442
1622.000000	878.000000	26.668775
1623.000000	877.000000	26.536287
1624.000000	876.000000	26.412590
1625.000000	875.000000	26.167548
1626.000000	874.000000	26.027135
1627.000000	873.000000	25.789771
1628.000000	872.000000	25.645520
1629.000000	871.000000	25.402336
1630.000000	870.000000	25.237778
1631.000000	869.000000	25.018243
1632.000000	868.000000	24.858762
1633.000000	867.000000	24.672660
1634.000000	866.000000	24.493367
1635.000000	865.000000	24.252288
1636.000000	864.000000	24.021362
1637.000000	863.000000	23.871910
1638.000000	862.000000	23.730135
1639.000000	861.000000	23.528184
1640.000000	860.000000	23.403620
1641.000000	859.000000	23.411792
1642.000000	858.000000	24.489900
1643.000000	857.000000	24.448600
1644.000000	856.000000	24.407200
1645.000000	855.000000	24.613900
1646.000000	854.000000	24.744100
1647.000000	853.000000	24.768000
1648.000000	852.000000	24.977900
1649.000000	851.000000	25.068300
1650.000000	850.000000	25.142400
1651.000000	849.000000	25.122600
1652.000000	848.000000	25.452000
1653.000000	847.000000	25.653400
1654.000000	846.000000	25.933300
1655.000000	845.000000	26.096100
1656.000000	844.000000	26.252800
1657.000000	843.000000	26.310700
1658.000000	842.000000	26.382600
1659.000000	841.000000	26.529900
1660.000000	840.000000	26.739600
1661.000000	839.000000	26.802400
1662.000000	838.000000	27.018200
1663.000000	837.000000	27.250600
1664.000000	836.000000	27.359600
1665.000000	835.000000	27.356000
1666.000000	834.000000	27.607200
1667.000000	833.000000	27.819800
1668.000000	832.000000	27.843900
1669.000000	831.000000	28.038700
1670.000000	830.000000	28.189200
1671.000000	829.000000	28.304000
1672.000000	828.000000	28.498300
1673.000000	827.000000	28.631200
1674.000000	826.000000	28.770700
1675.000000	825.000000	28.831300
1676.000000	824.000000	28.984400
1677.000000	823.000000	29.127200
1678.000000	822.000000	29.340400
1679.000000	821.000000	29.562700
1680.000000	820.000000	29.676700
1681.000000	819.000000	29.783900
1682.000000	818.000000	29.950900
1683.000000	817.000000	29.956800
1684.000000	816.000000	30.117300
1685.000000	815.000000	30.282900
1686.000000	814.000000	30.422200
1687.000000	813.000000	30.608700
1688.000000	812.000000	30.816300
1689.000000	811.000000	30.837700
1690.000000	810.000000	30.981100
1691.000000	809.000000	31.172400
1692.000000	808.000000	31.274200
1693.000000	807.000000	31.400500
1694.000000	806.000000	31.569500
1695.000000	805.000000	31.681100
1696.000000	804.000000	31.898200
1697.000000	803.000000	32.021100
1698.000000	802.000000	32.107200
1699.000000	801.000000	32.289100
1700.000000	800.000000	32.424800
1701.000000	799.000000	32.562800
1702.000000	798.000000	32.673000
1703.000000	797.000000	32.801200
1704.000000	796.000000	32.929200
1705.000000	795.000000	33.003700
1706.000000	794.000000	33.127500
1707.000000	793.000000	33.223100
1708.000000	792.000000	33.338900
1709.000000	791.000000	33.407600
1710.000000	790.000000	33.478300
1711.000000	789.000000	33.508700
1712.000000	788.000000	33.591000
1713.000000	787.000000	33.638700
1714.000000	786.000000	33.730500
1715.000000	785.000000	33.787000
1716.000000	784.000000	33.882200
1717.000000	783.000000	33.928000
1718.000000	782.000000	33.965000
1719.000000	781.000000	34.060600
1720.000000	780.000000	34.090100
1721.000000	779.000000	34.117900
1722.000000	778.000000	34.211400
1723.000000	777.000000	34.195300
1724.000000	776.000000	34.138800
1725.000000	775.000000	34.142300
1726.000000	774.000000	34.199200
1727.000000	773.000000	34.229600
1728.000000	772.000000	34.227800
1729.000000	771.000000	34.216500
1730.000000	770.000000	34.258100
1731.000000	769.000000	34.259900
1732.000000	768.000000	34.250400
1733.000000	767.000000	34.253400
1734.000000	766.000000	34.257000
1735.000000	765.000000	34.208600
1736.000000	764.000000	34.141700
1737.000000	763.000000	34.155100
1738.000000	762.000000	34.199600
1739.000000	761.000000	34.175300
1740.000000	760.000000	34.189700
1741.000000	759.000000	34.218000
1742.000000	758.000000	34.146300
1743.000000	757.000000	34.115800
1744.000000	756.000000	34.113800
1745.000000	755.000000	34.099000
1746.000000	754.000000	34.062000
1747.000000	753.000000	34.059500
1748.000000	752.000000	34.063200
1749.000000	751.000000	34.014000
1750.000000	750.000000	33.984100
1751.000000	749.000000	33.959700
1752.000000	748.000000	33.931900
1753.000000	747.000000	33.908900
1754.000000	746.000000	33.866100
1755.000000	745.000000	33.839100
1756.000000	744.000000	33.812300
1757.000000	743.000000	33.747600
1758.000000	742.000000	33.741800
1759.000000	741.000000	33.713800
1760.000000	740.000000	33.636800
1761.000000	739.000000	33.558800
1762.000000	738.000000	33.493700
1763.000000	737.000000	33.412000
1764.000000	736.000000	33.341000
1765.000000	735.000000	33.309000
1766.000000	734.000000	33.228400
1767.000000	733.000000	33.123100
1768.000000	732.000000	33.052200
1769.000000	731.000000	32.944300
1770.000000	730.000000	32.850500
1771.000000	729.000000	32.725300
1772.000000	728.000000	32.571400
1773.000000	727.000000	32.483300
1774.000000	726.000000	32.371600
1775.000000	725.000000	32.191700
1776.000000	724.000000	32.050400
1777.000000	723.000000	31.953500
1778.000000	722.000000	31.813000
1779.000000	721.000000	31.658400
1780.000000	720.000000	31.534400
1781.000000	719.000000	31.333800
1782.000000	718.000000	31.163100
1783.000000	717.000000	31.010700
1784.000000	716.000000	30.854700
1785.000000	715.000000	30.698000
1786.000000	714.000000	30.544400
1787.000000	713.000000	30.349900
1788.000000	712.000000	30.166000
1789.000000	711.000000	30.004700
1790.000000	710.000000	29.906700
1791.000000	709.000000	29.754300
1792.000000	708.000000	29.591700
1793.000000	707.000000	29.435500
1794.000000	706.000000	29.299600
1795.000000	705.000000	29.158900
1796.000000	704.000000	29.025200
1797.000000	703.000000	28.887600
1798.000000	702.000000	28.751500
1799.000000	701.000000	28.623400
1800.000000	700.000000	28.504500
1801.000000	699.000000	28.369400
1802.000000	698.000000	28.231200
1803.000000	697.000000	28.122200
1804.000000	696.000000	28.004100
1805.000000	695.000000	27.875800
1806.000000	694.000000	27.768700
1807.000000	693.000000	27.661300
1808.000000	692.000000	27.541500
1809.000000	691.000000	27.420500
1810.000000	690.000000	27.274000
1811.000000	689.000000	27.173200
1812.000000	688.000000	27.023800
1813.000000	687.000000	26.899800
1814.000000	686.000000	26.763600
1815.000000	685.000000	26.628200
1816.000000	684.000000	26.465800
1817.000000	683.000000	26.307200
1818.000000	682.000000	26.157300
1819.000000	681.000000	26.000400
1820.000000	680.000000	25.835900
1821.000000	679.000000	25.653600
1822.000000	678.000000	25.476700
1823.000000	677.000000	25.314000
1824.000000	676.000000	25.173900
1825.000000	675.000000	25.004600
1826.000000	674.000000	24.837700
1827.000000	673.000000	24.702800
1828.000000	672.000000	24.551300
1829.000000	671.000000	24.439700
1830.000000	670.000000	24.320000
1831.000000	669.000000	24.196000
1832.000000	668.000000	24.101600
1833.000000	667.000000	24.011000
1834.000000	666.000000	23.909200
1835.000000	665.000000	23.841200
1836.000000	664.000000	23.770600
1837.000000	663.000000	23.702900
1838.000000	662.000000	23.653100
1839.000000	661.000000	23.590400
1840.000000	660.000000	23.523600
1841.000000	659.000000	23.506400
1842.000000	658.000000	23.446700
1843.000000	657.000000	23.415600
1844.000000	656.000000	23.358100
1845.000000	655.000000	23.303600
1846.000000	654.000000	23.225100
1847.000000	653.000000	23.192500
1848.000000	652.000000	23.131700
1849.000000	651.000000	23.039500
1850.000000	650.000000	22.972900
1851.000000	649.000000	22.884600
1852.000000	648.000000	22.788400
1853.000000	647.000000	22.670800
1854.000000	646.000000	22.576100
1855.000000	645.000000	22.467200
1856.000000	644.000000	22.363800
1857.000000	643.000000	22.225900
1858.000000	642.000000	22.111200
1859.000000	641.000000	21.992600
1860.000000	640.000000	21.893200
1861.000000	639.000000	21.769200
1862.000000	638.000000	21.650700
1863.000000	637.000000	21.534600
1864.000000	636.000000	21.435800
1865.000000	635.000000	21.336400
1866.000000	634.000000	21.250600
1867.000000	633.000000	21.148600
1868.000000	632.000000	21.081800
1869.000000	631.000000	20.971100
1870.000000	630.000000	20.857200
1871.000000	629.000000	20.765800
1872.000000	628.000000	20.670200
1873.000000	627.000000	20.579300
1874.000000	626.000000	20.485400
1875.000000	625.000000	20.368600
1876.000000	624.000000	20.290900
1877.000000	623.000000	20.184100
1878.000000	622.000000	20.077000
1879.000000	621.000000	19.951200
1880.000000	620.000000	19.848400
1881.000000	619.000000	19.746500
1882.000000	618.000000	19.645800
1883.000000	617.000000	19.548700
1884.000000	616.000000	19.451700
1885.000000	615.000000	19.329000
1886.000000	614.000000	19.244500
1887.000000	613.000000	19.148400
1888.000000	612.000000	19.055100
1889.000000	611.000000	18.958400
1890.000000	610.000000	18.885200
1891.000000	609.000000	18.811400
1892.000000	608.000000	18.757100
1893.000000	607.000000	18.691800
1894.000000	606.000000	18.634500
1895.000000	605.000000	18.606000
1896.000000	604.000000	18.581600
1897.000000	603.000000	18.546800
1898.000000	602.000000	18.534500
1899.000000	601.000000	18.533900
1900.000000	600.000000	18.534400
1901.000000	599.000000	18.541600
1902.000000	598.000000	18.575400
1903.000000	597.000000	18.629800
1904.000000	596.000000	18.681800
1905.000000	595.000000	18.755800
1906.000000	594.000000	18.835100
1907.000000	593.000000	18.927400
1908.000000	592.000000	19.026900
1909.000000	591.000000	19.153000
1910.000000	590.000000	19.303000
1911.000000	589.000000	19.432300
1912.000000	588.000000	19.581300
1913.000000	587.000000	19.744600
1914.000000	586.000000	19.906900
1915.000000	585.000000	20.087300
1916.000000	584.000000	20.264100
1917.000000	583.000000	20.394200
1918.000000	582.000000	20.590800
1919.000000	581.000000	20.761600
1920.000000	580.000000	20.948000
1921.000000	579.000000	21.096600
1922.000000	578.000000	21.268700
1923.000000	577.000000	21.436500
1924.000000	576.000000	21.572300
1925.000000	575.000000	21.715300
1926.000000	574.000000	21.854700
1927.000000	573.000000	22.002400
1928.000000	572.000000	22.114100
1929.000000	571.000000	22.235100
1930.000000	570.000000	22.342100
1931.000000	569.000000	22.466500
1932.000000	568.000000	22.581300
1933.000000	567.000000	22.676900
1934.000000	566.000000	22.769900
1935.000000	565.000000	22.877900
1936.000000	564.000000	22.971500
1937.000000	563.000000	23.042600
1938.000000	562.000000	23.102900
1939.000000	561.000000	23.161700
1940.000000	560.000000	23.309200
1941.000000	559.000000	24.117300
1942.000000	558.000000	24.157900
1943.000000	557.000000	24.192200
1944.000000	556.000000	24.220400
1945.000000	555.000000	24.268700
1946.000000	554.000000	24.261300
1947.000000	553.000000	24.272800
1948.000000	552.000000	24.256800
1949.000000	551.000000	24.244200
1950.000000	550.000000	24.242400
1951.000000	549.000000	24.225500
1952.000000	548.000000	24.190100
1953.000000	547.000000	24.155400
1954.000000	546.000000	24.130500
1955.000000	545.000000	24.094800
1956.000000	544.000000	24.047200
1957.000000	543.000000	23.988400
1958.000000	542.000000	23.924400
1959.000000	541.000000	23.860100
1960.000000	540.000000	23.784400
1961.000000	539.000000	23.711500
1962.000000	538.000000	23.633200
1963.000000	537.000000	23.562000
1964.000000	536.000000	23.478400
1965.000000	535.000000	23.379600
1966.000000	534.000000	23.277600
1967.000000	533.000000	23.164600
1968.000000	532.000000	23.062600
1969.000000	531.000000	22.944600
1970.000000	530.000000	22.823200
1971.000000	529.000000	22.707200
1972.000000	528.000000	22.576300
1973.000000	527.000000	22.453200
1974.000000	526.000000	22.322000
1975.000000	525.000000	22.199600
1976.000000	524.000000	22.062800
1977.000000	523.000000	21.907900
1978.000000	522.000000	21.753100
1979.000000	521.000000	21.616800
1980.000000	520.000000	21.471300
1981.000000	519.000000	21.334900
1982.000000	518.000000	21.191200
1983.000000	517.000000	21.047900
1984.000000	516.000000	20.907500
1985.000000	515.000000	20.737900
1986.000000	514.000000	20.569300
1987.000000	513.000000	20.389200
1988.000000	512.000000	20.199100
1989.000000	511.000000	20.025300
1990.000000	510.000000	19.814200
1991.000000	509.000000	19.601000
1992.000000	508.000000	19.377600
1993.000000	507.000000	19.156900
1994.000000	506.000000	18.917200
1995.000000	505.000000	18.684300
1996.000000	504.000000	18.419000
1997.000000	503.000000	18.163100
1998.000000	502.000000	17.920400
1999.000000	501.000000	17.676400
2000.000000	500.000000	17.417600
2001.000000	499.000000	17.177600
2002.000000	498.000000	16.925000
2003.000000	497.000000	16.670100
2004.000000	496.000000	16.419000
2005.000000	495.000000	16.164800
2006.000000	494.000000	15.920100
2007.000000	493.000000	15.645100
2008.000000	492.000000	15.376300
2009.000000	491.000000	15.104900
2010.000000	490.000000	14.826100
2011.000000	489.000000	14.541700
2012.000000	488.000000	14.262800
2013.000000	487.000000	13.994300
2014.000000	486.000000	13.725900
2015.000000	485.000000	13.449900
2016.000000	484.000000	13.161500
2017.000000	483.000000	12.891300
2018.000000	482.000000	12.648200
2019.000000	481.000000	12.422300
2020.000000	480.000000	12.187300
2021.000000	479.000000	11.932900
2022.000000	478.000000	11.678100
2023.000000	477.000000	11.435500
2024.000000	476.000000	11.185900
2025.000000	475.000000	10.934900
2026.000000	474.000000	10.684000
2027.000000	473.000000	10.444200
2028.000000	472.000000	10.206300
2029.000000	471.000000	9.968400
2030.000000	470.000000	9.749300
2031.000000	469.000000	9.547900
2032.000000	468.000000	9.350900
2033.000000	467.000000	9.174500
2034.000000	466.000000	9.010900
2035.000000	465.000000	8.857100
2036.000000	464.000000	8.734200
2037.000000	463.000000	8.619300
2038.000000	462.000000	8.525400
2039.000000	461.000000	8.454200
2040.000000	460.000000	8.398700
2041.000000	459.000000	8.349600
2042.000000	458.000000	8.322100
2043.000000	457.000000	8.310900
2044.000000	456.000000	8.306800
2045.000000	455.000000	8.318400
2046.000000	454.000000	8.335300
2047.000000	453.000000	8.367400
2048.000000	452.000000	8.406100
2049.000000	451.000000	8.439600
2050.000000	450.000000	8.467800
2051.000000	449.000000	8.492400
2052.000000	448.000000	8.527100
2053.000000	447.000000	8.571100
2054.000000	446.000000	8.614600
2055.000000	445.000000	8.648600
2056.000000	444.000000	8.672400
2057.000000	443.000000	8.700700
2058.000000	442.000000	8.725900
2059.000000	441.000000	8.739300
2060.000000	440.000000	8.748400
2061.000000	439.000000	8.747600
2062.000000	438.000000	8.740700
2063.000000	437.000000	8.742300
2064.000000	436.000000	8.739600
2065.000000	435.000000	8.725300
2066.000000	434.000000	8.700100
2067.000000	433.000000	8.669600
2068.000000	432.000000	8.638000
2069.000000	431.000000	8.611900
2070.000000	430.000000	8.578800
2071.000000	429.000000	8.522700
2072.000000	428.000000	8.472400
2073.000000	427.000000	8.421700
2074.000000	426.000000	8.365600
2075.000000	425.000000	8.305500
2076.000000	424.000000	8.237500
2077.000000	423.000000	8.163100
2078.000000	422.000000	8.085900
2079.000000	421.000000	8.016800
2080.000000	420.000000	7.925400
2081.000000	419.000000	7.819500
2082.000000	418.000000	7.730000
2083.000000	417.000000	7.643300
2084.000000	416.000000	7.536600
2085.000000	415.000000	7.419300
2086.000000	414.000000	7.294900
2087.000000	413.000000	7.172700
2088.000000	412.000000	7.044800
2089.000000	411.000000	6.926600
2090.000000	410.000000	6.804600
2091.000000	409.000000	6.668400
2092.000000	408.000000	6.528200
2093.000000	407.000000	6.388900
2094.000000	406.000000	6.249200
2095.000000	405.000000	6.110700
2096.000000	404.000000	5.975000
2097.000000	403.000000	5.816100
2098.000000	402.000000	5.653100
2099.000000	401.000000	5.505000
2100.000000	400.000000	5.358100
2101.000000	399.000000	5.213200
2102.000000	398.000000	5.059400
2103.000000	397.000000	4.906600
2104.000000	396.000000	4.759300
2105.000000	395.000000	4.620800
2106.000000	394.000000	4.458800
2107.000000	393.000000	4.311100
2108.000000	392.000000	4.195000
2109.000000	391.000000	4.065700
2110.000000	390.000000	3.914800
2111.000000	389.000000	3.786500
2112.000000	388.000000	3.676000
2113.000000	387.000000	3.573800
2114.000000	386.000000	3.471200
2115.000000	385.000000	3.365600
2116.000000	384.000000	3.260400
2117.000000	383.000000	3.166900
2118.000000	382.000000	3.083400
2119.000000	381.000000	3.003100
2120.000000	380.000000	2.929800
2121.000000	379.000000	2.861300
2122.000000	378.000000	2.793700
2123.000000	377.000000	2.732600
2124.000000	376.000000	3.083500
2125.000000	375.000000	2.773000
2126.000000	374.000000	2.598200
2127.000000	373.000000	2.625300
2128.000000	372.000000	2.598700
2129.000000	371.000000	2.673100
2130.000000	370.000000	2.670800
2131.000000	369.000000	2.608900
2132.000000	368.000000	2.683500
2133.000000	367.000000	2.628500
2134.000000	366.000000	2.585200
2135.000000	365.000000	2.633100
2136.000000	364.000000	2.647700
2137.000000	363.000000	2.597900
2138.000000	362.000000	2.501200
2139.000000	361.000000	2.427000
2140.000000	360.000000	2.555700
2141.000000	359.000000	2.519700
2142.000000	358.000000	2.523500
2143.000000	357.000000	2.467700
2144.000000	356.000000	2.591900
2145.000000	355.000000	2.503100
2146.000000	354.000000	2.490600
2147.000000	353.000000	2.528000
2148.000000	352.000000	2.519300
2149.000000	351.000000	2.481900
2150.000000	350.000000	2.438600
2151.000000	349.000000	2.462500
2152.000000	348.000000	2.413800
2153.000000	347.000000	2.451800
2154.000000	346.000000	2.372100
2155.000000	345.000000	2.414200
2156.000000	344.000000	2.336600
2157.000000	343.000000	2.401000
2158.000000	342.000000	2.385400
2159.000000	341.000000	2.408400
2160.000000	340.000000	2.423200
2161.000000	339.000000	2.600300
2162.000000	338.000000	2.457100
2163.000000	337.000000	2.455900
2164.000000	336.000000	2.424900
2165.000000	335.000000	2.549800
2166.000000	334.000000	2.313500
2167.000000	333.000000	2.257900
2168.000000	332.000000	2.413200
2169.000000	331.000000	2.381200
2170.000000	330.000000	2.353800
2171.000000	329.000000	2.606300
2172.000000	328.000000	2.255900
2173.000000	327.000000	2.478000
2174.000000	326.000000	2.539600
2175.000000	325.000000	2.364200
2176.000000	324.000000	2.419100
2177.000000	323.000000	2.447500
2178.000000	322.000000	2.555800
2179.000000	321.000000	2.459500
2180.000000	320.000000	2.699400
2181.000000	319.000000	2.395000
2182.000000	318.000000	2.464700
2183.000000	317.000000	2.829000
2184.000000	316.000000	2.275300
2185.000000	315.000000	2.121600
2186.000000	314.000000	2.138100
2187.000000	313.000000	2.184900
2188.000000	312.000000	2.099800
2189.000000	311.000000	2.171900
2190.000000	310.000000	2.194400
2191.000000	309.000000	2.164500
2192.000000	308.000000	2.055500
2193.000000	307.000000	2.095500
2194.000000	306.000000	2.076800
2195.000000	305.000000	2.171200
2196.000000	304.000000	2.152200
2197.000000	303.000000	2.128500
2198.000000	302.000000	2.143700
2199.000000	301.000000	2.212200
2200.000000	300.000000	2.188600
2201.000000	299.000000	2.189300
2202.000000	298.000000	2.117400
2203.000000	297.000000	2.181700
2204.000000	296.000000	2.133700
2205.000000	295.000000	2.095700
2206.000000	294.000000	2.148400
2207.000000	293.000000	2.165900
2208.000000	292.000000	2.151900
2209.000000	291.000000	2.201200
2210.000000	290.000000	2.203000
2211.000000	289.000000	2.247700
2212.000000	288.000000	2.200600
2213.000000	287.000000	2.176400
2214.000000	286.000000	2.215400
2215.000000	285.000000	2.211100
2216.000000	284.000000	2.203500
2217.000000	283.000000	2.252600
2218.000000	282.000000	2.184600
2219.000000	281.000000	2.251500
2220.000000	280.000000	2.224400
2221.000000	279.000000	2.239400
2222.000000	278.000000	2.281200
2223.000000	277.000000	2.254400
2224.000000	276.000000	2.211300
2225.000000	275.000000	2.228400
2226.000000	274.000000	2.226200
2227.000000	273.000000	2.267300
2228.000000	272.000000	2.254400
2229.000000	271.000000	2.273400
2230.000000	270.000000	2.266400
2231.000000	269.000000	2.289700
2232.000000	268.000000	2.254400
2233.000000	267.000000	2.224400
2234.000000	266.000000	2.254900
2235.000000	265.000000	2.262700
2236.000000	264.000000	2.284200
2237.000000	263.000000	2.342300
2238.000000	262.000000	2.333800
2239.000000	261.000000	2.277100
2240.000000	260.000000	2.301100
2241.000000	259.000000	2.285400
2242.000000	258.000000	2.303600
2243.000000	257.000000	2.317000
2244.000000	256.000000	2.313400
2245.000000	255.000000	2.371200
2246.000000	254.000000	2.313000
2247.000000	253.000000	2.314900
2248.000000	252.000000	2.306600
2249.000000	251.000000	2.323000
2250.000000	250.000000	2.278600
