PE UV       SUBTECH     SPECTRUM    ASCII       PEDS        4.00        
   -1
CICIMAUCR0100-1.ASC
24/04/03
15:40:25.00
24/04/03
15:40:25.00
Vinicio Soto Monge
C. cupreomarginata
250,000000
1
Lambda 1050
1050L1511233
PerkinElmer UV WinLab 6.3.2.0749 / 2.02.05 Lambda 900 UV/VIS/NIR, Aug  7 2015 09:38:08

0
0
3350/servo 860,8/2
0
0
UV/VIS
1
1
1
DoubleDePol,CommonBeamDepol,RBeamAtt,SBeamAtt,60mm sphere, WB InGaAs Detector
0
0
0
0
Program
Program
3350/servo 860,8/2
3350/0,2 860,8/0,2
3350/0,2 860,8/0,2
0
15.00
 
 
 
0
 
860,8
319,2
860,8
Front
100
on
S:100 R:100
0
0
0
0
 
0
 
 
 
0
 
 
0
0
0
0
0
 
 
 
 
0
0


0
0
#HDR
-1
-1
#GR
nm
%R
1.0
0.0
2500,000000
-1,000000
2251
8
57,680700
4,945700
#DATA
501.000000	1999.000000	10.919280
502.000000	1998.000000	10.900905
503.000000	1997.000000	10.907030
504.000000	1996.000000	10.872015
505.000000	1995.000000	10.854967
506.000000	1994.000000	10.827507
507.000000	1993.000000	10.804231
508.000000	1992.000000	10.802700
509.000000	1991.000000	10.744717
510.000000	1990.000000	10.712050
511.000000	1989.000000	10.693164
512.000000	1988.000000	10.654168
513.000000	1987.000000	10.618235
514.000000	1986.000000	10.576483
515.000000	1985.000000	10.552391
516.000000	1984.000000	10.502880
517.000000	1983.000000	10.471745
518.000000	1982.000000	10.430605
519.000000	1981.000000	10.394161
520.000000	1980.000000	10.354042
521.000000	1979.000000	10.326378
522.000000	1978.000000	10.285748
523.000000	1977.000000	10.224294
524.000000	1976.000000	10.189790
525.000000	1975.000000	10.183767
526.000000	1974.000000	10.144975
527.000000	1973.000000	10.088114
528.000000	1972.000000	10.058306
529.000000	1971.000000	10.030641
530.000000	1970.000000	10.026047
531.000000	1969.000000	9.953772
532.000000	1968.000000	9.913041
533.000000	1967.000000	9.932130
534.000000	1966.000000	9.892522
535.000000	1965.000000	9.847401
536.000000	1964.000000	9.813305
537.000000	1963.000000	9.795951
538.000000	1962.000000	9.748686
539.000000	1961.000000	9.728269
540.000000	1960.000000	9.702034
541.000000	1959.000000	9.674573
542.000000	1958.000000	9.634148
543.000000	1957.000000	9.626594
544.000000	1956.000000	9.588517
545.000000	1955.000000	9.578410
546.000000	1954.000000	9.551869
547.000000	1953.000000	9.510219
548.000000	1952.000000	9.499296
549.000000	1951.000000	9.479696
550.000000	1950.000000	9.434268
551.000000	1949.000000	9.432431
552.000000	1948.000000	9.414464
553.000000	1947.000000	9.400683
554.000000	1946.000000	9.376897
555.000000	1945.000000	9.368016
556.000000	1944.000000	9.380470
557.000000	1943.000000	9.389454
558.000000	1942.000000	9.387208
559.000000	1941.000000	9.404664
560.000000	1940.000000	9.409564
561.000000	1939.000000	9.410789
562.000000	1938.000000	9.421406
563.000000	1937.000000	9.419977
564.000000	1936.000000	9.417833
565.000000	1935.000000	9.449377
566.000000	1934.000000	9.483881
567.000000	1933.000000	9.527164
568.000000	1932.000000	9.570958
569.000000	1931.000000	9.625369
570.000000	1930.000000	9.688559
571.000000	1929.000000	9.728576
572.000000	1928.000000	9.770838
573.000000	1927.000000	9.821982
574.000000	1926.000000	9.865878
575.000000	1925.000000	9.968779
576.000000	1924.000000	10.050445
577.000000	1923.000000	10.105264
578.000000	1922.000000	10.193056
579.000000	1921.000000	10.293609
580.000000	1920.000000	10.356186
581.000000	1919.000000	10.427441
582.000000	1918.000000	10.525033
583.000000	1917.000000	10.651616
584.000000	1916.000000	10.759315
585.000000	1915.000000	10.858642
586.000000	1914.000000	10.988084
587.000000	1913.000000	11.109155
588.000000	1912.000000	11.214097
589.000000	1911.000000	11.308423
590.000000	1910.000000	11.436232
591.000000	1909.000000	11.570982
592.000000	1908.000000	11.706855
593.000000	1907.000000	11.852121
594.000000	1906.000000	11.979521
595.000000	1905.000000	12.116721
596.000000	1904.000000	12.251982
597.000000	1903.000000	12.383772
598.000000	1902.000000	12.532304
599.000000	1901.000000	12.694515
600.000000	1900.000000	12.827122
601.000000	1899.000000	12.944110
602.000000	1898.000000	13.076104
603.000000	1897.000000	13.248115
604.000000	1896.000000	13.405528
605.000000	1895.000000	13.547322
606.000000	1894.000000	13.709533
607.000000	1893.000000	13.872255
608.000000	1892.000000	14.019255
609.000000	1891.000000	14.170339
610.000000	1890.000000	14.319177
611.000000	1889.000000	14.470363
612.000000	1888.000000	14.666772
613.000000	1887.000000	14.837456
614.000000	1886.000000	15.069594
615.000000	1885.000000	15.301630
616.000000	1884.000000	15.572254
617.000000	1883.000000	15.842470
618.000000	1882.000000	16.138410
619.000000	1881.000000	16.472428
620.000000	1880.000000	16.818900
621.000000	1879.000000	17.145262
622.000000	1878.000000	17.454882
623.000000	1877.000000	17.739797
624.000000	1876.000000	18.006134
625.000000	1875.000000	18.259710
626.000000	1874.000000	18.493889
627.000000	1873.000000	18.677538
628.000000	1872.000000	18.849855
629.000000	1871.000000	19.006145
630.000000	1870.000000	19.103023
631.000000	1869.000000	19.203677
632.000000	1868.000000	19.289326
633.000000	1867.000000	19.343226
634.000000	1866.000000	19.412439
635.000000	1865.000000	19.476241
636.000000	1864.000000	19.531264
637.000000	1863.000000	19.598945
638.000000	1862.000000	19.646721
639.000000	1861.000000	19.672854
640.000000	1860.000000	19.653662
641.000000	1859.000000	19.629264
642.000000	1858.000000	19.604866
643.000000	1857.000000	19.581285
644.000000	1856.000000	19.564747
645.000000	1855.000000	19.533918
646.000000	1854.000000	19.476037
647.000000	1853.000000	19.386101
648.000000	1852.000000	19.333426
649.000000	1851.000000	19.333017
650.000000	1850.000000	19.331486
651.000000	1849.000000	19.300555
652.000000	1848.000000	19.191734
653.000000	1847.000000	19.036260
654.000000	1846.000000	18.928460
655.000000	1845.000000	18.887830
656.000000	1844.000000	18.906001
657.000000	1843.000000	18.938362
658.000000	1842.000000	18.917435
659.000000	1841.000000	18.859757
660.000000	1840.000000	18.788809
661.000000	1839.000000	18.732459
662.000000	1838.000000	18.713982
663.000000	1837.000000	18.662838
664.000000	1836.000000	18.568002
665.000000	1835.000000	18.473575
666.000000	1834.000000	18.410895
667.000000	1833.000000	18.377922
668.000000	1832.000000	18.341070
669.000000	1831.000000	18.290130
670.000000	1830.000000	18.211832
671.000000	1829.000000	18.124142
672.000000	1828.000000	18.036555
673.000000	1827.000000	17.967444
674.000000	1826.000000	17.881387
675.000000	1825.000000	17.816054
676.000000	1824.000000	17.818198
677.000000	1823.000000	17.849741
678.000000	1822.000000	17.848823
679.000000	1821.000000	17.795943
680.000000	1820.000000	17.709989
681.000000	1819.000000	17.633018
682.000000	1818.000000	17.622503
683.000000	1817.000000	17.648228
684.000000	1816.000000	17.650372
685.000000	1815.000000	17.626689
686.000000	1814.000000	17.609334
687.000000	1813.000000	17.605557
688.000000	1812.000000	17.607088
689.000000	1811.000000	17.559722
690.000000	1810.000000	17.485609
691.000000	1809.000000	17.470194
692.000000	1808.000000	17.461823
693.000000	1807.000000	17.423134
694.000000	1806.000000	17.356575
695.000000	1805.000000	17.300225
696.000000	1804.000000	17.276644
697.000000	1803.000000	17.233973
698.000000	1802.000000	17.184768
699.000000	1801.000000	17.150979
700.000000	1800.000000	17.093914
701.000000	1799.000000	17.035930
702.000000	1798.000000	16.999588
703.000000	1797.000000	16.961409
704.000000	1796.000000	16.923740
705.000000	1795.000000	16.866267
706.000000	1794.000000	16.818084
707.000000	1793.000000	16.772350
708.000000	1792.000000	16.728760
709.000000	1791.000000	16.669960
710.000000	1790.000000	16.611670
711.000000	1789.000000	16.563079
712.000000	1788.000000	16.511424
713.000000	1787.000000	16.438026
714.000000	1786.000000	16.377388
715.000000	1785.000000	16.305113
716.000000	1784.000000	16.231511
717.000000	1783.000000	16.158317
718.000000	1782.000000	16.070014
719.000000	1781.000000	16.011214
720.000000	1780.000000	15.939551
721.000000	1779.000000	15.855537
722.000000	1778.000000	15.778668
723.000000	1777.000000	15.705269
724.000000	1776.000000	15.616865
725.000000	1775.000000	15.508758
726.000000	1774.000000	15.391975
727.000000	1773.000000	15.294485
728.000000	1772.000000	15.175557
729.000000	1771.000000	15.061530
730.000000	1770.000000	14.959446
731.000000	1769.000000	14.851850
732.000000	1768.000000	14.765997
733.000000	1767.000000	14.680757
734.000000	1766.000000	14.599295
735.000000	1765.000000	14.552642
736.000000	1764.000000	14.504357
737.000000	1763.000000	14.494863
738.000000	1762.000000	14.479244
739.000000	1761.000000	14.508032
740.000000	1760.000000	14.553357
741.000000	1759.000000	14.588984
742.000000	1758.000000	14.644007
743.000000	1757.000000	14.665037
744.000000	1756.000000	14.712710
745.000000	1755.000000	14.725878
746.000000	1754.000000	14.721489
747.000000	1753.000000	14.706278
748.000000	1752.000000	14.698214
749.000000	1751.000000	14.669732
750.000000	1750.000000	14.622876
751.000000	1749.000000	14.583472
752.000000	1748.000000	14.531103
753.000000	1747.000000	14.445046
754.000000	1746.000000	14.348781
755.000000	1745.000000	14.253231
756.000000	1744.000000	14.126239
757.000000	1743.000000	13.986588
758.000000	1742.000000	13.830298
759.000000	1741.000000	13.662677
760.000000	1740.000000	13.487705
761.000000	1739.000000	13.338765
762.000000	1738.000000	13.204321
763.000000	1737.000000	13.068550
764.000000	1736.000000	12.965751
765.000000	1735.000000	12.923693
766.000000	1734.000000	12.889699
767.000000	1733.000000	12.885514
768.000000	1732.000000	12.927266
769.000000	1731.000000	12.964322
770.000000	1730.000000	13.038741
771.000000	1729.000000	13.120715
772.000000	1728.000000	13.186150
773.000000	1727.000000	13.289663
774.000000	1726.000000	13.360917
775.000000	1725.000000	13.419003
776.000000	1724.000000	13.454528
777.000000	1723.000000	13.474537
778.000000	1722.000000	13.497301
779.000000	1721.000000	13.497607
780.000000	1720.000000	13.482397
781.000000	1719.000000	13.490768
782.000000	1718.000000	13.526701
783.000000	1717.000000	13.526497
784.000000	1716.000000	13.567943
785.000000	1715.000000	13.601120
786.000000	1714.000000	13.650529
787.000000	1713.000000	13.669006
788.000000	1712.000000	13.702489
789.000000	1711.000000	13.741690
790.000000	1710.000000	13.739444
791.000000	1709.000000	13.750775
792.000000	1708.000000	13.735156
793.000000	1707.000000	13.714331
794.000000	1706.000000	13.729848
795.000000	1705.000000	13.695854
796.000000	1704.000000	13.632868
797.000000	1703.000000	13.601427
798.000000	1702.000000	13.560593
799.000000	1701.000000	13.431253
800.000000	1700.000000	13.362245
801.000000	1699.000000	13.266898
802.000000	1698.000000	13.169102
803.000000	1697.000000	13.099073
804.000000	1696.000000	13.076410
805.000000	1695.000000	13.056708
806.000000	1694.000000	13.089069
807.000000	1693.000000	13.183904
808.000000	1692.000000	13.307732
809.000000	1691.000000	13.415736
810.000000	1690.000000	13.531908
811.000000	1689.000000	13.640729
812.000000	1688.000000	13.686871
813.000000	1687.000000	13.710554
814.000000	1686.000000	13.697998
815.000000	1685.000000	13.721273
816.000000	1684.000000	13.768333
817.000000	1683.000000	13.907065
818.000000	1682.000000	14.126341
819.000000	1681.000000	14.429325
820.000000	1680.000000	14.807341
821.000000	1679.000000	15.231907
822.000000	1678.000000	15.634117
823.000000	1677.000000	16.028058
824.000000	1676.000000	16.369120
825.000000	1675.000000	16.673227
826.000000	1674.000000	16.945892
827.000000	1673.000000	17.184258
828.000000	1672.000000	17.388017
829.000000	1671.000000	17.570032
830.000000	1670.000000	17.731937
831.000000	1669.000000	17.876283
832.000000	1668.000000	17.985921
833.000000	1667.000000	18.055746
834.000000	1666.000000	18.148540
835.000000	1665.000000	18.210301
836.000000	1664.000000	18.289314
837.000000	1663.000000	18.352197
838.000000	1662.000000	18.390989
839.000000	1661.000000	18.426310
840.000000	1660.000000	18.452137
841.000000	1659.000000	18.492052
842.000000	1658.000000	18.519717
843.000000	1657.000000	18.543706
844.000000	1656.000000	18.543911
845.000000	1655.000000	18.553404
846.000000	1654.000000	18.534417
847.000000	1653.000000	18.536356
848.000000	1652.000000	18.522677
849.000000	1651.000000	18.499606
850.000000	1650.000000	18.487050
851.000000	1649.000000	18.467041
852.000000	1648.000000	18.439989
853.000000	1647.000000	18.408241
854.000000	1646.000000	18.381393
855.000000	1645.000000	18.343826
856.000000	1644.000000	18.296868
857.000000	1643.000000	18.275022
858.000000	1642.000000	18.226124
859.000000	1641.000000	18.183147
860.000000	1640.000000	18.141905
861.000000	1639.000000	18.080655
862.000000	1638.000000	18.049315
863.000000	1637.000000	17.992557
864.000000	1636.000000	17.942638
865.000000	1635.000000	17.898231
866.000000	1634.000000	17.841473
867.000000	1633.000000	17.782979
868.000000	1632.000000	17.714991
869.000000	1631.000000	17.662214
870.000000	1630.000000	17.589734
871.000000	1629.000000	17.540224
872.000000	1628.000000	17.480811
873.000000	1627.000000	17.411700
874.000000	1626.000000	17.334729
875.000000	1625.000000	17.288894
876.000000	1624.000000	17.215904
877.000000	1623.000000	17.162514
878.000000	1622.000000	17.106266
879.000000	1621.000000	17.053897
880.000000	1620.000000	16.989993
881.000000	1619.000000	16.927109
882.000000	1618.000000	16.857284
883.000000	1617.000000	16.811652
884.000000	1616.000000	16.757956
885.000000	1615.000000	16.679352
886.000000	1614.000000	16.630556
887.000000	1613.000000	16.577268
888.000000	1612.000000	16.508668
889.000000	1611.000000	16.455993
890.000000	1610.000000	16.409851
891.000000	1609.000000	16.350745
892.000000	1608.000000	16.297253
893.000000	1607.000000	16.241821
894.000000	1606.000000	16.183736
895.000000	1605.000000	16.143515
896.000000	1604.000000	16.094106
897.000000	1603.000000	16.026935
898.000000	1602.000000	15.991512
899.000000	1601.000000	15.940879
900.000000	1600.000000	15.885753
901.000000	1599.000000	15.834405
902.000000	1598.000000	15.793061
903.000000	1597.000000	15.758353
904.000000	1596.000000	15.706903
905.000000	1595.000000	15.656167
906.000000	1594.000000	15.617375
907.000000	1593.000000	15.574806
908.000000	1592.000000	15.531012
909.000000	1591.000000	15.501919
910.000000	1590.000000	15.468946
911.000000	1589.000000	15.432502
912.000000	1588.000000	15.413106
913.000000	1587.000000	15.387074
914.000000	1586.000000	15.346241
915.000000	1585.000000	15.307449
916.000000	1584.000000	15.283460
917.000000	1583.000000	15.268147
918.000000	1582.000000	15.253243
919.000000	1581.000000	15.245484
920.000000	1580.000000	15.226293
921.000000	1579.000000	15.207101
922.000000	1578.000000	15.195259
923.000000	1577.000000	15.178926
924.000000	1576.000000	15.177497
925.000000	1575.000000	15.163409
926.000000	1574.000000	15.160653
927.000000	1573.000000	15.171270
928.000000	1572.000000	15.165349
929.000000	1571.000000	15.172801
930.000000	1570.000000	15.187399
931.000000	1569.000000	15.176374
932.000000	1568.000000	15.183213
933.000000	1567.000000	15.203936
934.000000	1566.000000	15.206591
935.000000	1565.000000	15.210266
936.000000	1564.000000	15.234766
937.000000	1563.000000	15.245178
938.000000	1562.000000	15.255080
939.000000	1561.000000	15.277232
940.000000	1560.000000	15.282745
941.000000	1559.000000	15.298364
942.000000	1558.000000	15.309695
943.000000	1557.000000	15.309287
944.000000	1556.000000	15.316535
945.000000	1555.000000	15.318576
946.000000	1554.000000	15.319699
947.000000	1553.000000	15.301018
948.000000	1552.000000	15.312145
949.000000	1551.000000	15.329295
950.000000	1550.000000	15.320720
951.000000	1549.000000	15.306428
952.000000	1548.000000	15.297241
953.000000	1547.000000	15.296424
954.000000	1546.000000	15.294587
955.000000	1545.000000	15.300099
956.000000	1544.000000	15.309797
957.000000	1543.000000	15.309185
958.000000	1542.000000	15.304795
959.000000	1541.000000	15.300814
960.000000	1540.000000	15.312349
961.000000	1539.000000	15.322762
962.000000	1538.000000	15.331643
963.000000	1537.000000	15.330418
964.000000	1536.000000	15.325212
965.000000	1535.000000	15.335522
966.000000	1534.000000	15.344301
967.000000	1533.000000	15.346037
968.000000	1532.000000	15.328989
969.000000	1531.000000	15.326641
970.000000	1530.000000	15.343995
971.000000	1529.000000	15.340831
972.000000	1528.000000	15.314901
973.000000	1527.000000	15.316841
974.000000	1526.000000	15.321026
975.000000	1525.000000	15.376458
976.000000	1524.000000	15.485177
977.000000	1523.000000	15.516210
978.000000	1522.000000	15.519885
979.000000	1521.000000	15.527337
980.000000	1520.000000	15.531931
981.000000	1519.000000	15.515292
982.000000	1518.000000	15.518865
983.000000	1517.000000	15.509065
984.000000	1516.000000	15.513352
985.000000	1515.000000	15.518967
986.000000	1514.000000	15.524683
987.000000	1513.000000	15.507635
988.000000	1512.000000	15.514577
989.000000	1511.000000	15.516415
990.000000	1510.000000	15.511923
991.000000	1509.000000	15.507942
992.000000	1508.000000	15.500694
993.000000	1507.000000	15.507533
994.000000	1506.000000	15.517435
995.000000	1505.000000	15.508758
996.000000	1504.000000	15.513250
997.000000	1503.000000	15.498244
998.000000	1502.000000	15.506717
999.000000	1501.000000	15.516517
1000.000000	1500.000000	15.523969
1001.000000	1499.000000	15.552246
1002.000000	1498.000000	15.564598
1003.000000	1497.000000	15.565517
1004.000000	1496.000000	15.563067
1005.000000	1495.000000	15.586036
1006.000000	1494.000000	15.615027
1007.000000	1493.000000	15.644325
1008.000000	1492.000000	15.659944
1009.000000	1491.000000	15.692815
1010.000000	1490.000000	15.719663
1011.000000	1489.000000	15.741305
1012.000000	1488.000000	15.753045
1013.000000	1487.000000	15.777851
1014.000000	1486.000000	15.792755
1015.000000	1485.000000	15.823074
1016.000000	1484.000000	15.842062
1017.000000	1483.000000	15.889224
1018.000000	1482.000000	15.915153
1019.000000	1481.000000	15.953026
1020.000000	1480.000000	15.986714
1021.000000	1479.000000	16.010704
1022.000000	1478.000000	16.046943
1023.000000	1477.000000	16.076344
1024.000000	1476.000000	16.124221
1025.000000	1475.000000	16.145046
1026.000000	1474.000000	16.180367
1027.000000	1473.000000	16.235798
1028.000000	1472.000000	16.273876
1029.000000	1471.000000	16.319915
1030.000000	1470.000000	16.335942
1031.000000	1469.000000	16.352174
1032.000000	1468.000000	16.390965
1033.000000	1467.000000	16.434249
1034.000000	1466.000000	16.458749
1035.000000	1465.000000	16.498868
1036.000000	1464.000000	16.563793
1037.000000	1463.000000	16.600952
1038.000000	1462.000000	16.661691
1039.000000	1461.000000	16.724269
1040.000000	1460.000000	16.785927
1041.000000	1459.000000	16.830027
1042.000000	1458.000000	16.889542
1043.000000	1457.000000	16.945484
1044.000000	1456.000000	17.030928
1045.000000	1455.000000	17.104633
1046.000000	1454.000000	17.170783
1047.000000	1453.000000	17.254185
1048.000000	1452.000000	17.325644
1049.000000	1451.000000	17.401900
1050.000000	1450.000000	17.448144
1051.000000	1449.000000	17.524401
1052.000000	1448.000000	17.599534
1053.000000	1447.000000	17.724689
1054.000000	1446.000000	17.799210
1055.000000	1445.000000	17.873119
1056.000000	1444.000000	17.947844
1057.000000	1443.000000	18.026652
1058.000000	1442.000000	18.125265
1059.000000	1441.000000	18.208157
1060.000000	1440.000000	18.283903
1061.000000	1439.000000	18.365672
1062.000000	1438.000000	18.483375
1063.000000	1437.000000	18.492869
1064.000000	1436.000000	18.587092
1065.000000	1435.000000	18.683561
1066.000000	1434.000000	18.746649
1067.000000	1433.000000	18.843016
1068.000000	1432.000000	18.894772
1069.000000	1431.000000	18.985320
1070.000000	1430.000000	19.050348
1071.000000	1429.000000	19.164784
1072.000000	1428.000000	19.298003
1073.000000	1427.000000	19.379159
1074.000000	1426.000000	19.479610
1075.000000	1425.000000	19.647537
1076.000000	1424.000000	19.762790
1077.000000	1423.000000	19.878144
1078.000000	1422.000000	20.007791
1079.000000	1421.000000	20.163162
1080.000000	1420.000000	20.327619
1081.000000	1419.000000	20.427457
1082.000000	1418.000000	20.548222
1083.000000	1417.000000	20.646732
1084.000000	1416.000000	20.773418
1085.000000	1415.000000	20.935527
1086.000000	1414.000000	21.020257
1087.000000	1413.000000	21.083651
1088.000000	1412.000000	21.172668
1089.000000	1411.000000	21.354785
1090.000000	1410.000000	21.496273
1091.000000	1409.000000	21.671244
1092.000000	1408.000000	21.824472
1093.000000	1407.000000	22.065185
1094.000000	1406.000000	22.284869
1095.000000	1405.000000	22.501083
1096.000000	1404.000000	22.681158
1097.000000	1403.000000	22.903394
1098.000000	1402.000000	23.173814
1099.000000	1401.000000	23.427492
1100.000000	1400.000000	23.535803
1101.000000	1399.000000	23.603995
1102.000000	1398.000000	23.705772
1103.000000	1397.000000	23.857264
1104.000000	1396.000000	23.919740
1105.000000	1395.000000	23.859612
1106.000000	1394.000000	23.817043
1107.000000	1393.000000	23.818677
1108.000000	1392.000000	23.837869
1109.000000	1391.000000	23.820310
1110.000000	1390.000000	23.861450
1111.000000	1389.000000	23.936686
1112.000000	1388.000000	24.040607
1113.000000	1387.000000	24.118395
1114.000000	1386.000000	24.293468
1115.000000	1385.000000	24.523769
1116.000000	1384.000000	24.816749
1117.000000	1383.000000	25.100644
1118.000000	1382.000000	25.355241
1119.000000	1381.000000	25.579620
1120.000000	1380.000000	25.717944
1121.000000	1379.000000	26.006330
1122.000000	1378.000000	26.244798
1123.000000	1377.000000	26.540126
1124.000000	1376.000000	26.889865
1125.000000	1375.000000	27.312695
1126.000000	1374.000000	27.807597
1127.000000	1373.000000	28.318934
1128.000000	1372.000000	28.858140
1129.000000	1371.000000	29.341711
1130.000000	1370.000000	29.779956
1131.000000	1369.000000	30.165934
1132.000000	1368.000000	30.540888
1133.000000	1367.000000	30.833358
1134.000000	1366.000000	31.082850
1135.000000	1365.000000	31.334486
1136.000000	1364.000000	31.545595
1137.000000	1363.000000	31.752519
1138.000000	1362.000000	31.924020
1139.000000	1361.000000	32.042233
1140.000000	1360.000000	32.093887
1141.000000	1359.000000	32.183925
1142.000000	1358.000000	32.314286
1143.000000	1357.000000	32.507020
1144.000000	1356.000000	32.798571
1145.000000	1355.000000	33.246616
1146.000000	1354.000000	33.810935
1147.000000	1353.000000	34.400978
1148.000000	1352.000000	35.000720
1149.000000	1351.000000	35.605668
1150.000000	1350.000000	36.170395
1151.000000	1349.000000	36.681528
1152.000000	1348.000000	37.153563
1153.000000	1347.000000	37.562612
1154.000000	1346.000000	37.963699
1155.000000	1345.000000	38.342430
1156.000000	1344.000000	38.704520
1157.000000	1343.000000	39.036292
1158.000000	1342.000000	39.362348
1159.000000	1341.000000	39.682686
1160.000000	1340.000000	39.985058
1161.000000	1339.000000	40.264563
1162.000000	1338.000000	40.539679
1163.000000	1337.000000	40.825411
1164.000000	1336.000000	41.064389
1165.000000	1335.000000	41.286115
1166.000000	1334.000000	41.516314
1167.000000	1333.000000	41.746716
1168.000000	1332.000000	41.953742
1169.000000	1331.000000	42.149335
1170.000000	1330.000000	42.338496
1171.000000	1329.000000	42.510711
1172.000000	1328.000000	42.665470
1173.000000	1327.000000	42.823189
1174.000000	1326.000000	42.971006
1175.000000	1325.000000	43.099019
1176.000000	1324.000000	43.237751
1177.000000	1323.000000	43.351472
1178.000000	1322.000000	43.467439
1179.000000	1321.000000	43.571054
1180.000000	1320.000000	43.668646
1181.000000	1319.000000	43.785021
1182.000000	1318.000000	43.882409
1183.000000	1317.000000	43.956318
1184.000000	1316.000000	44.033391
1185.000000	1315.000000	44.105054
1186.000000	1314.000000	44.169264
1187.000000	1313.000000	44.237252
1188.000000	1312.000000	44.305036
1189.000000	1311.000000	44.361692
1190.000000	1310.000000	44.414163
1191.000000	1309.000000	44.458774
1192.000000	1308.000000	44.492972
1193.000000	1307.000000	44.522066
1194.000000	1306.000000	44.539726
1195.000000	1305.000000	44.541666
1196.000000	1304.000000	44.536562
1197.000000	1303.000000	44.526762
1198.000000	1302.000000	44.518084
1199.000000	1301.000000	44.508591
1200.000000	1300.000000	44.495320
1201.000000	1299.000000	44.473372
1202.000000	1298.000000	44.449382
1203.000000	1297.000000	44.433253
1204.000000	1296.000000	44.409774
1205.000000	1295.000000	44.372819
1206.000000	1294.000000	44.337396
1207.000000	1293.000000	44.299115
1208.000000	1292.000000	44.262263
1209.000000	1291.000000	44.196419
1210.000000	1290.000000	44.126696
1211.000000	1289.000000	44.074531
1212.000000	1288.000000	44.000112
1213.000000	1287.000000	43.926714
1214.000000	1286.000000	43.841167
1215.000000	1285.000000	43.750415
1216.000000	1284.000000	43.667115
1217.000000	1283.000000	43.578098
1218.000000	1282.000000	43.477137
1219.000000	1281.000000	43.371480
1220.000000	1280.000000	43.271643
1221.000000	1279.000000	43.173234
1222.000000	1278.000000	43.090546
1223.000000	1277.000000	43.009288
1224.000000	1276.000000	42.927314
1225.000000	1275.000000	42.841768
1226.000000	1274.000000	42.767145
1227.000000	1273.000000	42.703343
1228.000000	1272.000000	42.633620
1229.000000	1271.000000	42.558078
1230.000000	1270.000000	42.487946
1231.000000	1269.000000	42.422102
1232.000000	1268.000000	42.369427
1233.000000	1267.000000	42.300623
1234.000000	1266.000000	42.230287
1235.000000	1265.000000	42.159441
1236.000000	1264.000000	42.080938
1237.000000	1263.000000	42.012747
1238.000000	1262.000000	41.959867
1239.000000	1261.000000	41.891165
1240.000000	1260.000000	41.841144
1241.000000	1259.000000	41.772442
1242.000000	1258.000000	41.699656
1243.000000	1257.000000	41.647083
1244.000000	1256.000000	41.589508
1245.000000	1255.000000	41.508964
1246.000000	1254.000000	41.431686
1247.000000	1253.000000	41.348284
1248.000000	1252.000000	41.277336
1249.000000	1251.000000	41.183112
1250.000000	1250.000000	41.089706
1251.000000	1249.000000	40.992012
1252.000000	1248.000000	40.906363
1253.000000	1247.000000	40.797746
1254.000000	1246.000000	40.687292
1255.000000	1245.000000	40.560504
1256.000000	1244.000000	40.430449
1257.000000	1243.000000	40.306009
1258.000000	1242.000000	40.179630
1259.000000	1241.000000	40.025585
1260.000000	1240.000000	39.860006
1261.000000	1239.000000	39.723214
1262.000000	1238.000000	39.584584
1263.000000	1237.000000	39.429519
1264.000000	1236.000000	39.264449
1265.000000	1235.000000	39.096624
1266.000000	1234.000000	38.935025
1267.000000	1233.000000	38.766587
1268.000000	1232.000000	38.595087
1269.000000	1231.000000	38.420932
1270.000000	1230.000000	38.251473
1271.000000	1229.000000	38.059964
1272.000000	1228.000000	37.863963
1273.000000	1227.000000	37.687869
1274.000000	1226.000000	37.503506
1275.000000	1225.000000	37.317713
1276.000000	1224.000000	37.160403
1277.000000	1223.000000	36.964708
1278.000000	1222.000000	36.787389
1279.000000	1221.000000	36.630486
1280.000000	1220.000000	36.479300
1281.000000	1219.000000	36.328318
1282.000000	1218.000000	36.192649
1283.000000	1217.000000	36.062288
1284.000000	1216.000000	35.921821
1285.000000	1215.000000	35.815552
1286.000000	1214.000000	35.674677
1287.000000	1213.000000	35.571164
1288.000000	1212.000000	35.476124
1289.000000	1211.000000	35.372407
1290.000000	1210.000000	35.274611
1291.000000	1209.000000	35.201212
1292.000000	1208.000000	35.125875
1293.000000	1207.000000	35.054722
1294.000000	1206.000000	35.018687
1295.000000	1205.000000	34.988776
1296.000000	1204.000000	34.969482
1297.000000	1203.000000	34.959580
1298.000000	1202.000000	34.951720
1299.000000	1201.000000	34.916807
1300.000000	1200.000000	34.862397
1301.000000	1199.000000	34.782057
1302.000000	1198.000000	34.664967
1303.000000	1197.000000	34.497754
1304.000000	1196.000000	34.300120
1305.000000	1195.000000	34.016837
1306.000000	1194.000000	33.693334
1307.000000	1193.000000	33.268768
1308.000000	1192.000000	32.765496
1309.000000	1191.000000	32.265592
1310.000000	1190.000000	31.777121
1311.000000	1189.000000	31.368684
1312.000000	1188.000000	31.069988
1313.000000	1187.000000	30.862043
1314.000000	1186.000000	30.821107
1315.000000	1185.000000	30.892464
1316.000000	1184.000000	31.107861
1317.000000	1183.000000	31.426974
1318.000000	1182.000000	31.900030
1319.000000	1181.000000	32.391971
1320.000000	1180.000000	32.927298
1321.000000	1179.000000	33.404335
1322.000000	1178.000000	33.834414
1323.000000	1177.000000	34.214982
1324.000000	1176.000000	34.556146
1325.000000	1175.000000	34.845247
1326.000000	1174.000000	35.195189
1327.000000	1173.000000	35.499807
1328.000000	1172.000000	35.854344
1329.000000	1171.000000	36.217558
1330.000000	1170.000000	36.574238
1331.000000	1169.000000	36.980837
1332.000000	1168.000000	37.350789
1333.000000	1167.000000	37.760144
1334.000000	1166.000000	38.143673
1335.000000	1165.000000	38.554968
1336.000000	1164.000000	38.976063
1337.000000	1163.000000	39.390523
1338.000000	1162.000000	39.829483
1339.000000	1161.000000	40.237920
1340.000000	1160.000000	40.597152
1341.000000	1159.000000	41.014572
1342.000000	1158.000000	41.387892
1343.000000	1157.000000	41.735079
1344.000000	1156.000000	42.016115
1345.000000	1155.000000	42.220793
1346.000000	1154.000000	42.378206
1347.000000	1153.000000	42.461711
1348.000000	1152.000000	42.475594
1349.000000	1151.000000	42.459056
1350.000000	1150.000000	42.443744
1351.000000	1149.000000	42.416283
1352.000000	1148.000000	42.409852
1353.000000	1147.000000	42.453238
1354.000000	1146.000000	42.591969
1355.000000	1145.000000	42.830029
1356.000000	1144.000000	43.150163
1357.000000	1143.000000	43.508375
1358.000000	1142.000000	43.925182
1359.000000	1141.000000	44.354648
1360.000000	1140.000000	44.751141
1361.000000	1139.000000	45.202760
1362.000000	1138.000000	45.659278
1363.000000	1137.000000	46.139888
1364.000000	1136.000000	46.605696
1365.000000	1135.000000	47.053639
1366.000000	1134.000000	47.456461
1367.000000	1133.000000	47.856119
1368.000000	1132.000000	48.179928
1369.000000	1131.000000	48.485873
1370.000000	1130.000000	48.765685
1371.000000	1129.000000	49.012523
1372.000000	1128.000000	49.209136
1373.000000	1127.000000	49.370633
1374.000000	1126.000000	49.493337
1375.000000	1125.000000	49.619921
1376.000000	1124.000000	49.703732
1377.000000	1123.000000	49.779478
1378.000000	1122.000000	49.875641
1379.000000	1121.000000	49.924947
1380.000000	1120.000000	49.995487
1381.000000	1119.000000	50.046325
1382.000000	1118.000000	50.066945
1383.000000	1117.000000	50.078787
1384.000000	1116.000000	50.090629
1385.000000	1115.000000	50.082768
1386.000000	1114.000000	50.082871
1387.000000	1113.000000	50.085933
1388.000000	1112.000000	50.080523
1389.000000	1111.000000	50.060106
1390.000000	1110.000000	50.066945
1391.000000	1109.000000	50.072866
1392.000000	1108.000000	50.062556
1393.000000	1107.000000	50.048570
1394.000000	1106.000000	50.045508
1395.000000	1105.000000	50.027235
1396.000000	1104.000000	50.008758
1397.000000	1103.000000	50.004368
1398.000000	1102.000000	49.997018
1399.000000	1101.000000	49.975887
1400.000000	1100.000000	49.941995
1401.000000	1099.000000	49.933114
1402.000000	1098.000000	49.912289
1403.000000	1097.000000	49.879009
1404.000000	1096.000000	49.846853
1405.000000	1095.000000	49.812961
1406.000000	1094.000000	49.788053
1407.000000	1093.000000	49.736092
1408.000000	1092.000000	49.694136
1409.000000	1091.000000	49.653404
1410.000000	1090.000000	49.611448
1411.000000	1089.000000	49.585723
1412.000000	1088.000000	49.539887
1413.000000	1087.000000	49.491806
1414.000000	1086.000000	49.433618
1415.000000	1085.000000	49.392376
1416.000000	1084.000000	49.345520
1417.000000	1083.000000	49.303870
1418.000000	1082.000000	49.263853
1419.000000	1081.000000	49.209953
1420.000000	1080.000000	49.171467
1421.000000	1079.000000	49.134003
1422.000000	1078.000000	49.098477
1423.000000	1077.000000	49.037942
1424.000000	1076.000000	49.007419
1425.000000	1075.000000	48.969137
1426.000000	1074.000000	48.927283
1427.000000	1073.000000	48.899210
1428.000000	1072.000000	48.849393
1429.000000	1071.000000	48.807233
1430.000000	1070.000000	48.760172
1431.000000	1069.000000	48.723728
1432.000000	1068.000000	48.681057
1433.000000	1067.000000	48.633793
1434.000000	1066.000000	48.582138
1435.000000	1065.000000	48.548553
1436.000000	1064.000000	48.501696
1437.000000	1063.000000	48.453717
1438.000000	1062.000000	48.402675
1439.000000	1061.000000	48.359289
1440.000000	1060.000000	48.301102
1441.000000	1059.000000	48.252000
1442.000000	1058.000000	48.195037
1443.000000	1057.000000	48.137257
1444.000000	1056.000000	48.083766
1445.000000	1055.000000	48.021597
1446.000000	1054.000000	47.970861
1447.000000	1053.000000	47.915736
1448.000000	1052.000000	47.861121
1449.000000	1051.000000	47.833354
1450.000000	1050.000000	47.802117
1451.000000	1049.000000	47.776290
1452.000000	1048.000000	47.759446
1453.000000	1047.000000	47.744848
1454.000000	1046.000000	47.716060
1455.000000	1045.000000	47.708506
1456.000000	1044.000000	47.704627
1457.000000	1043.000000	47.690437
1458.000000	1042.000000	47.687273
1459.000000	1041.000000	47.681352
1460.000000	1040.000000	47.682577
1461.000000	1039.000000	47.697787
1462.000000	1038.000000	47.712691
1463.000000	1037.000000	47.702177
1464.000000	1036.000000	47.700135
1465.000000	1035.000000	47.728719
1466.000000	1034.000000	47.741071
1467.000000	1033.000000	47.742602
1468.000000	1032.000000	47.752198
1469.000000	1031.000000	47.766796
1470.000000	1030.000000	47.787723
1471.000000	1029.000000	47.813754
1472.000000	1028.000000	47.821513
1473.000000	1027.000000	47.829883
1474.000000	1026.000000	47.844890
1475.000000	1025.000000	47.865000
1476.000000	1024.000000	47.883988
1477.000000	1023.000000	47.891848
1478.000000	1022.000000	47.915634
1479.000000	1021.000000	47.946361
1480.000000	1020.000000	47.974740
1481.000000	1019.000000	48.008122
1482.000000	1018.000000	48.038236
1483.000000	1017.000000	48.080805
1484.000000	1016.000000	48.126539
1485.000000	1015.000000	48.174620
1486.000000	1014.000000	48.224641
1487.000000	1013.000000	48.290281
1488.000000	1012.000000	48.368987
1489.000000	1011.000000	48.457800
1490.000000	1010.000000	48.526707
1491.000000	1009.000000	48.600820
1492.000000	1008.000000	48.698412
1493.000000	1007.000000	48.780487
1494.000000	1006.000000	48.861541
1495.000000	1005.000000	48.948517
1496.000000	1004.000000	49.020792
1497.000000	1003.000000	49.073467
1498.000000	1002.000000	49.141353
1499.000000	1001.000000	49.205563
1500.000000	1000.000000	49.267732
1501.000000	999.000000	49.319897
1502.000000	998.000000	49.359914
1503.000000	997.000000	49.418306
1504.000000	996.000000	49.471083
1505.000000	995.000000	49.524983
1506.000000	994.000000	49.578577
1507.000000	993.000000	49.608488
1508.000000	992.000000	49.665552
1509.000000	991.000000	49.729967
1510.000000	990.000000	49.774680
1511.000000	989.000000	49.818372
1512.000000	988.000000	49.862370
1513.000000	987.000000	49.925866
1514.000000	986.000000	50.002531
1515.000000	985.000000	50.082258
1516.000000	984.000000	50.145550
1517.000000	983.000000	50.224767
1518.000000	982.000000	50.301738
1519.000000	981.000000	50.379424
1520.000000	980.000000	50.463745
1521.000000	979.000000	50.550108
1522.000000	978.000000	50.655050
1523.000000	977.000000	50.762646
1524.000000	976.000000	50.842986
1525.000000	975.000000	50.944151
1526.000000	974.000000	51.053788
1527.000000	973.000000	51.157301
1528.000000	972.000000	51.255608
1529.000000	971.000000	51.349933
1530.000000	970.000000	51.457427
1531.000000	969.000000	51.562880
1532.000000	968.000000	51.675989
1533.000000	967.000000	51.777460
1534.000000	966.000000	51.861985
1535.000000	965.000000	51.980504
1536.000000	964.000000	52.096778
1537.000000	963.000000	52.223361
1538.000000	962.000000	52.351374
1539.000000	961.000000	52.470710
1540.000000	960.000000	52.608013
1541.000000	959.000000	52.735209
1542.000000	958.000000	52.882312
1543.000000	957.000000	52.977964
1544.000000	956.000000	53.065858
1545.000000	955.000000	53.173965
1546.000000	954.000000	53.253590
1547.000000	953.000000	53.300855
1548.000000	952.000000	53.396711
1549.000000	951.000000	53.433768
1550.000000	950.000000	53.513903
1551.000000	949.000000	53.542487
1552.000000	948.000000	53.578420
1553.000000	947.000000	53.623541
1554.000000	946.000000	53.670193
1555.000000	945.000000	53.688466
1556.000000	944.000000	53.710925
1557.000000	943.000000	53.797696
1558.000000	942.000000	53.846084
1559.000000	941.000000	53.873442
1560.000000	940.000000	53.914990
1561.000000	939.000000	53.980222
1562.000000	938.000000	54.035245
1563.000000	937.000000	54.077405
1564.000000	936.000000	54.146720
1565.000000	935.000000	54.180612
1566.000000	934.000000	54.204193
1567.000000	933.000000	54.237268
1568.000000	932.000000	54.300050
1569.000000	931.000000	54.304337
1570.000000	930.000000	54.341904
1571.000000	929.000000	54.394273
1572.000000	928.000000	54.395600
1573.000000	927.000000	54.438373
1574.000000	926.000000	54.469202
1575.000000	925.000000	54.534026
1576.000000	924.000000	54.547705
1577.000000	923.000000	54.576492
1578.000000	922.000000	54.619980
1579.000000	921.000000	54.646930
1580.000000	920.000000	54.667755
1581.000000	919.000000	54.712978
1582.000000	918.000000	54.705628
1583.000000	917.000000	54.716041
1584.000000	916.000000	54.710018
1585.000000	915.000000	54.701443
1586.000000	914.000000	54.695420
1587.000000	913.000000	54.690928
1588.000000	912.000000	54.674493
1589.000000	911.000000	54.686232
1590.000000	910.000000	54.724003
1591.000000	909.000000	54.723493
1592.000000	908.000000	54.760549
1593.000000	907.000000	54.806283
1594.000000	906.000000	54.874781
1595.000000	905.000000	54.936644
1596.000000	904.000000	55.038115
1597.000000	903.000000	55.104163
1598.000000	902.000000	55.201143
1599.000000	901.000000	55.270355
1600.000000	900.000000	55.341712
1601.000000	899.000000	55.431852
1602.000000	898.000000	55.514029
1603.000000	897.000000	55.593961
1604.000000	896.000000	55.649290
1605.000000	895.000000	55.715134
1606.000000	894.000000	55.780672
1607.000000	893.000000	55.838655
1608.000000	892.000000	55.875814
1609.000000	891.000000	55.903989
1610.000000	890.000000	55.949620
1611.000000	889.000000	55.983206
1612.000000	888.000000	56.006889
1613.000000	887.000000	56.045885
1614.000000	886.000000	56.059054
1615.000000	885.000000	56.052214
1616.000000	884.000000	56.039658
1617.000000	883.000000	56.040985
1618.000000	882.000000	56.069160
1619.000000	881.000000	56.060789
1620.000000	880.000000	56.013831
1621.000000	879.000000	55.981266
1622.000000	878.000000	55.965239
1623.000000	877.000000	55.915014
1624.000000	876.000000	55.905418
1625.000000	875.000000	55.875609
1626.000000	874.000000	55.838247
1627.000000	873.000000	55.817116
1628.000000	872.000000	55.809868
1629.000000	871.000000	55.798638
1630.000000	870.000000	55.779549
1631.000000	869.000000	55.770872
1632.000000	868.000000	55.760561
1633.000000	867.000000	55.755967
1634.000000	866.000000	55.716053
1635.000000	865.000000	55.720340
1636.000000	864.000000	55.674403
1637.000000	863.000000	55.607129
1638.000000	862.000000	55.557108
1639.000000	861.000000	55.474318
1640.000000	860.000000	55.363762
1641.000000	859.000000	55.300776
1642.000000	858.000000	55.553433
1643.000000	857.000000	55.890400
1644.000000	856.000000	55.165300
1645.000000	855.000000	55.604600
1646.000000	854.000000	55.735800
1647.000000	853.000000	55.521000
1648.000000	852.000000	55.440400
1649.000000	851.000000	55.741300
1650.000000	850.000000	55.872600
1651.000000	849.000000	55.563900
1652.000000	848.000000	55.411800
1653.000000	847.000000	55.753400
1654.000000	846.000000	55.514000
1655.000000	845.000000	55.453100
1656.000000	844.000000	55.479800
1657.000000	843.000000	55.484400
1658.000000	842.000000	55.465800
1659.000000	841.000000	55.384000
1660.000000	840.000000	55.346300
1661.000000	839.000000	55.268800
1662.000000	838.000000	55.148300
1663.000000	837.000000	55.226100
1664.000000	836.000000	55.289900
1665.000000	835.000000	54.948600
1666.000000	834.000000	55.032200
1667.000000	833.000000	55.002700
1668.000000	832.000000	54.969800
1669.000000	831.000000	54.883200
1670.000000	830.000000	54.784900
1671.000000	829.000000	54.929800
1672.000000	828.000000	54.726900
1673.000000	827.000000	54.672900
1674.000000	826.000000	54.489500
1675.000000	825.000000	54.472700
1676.000000	824.000000	54.470000
1677.000000	823.000000	54.429000
1678.000000	822.000000	54.292000
1679.000000	821.000000	54.155700
1680.000000	820.000000	54.206300
1681.000000	819.000000	54.153900
1682.000000	818.000000	53.972300
1683.000000	817.000000	53.816700
1684.000000	816.000000	53.809000
1685.000000	815.000000	53.742100
1686.000000	814.000000	53.675300
1687.000000	813.000000	53.505900
1688.000000	812.000000	53.366400
1689.000000	811.000000	53.296900
1690.000000	810.000000	53.158600
1691.000000	809.000000	53.028400
1692.000000	808.000000	52.767600
1693.000000	807.000000	52.517200
1694.000000	806.000000	52.366000
1695.000000	805.000000	52.131700
1696.000000	804.000000	52.044800
1697.000000	803.000000	51.936900
1698.000000	802.000000	51.762600
1699.000000	801.000000	51.587300
1700.000000	800.000000	51.479000
1701.000000	799.000000	51.414300
1702.000000	798.000000	51.250500
1703.000000	797.000000	51.054900
1704.000000	796.000000	50.836700
1705.000000	795.000000	50.638800
1706.000000	794.000000	50.573500
1707.000000	793.000000	50.405600
1708.000000	792.000000	50.161400
1709.000000	791.000000	50.040700
1710.000000	790.000000	49.845900
1711.000000	789.000000	49.652900
1712.000000	788.000000	49.529100
1713.000000	787.000000	49.338600
1714.000000	786.000000	49.204300
1715.000000	785.000000	49.084100
1716.000000	784.000000	48.983300
1717.000000	783.000000	48.885100
1718.000000	782.000000	48.704900
1719.000000	781.000000	48.582600
1720.000000	780.000000	48.500100
1721.000000	779.000000	48.411000
1722.000000	778.000000	48.330700
1723.000000	777.000000	48.240600
1724.000000	776.000000	48.026800
1725.000000	775.000000	47.862600
1726.000000	774.000000	47.814000
1727.000000	773.000000	47.680700
1728.000000	772.000000	47.573300
1729.000000	771.000000	47.505000
1730.000000	770.000000	47.443600
1731.000000	769.000000	47.361000
1732.000000	768.000000	47.281100
1733.000000	767.000000	47.225000
1734.000000	766.000000	47.203800
1735.000000	765.000000	47.204000
1736.000000	764.000000	47.112200
1737.000000	763.000000	47.085500
1738.000000	762.000000	47.035300
1739.000000	761.000000	47.075300
1740.000000	760.000000	47.109700
1741.000000	759.000000	47.011300
1742.000000	758.000000	47.029400
1743.000000	757.000000	47.050900
1744.000000	756.000000	47.055400
1745.000000	755.000000	47.018000
1746.000000	754.000000	47.030400
1747.000000	753.000000	47.133900
1748.000000	752.000000	47.155500
1749.000000	751.000000	47.185000
1750.000000	750.000000	47.241300
1751.000000	749.000000	47.301500
1752.000000	748.000000	47.355600
1753.000000	747.000000	47.411600
1754.000000	746.000000	47.483000
1755.000000	745.000000	47.520400
1756.000000	744.000000	47.545300
1757.000000	743.000000	47.582300
1758.000000	742.000000	47.601400
1759.000000	741.000000	47.635800
1760.000000	740.000000	47.646800
1761.000000	739.000000	47.617500
1762.000000	738.000000	47.685700
1763.000000	737.000000	47.754800
1764.000000	736.000000	47.746000
1765.000000	735.000000	47.760000
1766.000000	734.000000	47.826800
1767.000000	733.000000	47.859200
1768.000000	732.000000	47.848700
1769.000000	731.000000	47.858200
1770.000000	730.000000	47.813600
1771.000000	729.000000	47.783300
1772.000000	728.000000	47.800100
1773.000000	727.000000	47.763200
1774.000000	726.000000	47.728800
1775.000000	725.000000	47.709000
1776.000000	724.000000	47.727300
1777.000000	723.000000	47.658700
1778.000000	722.000000	47.561900
1779.000000	721.000000	47.439500
1780.000000	720.000000	47.337600
1781.000000	719.000000	47.329000
1782.000000	718.000000	47.263700
1783.000000	717.000000	47.187400
1784.000000	716.000000	47.089600
1785.000000	715.000000	46.977100
1786.000000	714.000000	46.853300
1787.000000	713.000000	46.752900
1788.000000	712.000000	46.632000
1789.000000	711.000000	46.494300
1790.000000	710.000000	46.376400
1791.000000	709.000000	46.217300
1792.000000	708.000000	46.110000
1793.000000	707.000000	45.947400
1794.000000	706.000000	45.848800
1795.000000	705.000000	45.718400
1796.000000	704.000000	45.579900
1797.000000	703.000000	45.505700
1798.000000	702.000000	45.425500
1799.000000	701.000000	45.313100
1800.000000	700.000000	45.238300
1801.000000	699.000000	45.262600
1802.000000	698.000000	45.223200
1803.000000	697.000000	45.180900
1804.000000	696.000000	45.167900
1805.000000	695.000000	45.167500
1806.000000	694.000000	45.215200
1807.000000	693.000000	45.256600
1808.000000	692.000000	45.264400
1809.000000	691.000000	45.271700
1810.000000	690.000000	45.317800
1811.000000	689.000000	45.384400
1812.000000	688.000000	45.453900
1813.000000	687.000000	45.492700
1814.000000	686.000000	45.577800
1815.000000	685.000000	45.622900
1816.000000	684.000000	45.687400
1817.000000	683.000000	45.761100
1818.000000	682.000000	45.839200
1819.000000	681.000000	45.921300
1820.000000	680.000000	46.051900
1821.000000	679.000000	46.100400
1822.000000	678.000000	46.145600
1823.000000	677.000000	46.229500
1824.000000	676.000000	46.272500
1825.000000	675.000000	46.269300
1826.000000	674.000000	46.289300
1827.000000	673.000000	46.269200
1828.000000	672.000000	46.221100
1829.000000	671.000000	46.151000
1830.000000	670.000000	46.049100
1831.000000	669.000000	45.979400
1832.000000	668.000000	45.856700
1833.000000	667.000000	45.679300
1834.000000	666.000000	45.546000
1835.000000	665.000000	45.395100
1836.000000	664.000000	45.194200
1837.000000	663.000000	44.984500
1838.000000	662.000000	44.791000
1839.000000	661.000000	44.543500
1840.000000	660.000000	44.289800
1841.000000	659.000000	44.041400
1842.000000	658.000000	43.744700
1843.000000	657.000000	43.433200
1844.000000	656.000000	43.121600
1845.000000	655.000000	42.766700
1846.000000	654.000000	42.374900
1847.000000	653.000000	41.991800
1848.000000	652.000000	41.618800
1849.000000	651.000000	41.241600
1850.000000	650.000000	40.858200
1851.000000	649.000000	40.551400
1852.000000	648.000000	40.224400
1853.000000	647.000000	39.952800
1854.000000	646.000000	39.795600
1855.000000	645.000000	39.656800
1856.000000	644.000000	39.589800
1857.000000	643.000000	39.619700
1858.000000	642.000000	39.707400
1859.000000	641.000000	39.907500
1860.000000	640.000000	40.155800
1861.000000	639.000000	40.473900
1862.000000	638.000000	40.871600
1863.000000	637.000000	41.228400
1864.000000	636.000000	41.667100
1865.000000	635.000000	42.176200
1866.000000	634.000000	42.640300
1867.000000	633.000000	43.180700
1868.000000	632.000000	43.731900
1869.000000	631.000000	44.289300
1870.000000	630.000000	44.832500
1871.000000	629.000000	45.404700
1872.000000	628.000000	45.992600
1873.000000	627.000000	46.511700
1874.000000	626.000000	47.048700
1875.000000	625.000000	47.534100
1876.000000	624.000000	48.018100
1877.000000	623.000000	48.534400
1878.000000	622.000000	48.946500
1879.000000	621.000000	49.404700
1880.000000	620.000000	49.799200
1881.000000	619.000000	50.167600
1882.000000	618.000000	50.563500
1883.000000	617.000000	50.833800
1884.000000	616.000000	51.166900
1885.000000	615.000000	51.546700
1886.000000	614.000000	51.857600
1887.000000	613.000000	52.181700
1888.000000	612.000000	52.448200
1889.000000	611.000000	52.760800
1890.000000	610.000000	53.081000
1891.000000	609.000000	53.357800
1892.000000	608.000000	53.622800
1893.000000	607.000000	53.848800
1894.000000	606.000000	54.067500
1895.000000	605.000000	54.318100
1896.000000	604.000000	54.522900
1897.000000	603.000000	54.650300
1898.000000	602.000000	54.810400
1899.000000	601.000000	54.924700
1900.000000	600.000000	55.057900
1901.000000	599.000000	55.191600
1902.000000	598.000000	55.239800
1903.000000	597.000000	55.368400
1904.000000	596.000000	55.498000
1905.000000	595.000000	55.625700
1906.000000	594.000000	55.766900
1907.000000	593.000000	55.947500
1908.000000	592.000000	56.132500
1909.000000	591.000000	56.301000
1910.000000	590.000000	56.524500
1911.000000	589.000000	56.732600
1912.000000	588.000000	56.932400
1913.000000	587.000000	57.061500
1914.000000	586.000000	57.252100
1915.000000	585.000000	57.394100
1916.000000	584.000000	57.517700
1917.000000	583.000000	57.581100
1918.000000	582.000000	57.650000
1919.000000	581.000000	57.660700
1920.000000	580.000000	57.680700
1921.000000	579.000000	57.646700
1922.000000	578.000000	57.582900
1923.000000	577.000000	57.542700
1924.000000	576.000000	57.501100
1925.000000	575.000000	57.410700
1926.000000	574.000000	57.339200
1927.000000	573.000000	57.306000
1928.000000	572.000000	57.258700
1929.000000	571.000000	57.189800
1930.000000	570.000000	57.132900
1931.000000	569.000000	57.094900
1932.000000	568.000000	57.009200
1933.000000	567.000000	56.946300
1934.000000	566.000000	56.874900
1935.000000	565.000000	56.776700
1936.000000	564.000000	56.638800
1937.000000	563.000000	56.500500
1938.000000	562.000000	56.299900
1939.000000	561.000000	56.092300
1940.000000	560.000000	55.818200
1941.000000	559.000000	55.367700
1942.000000	558.000000	55.053600
1943.000000	557.000000	54.688400
1944.000000	556.000000	54.327900
1945.000000	555.000000	53.888900
1946.000000	554.000000	53.409300
1947.000000	553.000000	52.905400
1948.000000	552.000000	52.351000
1949.000000	551.000000	51.790500
1950.000000	550.000000	51.157700
1951.000000	549.000000	50.480300
1952.000000	548.000000	49.766400
1953.000000	547.000000	49.012500
1954.000000	546.000000	48.211700
1955.000000	545.000000	47.344200
1956.000000	544.000000	46.443700
1957.000000	543.000000	45.492600
1958.000000	542.000000	44.564900
1959.000000	541.000000	43.559900
1960.000000	540.000000	42.535700
1961.000000	539.000000	41.548400
1962.000000	538.000000	40.541300
1963.000000	537.000000	39.546500
1964.000000	536.000000	38.590000
1965.000000	535.000000	37.671300
1966.000000	534.000000	36.791600
1967.000000	533.000000	35.944900
1968.000000	532.000000	35.169500
1969.000000	531.000000	34.453600
1970.000000	530.000000	33.775800
1971.000000	529.000000	33.151600
1972.000000	528.000000	32.591700
1973.000000	527.000000	32.055700
1974.000000	526.000000	31.575900
1975.000000	525.000000	31.141300
1976.000000	524.000000	30.726800
1977.000000	523.000000	30.360500
1978.000000	522.000000	30.004800
1979.000000	521.000000	29.652200
1980.000000	520.000000	29.331600
1981.000000	519.000000	29.008500
1982.000000	518.000000	28.674100
1983.000000	517.000000	28.329900
1984.000000	516.000000	27.989500
1985.000000	515.000000	27.668300
1986.000000	514.000000	27.318100
1987.000000	513.000000	26.951600
1988.000000	512.000000	26.593600
1989.000000	511.000000	26.233200
1990.000000	510.000000	25.863600
1991.000000	509.000000	25.475500
1992.000000	508.000000	25.104400
1993.000000	507.000000	24.747200
1994.000000	506.000000	24.402100
1995.000000	505.000000	24.069700
1996.000000	504.000000	23.727800
1997.000000	503.000000	23.398000
1998.000000	502.000000	23.075100
1999.000000	501.000000	22.765100
2000.000000	500.000000	22.461900
2001.000000	499.000000	22.199200
2002.000000	498.000000	21.960500
2003.000000	497.000000	21.727900
2004.000000	496.000000	21.494100
2005.000000	495.000000	21.287100
2006.000000	494.000000	21.078500
2007.000000	493.000000	20.867200
2008.000000	492.000000	20.670500
2009.000000	491.000000	20.482300
2010.000000	490.000000	20.312800
2011.000000	489.000000	20.119500
2012.000000	488.000000	19.908700
2013.000000	487.000000	19.703400
2014.000000	486.000000	19.489300
2015.000000	485.000000	19.265500
2016.000000	484.000000	19.046500
2017.000000	483.000000	18.810300
2018.000000	482.000000	18.549000
2019.000000	481.000000	18.287000
2020.000000	480.000000	18.017200
2021.000000	479.000000	17.751000
2022.000000	478.000000	17.482300
2023.000000	477.000000	17.206900
2024.000000	476.000000	16.954700
2025.000000	475.000000	16.714900
2026.000000	474.000000	16.465400
2027.000000	473.000000	16.229500
2028.000000	472.000000	16.023200
2029.000000	471.000000	15.830300
2030.000000	470.000000	15.649600
2031.000000	469.000000	15.492500
2032.000000	468.000000	15.353700
2033.000000	467.000000	15.236500
2034.000000	466.000000	15.150400
2035.000000	465.000000	15.076000
2036.000000	464.000000	15.010700
2037.000000	463.000000	14.982700
2038.000000	462.000000	14.968700
2039.000000	461.000000	14.957700
2040.000000	460.000000	14.964400
2041.000000	459.000000	14.991700
2042.000000	458.000000	15.019800
2043.000000	457.000000	15.026900
2044.000000	456.000000	15.050600
2045.000000	455.000000	15.090000
2046.000000	454.000000	15.108000
2047.000000	453.000000	15.131000
2048.000000	452.000000	15.127200
2049.000000	451.000000	15.112400
2050.000000	450.000000	15.106900
2051.000000	449.000000	15.064400
2052.000000	448.000000	15.015800
2053.000000	447.000000	14.956000
2054.000000	446.000000	14.877600
2055.000000	445.000000	14.801600
2056.000000	444.000000	14.722200
2057.000000	443.000000	14.615300
2058.000000	442.000000	14.497800
2059.000000	441.000000	14.382000
2060.000000	440.000000	14.244900
2061.000000	439.000000	14.111800
2062.000000	438.000000	13.966500
2063.000000	437.000000	13.816100
2064.000000	436.000000	13.679500
2065.000000	435.000000	13.518500
2066.000000	434.000000	13.357900
2067.000000	433.000000	13.208700
2068.000000	432.000000	13.022400
2069.000000	431.000000	12.832600
2070.000000	430.000000	12.662700
2071.000000	429.000000	12.489400
2072.000000	428.000000	12.301000
2073.000000	427.000000	12.099300
2074.000000	426.000000	11.894800
2075.000000	425.000000	11.690000
2076.000000	424.000000	11.485600
2077.000000	423.000000	11.274700
2078.000000	422.000000	11.055300
2079.000000	421.000000	10.834700
2080.000000	420.000000	10.615200
2081.000000	419.000000	10.383800
2082.000000	418.000000	10.152200
2083.000000	417.000000	9.929400
2084.000000	416.000000	9.690800
2085.000000	415.000000	9.456300
2086.000000	414.000000	9.245400
2087.000000	413.000000	9.011000
2088.000000	412.000000	8.775600
2089.000000	411.000000	8.553300
2090.000000	410.000000	8.331500
2091.000000	409.000000	8.125500
2092.000000	408.000000	7.935700
2093.000000	407.000000	7.742400
2094.000000	406.000000	7.542400
2095.000000	405.000000	7.358000
2096.000000	404.000000	7.192600
2097.000000	403.000000	7.017600
2098.000000	402.000000	6.849800
2099.000000	401.000000	6.703700
2100.000000	400.000000	6.580600
2101.000000	399.000000	6.472800
2102.000000	398.000000	6.373300
2103.000000	397.000000	6.264200
2104.000000	396.000000	6.156100
2105.000000	395.000000	6.069400
2106.000000	394.000000	5.980400
2107.000000	393.000000	5.918000
2108.000000	392.000000	5.854100
2109.000000	391.000000	5.797800
2110.000000	390.000000	5.753800
2111.000000	389.000000	5.695800
2112.000000	388.000000	5.660700
2113.000000	387.000000	5.614100
2114.000000	386.000000	5.593300
2115.000000	385.000000	5.557300
2116.000000	384.000000	5.526400
2117.000000	383.000000	5.499300
2118.000000	382.000000	5.477200
2119.000000	381.000000	5.451000
2120.000000	380.000000	5.420500
2121.000000	379.000000	5.404200
2122.000000	378.000000	5.397300
2123.000000	377.000000	5.380800
2124.000000	376.000000	5.474400
2125.000000	375.000000	5.314300
2126.000000	374.000000	5.150200
2127.000000	373.000000	5.090700
2128.000000	372.000000	5.150100
2129.000000	371.000000	5.221600
2130.000000	370.000000	5.160700
2131.000000	369.000000	5.234000
2132.000000	368.000000	5.254100
2133.000000	367.000000	5.218000
2134.000000	366.000000	5.205200
2135.000000	365.000000	5.154400
2136.000000	364.000000	5.187800
2137.000000	363.000000	5.087000
2138.000000	362.000000	5.215100
2139.000000	361.000000	5.199500
2140.000000	360.000000	5.200100
2141.000000	359.000000	5.170900
2142.000000	358.000000	5.205600
2143.000000	357.000000	5.200800
2144.000000	356.000000	5.200700
2145.000000	355.000000	5.208100
2146.000000	354.000000	5.247100
2147.000000	353.000000	5.208500
2148.000000	352.000000	5.093300
2149.000000	351.000000	5.222000
2150.000000	350.000000	5.117800
2151.000000	349.000000	4.979400
2152.000000	348.000000	5.115700
2153.000000	347.000000	5.157100
2154.000000	346.000000	5.278200
2155.000000	345.000000	5.056500
2156.000000	344.000000	5.050400
2157.000000	343.000000	5.044900
2158.000000	342.000000	5.010000
2159.000000	341.000000	5.054400
2160.000000	340.000000	5.205900
2161.000000	339.000000	5.169300
2162.000000	338.000000	5.163100
2163.000000	337.000000	5.161100
2164.000000	336.000000	5.074200
2165.000000	335.000000	5.194700
2166.000000	334.000000	5.148600
2167.000000	333.000000	5.226800
2168.000000	332.000000	5.204400
2169.000000	331.000000	5.336200
2170.000000	330.000000	5.413800
2171.000000	329.000000	5.261300
2172.000000	328.000000	5.129500
2173.000000	327.000000	5.280500
2174.000000	326.000000	5.077700
2175.000000	325.000000	5.503600
2176.000000	324.000000	5.155300
2177.000000	323.000000	5.373900
2178.000000	322.000000	5.497700
2179.000000	321.000000	5.787200
2180.000000	320.000000	5.729500
2181.000000	319.000000	5.704200
2182.000000	318.000000	5.417300
2183.000000	317.000000	5.704900
2184.000000	316.000000	5.090600
2185.000000	315.000000	5.011800
2186.000000	314.000000	4.995800
2187.000000	313.000000	4.986700
2188.000000	312.000000	4.945700
2189.000000	311.000000	5.041400
2190.000000	310.000000	4.987400
2191.000000	309.000000	5.005200
2192.000000	308.000000	5.101600
2193.000000	307.000000	5.029900
2194.000000	306.000000	5.082600
2195.000000	305.000000	4.998800
2196.000000	304.000000	4.983000
2197.000000	303.000000	5.057800
2198.000000	302.000000	4.985500
2199.000000	301.000000	5.085400
2200.000000	300.000000	5.023700
2201.000000	299.000000	5.045500
2202.000000	298.000000	5.071100
2203.000000	297.000000	5.048600
2204.000000	296.000000	5.119000
2205.000000	295.000000	5.087100
2206.000000	294.000000	5.048700
2207.000000	293.000000	5.050400
2208.000000	292.000000	5.099400
2209.000000	291.000000	5.132500
2210.000000	290.000000	5.094000
2211.000000	289.000000	5.126900
2212.000000	288.000000	5.068300
2213.000000	287.000000	5.105600
2214.000000	286.000000	5.135600
2215.000000	285.000000	5.050700
2216.000000	284.000000	5.118300
2217.000000	283.000000	5.194400
2218.000000	282.000000	5.163800
2219.000000	281.000000	5.115300
2220.000000	280.000000	5.106100
2221.000000	279.000000	5.155800
2222.000000	278.000000	5.209100
2223.000000	277.000000	5.143300
2224.000000	276.000000	5.186200
2225.000000	275.000000	5.205100
2226.000000	274.000000	5.200300
2227.000000	273.000000	5.215300
2228.000000	272.000000	5.214800
2229.000000	271.000000	5.248700
2230.000000	270.000000	5.229000
2231.000000	269.000000	5.214700
2232.000000	268.000000	5.272000
2233.000000	267.000000	5.312100
2234.000000	266.000000	5.271400
2235.000000	265.000000	5.356800
2236.000000	264.000000	5.364000
2237.000000	263.000000	5.434300
2238.000000	262.000000	5.407100
2239.000000	261.000000	5.361100
2240.000000	260.000000	5.423000
2241.000000	259.000000	5.485400
2242.000000	258.000000	5.473600
2243.000000	257.000000	5.493400
2244.000000	256.000000	5.508000
2245.000000	255.000000	5.445500
2246.000000	254.000000	5.558800
2247.000000	253.000000	5.509500
2248.000000	252.000000	5.555500
2249.000000	251.000000	5.478000
2250.000000	250.000000	5.520700
