PE UV       SUBTECH     SPECTRUM    ASCII       PEDS        4.00        
   -1
CICIMAUCR0097-1.ASC
24/04/03
15:09:17.00
24/04/03
15:09:17.00
Vinicio Soto Monge
C. kalinini
250,000000
1
Lambda 1050
1050L1511233
PerkinElmer UV WinLab 6.3.2.0749 / 2.02.05 Lambda 900 UV/VIS/NIR, Aug  7 2015 09:38:08

0
0
3350/servo 860,8/2
0
0
UV/VIS
1
1
1
DoubleDePol,CommonBeamDepol,RBeamAtt,SBeamAtt,60mm sphere, WB InGaAs Detector
0
0
0
0
Program
Program
3350/servo 860,8/2
3350/0,2 860,8/0,2
3350/0,2 860,8/0,2
0
15.00
 
 
 
0
 
860,8
319,2
860,8
Front
100
on
S:100 R:100
0
0
0
0
 
0
 
 
 
0
 
 
0
0
0
0
0
 
 
 
 
0
0


0
0
#HDR
-1
-1
#GR
nm
%R
1.0
0.0
2500,000000
-1,000000
2251
8
71,118700
4,659200
#DATA
501.000000	1999.000000	9.029843
502.000000	1998.000000	9.017185
503.000000	1997.000000	8.992275
504.000000	1996.000000	8.971820
505.000000	1995.000000	8.942049
506.000000	1994.000000	8.915620
507.000000	1993.000000	8.900431
508.000000	1992.000000	8.905393
509.000000	1991.000000	8.864990
510.000000	1990.000000	8.864686
511.000000	1989.000000	8.826004
512.000000	1988.000000	8.789551
513.000000	1987.000000	8.779323
514.000000	1986.000000	8.756134
515.000000	1985.000000	8.718769
516.000000	1984.000000	8.696087
517.000000	1983.000000	8.644039
518.000000	1982.000000	8.651633
519.000000	1981.000000	8.615584
520.000000	1980.000000	8.582573
521.000000	1979.000000	8.555435
522.000000	1978.000000	8.524044
523.000000	1977.000000	8.501159
524.000000	1976.000000	8.463085
525.000000	1975.000000	8.442529
526.000000	1974.000000	8.420758
527.000000	1973.000000	8.385621
528.000000	1972.000000	8.363141
529.000000	1971.000000	8.319092
530.000000	1970.000000	8.297422
531.000000	1969.000000	8.283752
532.000000	1968.000000	8.274132
533.000000	1967.000000	8.246083
534.000000	1966.000000	8.229274
535.000000	1965.000000	8.208110
536.000000	1964.000000	8.173479
537.000000	1963.000000	8.140468
538.000000	1962.000000	8.138746
539.000000	1961.000000	8.146746
540.000000	1960.000000	8.103609
541.000000	1959.000000	8.076977
542.000000	1958.000000	8.066041
543.000000	1957.000000	8.045080
544.000000	1956.000000	8.028170
545.000000	1955.000000	8.004677
546.000000	1954.000000	8.002551
547.000000	1953.000000	7.970856
548.000000	1952.000000	7.941996
549.000000	1951.000000	7.931972
550.000000	1950.000000	7.903214
551.000000	1949.000000	7.908985
552.000000	1948.000000	7.889240
553.000000	1947.000000	7.885898
554.000000	1946.000000	7.856937
555.000000	1945.000000	7.846710
556.000000	1944.000000	7.836179
557.000000	1943.000000	7.839723
558.000000	1942.000000	7.840837
559.000000	1941.000000	7.840533
560.000000	1940.000000	7.844077
561.000000	1939.000000	7.866355
562.000000	1938.000000	7.880835
563.000000	1937.000000	7.891163
564.000000	1936.000000	7.908479
565.000000	1935.000000	7.932174
566.000000	1934.000000	7.928529
567.000000	1933.000000	7.953844
568.000000	1932.000000	7.996677
569.000000	1931.000000	8.026144
570.000000	1930.000000	8.057940
571.000000	1929.000000	8.135506
572.000000	1928.000000	8.176517
573.000000	1927.000000	8.216312
574.000000	1926.000000	8.266234
575.000000	1925.000000	8.342483
576.000000	1924.000000	8.381368
577.000000	1923.000000	8.429264
578.000000	1922.000000	8.524854
579.000000	1921.000000	8.615483
580.000000	1920.000000	8.699327
581.000000	1919.000000	8.786310
582.000000	1918.000000	8.858914
583.000000	1917.000000	8.941138
584.000000	1916.000000	9.006046
585.000000	1915.000000	9.100422
586.000000	1914.000000	9.228314
587.000000	1913.000000	9.362991
588.000000	1912.000000	9.484302
589.000000	1911.000000	9.582626
590.000000	1910.000000	9.694013
591.000000	1909.000000	9.769453
592.000000	1908.000000	9.851980
593.000000	1907.000000	10.007720
594.000000	1906.000000	10.140675
595.000000	1905.000000	10.318287
596.000000	1904.000000	10.465520
597.000000	1903.000000	10.603336
598.000000	1902.000000	10.738520
599.000000	1901.000000	10.860033
600.000000	1900.000000	11.032784
601.000000	1899.000000	11.217180
602.000000	1898.000000	11.391146
603.000000	1897.000000	11.574935
604.000000	1896.000000	11.704752
605.000000	1895.000000	11.833353
606.000000	1894.000000	11.992231
607.000000	1893.000000	12.175514
608.000000	1892.000000	12.379757
609.000000	1891.000000	12.602430
610.000000	1890.000000	12.793914
611.000000	1889.000000	13.003322
612.000000	1888.000000	13.221742
613.000000	1887.000000	13.436820
614.000000	1886.000000	13.685719
615.000000	1885.000000	13.993249
616.000000	1884.000000	14.322246
617.000000	1883.000000	14.668355
618.000000	1882.000000	15.014870
619.000000	1881.000000	15.368068
620.000000	1880.000000	15.707293
621.000000	1879.000000	16.037910
622.000000	1878.000000	16.344528
623.000000	1877.000000	16.678081
624.000000	1876.000000	16.990572
625.000000	1875.000000	17.265192
626.000000	1874.000000	17.512168
627.000000	1873.000000	17.770282
628.000000	1872.000000	18.001967
629.000000	1871.000000	18.230816
630.000000	1870.000000	18.409542
631.000000	1869.000000	18.574496
632.000000	1868.000000	18.713021
633.000000	1867.000000	18.813269
634.000000	1866.000000	18.888810
635.000000	1865.000000	18.945415
636.000000	1864.000000	19.001817
637.000000	1863.000000	19.062371
638.000000	1862.000000	19.120191
639.000000	1861.000000	19.175885
640.000000	1860.000000	19.213351
641.000000	1859.000000	19.239780
642.000000	1858.000000	19.262058
643.000000	1857.000000	19.263982
644.000000	1856.000000	19.252539
645.000000	1855.000000	19.238565
646.000000	1854.000000	19.220136
647.000000	1853.000000	19.180340
648.000000	1852.000000	19.149962
649.000000	1851.000000	19.119989
650.000000	1850.000000	19.092952
651.000000	1849.000000	19.073712
652.000000	1848.000000	19.046878
653.000000	1847.000000	18.999184
654.000000	1846.000000	18.926378
655.000000	1845.000000	18.875140
656.000000	1844.000000	18.832408
657.000000	1843.000000	18.810535
658.000000	1842.000000	18.823800
659.000000	1841.000000	18.802738
660.000000	1840.000000	18.758285
661.000000	1839.000000	18.729121
662.000000	1838.000000	18.682136
663.000000	1837.000000	18.656214
664.000000	1836.000000	18.623203
665.000000	1835.000000	18.568927
666.000000	1834.000000	18.504120
667.000000	1833.000000	18.443464
668.000000	1832.000000	18.385948
669.000000	1831.000000	18.338862
670.000000	1830.000000	18.294003
671.000000	1829.000000	18.243778
672.000000	1828.000000	18.184641
673.000000	1827.000000	18.124999
674.000000	1826.000000	18.075786
675.000000	1825.000000	18.030927
676.000000	1824.000000	17.995790
677.000000	1823.000000	17.981107
678.000000	1822.000000	17.978373
679.000000	1821.000000	17.970171
680.000000	1820.000000	17.961766
681.000000	1819.000000	17.926325
682.000000	1818.000000	17.920755
683.000000	1817.000000	17.928046
684.000000	1816.000000	17.930679
685.000000	1815.000000	17.939185
686.000000	1814.000000	17.960045
687.000000	1813.000000	17.973107
688.000000	1812.000000	17.958931
689.000000	1811.000000	17.953058
690.000000	1810.000000	17.921464
691.000000	1809.000000	17.900908
692.000000	1808.000000	17.900908
693.000000	1807.000000	17.877416
694.000000	1806.000000	17.847139
695.000000	1805.000000	17.822431
696.000000	1804.000000	17.785471
697.000000	1803.000000	17.761067
698.000000	1802.000000	17.740005
699.000000	1801.000000	17.726132
700.000000	1800.000000	17.697273
701.000000	1799.000000	17.646440
702.000000	1798.000000	17.627504
703.000000	1797.000000	17.604214
704.000000	1796.000000	17.579304
705.000000	1795.000000	17.561887
706.000000	1794.000000	17.533331
707.000000	1793.000000	17.504775
708.000000	1792.000000	17.459816
709.000000	1791.000000	17.420628
710.000000	1790.000000	17.351466
711.000000	1789.000000	17.315823
712.000000	1788.000000	17.284837
713.000000	1787.000000	17.236940
714.000000	1786.000000	17.200790
715.000000	1785.000000	17.139831
716.000000	1784.000000	17.057101
717.000000	1783.000000	17.005660
718.000000	1782.000000	16.945815
719.000000	1781.000000	16.863287
720.000000	1780.000000	16.796860
721.000000	1779.000000	16.729015
722.000000	1778.000000	16.667145
723.000000	1777.000000	16.583909
724.000000	1776.000000	16.482850
725.000000	1775.000000	16.369944
726.000000	1774.000000	16.261899
727.000000	1773.000000	16.153448
728.000000	1772.000000	16.025961
729.000000	1771.000000	15.922168
730.000000	1770.000000	15.817363
731.000000	1769.000000	15.686838
732.000000	1768.000000	15.589425
733.000000	1767.000000	15.490797
734.000000	1766.000000	15.413130
735.000000	1765.000000	15.350652
736.000000	1764.000000	15.289794
737.000000	1763.000000	15.252226
738.000000	1762.000000	15.261542
739.000000	1761.000000	15.258302
740.000000	1760.000000	15.307413
741.000000	1759.000000	15.326146
742.000000	1758.000000	15.372828
743.000000	1757.000000	15.406143
744.000000	1756.000000	15.427407
745.000000	1755.000000	15.423559
746.000000	1754.000000	15.428926
747.000000	1753.000000	15.443103
748.000000	1752.000000	15.404117
749.000000	1751.000000	15.349639
750.000000	1750.000000	15.281693
751.000000	1749.000000	15.215266
752.000000	1748.000000	15.132130
753.000000	1747.000000	15.041806
754.000000	1746.000000	14.945912
755.000000	1745.000000	14.806172
756.000000	1744.000000	14.682532
757.000000	1743.000000	14.507756
758.000000	1742.000000	14.360623
759.000000	1741.000000	14.161241
760.000000	1740.000000	13.946466
761.000000	1739.000000	13.779689
762.000000	1738.000000	13.594281
763.000000	1737.000000	13.451604
764.000000	1736.000000	13.338698
765.000000	1735.000000	13.260322
766.000000	1734.000000	13.221640
767.000000	1733.000000	13.228121
768.000000	1732.000000	13.255360
769.000000	1731.000000	13.324319
770.000000	1730.000000	13.391050
771.000000	1729.000000	13.504057
772.000000	1728.000000	13.584357
773.000000	1727.000000	13.678530
774.000000	1726.000000	13.776247
775.000000	1725.000000	13.814726
776.000000	1724.000000	13.872242
777.000000	1723.000000	13.895127
778.000000	1722.000000	13.919632
779.000000	1721.000000	13.942011
780.000000	1720.000000	13.933302
781.000000	1719.000000	13.954263
782.000000	1718.000000	13.989603
783.000000	1717.000000	14.023830
784.000000	1716.000000	14.046816
785.000000	1715.000000	14.129546
786.000000	1714.000000	14.164076
787.000000	1713.000000	14.210960
788.000000	1712.000000	14.287716
789.000000	1711.000000	14.292981
790.000000	1710.000000	14.310499
791.000000	1709.000000	14.317790
792.000000	1708.000000	14.318701
793.000000	1707.000000	14.314448
794.000000	1706.000000	14.267160
795.000000	1705.000000	14.253388
796.000000	1704.000000	14.197998
797.000000	1703.000000	14.150507
798.000000	1702.000000	14.058967
799.000000	1701.000000	13.965908
800.000000	1700.000000	13.848952
801.000000	1699.000000	13.738172
802.000000	1698.000000	13.631342
803.000000	1697.000000	13.564814
804.000000	1696.000000	13.515905
805.000000	1695.000000	13.537271
806.000000	1694.000000	13.586484
807.000000	1693.000000	13.702022
808.000000	1692.000000	13.861913
809.000000	1691.000000	14.024133
810.000000	1690.000000	14.164278
811.000000	1689.000000	14.295816
812.000000	1688.000000	14.384825
813.000000	1687.000000	14.464011
814.000000	1686.000000	14.501579
815.000000	1685.000000	14.519603
816.000000	1684.000000	14.638585
817.000000	1683.000000	14.830575
818.000000	1682.000000	15.108739
819.000000	1681.000000	15.500011
820.000000	1680.000000	15.943737
821.000000	1679.000000	16.447308
822.000000	1678.000000	16.941360
823.000000	1677.000000	17.390654
824.000000	1676.000000	17.798128
825.000000	1675.000000	18.189198
826.000000	1674.000000	18.538548
827.000000	1673.000000	18.805472
828.000000	1672.000000	19.050422
829.000000	1671.000000	19.285854
830.000000	1670.000000	19.453947
831.000000	1669.000000	19.647356
832.000000	1668.000000	19.792969
833.000000	1667.000000	19.936658
834.000000	1666.000000	20.034982
835.000000	1665.000000	20.159331
836.000000	1664.000000	20.240137
837.000000	1663.000000	20.327222
838.000000	1662.000000	20.374207
839.000000	1661.000000	20.438710
840.000000	1660.000000	20.464025
841.000000	1659.000000	20.520630
842.000000	1658.000000	20.524782
843.000000	1657.000000	20.548679
844.000000	1656.000000	20.564476
845.000000	1655.000000	20.580374
846.000000	1654.000000	20.560020
847.000000	1653.000000	20.529136
848.000000	1652.000000	20.506150
849.000000	1651.000000	20.488024
850.000000	1650.000000	20.460785
851.000000	1649.000000	20.432432
852.000000	1648.000000	20.396180
853.000000	1647.000000	20.330664
854.000000	1646.000000	20.282971
855.000000	1645.000000	20.231530
856.000000	1644.000000	20.182115
857.000000	1643.000000	20.110422
858.000000	1642.000000	20.035590
859.000000	1641.000000	19.975947
860.000000	1640.000000	19.923899
861.000000	1639.000000	19.852409
862.000000	1638.000000	19.798437
863.000000	1637.000000	19.724010
864.000000	1636.000000	19.640267
865.000000	1635.000000	19.574549
866.000000	1634.000000	19.508021
867.000000	1633.000000	19.427619
868.000000	1632.000000	19.356028
869.000000	1631.000000	19.264589
870.000000	1630.000000	19.177606
871.000000	1629.000000	19.090623
872.000000	1628.000000	19.014171
873.000000	1627.000000	18.922125
874.000000	1626.000000	18.834332
875.000000	1625.000000	18.750893
876.000000	1624.000000	18.666542
877.000000	1623.000000	18.600318
878.000000	1622.000000	18.522650
879.000000	1621.000000	18.452173
880.000000	1620.000000	18.374202
881.000000	1619.000000	18.295623
882.000000	1618.000000	18.215121
883.000000	1617.000000	18.143023
884.000000	1616.000000	18.075786
885.000000	1615.000000	18.003891
886.000000	1614.000000	17.927439
887.000000	1613.000000	17.863442
888.000000	1612.000000	17.792762
889.000000	1611.000000	17.729879
890.000000	1610.000000	17.657376
891.000000	1609.000000	17.621124
892.000000	1608.000000	17.555608
893.000000	1607.000000	17.476726
894.000000	1606.000000	17.406046
895.000000	1605.000000	17.370098
896.000000	1604.000000	17.319670
897.000000	1603.000000	17.253446
898.000000	1602.000000	17.195322
899.000000	1601.000000	17.136591
900.000000	1600.000000	17.082112
901.000000	1599.000000	17.037861
902.000000	1598.000000	16.980345
903.000000	1597.000000	16.936297
904.000000	1596.000000	16.889514
905.000000	1595.000000	16.845769
906.000000	1594.000000	16.808910
907.000000	1593.000000	16.776001
908.000000	1592.000000	16.735395
909.000000	1591.000000	16.719497
910.000000	1590.000000	16.697118
911.000000	1589.000000	16.668056
912.000000	1588.000000	16.647703
913.000000	1587.000000	16.629577
914.000000	1586.000000	16.611857
915.000000	1585.000000	16.606186
916.000000	1584.000000	16.599199
917.000000	1583.000000	16.587756
918.000000	1582.000000	16.586339
919.000000	1581.000000	16.572972
920.000000	1580.000000	16.581985
921.000000	1579.000000	16.585326
922.000000	1578.000000	16.579352
923.000000	1577.000000	16.588060
924.000000	1576.000000	16.605781
925.000000	1575.000000	16.632413
926.000000	1574.000000	16.641526
927.000000	1573.000000	16.647197
928.000000	1572.000000	16.683853
929.000000	1571.000000	16.712004
930.000000	1570.000000	16.725066
931.000000	1569.000000	16.766786
932.000000	1568.000000	16.809012
933.000000	1567.000000	16.829973
934.000000	1566.000000	16.863996
935.000000	1565.000000	16.911488
936.000000	1564.000000	16.944397
937.000000	1563.000000	16.962017
938.000000	1562.000000	16.982978
939.000000	1561.000000	17.010116
940.000000	1560.000000	17.031988
941.000000	1559.000000	17.058519
942.000000	1558.000000	17.072695
943.000000	1557.000000	17.062873
944.000000	1556.000000	17.063480
945.000000	1555.000000	17.084846
946.000000	1554.000000	17.083631
947.000000	1553.000000	17.064999
948.000000	1552.000000	17.044443
949.000000	1551.000000	17.039481
950.000000	1550.000000	17.021660
951.000000	1549.000000	16.990572
952.000000	1548.000000	16.979738
953.000000	1547.000000	16.968396
954.000000	1546.000000	16.948144
955.000000	1545.000000	16.922829
956.000000	1544.000000	16.901868
957.000000	1543.000000	16.884046
958.000000	1542.000000	16.870679
959.000000	1541.000000	16.864098
960.000000	1540.000000	16.857313
961.000000	1539.000000	16.838175
962.000000	1538.000000	16.814075
963.000000	1537.000000	16.810227
964.000000	1536.000000	16.791392
965.000000	1535.000000	16.754533
966.000000	1534.000000	16.726079
967.000000	1533.000000	16.712206
968.000000	1532.000000	16.678891
969.000000	1531.000000	16.666942
970.000000	1530.000000	16.645070
971.000000	1529.000000	16.603452
972.000000	1528.000000	16.572770
973.000000	1527.000000	16.536316
974.000000	1526.000000	16.507355
975.000000	1525.000000	16.461788
976.000000	1524.000000	16.423207
977.000000	1523.000000	16.394551
978.000000	1522.000000	16.350300
979.000000	1521.000000	16.316883
980.000000	1520.000000	16.280733
981.000000	1519.000000	16.250963
982.000000	1518.000000	16.230913
983.000000	1517.000000	16.182713
984.000000	1516.000000	16.149195
985.000000	1515.000000	16.127627
986.000000	1514.000000	16.103830
987.000000	1513.000000	16.072440
988.000000	1512.000000	16.044694
989.000000	1511.000000	16.020898
990.000000	1510.000000	16.001557
991.000000	1509.000000	15.964394
992.000000	1508.000000	15.939383
993.000000	1507.000000	15.908397
994.000000	1506.000000	15.890474
995.000000	1505.000000	15.869614
996.000000	1504.000000	15.849463
997.000000	1503.000000	15.856045
998.000000	1502.000000	15.880145
999.000000	1501.000000	15.876297
1000.000000	1500.000000	15.850374
1001.000000	1499.000000	15.839134
1002.000000	1498.000000	15.845818
1003.000000	1497.000000	15.850678
1004.000000	1496.000000	15.847134
1005.000000	1495.000000	15.859893
1006.000000	1494.000000	15.869918
1007.000000	1493.000000	15.873968
1008.000000	1492.000000	15.875183
1009.000000	1491.000000	15.894322
1010.000000	1490.000000	15.906979
1011.000000	1489.000000	15.952749
1012.000000	1488.000000	15.968546
1013.000000	1487.000000	15.983229
1014.000000	1486.000000	15.992950
1015.000000	1485.000000	16.006924
1016.000000	1484.000000	16.038315
1017.000000	1483.000000	16.069908
1018.000000	1482.000000	16.098565
1019.000000	1481.000000	16.125804
1020.000000	1480.000000	16.159828
1021.000000	1479.000000	16.201142
1022.000000	1478.000000	16.210154
1023.000000	1477.000000	16.253595
1024.000000	1476.000000	16.272835
1025.000000	1475.000000	16.330250
1026.000000	1474.000000	16.342502
1027.000000	1473.000000	16.374096
1028.000000	1472.000000	16.427562
1029.000000	1471.000000	16.482141
1030.000000	1470.000000	16.503001
1031.000000	1469.000000	16.512216
1032.000000	1468.000000	16.549075
1033.000000	1467.000000	16.597275
1034.000000	1466.000000	16.636665
1035.000000	1465.000000	16.679701
1036.000000	1464.000000	16.682233
1037.000000	1463.000000	16.736509
1038.000000	1462.000000	16.795746
1039.000000	1461.000000	16.844554
1040.000000	1460.000000	16.901058
1041.000000	1459.000000	16.962523
1042.000000	1458.000000	17.016293
1043.000000	1457.000000	17.075328
1044.000000	1456.000000	17.146818
1045.000000	1455.000000	17.202005
1046.000000	1454.000000	17.283217
1047.000000	1453.000000	17.334455
1048.000000	1452.000000	17.401287
1049.000000	1451.000000	17.527762
1050.000000	1450.000000	17.560773
1051.000000	1449.000000	17.638845
1052.000000	1448.000000	17.715398
1053.000000	1447.000000	17.796306
1054.000000	1446.000000	17.889668
1055.000000	1445.000000	17.969361
1056.000000	1444.000000	18.045813
1057.000000	1443.000000	18.129049
1058.000000	1442.000000	18.208134
1059.000000	1441.000000	18.304129
1060.000000	1440.000000	18.376733
1061.000000	1439.000000	18.448021
1062.000000	1438.000000	18.562243
1063.000000	1437.000000	18.632417
1064.000000	1436.000000	18.718287
1065.000000	1435.000000	18.793625
1066.000000	1434.000000	18.918176
1067.000000	1433.000000	18.980755
1068.000000	1432.000000	19.061359
1069.000000	1431.000000	19.163430
1070.000000	1430.000000	19.280082
1071.000000	1429.000000	19.383672
1072.000000	1428.000000	19.544373
1073.000000	1427.000000	19.639964
1074.000000	1426.000000	19.817778
1075.000000	1425.000000	19.962783
1076.000000	1424.000000	20.161457
1077.000000	1423.000000	20.318311
1078.000000	1422.000000	20.449443
1079.000000	1421.000000	20.651763
1080.000000	1420.000000	20.842437
1081.000000	1419.000000	21.024606
1082.000000	1418.000000	21.204749
1083.000000	1417.000000	21.329199
1084.000000	1416.000000	21.532227
1085.000000	1415.000000	21.722800
1086.000000	1414.000000	21.916411
1087.000000	1413.000000	22.084403
1088.000000	1412.000000	22.250471
1089.000000	1411.000000	22.441246
1090.000000	1410.000000	22.686804
1091.000000	1409.000000	22.953525
1092.000000	1408.000000	23.222677
1093.000000	1407.000000	23.489398
1094.000000	1406.000000	23.753082
1095.000000	1405.000000	24.055649
1096.000000	1404.000000	24.338977
1097.000000	1403.000000	24.565599
1098.000000	1402.000000	24.837991
1099.000000	1401.000000	25.106029
1100.000000	1400.000000	25.355030
1101.000000	1399.000000	25.478770
1102.000000	1398.000000	25.588335
1103.000000	1397.000000	25.729087
1104.000000	1396.000000	25.875409
1105.000000	1395.000000	25.961988
1106.000000	1394.000000	25.964317
1107.000000	1393.000000	26.012618
1108.000000	1392.000000	26.080665
1109.000000	1391.000000	26.125929
1110.000000	1390.000000	26.205925
1111.000000	1389.000000	26.336754
1112.000000	1388.000000	26.523479
1113.000000	1387.000000	26.648334
1114.000000	1386.000000	26.843970
1115.000000	1385.000000	27.122742
1116.000000	1384.000000	27.446270
1117.000000	1383.000000	27.747117
1118.000000	1382.000000	28.071354
1119.000000	1381.000000	28.372707
1120.000000	1380.000000	28.640137
1121.000000	1379.000000	28.890960
1122.000000	1378.000000	29.178642
1123.000000	1377.000000	29.513512
1124.000000	1376.000000	29.893848
1125.000000	1375.000000	30.288159
1126.000000	1374.000000	30.742010
1127.000000	1373.000000	31.235961
1128.000000	1372.000000	31.721102
1129.000000	1371.000000	32.164726
1130.000000	1370.000000	32.546682
1131.000000	1369.000000	32.879122
1132.000000	1368.000000	33.159817
1133.000000	1367.000000	33.393933
1134.000000	1366.000000	33.603745
1135.000000	1365.000000	33.795939
1136.000000	1364.000000	33.952387
1137.000000	1363.000000	34.088785
1138.000000	1362.000000	34.223969
1139.000000	1361.000000	34.307306
1140.000000	1360.000000	34.330394
1141.000000	1359.000000	34.387708
1142.000000	1358.000000	34.468413
1143.000000	1357.000000	34.579395
1144.000000	1356.000000	34.796599
1145.000000	1355.000000	35.057346
1146.000000	1354.000000	35.382191
1147.000000	1353.000000	35.716049
1148.000000	1352.000000	36.100334
1149.000000	1351.000000	36.478746
1150.000000	1350.000000	36.825261
1151.000000	1349.000000	37.132486
1152.000000	1348.000000	37.415207
1153.000000	1347.000000	37.682131
1154.000000	1346.000000	37.904500
1155.000000	1345.000000	38.134463
1156.000000	1344.000000	38.368174
1157.000000	1343.000000	38.537786
1158.000000	1342.000000	38.744257
1159.000000	1341.000000	38.936146
1160.000000	1340.000000	39.114872
1161.000000	1339.000000	39.294306
1162.000000	1338.000000	39.452172
1163.000000	1337.000000	39.613177
1164.000000	1336.000000	39.768511
1165.000000	1335.000000	39.897518
1166.000000	1334.000000	40.027840
1167.000000	1333.000000	40.168593
1168.000000	1332.000000	40.289195
1169.000000	1331.000000	40.387519
1170.000000	1330.000000	40.501539
1171.000000	1329.000000	40.613129
1172.000000	1328.000000	40.708618
1173.000000	1327.000000	40.801271
1174.000000	1326.000000	40.892001
1175.000000	1325.000000	40.984149
1176.000000	1324.000000	41.058474
1177.000000	1323.000000	41.130673
1178.000000	1322.000000	41.197202
1179.000000	1321.000000	41.252996
1180.000000	1320.000000	41.319019
1181.000000	1319.000000	41.389699
1182.000000	1318.000000	41.438507
1183.000000	1317.000000	41.493086
1184.000000	1316.000000	41.547868
1185.000000	1315.000000	41.600018
1186.000000	1314.000000	41.652471
1187.000000	1313.000000	41.706848
1188.000000	1312.000000	41.740872
1189.000000	1311.000000	41.772364
1190.000000	1310.000000	41.792211
1191.000000	1309.000000	41.803653
1192.000000	1308.000000	41.841728
1193.000000	1307.000000	41.865423
1194.000000	1306.000000	41.867650
1195.000000	1305.000000	41.875954
1196.000000	1304.000000	41.884763
1197.000000	1303.000000	41.873625
1198.000000	1302.000000	41.863397
1199.000000	1301.000000	41.851955
1200.000000	1300.000000	41.841424
1201.000000	1299.000000	41.825121
1202.000000	1298.000000	41.805982
1203.000000	1297.000000	41.790287
1204.000000	1296.000000	41.753529
1205.000000	1295.000000	41.716367
1206.000000	1294.000000	41.684368
1207.000000	1293.000000	41.647003
1208.000000	1292.000000	41.610245
1209.000000	1291.000000	41.567817
1210.000000	1290.000000	41.512224
1211.000000	1289.000000	41.450152
1212.000000	1288.000000	41.395673
1213.000000	1287.000000	41.336030
1214.000000	1286.000000	41.274059
1215.000000	1285.000000	41.211176
1216.000000	1284.000000	41.148799
1217.000000	1283.000000	41.078929
1218.000000	1282.000000	41.004502
1219.000000	1281.000000	40.938581
1220.000000	1280.000000	40.866787
1221.000000	1279.000000	40.803803
1222.000000	1278.000000	40.751755
1223.000000	1277.000000	40.698897
1224.000000	1276.000000	40.644925
1225.000000	1275.000000	40.583560
1226.000000	1274.000000	40.531107
1227.000000	1273.000000	40.493033
1228.000000	1272.000000	40.454858
1229.000000	1271.000000	40.413543
1230.000000	1270.000000	40.373647
1231.000000	1269.000000	40.341547
1232.000000	1268.000000	40.293752
1233.000000	1267.000000	40.237349
1234.000000	1266.000000	40.215679
1235.000000	1265.000000	40.186111
1236.000000	1264.000000	40.128393
1237.000000	1263.000000	40.090926
1238.000000	1262.000000	40.055383
1239.000000	1261.000000	40.014778
1240.000000	1260.000000	39.968704
1241.000000	1259.000000	39.927086
1242.000000	1258.000000	39.876860
1243.000000	1257.000000	39.828863
1244.000000	1256.000000	39.775802
1245.000000	1255.000000	39.739145
1246.000000	1254.000000	39.688920
1247.000000	1253.000000	39.619556
1248.000000	1252.000000	39.573989
1249.000000	1251.000000	39.539459
1250.000000	1250.000000	39.473437
1251.000000	1249.000000	39.396782
1252.000000	1248.000000	39.347367
1253.000000	1247.000000	39.277598
1254.000000	1246.000000	39.199728
1255.000000	1245.000000	39.131377
1256.000000	1244.000000	39.052596
1257.000000	1243.000000	38.977562
1258.000000	1242.000000	38.889971
1259.000000	1241.000000	38.804102
1260.000000	1240.000000	38.723600
1261.000000	1239.000000	38.650793
1262.000000	1238.000000	38.556418
1263.000000	1237.000000	38.474801
1264.000000	1236.000000	38.381439
1265.000000	1235.000000	38.293848
1266.000000	1234.000000	38.203118
1267.000000	1233.000000	38.097503
1268.000000	1232.000000	38.002115
1269.000000	1231.000000	37.885665
1270.000000	1230.000000	37.764456
1271.000000	1229.000000	37.640715
1272.000000	1228.000000	37.546644
1273.000000	1227.000000	37.403157
1274.000000	1226.000000	37.278201
1275.000000	1225.000000	37.165801
1276.000000	1224.000000	37.019783
1277.000000	1223.000000	36.901915
1278.000000	1222.000000	36.748708
1279.000000	1221.000000	36.610284
1280.000000	1220.000000	36.491809
1281.000000	1219.000000	36.369182
1282.000000	1218.000000	36.237745
1283.000000	1217.000000	36.104891
1284.000000	1216.000000	35.973758
1285.000000	1215.000000	35.855485
1286.000000	1214.000000	35.753414
1287.000000	1213.000000	35.629572
1288.000000	1212.000000	35.529728
1289.000000	1211.000000	35.404975
1290.000000	1210.000000	35.303916
1291.000000	1209.000000	35.209643
1292.000000	1208.000000	35.107875
1293.000000	1207.000000	35.024841
1294.000000	1206.000000	34.940390
1295.000000	1205.000000	34.905050
1296.000000	1204.000000	34.850369
1297.000000	1203.000000	34.801662
1298.000000	1202.000000	34.733007
1299.000000	1201.000000	34.700908
1300.000000	1200.000000	34.641670
1301.000000	1199.000000	34.561269
1302.000000	1198.000000	34.475400
1303.000000	1197.000000	34.363304
1304.000000	1196.000000	34.226804
1305.000000	1195.000000	34.041294
1306.000000	1194.000000	33.840291
1307.000000	1193.000000	33.604353
1308.000000	1192.000000	33.317379
1309.000000	1191.000000	33.021799
1310.000000	1190.000000	32.736952
1311.000000	1189.000000	32.489369
1312.000000	1188.000000	32.274999
1313.000000	1187.000000	32.192472
1314.000000	1186.000000	32.144474
1315.000000	1185.000000	32.217382
1316.000000	1184.000000	32.329073
1317.000000	1183.000000	32.544759
1318.000000	1182.000000	32.803885
1319.000000	1181.000000	33.099972
1320.000000	1180.000000	33.399097
1321.000000	1179.000000	33.688602
1322.000000	1178.000000	33.923021
1323.000000	1177.000000	34.122100
1324.000000	1176.000000	34.294345
1325.000000	1175.000000	34.482589
1326.000000	1174.000000	34.612811
1327.000000	1173.000000	34.781916
1328.000000	1172.000000	34.921960
1329.000000	1171.000000	35.104027
1330.000000	1170.000000	35.253792
1331.000000	1169.000000	35.424923
1332.000000	1168.000000	35.576815
1333.000000	1167.000000	35.735896
1334.000000	1166.000000	35.907837
1335.000000	1165.000000	36.055576
1336.000000	1164.000000	36.229036
1337.000000	1163.000000	36.364017
1338.000000	1162.000000	36.539300
1339.000000	1161.000000	36.668306
1340.000000	1160.000000	36.830020
1341.000000	1159.000000	36.946774
1342.000000	1158.000000	37.054009
1343.000000	1157.000000	37.143220
1344.000000	1156.000000	37.242962
1345.000000	1155.000000	37.300073
1346.000000	1154.000000	37.334097
1347.000000	1153.000000	37.347767
1348.000000	1152.000000	37.332274
1349.000000	1151.000000	37.300377
1350.000000	1150.000000	37.265746
1351.000000	1149.000000	37.237292
1352.000000	1148.000000	37.217242
1353.000000	1147.000000	37.223115
1354.000000	1146.000000	37.257645
1355.000000	1145.000000	37.319313
1356.000000	1144.000000	37.411562
1357.000000	1143.000000	37.502190
1358.000000	1142.000000	37.604464
1359.000000	1141.000000	37.725572
1360.000000	1140.000000	37.877362
1361.000000	1139.000000	37.971028
1362.000000	1138.000000	38.092744
1363.000000	1137.000000	38.249901
1364.000000	1136.000000	38.400577
1365.000000	1135.000000	38.522293
1366.000000	1134.000000	38.613326
1367.000000	1133.000000	38.663957
1368.000000	1132.000000	38.765117
1369.000000	1131.000000	38.847138
1370.000000	1130.000000	38.909818
1371.000000	1129.000000	38.953766
1372.000000	1128.000000	38.976651
1373.000000	1127.000000	38.996093
1374.000000	1126.000000	38.990220
1375.000000	1125.000000	38.998827
1376.000000	1124.000000	38.980195
1377.000000	1123.000000	38.949411
1378.000000	1122.000000	38.931488
1379.000000	1121.000000	38.893819
1380.000000	1120.000000	38.843087
1381.000000	1119.000000	38.805317
1382.000000	1118.000000	38.771901
1383.000000	1117.000000	38.699398
1384.000000	1116.000000	38.637528
1385.000000	1115.000000	38.596011
1386.000000	1114.000000	38.557734
1387.000000	1113.000000	38.521685
1388.000000	1112.000000	38.464270
1389.000000	1111.000000	38.412121
1390.000000	1110.000000	38.362402
1391.000000	1109.000000	38.309442
1392.000000	1108.000000	38.254863
1393.000000	1107.000000	38.214257
1394.000000	1106.000000	38.154716
1395.000000	1105.000000	38.105908
1396.000000	1104.000000	38.070568
1397.000000	1103.000000	38.008697
1398.000000	1102.000000	37.990268
1399.000000	1101.000000	37.951991
1400.000000	1100.000000	37.900753
1401.000000	1099.000000	37.861464
1402.000000	1098.000000	37.821770
1403.000000	1097.000000	37.789569
1404.000000	1096.000000	37.756254
1405.000000	1095.000000	37.717977
1406.000000	1094.000000	37.665423
1407.000000	1093.000000	37.618336
1408.000000	1092.000000	37.586541
1409.000000	1091.000000	37.548163
1410.000000	1090.000000	37.515455
1411.000000	1089.000000	37.470799
1412.000000	1088.000000	37.428877
1413.000000	1087.000000	37.389487
1414.000000	1086.000000	37.361944
1415.000000	1085.000000	37.305643
1416.000000	1084.000000	37.262404
1417.000000	1083.000000	37.214103
1418.000000	1082.000000	37.161346
1419.000000	1081.000000	37.113854
1420.000000	1080.000000	37.054009
1421.000000	1079.000000	37.012999
1422.000000	1078.000000	36.953660
1423.000000	1077.000000	36.910219
1424.000000	1076.000000	36.854019
1425.000000	1075.000000	36.792756
1426.000000	1074.000000	36.749011
1427.000000	1073.000000	36.697166
1428.000000	1072.000000	36.658585
1429.000000	1071.000000	36.613119
1430.000000	1070.000000	36.537984
1431.000000	1069.000000	36.487353
1432.000000	1068.000000	36.440672
1433.000000	1067.000000	36.372219
1434.000000	1066.000000	36.318551
1435.000000	1065.000000	36.280072
1436.000000	1064.000000	36.225492
1437.000000	1063.000000	36.191469
1438.000000	1062.000000	36.151977
1439.000000	1061.000000	36.095473
1440.000000	1060.000000	36.058817
1441.000000	1059.000000	36.016388
1442.000000	1058.000000	35.986516
1443.000000	1057.000000	35.949455
1444.000000	1056.000000	35.906925
1445.000000	1055.000000	35.861257
1446.000000	1054.000000	35.835030
1447.000000	1053.000000	35.814069
1448.000000	1052.000000	35.793108
1449.000000	1051.000000	35.775387
1450.000000	1050.000000	35.746832
1451.000000	1049.000000	35.716251
1452.000000	1048.000000	35.692758
1453.000000	1047.000000	35.675747
1454.000000	1046.000000	35.671595
1455.000000	1045.000000	35.672911
1456.000000	1044.000000	35.664405
1457.000000	1043.000000	35.656710
1458.000000	1042.000000	35.663393
1459.000000	1041.000000	35.678481
1460.000000	1040.000000	35.678481
1461.000000	1039.000000	35.701062
1462.000000	1038.000000	35.727491
1463.000000	1037.000000	35.752199
1464.000000	1036.000000	35.788653
1465.000000	1035.000000	35.833815
1466.000000	1034.000000	35.878977
1467.000000	1033.000000	35.920494
1468.000000	1032.000000	35.969403
1469.000000	1031.000000	36.030464
1470.000000	1030.000000	36.104080
1471.000000	1029.000000	36.175773
1472.000000	1028.000000	36.250301
1473.000000	1027.000000	36.323108
1474.000000	1026.000000	36.415053
1475.000000	1025.000000	36.512972
1476.000000	1024.000000	36.596816
1477.000000	1023.000000	36.683495
1478.000000	1022.000000	36.762479
1479.000000	1021.000000	36.844703
1480.000000	1020.000000	36.927939
1481.000000	1019.000000	37.014112
1482.000000	1018.000000	37.085906
1483.000000	1017.000000	37.165498
1484.000000	1016.000000	37.257442
1485.000000	1015.000000	37.351413
1486.000000	1014.000000	37.432320
1487.000000	1013.000000	37.525075
1488.000000	1012.000000	37.621273
1489.000000	1011.000000	37.709775
1490.000000	1010.000000	37.810023
1491.000000	1009.000000	37.918271
1492.000000	1008.000000	38.035430
1493.000000	1007.000000	38.149045
1494.000000	1006.000000	38.273900
1495.000000	1005.000000	38.394907
1496.000000	1004.000000	38.508116
1497.000000	1003.000000	38.621022
1498.000000	1002.000000	38.756813
1499.000000	1001.000000	38.891288
1500.000000	1000.000000	39.018876
1501.000000	999.000000	39.152440
1502.000000	998.000000	39.303723
1503.000000	997.000000	39.445084
1504.000000	996.000000	39.583609
1505.000000	995.000000	39.744917
1506.000000	994.000000	39.900353
1507.000000	993.000000	40.060953
1508.000000	992.000000	40.232388
1509.000000	991.000000	40.398557
1510.000000	990.000000	40.575460
1511.000000	989.000000	40.752059
1512.000000	988.000000	40.936860
1513.000000	987.000000	41.125711
1514.000000	986.000000	41.305348
1515.000000	985.000000	41.470606
1516.000000	984.000000	41.636472
1517.000000	983.000000	41.825526
1518.000000	982.000000	42.015390
1519.000000	981.000000	42.165763
1520.000000	980.000000	42.355222
1521.000000	979.000000	42.532530
1522.000000	978.000000	42.692218
1523.000000	977.000000	42.849983
1524.000000	976.000000	43.010988
1525.000000	975.000000	43.168145
1526.000000	974.000000	43.320036
1527.000000	973.000000	43.470408
1528.000000	972.000000	43.646805
1529.000000	971.000000	43.802544
1530.000000	970.000000	43.971043
1531.000000	969.000000	44.124959
1532.000000	968.000000	44.298217
1533.000000	967.000000	44.467322
1534.000000	966.000000	44.656275
1535.000000	965.000000	44.833988
1536.000000	964.000000	45.030232
1537.000000	963.000000	45.240146
1538.000000	962.000000	45.430921
1539.000000	961.000000	45.638304
1540.000000	960.000000	45.831813
1541.000000	959.000000	46.014691
1542.000000	958.000000	46.224301
1543.000000	957.000000	46.409102
1544.000000	956.000000	46.577398
1545.000000	955.000000	46.767059
1546.000000	954.000000	46.945380
1547.000000	953.000000	47.111448
1548.000000	952.000000	47.291085
1549.000000	951.000000	47.464241
1550.000000	950.000000	47.635878
1551.000000	949.000000	47.775112
1552.000000	948.000000	47.912726
1553.000000	947.000000	48.089325
1554.000000	946.000000	48.239495
1555.000000	945.000000	48.390475
1556.000000	944.000000	48.533455
1557.000000	943.000000	48.700941
1558.000000	942.000000	48.866604
1559.000000	941.000000	49.023254
1560.000000	940.000000	49.193069
1561.000000	939.000000	49.320962
1562.000000	938.000000	49.485308
1563.000000	937.000000	49.661603
1564.000000	936.000000	49.804685
1565.000000	935.000000	49.972677
1566.000000	934.000000	50.087709
1567.000000	933.000000	50.214893
1568.000000	932.000000	50.383594
1569.000000	931.000000	50.511183
1570.000000	930.000000	50.695275
1571.000000	929.000000	50.807573
1572.000000	928.000000	50.936377
1573.000000	927.000000	51.065789
1574.000000	926.000000	51.184467
1575.000000	925.000000	51.360154
1576.000000	924.000000	51.493819
1577.000000	923.000000	51.623331
1578.000000	922.000000	51.782007
1579.000000	921.000000	51.933190
1580.000000	920.000000	52.066449
1581.000000	919.000000	52.203962
1582.000000	918.000000	52.298641
1583.000000	917.000000	52.430584
1584.000000	916.000000	52.594626
1585.000000	915.000000	52.707127
1586.000000	914.000000	52.820540
1587.000000	913.000000	52.928484
1588.000000	912.000000	53.020732
1589.000000	911.000000	53.140524
1590.000000	910.000000	53.257278
1591.000000	909.000000	53.339806
1592.000000	908.000000	53.459192
1593.000000	907.000000	53.555086
1594.000000	906.000000	53.689966
1595.000000	905.000000	53.781202
1596.000000	904.000000	53.864540
1597.000000	903.000000	53.939675
1598.000000	902.000000	54.031114
1599.000000	901.000000	54.129540
1600.000000	900.000000	54.254394
1601.000000	899.000000	54.332163
1602.000000	898.000000	54.437170
1603.000000	897.000000	54.549165
1604.000000	896.000000	54.651337
1605.000000	895.000000	54.737308
1606.000000	894.000000	54.860745
1607.000000	893.000000	54.992485
1608.000000	892.000000	55.105189
1609.000000	891.000000	55.219816
1610.000000	890.000000	55.338089
1611.000000	889.000000	55.492107
1612.000000	888.000000	55.622025
1613.000000	887.000000	55.798320
1614.000000	886.000000	55.973096
1615.000000	885.000000	56.132278
1616.000000	884.000000	56.335003
1617.000000	883.000000	56.526690
1618.000000	882.000000	56.745818
1619.000000	881.000000	56.937303
1620.000000	880.000000	57.190860
1621.000000	879.000000	57.413229
1622.000000	878.000000	57.658483
1623.000000	877.000000	57.926521
1624.000000	876.000000	58.176939
1625.000000	875.000000	58.460571
1626.000000	874.000000	58.728406
1627.000000	873.000000	59.031784
1628.000000	872.000000	59.314100
1629.000000	871.000000	59.636109
1630.000000	870.000000	59.964195
1631.000000	869.000000	60.270408
1632.000000	868.000000	60.586342
1633.000000	867.000000	60.912908
1634.000000	866.000000	61.224387
1635.000000	865.000000	61.494247
1636.000000	864.000000	61.754589
1637.000000	863.000000	61.963491
1638.000000	862.000000	62.191024
1639.000000	861.000000	62.355877
1640.000000	860.000000	62.563158
1641.000000	859.000000	62.773983
1642.000000	858.000000	63.099233
1643.000000	857.000000	62.866700
1644.000000	856.000000	62.806400
1645.000000	855.000000	63.624600
1646.000000	854.000000	63.700000
1647.000000	853.000000	63.941200
1648.000000	852.000000	64.204300
1649.000000	851.000000	64.788200
1650.000000	850.000000	65.286600
1651.000000	849.000000	65.272100
1652.000000	848.000000	65.460300
1653.000000	847.000000	66.077900
1654.000000	846.000000	66.032400
1655.000000	845.000000	66.152800
1656.000000	844.000000	66.418500
1657.000000	843.000000	66.547500
1658.000000	842.000000	66.786700
1659.000000	841.000000	67.162400
1660.000000	840.000000	67.286100
1661.000000	839.000000	67.597100
1662.000000	838.000000	67.640100
1663.000000	837.000000	67.987500
1664.000000	836.000000	68.015300
1665.000000	835.000000	68.154300
1666.000000	834.000000	68.307900
1667.000000	833.000000	68.322800
1668.000000	832.000000	68.435900
1669.000000	831.000000	68.632700
1670.000000	830.000000	68.638800
1671.000000	829.000000	68.923300
1672.000000	828.000000	69.195500
1673.000000	827.000000	69.330100
1674.000000	826.000000	69.150200
1675.000000	825.000000	69.247700
1676.000000	824.000000	69.500100
1677.000000	823.000000	69.500300
1678.000000	822.000000	69.611200
1679.000000	821.000000	69.691100
1680.000000	820.000000	69.884500
1681.000000	819.000000	69.917200
1682.000000	818.000000	70.067100
1683.000000	817.000000	70.029300
1684.000000	816.000000	70.081500
1685.000000	815.000000	70.013300
1686.000000	814.000000	70.122900
1687.000000	813.000000	70.252300
1688.000000	812.000000	70.407300
1689.000000	811.000000	70.430900
1690.000000	810.000000	70.389600
1691.000000	809.000000	70.568100
1692.000000	808.000000	70.594900
1693.000000	807.000000	70.519200
1694.000000	806.000000	70.640300
1695.000000	805.000000	70.690200
1696.000000	804.000000	70.704200
1697.000000	803.000000	70.786400
1698.000000	802.000000	70.671000
1699.000000	801.000000	70.627400
1700.000000	800.000000	70.601500
1701.000000	799.000000	70.527300
1702.000000	798.000000	70.711800
1703.000000	797.000000	70.767800
1704.000000	796.000000	70.731800
1705.000000	795.000000	70.706800
1706.000000	794.000000	70.679900
1707.000000	793.000000	70.736700
1708.000000	792.000000	70.828300
1709.000000	791.000000	70.747900
1710.000000	790.000000	70.720200
1711.000000	789.000000	70.748300
1712.000000	788.000000	70.844000
1713.000000	787.000000	70.887400
1714.000000	786.000000	70.841700
1715.000000	785.000000	70.829800
1716.000000	784.000000	70.911800
1717.000000	783.000000	71.017800
1718.000000	782.000000	70.917600
1719.000000	781.000000	70.925200
1720.000000	780.000000	70.991200
1721.000000	779.000000	70.952000
1722.000000	778.000000	71.012700
1723.000000	777.000000	71.118700
1724.000000	776.000000	71.058900
1725.000000	775.000000	70.935700
1726.000000	774.000000	70.867200
1727.000000	773.000000	70.898000
1728.000000	772.000000	70.897700
1729.000000	771.000000	70.936400
1730.000000	770.000000	70.929300
1731.000000	769.000000	70.897700
1732.000000	768.000000	70.849000
1733.000000	767.000000	70.741100
1734.000000	766.000000	70.657300
1735.000000	765.000000	70.566800
1736.000000	764.000000	70.519900
1737.000000	763.000000	70.427400
1738.000000	762.000000	70.346000
1739.000000	761.000000	70.281600
1740.000000	760.000000	70.090600
1741.000000	759.000000	69.918900
1742.000000	758.000000	69.852100
1743.000000	757.000000	69.733500
1744.000000	756.000000	69.542900
1745.000000	755.000000	69.397300
1746.000000	754.000000	69.280600
1747.000000	753.000000	69.114800
1748.000000	752.000000	68.893000
1749.000000	751.000000	68.677000
1750.000000	750.000000	68.493200
1751.000000	749.000000	68.247000
1752.000000	748.000000	68.043900
1753.000000	747.000000	67.881800
1754.000000	746.000000	67.633500
1755.000000	745.000000	67.322900
1756.000000	744.000000	67.062600
1757.000000	743.000000	66.858100
1758.000000	742.000000	66.571900
1759.000000	741.000000	66.244800
1760.000000	740.000000	65.932800
1761.000000	739.000000	65.627400
1762.000000	738.000000	65.331500
1763.000000	737.000000	65.000600
1764.000000	736.000000	64.642800
1765.000000	735.000000	64.251200
1766.000000	734.000000	63.896100
1767.000000	733.000000	63.574000
1768.000000	732.000000	63.171800
1769.000000	731.000000	62.774300
1770.000000	730.000000	62.362600
1771.000000	729.000000	61.986000
1772.000000	728.000000	61.627600
1773.000000	727.000000	61.230600
1774.000000	726.000000	60.810000
1775.000000	725.000000	60.388300
1776.000000	724.000000	59.999800
1777.000000	723.000000	59.568000
1778.000000	722.000000	59.163800
1779.000000	721.000000	58.779600
1780.000000	720.000000	58.398000
1781.000000	719.000000	58.052200
1782.000000	718.000000	57.668300
1783.000000	717.000000	57.304600
1784.000000	716.000000	56.932200
1785.000000	715.000000	56.603900
1786.000000	714.000000	56.220700
1787.000000	713.000000	55.871500
1788.000000	712.000000	55.579500
1789.000000	711.000000	55.254600
1790.000000	710.000000	54.930200
1791.000000	709.000000	54.542800
1792.000000	708.000000	54.259100
1793.000000	707.000000	53.925500
1794.000000	706.000000	53.557700
1795.000000	705.000000	53.247500
1796.000000	704.000000	52.956800
1797.000000	703.000000	52.579900
1798.000000	702.000000	52.238500
1799.000000	701.000000	51.893100
1800.000000	700.000000	51.573000
1801.000000	699.000000	51.210800
1802.000000	698.000000	50.806500
1803.000000	697.000000	50.446700
1804.000000	696.000000	50.162900
1805.000000	695.000000	49.830800
1806.000000	694.000000	49.502600
1807.000000	693.000000	49.211800
1808.000000	692.000000	48.884800
1809.000000	691.000000	48.609300
1810.000000	690.000000	48.395300
1811.000000	689.000000	48.140800
1812.000000	688.000000	47.923600
1813.000000	687.000000	47.744900
1814.000000	686.000000	47.565200
1815.000000	685.000000	47.435700
1816.000000	684.000000	47.337700
1817.000000	683.000000	47.260800
1818.000000	682.000000	47.153100
1819.000000	681.000000	47.060200
1820.000000	680.000000	47.010400
1821.000000	679.000000	46.978600
1822.000000	678.000000	46.913400
1823.000000	677.000000	46.845000
1824.000000	676.000000	46.835000
1825.000000	675.000000	46.755100
1826.000000	674.000000	46.701000
1827.000000	673.000000	46.665500
1828.000000	672.000000	46.577700
1829.000000	671.000000	46.460600
1830.000000	670.000000	46.335900
1831.000000	669.000000	46.221300
1832.000000	668.000000	46.026300
1833.000000	667.000000	45.926300
1834.000000	666.000000	45.738300
1835.000000	665.000000	45.557900
1836.000000	664.000000	45.377600
1837.000000	663.000000	45.169300
1838.000000	662.000000	44.972800
1839.000000	661.000000	44.746900
1840.000000	660.000000	44.559600
1841.000000	659.000000	44.366200
1842.000000	658.000000	44.145900
1843.000000	657.000000	43.976700
1844.000000	656.000000	43.819600
1845.000000	655.000000	43.658700
1846.000000	654.000000	43.501900
1847.000000	653.000000	43.422300
1848.000000	652.000000	43.280500
1849.000000	651.000000	43.229200
1850.000000	650.000000	43.166300
1851.000000	649.000000	43.154200
1852.000000	648.000000	43.189800
1853.000000	647.000000	43.250800
1854.000000	646.000000	43.382800
1855.000000	645.000000	43.555600
1856.000000	644.000000	43.750100
1857.000000	643.000000	44.016600
1858.000000	642.000000	44.305900
1859.000000	641.000000	44.689200
1860.000000	640.000000	45.055700
1861.000000	639.000000	45.513000
1862.000000	638.000000	45.936000
1863.000000	637.000000	46.423600
1864.000000	636.000000	46.919100
1865.000000	635.000000	47.472300
1866.000000	634.000000	48.013900
1867.000000	633.000000	48.617400
1868.000000	632.000000	49.182200
1869.000000	631.000000	49.706400
1870.000000	630.000000	50.242500
1871.000000	629.000000	50.738200
1872.000000	628.000000	51.207500
1873.000000	627.000000	51.652900
1874.000000	626.000000	52.054100
1875.000000	625.000000	52.396900
1876.000000	624.000000	52.760000
1877.000000	623.000000	53.073100
1878.000000	622.000000	53.362600
1879.000000	621.000000	53.646100
1880.000000	620.000000	53.862600
1881.000000	619.000000	54.057700
1882.000000	618.000000	54.245400
1883.000000	617.000000	54.401300
1884.000000	616.000000	54.599900
1885.000000	615.000000	54.722400
1886.000000	614.000000	54.871700
1887.000000	613.000000	55.017600
1888.000000	612.000000	55.113200
1889.000000	611.000000	55.274000
1890.000000	610.000000	55.405200
1891.000000	609.000000	55.561200
1892.000000	608.000000	55.701100
1893.000000	607.000000	55.782600
1894.000000	606.000000	55.910200
1895.000000	605.000000	56.016400
1896.000000	604.000000	56.117000
1897.000000	603.000000	56.194400
1898.000000	602.000000	56.264700
1899.000000	601.000000	56.284900
1900.000000	600.000000	56.369700
1901.000000	599.000000	56.365300
1902.000000	598.000000	56.416100
1903.000000	597.000000	56.426500
1904.000000	596.000000	56.432400
1905.000000	595.000000	56.376700
1906.000000	594.000000	56.359000
1907.000000	593.000000	56.254400
1908.000000	592.000000	56.170500
1909.000000	591.000000	56.042700
1910.000000	590.000000	55.891800
1911.000000	589.000000	55.749000
1912.000000	588.000000	55.600600
1913.000000	587.000000	55.468100
1914.000000	586.000000	55.285600
1915.000000	585.000000	55.133600
1916.000000	584.000000	54.918900
1917.000000	583.000000	54.784400
1918.000000	582.000000	54.551500
1919.000000	581.000000	54.394500
1920.000000	580.000000	54.146200
1921.000000	579.000000	53.963200
1922.000000	578.000000	53.723300
1923.000000	577.000000	53.523800
1924.000000	576.000000	53.289800
1925.000000	575.000000	53.068200
1926.000000	574.000000	52.837500
1927.000000	573.000000	52.586600
1928.000000	572.000000	52.321200
1929.000000	571.000000	52.070100
1930.000000	570.000000	51.753300
1931.000000	569.000000	51.430300
1932.000000	568.000000	51.106900
1933.000000	567.000000	50.761800
1934.000000	566.000000	50.365700
1935.000000	565.000000	49.969400
1936.000000	564.000000	49.582000
1937.000000	563.000000	49.132400
1938.000000	562.000000	48.686700
1939.000000	561.000000	48.186300
1940.000000	560.000000	47.683100
1941.000000	559.000000	47.209000
1942.000000	558.000000	46.687100
1943.000000	557.000000	46.130100
1944.000000	556.000000	45.576800
1945.000000	555.000000	44.965400
1946.000000	554.000000	44.401100
1947.000000	553.000000	43.801200
1948.000000	552.000000	43.191700
1949.000000	551.000000	42.524900
1950.000000	550.000000	41.856600
1951.000000	549.000000	41.214400
1952.000000	548.000000	40.559000
1953.000000	547.000000	39.876200
1954.000000	546.000000	39.219100
1955.000000	545.000000	38.533700
1956.000000	544.000000	37.853900
1957.000000	543.000000	37.137300
1958.000000	542.000000	36.437200
1959.000000	541.000000	35.767500
1960.000000	540.000000	35.127300
1961.000000	539.000000	34.490900
1962.000000	538.000000	33.874800
1963.000000	537.000000	33.297700
1964.000000	536.000000	32.735300
1965.000000	535.000000	32.207100
1966.000000	534.000000	31.701100
1967.000000	533.000000	31.228900
1968.000000	532.000000	30.780100
1969.000000	531.000000	30.370100
1970.000000	530.000000	29.982000
1971.000000	529.000000	29.598900
1972.000000	528.000000	29.245300
1973.000000	527.000000	28.910800
1974.000000	526.000000	28.586000
1975.000000	525.000000	28.260200
1976.000000	524.000000	27.935500
1977.000000	523.000000	27.618700
1978.000000	522.000000	27.314400
1979.000000	521.000000	27.000100
1980.000000	520.000000	26.684300
1981.000000	519.000000	26.385100
1982.000000	518.000000	26.067300
1983.000000	517.000000	25.732600
1984.000000	516.000000	25.397200
1985.000000	515.000000	25.050700
1986.000000	514.000000	24.711400
1987.000000	513.000000	24.349700
1988.000000	512.000000	23.994600
1989.000000	511.000000	23.634400
1990.000000	510.000000	23.271300
1991.000000	509.000000	22.910600
1992.000000	508.000000	22.570900
1993.000000	507.000000	22.232000
1994.000000	506.000000	21.899800
1995.000000	505.000000	21.560600
1996.000000	504.000000	21.242900
1997.000000	503.000000	20.967500
1998.000000	502.000000	20.704100
1999.000000	501.000000	20.427100
2000.000000	500.000000	20.193900
2001.000000	499.000000	19.968500
2002.000000	498.000000	19.783100
2003.000000	497.000000	19.623700
2004.000000	496.000000	19.463500
2005.000000	495.000000	19.344900
2006.000000	494.000000	19.247700
2007.000000	493.000000	19.154500
2008.000000	492.000000	19.083400
2009.000000	491.000000	19.047500
2010.000000	490.000000	19.028500
2011.000000	489.000000	19.020400
2012.000000	488.000000	19.024100
2013.000000	487.000000	19.041300
2014.000000	486.000000	19.070500
2015.000000	485.000000	19.104500
2016.000000	484.000000	19.160500
2017.000000	483.000000	19.212400
2018.000000	482.000000	19.276600
2019.000000	481.000000	19.338900
2020.000000	480.000000	19.390700
2021.000000	479.000000	19.447300
2022.000000	478.000000	19.488500
2023.000000	477.000000	19.523100
2024.000000	476.000000	19.558000
2025.000000	475.000000	19.610400
2026.000000	474.000000	19.650200
2027.000000	473.000000	19.669500
2028.000000	472.000000	19.690000
2029.000000	471.000000	19.713500
2030.000000	470.000000	19.724000
2031.000000	469.000000	19.724600
2032.000000	468.000000	19.720900
2033.000000	467.000000	19.706500
2034.000000	466.000000	19.669200
2035.000000	465.000000	19.652200
2036.000000	464.000000	19.621700
2037.000000	463.000000	19.556700
2038.000000	462.000000	19.493500
2039.000000	461.000000	19.429400
2040.000000	460.000000	19.360400
2041.000000	459.000000	19.279800
2042.000000	458.000000	19.187800
2043.000000	457.000000	19.097000
2044.000000	456.000000	19.001700
2045.000000	455.000000	18.883300
2046.000000	454.000000	18.749000
2047.000000	453.000000	18.611300
2048.000000	452.000000	18.454700
2049.000000	451.000000	18.323000
2050.000000	450.000000	18.171400
2051.000000	449.000000	17.977700
2052.000000	448.000000	17.797800
2053.000000	447.000000	17.632800
2054.000000	446.000000	17.421300
2055.000000	445.000000	17.211700
2056.000000	444.000000	16.997200
2057.000000	443.000000	16.761800
2058.000000	442.000000	16.530800
2059.000000	441.000000	16.272400
2060.000000	440.000000	16.004300
2061.000000	439.000000	15.738200
2062.000000	438.000000	15.468800
2063.000000	437.000000	15.189300
2064.000000	436.000000	14.910500
2065.000000	435.000000	14.633400
2066.000000	434.000000	14.327300
2067.000000	433.000000	14.027000
2068.000000	432.000000	13.732900
2069.000000	431.000000	13.412000
2070.000000	430.000000	13.092900
2071.000000	429.000000	12.791600
2072.000000	428.000000	12.492500
2073.000000	427.000000	12.182500
2074.000000	426.000000	11.866800
2075.000000	425.000000	11.564400
2076.000000	424.000000	11.268000
2077.000000	423.000000	10.975200
2078.000000	422.000000	10.692000
2079.000000	421.000000	10.394900
2080.000000	420.000000	10.116000
2081.000000	419.000000	9.864400
2082.000000	418.000000	9.605600
2083.000000	417.000000	9.344700
2084.000000	416.000000	9.100500
2085.000000	415.000000	8.868500
2086.000000	414.000000	8.651900
2087.000000	413.000000	8.442400
2088.000000	412.000000	8.252500
2089.000000	411.000000	8.057800
2090.000000	410.000000	7.864000
2091.000000	409.000000	7.700100
2092.000000	408.000000	7.553600
2093.000000	407.000000	7.402000
2094.000000	406.000000	7.262600
2095.000000	405.000000	7.127400
2096.000000	404.000000	7.001700
2097.000000	403.000000	6.884800
2098.000000	402.000000	6.759900
2099.000000	401.000000	6.659100
2100.000000	400.000000	6.566000
2101.000000	399.000000	6.490100
2102.000000	398.000000	6.404000
2103.000000	397.000000	6.326600
2104.000000	396.000000	6.259700
2105.000000	395.000000	6.196400
2106.000000	394.000000	6.137000
2107.000000	393.000000	6.081400
2108.000000	392.000000	6.040600
2109.000000	391.000000	5.988400
2110.000000	390.000000	5.931700
2111.000000	389.000000	5.887000
2112.000000	388.000000	5.850100
2113.000000	387.000000	5.814500
2114.000000	386.000000	5.781900
2115.000000	385.000000	5.757300
2116.000000	384.000000	5.737300
2117.000000	383.000000	5.711700
2118.000000	382.000000	5.672300
2119.000000	381.000000	5.641600
2120.000000	380.000000	5.617400
2121.000000	379.000000	5.605600
2122.000000	378.000000	5.579300
2123.000000	377.000000	5.565800
2124.000000	376.000000	5.737200
2125.000000	375.000000	5.623100
2126.000000	374.000000	5.460400
2127.000000	373.000000	5.466600
2128.000000	372.000000	5.559400
2129.000000	371.000000	5.621800
2130.000000	370.000000	5.594200
2131.000000	369.000000	5.489700
2132.000000	368.000000	5.479100
2133.000000	367.000000	5.504400
2134.000000	366.000000	5.554100
2135.000000	365.000000	5.526000
2136.000000	364.000000	5.521800
2137.000000	363.000000	5.584400
2138.000000	362.000000	5.491800
2139.000000	361.000000	5.469000
2140.000000	360.000000	5.488500
2141.000000	359.000000	5.466700
2142.000000	358.000000	5.428700
2143.000000	357.000000	5.522400
2144.000000	356.000000	5.585300
2145.000000	355.000000	5.541600
2146.000000	354.000000	5.458700
2147.000000	353.000000	5.433800
2148.000000	352.000000	5.362500
2149.000000	351.000000	5.436300
2150.000000	350.000000	5.412500
2151.000000	349.000000	5.383100
2152.000000	348.000000	5.423400
2153.000000	347.000000	5.347600
2154.000000	346.000000	5.460200
2155.000000	345.000000	5.411700
2156.000000	344.000000	5.456200
2157.000000	343.000000	5.481500
2158.000000	342.000000	5.344000
2159.000000	341.000000	5.405800
2160.000000	340.000000	5.436200
2161.000000	339.000000	5.500800
2162.000000	338.000000	5.392600
2163.000000	337.000000	5.357100
2164.000000	336.000000	5.463800
2165.000000	335.000000	5.464300
2166.000000	334.000000	5.452400
2167.000000	333.000000	5.445400
2168.000000	332.000000	5.483500
2169.000000	331.000000	5.442200
2170.000000	330.000000	5.334200
2171.000000	329.000000	5.178600
2172.000000	328.000000	5.315600
2173.000000	327.000000	5.694400
2174.000000	326.000000	5.556500
2175.000000	325.000000	5.796100
2176.000000	324.000000	5.593100
2177.000000	323.000000	5.470700
2178.000000	322.000000	5.625200
2179.000000	321.000000	5.444300
2180.000000	320.000000	5.412900
2181.000000	319.000000	5.845100
2182.000000	318.000000	5.585600
2183.000000	317.000000	5.509500
2184.000000	316.000000	5.292600
2185.000000	315.000000	5.234100
2186.000000	314.000000	5.248700
2187.000000	313.000000	5.268900
2188.000000	312.000000	5.314000
2189.000000	311.000000	5.315900
2190.000000	310.000000	5.315200
2191.000000	309.000000	5.305800
2192.000000	308.000000	5.222500
2193.000000	307.000000	5.231500
2194.000000	306.000000	5.253600
2195.000000	305.000000	5.306100
2196.000000	304.000000	5.292200
2197.000000	303.000000	5.251400
2198.000000	302.000000	5.322700
2199.000000	301.000000	5.350900
2200.000000	300.000000	5.316200
2201.000000	299.000000	5.284700
2202.000000	298.000000	5.310700
2203.000000	297.000000	5.282800
2204.000000	296.000000	5.293200
2205.000000	295.000000	5.366100
2206.000000	294.000000	5.334400
2207.000000	293.000000	5.344700
2208.000000	292.000000	5.306800
2209.000000	291.000000	5.338300
2210.000000	290.000000	5.334400
2211.000000	289.000000	5.397600
2212.000000	288.000000	5.334300
2213.000000	287.000000	5.378200
2214.000000	286.000000	5.339400
2215.000000	285.000000	5.359400
2216.000000	284.000000	5.380600
2217.000000	283.000000	5.353300
2218.000000	282.000000	5.410000
2219.000000	281.000000	5.390100
2220.000000	280.000000	5.417100
2221.000000	279.000000	5.454500
2222.000000	278.000000	5.409800
2223.000000	277.000000	5.453900
2224.000000	276.000000	5.461000
2225.000000	275.000000	5.479900
2226.000000	274.000000	5.515000
2227.000000	273.000000	5.477100
2228.000000	272.000000	5.511700
2229.000000	271.000000	5.504400
2230.000000	270.000000	5.598000
2231.000000	269.000000	5.558200
2232.000000	268.000000	5.628400
2233.000000	267.000000	5.595300
2234.000000	266.000000	5.687200
2235.000000	265.000000	5.711100
2236.000000	264.000000	5.675000
2237.000000	263.000000	5.748600
2238.000000	262.000000	5.749900
2239.000000	261.000000	5.761500
2240.000000	260.000000	5.821600
2241.000000	259.000000	5.840600
2242.000000	258.000000	5.871300
2243.000000	257.000000	5.899400
2244.000000	256.000000	5.878900
2245.000000	255.000000	5.886600
2246.000000	254.000000	5.901500
2247.000000	253.000000	5.929200
2248.000000	252.000000	5.949800
2249.000000	251.000000	5.997100
2250.000000	250.000000	6.017900
