PE UV       SUBTECH     SPECTRUM    ASCII       PEDS        4.00        
   -1
CICIMAUCR0108-3.Sample.ASC
24/04/04
14:31:49.00
24/04/04
14:31:49.00
Vinicio Soto Monge
C. resplendens
250,000000
1
Lambda 1050
1050L1511233
PerkinElmer UV WinLab 6.3.2.0749 / 2.02.05 Lambda 900 UV/VIS/NIR, Aug  7 2015 09:38:08

0
0
3350/servo 860,8/2
0
0
UV/VIS
1
1
1
DoubleDePol,CommonBeamDepol,RBeamAtt,SBeamAtt,60mm sphere, WB InGaAs Detector
0
0
0
0
Program
Program
3350/servo 860,8/2
3350/0,2 860,8/0,2
3350/0,2 860,8/0,2
0
15.00
 
 
 
0
 
860,8
319,2
860,8
Front
100
on
S:100 R:100
0
0
0
0
 
0
 
 
 
0
 
 
0
0
0
0
0
 
 
 
 
0
0


0
0
#HDR
-1
-1
#GR
nm
%R
1.0
0.0
2500,000000
-1,000000
2251
8
68,128600
5,096800
#DATA
250.000000	2250.000000	5.996633
251.000000	2249.000000	5.976167
252.000000	2248.000000	5.999233
253.000000	2247.000000	5.960167
254.000000	2246.000000	5.964567
255.000000	2245.000000	5.984467
256.000000	2244.000000	5.941133
257.000000	2243.000000	5.944300
258.000000	2242.000000	5.936633
259.000000	2241.000000	5.907200
260.000000	2240.000000	5.892333
261.000000	2239.000000	5.848567
262.000000	2238.000000	5.827500
263.000000	2237.000000	5.803067
264.000000	2236.000000	5.782133
265.000000	2235.000000	5.763300
266.000000	2234.000000	5.746033
267.000000	2233.000000	5.733167
268.000000	2232.000000	5.695600
269.000000	2231.000000	5.682467
270.000000	2230.000000	5.644033
271.000000	2229.000000	5.644933
272.000000	2228.000000	5.614833
273.000000	2227.000000	5.628033
274.000000	2226.000000	5.593167
275.000000	2225.000000	5.581833
276.000000	2224.000000	5.586267
277.000000	2223.000000	5.588700
278.000000	2222.000000	5.575433
279.000000	2221.000000	5.555267
280.000000	2220.000000	5.524033
281.000000	2219.000000	5.532033
282.000000	2218.000000	5.527833
283.000000	2217.000000	5.506700
284.000000	2216.000000	5.481700
285.000000	2215.000000	5.484900
286.000000	2214.000000	5.489200
287.000000	2213.000000	5.509367
288.000000	2212.000000	5.482633
289.000000	2211.000000	5.452433
290.000000	2210.000000	5.468067
291.000000	2209.000000	5.445267
292.000000	2208.000000	5.467167
293.000000	2207.000000	5.432533
294.000000	2206.000000	5.448467
295.000000	2205.000000	5.432667
296.000000	2204.000000	5.434767
297.000000	2203.000000	5.420233
298.000000	2202.000000	5.431767
299.000000	2201.000000	5.407033
300.000000	2200.000000	5.403467
301.000000	2199.000000	5.423333
302.000000	2198.000000	5.383600
303.000000	2197.000000	5.389467
304.000000	2196.000000	5.418800
305.000000	2195.000000	5.365367
306.000000	2194.000000	5.400133
307.000000	2193.000000	5.388367
308.000000	2192.000000	5.342300
309.000000	2191.000000	5.350733
310.000000	2190.000000	5.358600
311.000000	2189.000000	5.347233
312.000000	2188.000000	5.313833
313.000000	2187.000000	5.335500
314.000000	2186.000000	5.330767
315.000000	2185.000000	5.347967
316.000000	2184.000000	5.353200
317.000000	2183.000000	5.620900
318.000000	2182.000000	5.678800
319.000000	2181.000000	5.606833
320.000000	2180.000000	5.446700
321.000000	2179.000000	5.481500
322.000000	2178.000000	5.530633
323.000000	2177.000000	5.538600
324.000000	2176.000000	5.392400
325.000000	2175.000000	5.349133
326.000000	2174.000000	5.367767
327.000000	2173.000000	5.306200
328.000000	2172.000000	5.390800
329.000000	2171.000000	5.424133
330.000000	2170.000000	5.429500
331.000000	2169.000000	5.355733
332.000000	2168.000000	5.339600
333.000000	2167.000000	5.354200
334.000000	2166.000000	5.330533
335.000000	2165.000000	5.395100
336.000000	2164.000000	5.426633
337.000000	2163.000000	5.327767
338.000000	2162.000000	5.393467
339.000000	2161.000000	5.364533
340.000000	2160.000000	5.358667
341.000000	2159.000000	5.404333
342.000000	2158.000000	5.370967
343.000000	2157.000000	5.382267
344.000000	2156.000000	5.429800
345.000000	2155.000000	5.400833
346.000000	2154.000000	5.415900
347.000000	2153.000000	5.424500
348.000000	2152.000000	5.419667
349.000000	2151.000000	5.434600
350.000000	2150.000000	5.523400
351.000000	2149.000000	5.448867
352.000000	2148.000000	5.411867
353.000000	2147.000000	5.477300
354.000000	2146.000000	5.483633
355.000000	2145.000000	5.481600
356.000000	2144.000000	5.523067
357.000000	2143.000000	5.588733
358.000000	2142.000000	5.676200
359.000000	2141.000000	5.645933
360.000000	2140.000000	5.662967
361.000000	2139.000000	5.688167
362.000000	2138.000000	5.674167
363.000000	2137.000000	5.699900
364.000000	2136.000000	5.673167
365.000000	2135.000000	5.697600
366.000000	2134.000000	5.759267
367.000000	2133.000000	5.780967
368.000000	2132.000000	5.780200
369.000000	2131.000000	5.780967
370.000000	2130.000000	5.776200
371.000000	2129.000000	5.782167
372.000000	2128.000000	5.800167
373.000000	2127.000000	5.820467
374.000000	2126.000000	5.808400
375.000000	2125.000000	5.921867
376.000000	2124.000000	5.930167
377.000000	2123.000000	5.888767
378.000000	2122.000000	5.916333
379.000000	2121.000000	5.949200
380.000000	2120.000000	5.978667
381.000000	2119.000000	5.988633
382.000000	2118.000000	6.007600
383.000000	2117.000000	6.053667
384.000000	2116.000000	6.086300
385.000000	2115.000000	6.123667
386.000000	2114.000000	6.164867
387.000000	2113.000000	6.190300
388.000000	2112.000000	6.228833
389.000000	2111.000000	6.270833
390.000000	2110.000000	6.308700
391.000000	2109.000000	6.350100
392.000000	2108.000000	6.393467
393.000000	2107.000000	6.433933
394.000000	2106.000000	6.484900
395.000000	2105.000000	6.535300
396.000000	2104.000000	6.590867
397.000000	2103.000000	6.659833
398.000000	2102.000000	6.731033
399.000000	2101.000000	6.796933
400.000000	2100.000000	6.869167
401.000000	2099.000000	6.953567
402.000000	2098.000000	7.041133
403.000000	2097.000000	7.135000
404.000000	2096.000000	7.243767
405.000000	2095.000000	7.356500
406.000000	2094.000000	7.468000
407.000000	2093.000000	7.602000
408.000000	2092.000000	7.747167
409.000000	2091.000000	7.905367
410.000000	2090.000000	8.074800
411.000000	2089.000000	8.262000
412.000000	2088.000000	8.450900
413.000000	2087.000000	8.663467
414.000000	2086.000000	8.894333
415.000000	2085.000000	9.129033
416.000000	2084.000000	9.377433
417.000000	2083.000000	9.643067
418.000000	2082.000000	9.927800
419.000000	2081.000000	10.225167
420.000000	2080.000000	10.540667
421.000000	2079.000000	10.867100
422.000000	2078.000000	11.194600
423.000000	2077.000000	11.534533
424.000000	2076.000000	11.893933
425.000000	2075.000000	12.270333
426.000000	2074.000000	12.639567
427.000000	2073.000000	13.004933
428.000000	2072.000000	13.378233
429.000000	2071.000000	13.766133
430.000000	2070.000000	14.148400
431.000000	2069.000000	14.522633
432.000000	2068.000000	14.902800
433.000000	2067.000000	15.280600
434.000000	2066.000000	15.649367
435.000000	2065.000000	16.011833
436.000000	2064.000000	16.363400
437.000000	2063.000000	16.705600
438.000000	2062.000000	17.032033
439.000000	2061.000000	17.348200
440.000000	2060.000000	17.663433
441.000000	2059.000000	17.961133
442.000000	2058.000000	18.256167
443.000000	2057.000000	18.539633
444.000000	2056.000000	18.809100
445.000000	2055.000000	19.058667
446.000000	2054.000000	19.287467
447.000000	2053.000000	19.519033
448.000000	2052.000000	19.729433
449.000000	2051.000000	19.917467
450.000000	2050.000000	20.111900
451.000000	2049.000000	20.297433
452.000000	2048.000000	20.465367
453.000000	2047.000000	20.624067
454.000000	2046.000000	20.771900
455.000000	2045.000000	20.913400
456.000000	2044.000000	21.037733
457.000000	2043.000000	21.154233
458.000000	2042.000000	21.258600
459.000000	2041.000000	21.342467
460.000000	2040.000000	21.425600
461.000000	2039.000000	21.506133
462.000000	2038.000000	21.570200
463.000000	2037.000000	21.627100
464.000000	2036.000000	21.675567
465.000000	2035.000000	21.711033
466.000000	2034.000000	21.742167
467.000000	2033.000000	21.771733
468.000000	2032.000000	21.784967
469.000000	2031.000000	21.791700
470.000000	2030.000000	21.805967
471.000000	2029.000000	21.808867
472.000000	2028.000000	21.799267
473.000000	2027.000000	21.787300
474.000000	2026.000000	21.777900
475.000000	2025.000000	21.767200
476.000000	2024.000000	21.751433
477.000000	2023.000000	21.736100
478.000000	2022.000000	21.727767
479.000000	2021.000000	21.709767
480.000000	2020.000000	21.699900
481.000000	2019.000000	21.680400
482.000000	2018.000000	21.663833
483.000000	2017.000000	21.636267
484.000000	2016.000000	21.622133
485.000000	2015.000000	21.623900
486.000000	2014.000000	21.635333
487.000000	2013.000000	21.664633
488.000000	2012.000000	21.701133
489.000000	2011.000000	21.767067
490.000000	2010.000000	21.844233
491.000000	2009.000000	21.950767
492.000000	2008.000000	22.081767
493.000000	2007.000000	22.223567
494.000000	2006.000000	22.386933
495.000000	2005.000000	22.574400
496.000000	2004.000000	22.777200
497.000000	2003.000000	23.007333
498.000000	2002.000000	23.256933
499.000000	2001.000000	23.524167
500.000000	2000.000000	23.811067
501.000000	1999.000000	24.107500
502.000000	1998.000000	24.421700
503.000000	1997.000000	24.743467
504.000000	1996.000000	25.069967
505.000000	1995.000000	25.401200
506.000000	1994.000000	25.749067
507.000000	1993.000000	26.089833
508.000000	1992.000000	26.431300
509.000000	1991.000000	26.784067
510.000000	1990.000000	27.142533
511.000000	1989.000000	27.514233
512.000000	1988.000000	27.891000
513.000000	1987.000000	28.295767
514.000000	1986.000000	28.725400
515.000000	1985.000000	29.172433
516.000000	1984.000000	29.661200
517.000000	1983.000000	30.174100
518.000000	1982.000000	30.742900
519.000000	1981.000000	31.374167
520.000000	1980.000000	32.059733
521.000000	1979.000000	32.794467
522.000000	1978.000000	33.598233
523.000000	1977.000000	34.451033
524.000000	1976.000000	35.349567
525.000000	1975.000000	36.293567
526.000000	1974.000000	37.261667
527.000000	1973.000000	38.279200
528.000000	1972.000000	39.313000
529.000000	1971.000000	40.384533
530.000000	1970.000000	41.494533
531.000000	1969.000000	42.594000
532.000000	1968.000000	43.724933
533.000000	1967.000000	44.870367
534.000000	1966.000000	46.014800
535.000000	1965.000000	47.139133
536.000000	1964.000000	48.222100
537.000000	1963.000000	49.300100
538.000000	1962.000000	50.338867
539.000000	1961.000000	51.335467
540.000000	1960.000000	52.316900
541.000000	1959.000000	53.241667
542.000000	1958.000000	54.119000
543.000000	1957.000000	54.944767
544.000000	1956.000000	55.702933
545.000000	1955.000000	56.425700
546.000000	1954.000000	57.082533
547.000000	1953.000000	57.693267
548.000000	1952.000000	58.291333
549.000000	1951.000000	58.834467
550.000000	1950.000000	59.338967
551.000000	1949.000000	59.831267
552.000000	1948.000000	60.275233
553.000000	1947.000000	60.709567
554.000000	1946.000000	61.093400
555.000000	1945.000000	61.471833
556.000000	1944.000000	61.816933
557.000000	1943.000000	62.161900
558.000000	1942.000000	62.478200
559.000000	1941.000000	62.745700
560.000000	1940.000000	63.128133
561.000000	1939.000000	63.401467
562.000000	1938.000000	63.654467
563.000000	1937.000000	63.876167
564.000000	1936.000000	64.085200
565.000000	1935.000000	64.287133
566.000000	1934.000000	64.450167
567.000000	1933.000000	64.638033
568.000000	1932.000000	64.824533
569.000000	1931.000000	64.984600
570.000000	1930.000000	65.147633
571.000000	1929.000000	65.268400
572.000000	1928.000000	65.425667
573.000000	1927.000000	65.586900
574.000000	1926.000000	65.706567
575.000000	1925.000000	65.811767
576.000000	1924.000000	65.948067
577.000000	1923.000000	66.034200
578.000000	1922.000000	66.131567
579.000000	1921.000000	66.218200
580.000000	1920.000000	66.280967
581.000000	1919.000000	66.328400
582.000000	1918.000000	66.382267
583.000000	1917.000000	66.430467
584.000000	1916.000000	66.460767
585.000000	1915.000000	66.449533
586.000000	1914.000000	66.462000
587.000000	1913.000000	66.460667
588.000000	1912.000000	66.452500
589.000000	1911.000000	66.422833
590.000000	1910.000000	66.413633
591.000000	1909.000000	66.361500
592.000000	1908.000000	66.283967
593.000000	1907.000000	66.236600
594.000000	1906.000000	66.182000
595.000000	1905.000000	66.102200
596.000000	1904.000000	65.997900
597.000000	1903.000000	65.925900
598.000000	1902.000000	65.817033
599.000000	1901.000000	65.702667
600.000000	1900.000000	65.554233
601.000000	1899.000000	65.413567
602.000000	1898.000000	65.227433
603.000000	1897.000000	65.054633
604.000000	1896.000000	64.856300
605.000000	1895.000000	64.619267
606.000000	1894.000000	64.381267
607.000000	1893.000000	64.138767
608.000000	1892.000000	63.841533
609.000000	1891.000000	63.560000
610.000000	1890.000000	63.210800
611.000000	1889.000000	62.831867
612.000000	1888.000000	62.460533
613.000000	1887.000000	62.055900
614.000000	1886.000000	61.570867
615.000000	1885.000000	61.077600
616.000000	1884.000000	60.571700
617.000000	1883.000000	60.011367
618.000000	1882.000000	59.429033
619.000000	1881.000000	58.799600
620.000000	1880.000000	58.136233
621.000000	1879.000000	57.441667
622.000000	1878.000000	56.705767
623.000000	1877.000000	55.951067
624.000000	1876.000000	55.174633
625.000000	1875.000000	54.370933
626.000000	1874.000000	53.594300
627.000000	1873.000000	52.743900
628.000000	1872.000000	51.945700
629.000000	1871.000000	51.104800
630.000000	1870.000000	50.209600
631.000000	1869.000000	49.308300
632.000000	1868.000000	48.404433
633.000000	1867.000000	47.483767
634.000000	1866.000000	46.507100
635.000000	1865.000000	45.589600
636.000000	1864.000000	44.635567
637.000000	1863.000000	43.682733
638.000000	1862.000000	42.763100
639.000000	1861.000000	41.882000
640.000000	1860.000000	41.034667
641.000000	1859.000000	40.237267
642.000000	1858.000000	39.548400
643.000000	1857.000000	38.944867
644.000000	1856.000000	38.434133
645.000000	1855.000000	38.060467
646.000000	1854.000000	37.809300
647.000000	1853.000000	37.655133
648.000000	1852.000000	37.639633
649.000000	1851.000000	37.721933
650.000000	1850.000000	37.897433
651.000000	1849.000000	38.163900
652.000000	1848.000000	38.506533
653.000000	1847.000000	38.910367
654.000000	1846.000000	39.351633
655.000000	1845.000000	39.839767
656.000000	1844.000000	40.339633
657.000000	1843.000000	40.887933
658.000000	1842.000000	41.458400
659.000000	1841.000000	42.031900
660.000000	1840.000000	42.642867
661.000000	1839.000000	43.218067
662.000000	1838.000000	43.823533
663.000000	1837.000000	44.459633
664.000000	1836.000000	45.062033
665.000000	1835.000000	45.656500
666.000000	1834.000000	46.238667
667.000000	1833.000000	46.799933
668.000000	1832.000000	47.378000
669.000000	1831.000000	47.903800
670.000000	1830.000000	48.408700
671.000000	1829.000000	48.894800
672.000000	1828.000000	49.364800
673.000000	1827.000000	49.750600
674.000000	1826.000000	50.104700
675.000000	1825.000000	50.418467
676.000000	1824.000000	50.681867
677.000000	1823.000000	50.916333
678.000000	1822.000000	51.121800
679.000000	1821.000000	51.269033
680.000000	1820.000000	51.409533
681.000000	1819.000000	51.501467
682.000000	1818.000000	51.587100
683.000000	1817.000000	51.617367
684.000000	1816.000000	51.652633
685.000000	1815.000000	51.678567
686.000000	1814.000000	51.677267
687.000000	1813.000000	51.668933
688.000000	1812.000000	51.681167
689.000000	1811.000000	51.646900
690.000000	1810.000000	51.611267
691.000000	1809.000000	51.577200
692.000000	1808.000000	51.539100
693.000000	1807.000000	51.485333
694.000000	1806.000000	51.414200
695.000000	1805.000000	51.352933
696.000000	1804.000000	51.277533
697.000000	1803.000000	51.169633
698.000000	1802.000000	51.052633
699.000000	1801.000000	50.937133
700.000000	1800.000000	50.841333
701.000000	1799.000000	50.736867
702.000000	1798.000000	50.622100
703.000000	1797.000000	50.539933
704.000000	1796.000000	50.442867
705.000000	1795.000000	50.320567
706.000000	1794.000000	50.274267
707.000000	1793.000000	50.220867
708.000000	1792.000000	50.211567
709.000000	1791.000000	50.208633
710.000000	1790.000000	50.205700
711.000000	1789.000000	50.271567
712.000000	1788.000000	50.372300
713.000000	1787.000000	50.469600
714.000000	1786.000000	50.592600
715.000000	1785.000000	50.733833
716.000000	1784.000000	50.896367
717.000000	1783.000000	51.097700
718.000000	1782.000000	51.320100
719.000000	1781.000000	51.540500
720.000000	1780.000000	51.791967
721.000000	1779.000000	52.069100
722.000000	1778.000000	52.355500
723.000000	1777.000000	52.647767
724.000000	1776.000000	52.944700
725.000000	1775.000000	53.296567
726.000000	1774.000000	53.651033
727.000000	1773.000000	53.977867
728.000000	1772.000000	54.313400
729.000000	1771.000000	54.658100
730.000000	1770.000000	55.018667
731.000000	1769.000000	55.383633
732.000000	1768.000000	55.756167
733.000000	1767.000000	56.115333
734.000000	1766.000000	56.434067
735.000000	1765.000000	56.771100
736.000000	1764.000000	57.090567
737.000000	1763.000000	57.357433
738.000000	1762.000000	57.642233
739.000000	1761.000000	57.901500
740.000000	1760.000000	58.187500
741.000000	1759.000000	58.459467
742.000000	1758.000000	58.622000
743.000000	1757.000000	58.823000
744.000000	1756.000000	59.067467
745.000000	1755.000000	59.245133
746.000000	1754.000000	59.419633
747.000000	1753.000000	59.566100
748.000000	1752.000000	59.663267
749.000000	1751.000000	59.781833
750.000000	1750.000000	59.893333
751.000000	1749.000000	60.026733
752.000000	1748.000000	60.153000
753.000000	1747.000000	60.245567
754.000000	1746.000000	60.339633
755.000000	1745.000000	60.441333
756.000000	1744.000000	60.525633
757.000000	1743.000000	60.615333
758.000000	1742.000000	60.767233
759.000000	1741.000000	60.858467
760.000000	1740.000000	60.910367
761.000000	1739.000000	60.981500
762.000000	1738.000000	61.068100
763.000000	1737.000000	61.142567
764.000000	1736.000000	61.221500
765.000000	1735.000000	61.308100
766.000000	1734.000000	61.362267
767.000000	1733.000000	61.426933
768.000000	1732.000000	61.482300
769.000000	1731.000000	61.555700
770.000000	1730.000000	61.604433
771.000000	1729.000000	61.662067
772.000000	1728.000000	61.735133
773.000000	1727.000000	61.805833
774.000000	1726.000000	61.889200
775.000000	1725.000000	61.908933
776.000000	1724.000000	61.942767
777.000000	1723.000000	61.953100
778.000000	1722.000000	61.998267
779.000000	1721.000000	62.068800
780.000000	1720.000000	62.134133
781.000000	1719.000000	62.212733
782.000000	1718.000000	62.222367
783.000000	1717.000000	62.223433
784.000000	1716.000000	62.233600
785.000000	1715.000000	62.248300
786.000000	1714.000000	62.287233
787.000000	1713.000000	62.303267
788.000000	1712.000000	62.274200
789.000000	1711.000000	62.308100
790.000000	1710.000000	62.371133
791.000000	1709.000000	62.397100
792.000000	1708.000000	62.365900
793.000000	1707.000000	62.401800
794.000000	1706.000000	62.441433
795.000000	1705.000000	62.468300
796.000000	1704.000000	62.601400
797.000000	1703.000000	62.669067
798.000000	1702.000000	62.743467
799.000000	1701.000000	62.844467
800.000000	1700.000000	62.920333
801.000000	1699.000000	63.040033
802.000000	1698.000000	63.070667
803.000000	1697.000000	63.122367
804.000000	1696.000000	63.289033
805.000000	1695.000000	63.446567
806.000000	1694.000000	63.588133
807.000000	1693.000000	63.779433
808.000000	1692.000000	63.940767
809.000000	1691.000000	63.991467
810.000000	1690.000000	64.114200
811.000000	1689.000000	64.239800
812.000000	1688.000000	64.352667
813.000000	1687.000000	64.557633
814.000000	1686.000000	64.675600
815.000000	1685.000000	64.802000
816.000000	1684.000000	64.913300
817.000000	1683.000000	64.970333
818.000000	1682.000000	65.109967
819.000000	1681.000000	65.113800
820.000000	1680.000000	65.138200
821.000000	1679.000000	65.254133
822.000000	1678.000000	65.305100
823.000000	1677.000000	65.170600
824.000000	1676.000000	65.209667
825.000000	1675.000000	65.171067
826.000000	1674.000000	65.071033
827.000000	1673.000000	65.077067
828.000000	1672.000000	65.108867
829.000000	1671.000000	64.955500
830.000000	1670.000000	64.857300
831.000000	1669.000000	64.809700
832.000000	1668.000000	64.699967
833.000000	1667.000000	64.566333
834.000000	1666.000000	64.443233
835.000000	1665.000000	64.307200
836.000000	1664.000000	64.150100
837.000000	1663.000000	63.967033
838.000000	1662.000000	63.990500
839.000000	1661.000000	63.863800
840.000000	1660.000000	63.665700
841.000000	1659.000000	63.475167
842.000000	1658.000000	63.513333
843.000000	1657.000000	63.321267
844.000000	1656.000000	62.979267
845.000000	1655.000000	62.934900
846.000000	1654.000000	62.804667
847.000000	1653.000000	62.896367
848.000000	1652.000000	62.691833
849.000000	1651.000000	62.494367
850.000000	1650.000000	62.424400
851.000000	1649.000000	62.259500
852.000000	1648.000000	62.164633
853.000000	1647.000000	62.034167
854.000000	1646.000000	61.706900
855.000000	1645.000000	61.538000
856.000000	1644.000000	61.735633
857.000000	1643.000000	61.790200
858.000000	1642.000000	61.687944
859.000000	1641.000000	61.632013
860.000000	1640.000000	61.559177
861.000000	1639.000000	61.504595
862.000000	1638.000000	61.429280
863.000000	1637.000000	61.331450
864.000000	1636.000000	61.221648
865.000000	1635.000000	61.104971
866.000000	1634.000000	60.967605
867.000000	1633.000000	60.835328
868.000000	1632.000000	60.709629
869.000000	1631.000000	60.564910
870.000000	1630.000000	60.413144
871.000000	1629.000000	60.265683
872.000000	1628.000000	60.113072
873.000000	1627.000000	59.963654
874.000000	1626.000000	59.819119
875.000000	1625.000000	59.656839
876.000000	1624.000000	59.508101
877.000000	1623.000000	59.358558
878.000000	1622.000000	59.219074
879.000000	1621.000000	59.072868
880.000000	1620.000000	58.935080
881.000000	1619.000000	58.782291
882.000000	1618.000000	58.638837
883.000000	1617.000000	58.499643
884.000000	1616.000000	58.357926
885.000000	1615.000000	58.212254
886.000000	1614.000000	58.049999
887.000000	1613.000000	57.909533
888.000000	1612.000000	57.762870
889.000000	1611.000000	57.606815
890.000000	1610.000000	57.439726
891.000000	1609.000000	57.270574
892.000000	1608.000000	57.097128
893.000000	1607.000000	56.925005
894.000000	1606.000000	56.735651
895.000000	1605.000000	56.547666
896.000000	1604.000000	56.332953
897.000000	1603.000000	56.143352
898.000000	1602.000000	55.932642
899.000000	1601.000000	55.703482
900.000000	1600.000000	55.488943
901.000000	1599.000000	55.262396
902.000000	1598.000000	55.046998
903.000000	1597.000000	54.824098
904.000000	1596.000000	54.606128
905.000000	1595.000000	54.377357
906.000000	1594.000000	54.183210
907.000000	1593.000000	53.969293
908.000000	1592.000000	53.764817
909.000000	1591.000000	53.571334
910.000000	1590.000000	53.373530
911.000000	1589.000000	53.191364
912.000000	1588.000000	53.004113
913.000000	1587.000000	52.831303
914.000000	1586.000000	52.658450
915.000000	1585.000000	52.475361
916.000000	1584.000000	52.302224
917.000000	1583.000000	52.139283
918.000000	1582.000000	51.970830
919.000000	1581.000000	51.802130
920.000000	1580.000000	51.639103
921.000000	1579.000000	51.480273
922.000000	1578.000000	51.320554
923.000000	1577.000000	51.174409
924.000000	1576.000000	51.023845
925.000000	1575.000000	50.884886
926.000000	1574.000000	50.748150
927.000000	1573.000000	50.620332
928.000000	1572.000000	50.497580
929.000000	1571.000000	50.384500
930.000000	1570.000000	50.268475
931.000000	1569.000000	50.142706
932.000000	1568.000000	50.023140
933.000000	1567.000000	49.907817
934.000000	1566.000000	49.794609
935.000000	1565.000000	49.669107
936.000000	1564.000000	49.561607
937.000000	1563.000000	49.447978
938.000000	1562.000000	49.312797
939.000000	1561.000000	49.193883
940.000000	1560.000000	49.071119
941.000000	1559.000000	48.952470
942.000000	1558.000000	48.835972
943.000000	1557.000000	48.724453
944.000000	1556.000000	48.611683
945.000000	1555.000000	48.518923
946.000000	1554.000000	48.424672
947.000000	1553.000000	48.309905
948.000000	1552.000000	48.202964
949.000000	1551.000000	48.094898
950.000000	1550.000000	47.982676
951.000000	1549.000000	47.871922
952.000000	1548.000000	47.753607
953.000000	1547.000000	47.619605
954.000000	1546.000000	47.495476
955.000000	1545.000000	47.352202
956.000000	1544.000000	47.203090
957.000000	1543.000000	47.053228
958.000000	1542.000000	46.887079
959.000000	1541.000000	46.725634
960.000000	1540.000000	46.560430
961.000000	1539.000000	46.394747
962.000000	1538.000000	46.244813
963.000000	1537.000000	46.086622
964.000000	1536.000000	45.923825
965.000000	1535.000000	45.779549
966.000000	1534.000000	45.644007
967.000000	1533.000000	45.505907
968.000000	1532.000000	45.368941
969.000000	1531.000000	45.228619
970.000000	1530.000000	45.099087
971.000000	1529.000000	44.961228
972.000000	1528.000000	44.832670
973.000000	1527.000000	44.709609
974.000000	1526.000000	44.579648
975.000000	1525.000000	44.452884
976.000000	1524.000000	44.331503
977.000000	1523.000000	44.210146
978.000000	1522.000000	44.081873
979.000000	1521.000000	43.967986
980.000000	1520.000000	43.847053
981.000000	1519.000000	43.720540
982.000000	1518.000000	43.610269
983.000000	1517.000000	43.491793
984.000000	1516.000000	43.377747
985.000000	1515.000000	43.270349
986.000000	1514.000000	43.176423
987.000000	1513.000000	43.073940
988.000000	1512.000000	42.980446
989.000000	1511.000000	42.895255
990.000000	1510.000000	42.816845
991.000000	1509.000000	42.740721
992.000000	1508.000000	42.665459
993.000000	1507.000000	42.591031
994.000000	1506.000000	42.521927
995.000000	1505.000000	42.452991
996.000000	1504.000000	42.384306
997.000000	1503.000000	42.315923
998.000000	1502.000000	42.245662
999.000000	1501.000000	42.185654
1000.000000	1500.000000	42.129097
1001.000000	1499.000000	42.072617
1002.000000	1498.000000	42.014794
1003.000000	1497.000000	41.952980
1004.000000	1496.000000	41.889779
1005.000000	1495.000000	41.834994
1006.000000	1494.000000	41.774851
1007.000000	1493.000000	41.709506
1008.000000	1492.000000	41.650734
1009.000000	1491.000000	41.593972
1010.000000	1490.000000	41.537164
1011.000000	1489.000000	41.485874
1012.000000	1488.000000	41.443087
1013.000000	1487.000000	41.410745
1014.000000	1486.000000	41.379917
1015.000000	1485.000000	41.357031
1016.000000	1484.000000	41.343436
1017.000000	1483.000000	41.338291
1018.000000	1482.000000	41.338473
1019.000000	1481.000000	41.341997
1020.000000	1480.000000	41.343045
1021.000000	1479.000000	41.343108
1022.000000	1478.000000	41.346898
1023.000000	1477.000000	41.349566
1024.000000	1476.000000	41.359786
1025.000000	1475.000000	41.367719
1026.000000	1474.000000	41.366358
1027.000000	1473.000000	41.368182
1028.000000	1472.000000	41.367211
1029.000000	1471.000000	41.369349
1030.000000	1470.000000	41.367725
1031.000000	1469.000000	41.362445
1032.000000	1468.000000	41.362034
1033.000000	1467.000000	41.360928
1034.000000	1466.000000	41.360361
1035.000000	1465.000000	41.360085
1036.000000	1464.000000	41.364372
1037.000000	1463.000000	41.369331
1038.000000	1462.000000	41.375740
1039.000000	1461.000000	41.372824
1040.000000	1460.000000	41.361375
1041.000000	1459.000000	41.357098
1042.000000	1458.000000	41.359898
1043.000000	1457.000000	41.357391
1044.000000	1456.000000	41.361338
1045.000000	1455.000000	41.368392
1046.000000	1454.000000	41.375503
1047.000000	1453.000000	41.383116
1048.000000	1452.000000	41.389774
1049.000000	1451.000000	41.408283
1050.000000	1450.000000	41.427606
1051.000000	1449.000000	41.451519
1052.000000	1448.000000	41.480455
1053.000000	1447.000000	41.518540
1054.000000	1446.000000	41.566172
1055.000000	1445.000000	41.605791
1056.000000	1444.000000	41.649655
1057.000000	1443.000000	41.701512
1058.000000	1442.000000	41.751515
1059.000000	1441.000000	41.797366
1060.000000	1440.000000	41.846525
1061.000000	1439.000000	41.890560
1062.000000	1438.000000	41.937847
1063.000000	1437.000000	41.982331
1064.000000	1436.000000	42.027252
1065.000000	1435.000000	42.066836
1066.000000	1434.000000	42.110239
1067.000000	1433.000000	42.156773
1068.000000	1432.000000	42.197963
1069.000000	1431.000000	42.233648
1070.000000	1430.000000	42.265618
1071.000000	1429.000000	42.301712
1072.000000	1428.000000	42.337408
1073.000000	1427.000000	42.370446
1074.000000	1426.000000	42.399329
1075.000000	1425.000000	42.427377
1076.000000	1424.000000	42.461325
1077.000000	1423.000000	42.495434
1078.000000	1422.000000	42.525395
1079.000000	1421.000000	42.545402
1080.000000	1420.000000	42.576379
1081.000000	1419.000000	42.613578
1082.000000	1418.000000	42.650999
1083.000000	1417.000000	42.687622
1084.000000	1416.000000	42.716570
1085.000000	1415.000000	42.753238
1086.000000	1414.000000	42.790945
1087.000000	1413.000000	42.833213
1088.000000	1412.000000	42.863921
1089.000000	1411.000000	42.900615
1090.000000	1410.000000	42.929710
1091.000000	1409.000000	42.952267
1092.000000	1408.000000	42.977577
1093.000000	1407.000000	43.000251
1094.000000	1406.000000	43.029978
1095.000000	1405.000000	43.053549
1096.000000	1404.000000	43.073314
1097.000000	1403.000000	43.077475
1098.000000	1402.000000	43.098055
1099.000000	1401.000000	43.118683
1100.000000	1400.000000	43.136487
1101.000000	1399.000000	43.143389
1102.000000	1398.000000	43.147066
1103.000000	1397.000000	43.162055
1104.000000	1396.000000	43.169560
1105.000000	1395.000000	43.174186
1106.000000	1394.000000	43.171959
1107.000000	1393.000000	43.182333
1108.000000	1392.000000	43.186834
1109.000000	1391.000000	43.194116
1110.000000	1390.000000	43.207107
1111.000000	1389.000000	43.210809
1112.000000	1388.000000	43.219159
1113.000000	1387.000000	43.219060
1114.000000	1386.000000	43.223786
1115.000000	1385.000000	43.229973
1116.000000	1384.000000	43.240088
1117.000000	1383.000000	43.229161
1118.000000	1382.000000	43.226818
1119.000000	1381.000000	43.210064
1120.000000	1380.000000	43.181457
1121.000000	1379.000000	43.131915
1122.000000	1378.000000	43.095589
1123.000000	1377.000000	43.036074
1124.000000	1376.000000	42.960857
1125.000000	1375.000000	42.884496
1126.000000	1374.000000	42.809700
1127.000000	1373.000000	42.709316
1128.000000	1372.000000	42.580490
1129.000000	1371.000000	42.407381
1130.000000	1370.000000	42.211575
1131.000000	1369.000000	41.975310
1132.000000	1368.000000	41.688693
1133.000000	1367.000000	41.395008
1134.000000	1366.000000	41.118936
1135.000000	1365.000000	40.756413
1136.000000	1364.000000	40.380365
1137.000000	1363.000000	39.970734
1138.000000	1362.000000	39.576468
1139.000000	1361.000000	39.182163
1140.000000	1360.000000	38.806620
1141.000000	1359.000000	38.449945
1142.000000	1358.000000	38.089749
1143.000000	1357.000000	37.745498
1144.000000	1356.000000	37.426952
1145.000000	1355.000000	37.174664
1146.000000	1354.000000	36.989626
1147.000000	1353.000000	36.890540
1148.000000	1352.000000	36.882605
1149.000000	1351.000000	36.901636
1150.000000	1350.000000	36.933784
1151.000000	1349.000000	36.953433
1152.000000	1348.000000	36.959393
1153.000000	1347.000000	36.948189
1154.000000	1346.000000	36.869615
1155.000000	1345.000000	36.736704
1156.000000	1344.000000	36.538486
1157.000000	1343.000000	36.274996
1158.000000	1342.000000	35.977203
1159.000000	1341.000000	35.633972
1160.000000	1340.000000	35.272848
1161.000000	1339.000000	34.926368
1162.000000	1338.000000	34.551302
1163.000000	1337.000000	34.169258
1164.000000	1336.000000	33.786798
1165.000000	1335.000000	33.398685
1166.000000	1334.000000	33.028705
1167.000000	1333.000000	32.671461
1168.000000	1332.000000	32.307888
1169.000000	1331.000000	31.950048
1170.000000	1330.000000	31.612406
1171.000000	1329.000000	31.250485
1172.000000	1328.000000	30.917360
1173.000000	1327.000000	30.579630
1174.000000	1326.000000	30.285608
1175.000000	1325.000000	29.988952
1176.000000	1324.000000	29.698035
1177.000000	1323.000000	29.379926
1178.000000	1322.000000	29.018587
1179.000000	1321.000000	28.571850
1180.000000	1320.000000	28.122425
1181.000000	1319.000000	27.636017
1182.000000	1318.000000	27.146569
1183.000000	1317.000000	26.733855
1184.000000	1316.000000	26.425708
1185.000000	1315.000000	26.219814
1186.000000	1314.000000	26.132616
1187.000000	1313.000000	26.167290
1188.000000	1312.000000	26.306360
1189.000000	1311.000000	26.564870
1190.000000	1310.000000	26.906798
1191.000000	1309.000000	27.300024
1192.000000	1308.000000	27.719507
1193.000000	1307.000000	28.107739
1194.000000	1306.000000	28.439206
1195.000000	1305.000000	28.718878
1196.000000	1304.000000	28.918709
1197.000000	1303.000000	29.069047
1198.000000	1302.000000	29.170893
1199.000000	1301.000000	29.252539
1200.000000	1300.000000	29.280486
1201.000000	1299.000000	29.307493
1202.000000	1298.000000	29.296243
1203.000000	1297.000000	29.287216
1204.000000	1296.000000	29.289638
1205.000000	1295.000000	29.286210
1206.000000	1294.000000	29.289920
1207.000000	1293.000000	29.309029
1208.000000	1292.000000	29.355360
1209.000000	1291.000000	29.415232
1210.000000	1290.000000	29.475654
1211.000000	1289.000000	29.549527
1212.000000	1288.000000	29.635619
1213.000000	1287.000000	29.734781
1214.000000	1286.000000	29.848908
1215.000000	1285.000000	29.963487
1216.000000	1284.000000	30.085690
1217.000000	1283.000000	30.211188
1218.000000	1282.000000	30.359150
1219.000000	1281.000000	30.520951
1220.000000	1280.000000	30.691056
1221.000000	1279.000000	30.871488
1222.000000	1278.000000	31.059288
1223.000000	1277.000000	31.256383
1224.000000	1276.000000	31.460660
1225.000000	1275.000000	31.663895
1226.000000	1274.000000	31.865648
1227.000000	1273.000000	32.062544
1228.000000	1272.000000	32.275205
1229.000000	1271.000000	32.476253
1230.000000	1270.000000	32.679840
1231.000000	1269.000000	32.877598
1232.000000	1268.000000	33.072321
1233.000000	1267.000000	33.264335
1234.000000	1266.000000	33.457206
1235.000000	1265.000000	33.646696
1236.000000	1264.000000	33.823373
1237.000000	1263.000000	33.999031
1238.000000	1262.000000	34.170318
1239.000000	1261.000000	34.338480
1240.000000	1260.000000	34.503649
1241.000000	1259.000000	34.660550
1242.000000	1258.000000	34.810385
1243.000000	1257.000000	34.966866
1244.000000	1256.000000	35.104162
1245.000000	1255.000000	35.248808
1246.000000	1254.000000	35.384982
1247.000000	1253.000000	35.491530
1248.000000	1252.000000	35.597057
1249.000000	1251.000000	35.705175
1250.000000	1250.000000	35.810772
1251.000000	1249.000000	35.892970
1252.000000	1248.000000	35.974557
1253.000000	1247.000000	36.059894
1254.000000	1246.000000	36.138904
1255.000000	1245.000000	36.215671
1256.000000	1244.000000	36.285704
1257.000000	1243.000000	36.360217
1258.000000	1242.000000	36.424604
1259.000000	1241.000000	36.490082
1260.000000	1240.000000	36.552563
1261.000000	1239.000000	36.609541
1262.000000	1238.000000	36.667349
1263.000000	1237.000000	36.725438
1264.000000	1236.000000	36.779906
1265.000000	1235.000000	36.842113
1266.000000	1234.000000	36.904012
1267.000000	1233.000000	36.965821
1268.000000	1232.000000	37.026004
1269.000000	1231.000000	37.086763
1270.000000	1230.000000	37.141416
1271.000000	1229.000000	37.201397
1272.000000	1228.000000	37.258014
1273.000000	1227.000000	37.317756
1274.000000	1226.000000	37.379682
1275.000000	1225.000000	37.446389
1276.000000	1224.000000	37.515148
1277.000000	1223.000000	37.587543
1278.000000	1222.000000	37.664760
1279.000000	1221.000000	37.746291
1280.000000	1220.000000	37.827688
1281.000000	1219.000000	37.912448
1282.000000	1218.000000	37.991368
1283.000000	1217.000000	38.076370
1284.000000	1216.000000	38.163113
1285.000000	1215.000000	38.242387
1286.000000	1214.000000	38.319624
1287.000000	1213.000000	38.390127
1288.000000	1212.000000	38.456464
1289.000000	1211.000000	38.518745
1290.000000	1210.000000	38.571615
1291.000000	1209.000000	38.619499
1292.000000	1208.000000	38.665811
1293.000000	1207.000000	38.700422
1294.000000	1206.000000	38.731264
1295.000000	1205.000000	38.759454
1296.000000	1204.000000	38.787094
1297.000000	1203.000000	38.810961
1298.000000	1202.000000	38.830569
1299.000000	1201.000000	38.855232
1300.000000	1200.000000	38.873553
1301.000000	1199.000000	38.887272
1302.000000	1198.000000	38.899113
1303.000000	1197.000000	38.910293
1304.000000	1196.000000	38.916522
1305.000000	1195.000000	38.913002
1306.000000	1194.000000	38.901443
1307.000000	1193.000000	38.881895
1308.000000	1192.000000	38.856050
1309.000000	1191.000000	38.831108
1310.000000	1190.000000	38.801808
1311.000000	1189.000000	38.759989
1312.000000	1188.000000	38.711918
1313.000000	1187.000000	38.661219
1314.000000	1186.000000	38.602261
1315.000000	1185.000000	38.539535
1316.000000	1184.000000	38.475718
1317.000000	1183.000000	38.406906
1318.000000	1182.000000	38.333954
1319.000000	1181.000000	38.248726
1320.000000	1180.000000	38.165068
1321.000000	1179.000000	38.085735
1322.000000	1178.000000	37.987682
1323.000000	1177.000000	37.890623
1324.000000	1176.000000	37.783609
1325.000000	1175.000000	37.667653
1326.000000	1174.000000	37.542610
1327.000000	1173.000000	37.426382
1328.000000	1172.000000	37.292705
1329.000000	1171.000000	37.151037
1330.000000	1170.000000	37.002759
1331.000000	1169.000000	36.840111
1332.000000	1168.000000	36.673096
1333.000000	1167.000000	36.490740
1334.000000	1166.000000	36.293907
1335.000000	1165.000000	36.092033
1336.000000	1164.000000	35.884428
1337.000000	1163.000000	35.663871
1338.000000	1162.000000	35.432907
1339.000000	1161.000000	35.194380
1340.000000	1160.000000	34.943191
1341.000000	1159.000000	34.668859
1342.000000	1158.000000	34.381661
1343.000000	1157.000000	34.097096
1344.000000	1156.000000	33.791696
1345.000000	1155.000000	33.438663
1346.000000	1154.000000	33.094028
1347.000000	1153.000000	32.747150
1348.000000	1152.000000	32.352763
1349.000000	1151.000000	31.927816
1350.000000	1150.000000	31.474605
1351.000000	1149.000000	30.953616
1352.000000	1148.000000	30.395178
1353.000000	1147.000000	29.841438
1354.000000	1146.000000	29.308980
1355.000000	1145.000000	28.810331
1356.000000	1144.000000	28.431192
1357.000000	1143.000000	28.168915
1358.000000	1142.000000	28.020486
1359.000000	1141.000000	27.943803
1360.000000	1140.000000	27.913033
1361.000000	1139.000000	27.866985
1362.000000	1138.000000	27.748853
1363.000000	1137.000000	27.607803
1364.000000	1136.000000	27.455156
1365.000000	1135.000000	27.269465
1366.000000	1134.000000	27.062158
1367.000000	1133.000000	26.835094
1368.000000	1132.000000	26.569973
1369.000000	1131.000000	26.247469
1370.000000	1130.000000	25.911957
1371.000000	1129.000000	25.512938
1372.000000	1128.000000	25.068253
1373.000000	1127.000000	24.594290
1374.000000	1126.000000	24.131795
1375.000000	1125.000000	23.743441
1376.000000	1124.000000	23.400311
1377.000000	1123.000000	23.115690
1378.000000	1122.000000	22.882638
1379.000000	1121.000000	22.711557
1380.000000	1120.000000	22.518792
1381.000000	1119.000000	22.386445
1382.000000	1118.000000	22.178869
1383.000000	1117.000000	21.943744
1384.000000	1116.000000	21.712735
1385.000000	1115.000000	21.486480
1386.000000	1114.000000	21.312524
1387.000000	1113.000000	21.187907
1388.000000	1112.000000	21.121474
1389.000000	1111.000000	21.020408
1390.000000	1110.000000	20.986235
1391.000000	1109.000000	21.002624
1392.000000	1108.000000	21.022877
1393.000000	1107.000000	21.026367
1394.000000	1106.000000	21.085649
1395.000000	1105.000000	21.147223
1396.000000	1104.000000	21.153815
1397.000000	1103.000000	21.100460
1398.000000	1102.000000	21.041378
1399.000000	1101.000000	21.034956
1400.000000	1100.000000	20.952087
1401.000000	1099.000000	20.801420
1402.000000	1098.000000	20.571784
1403.000000	1097.000000	20.410971
1404.000000	1096.000000	20.225682
1405.000000	1095.000000	20.052125
1406.000000	1094.000000	19.835956
1407.000000	1093.000000	19.656304
1408.000000	1092.000000	19.491283
1409.000000	1091.000000	19.327231
1410.000000	1090.000000	19.153864
1411.000000	1089.000000	19.035802
1412.000000	1088.000000	18.919382
1413.000000	1087.000000	18.874702
1414.000000	1086.000000	18.790455
1415.000000	1085.000000	18.690804
1416.000000	1084.000000	18.574517
1417.000000	1083.000000	18.489308
1418.000000	1082.000000	18.414708
1419.000000	1081.000000	18.332902
1420.000000	1080.000000	18.192676
1421.000000	1079.000000	18.089386
1422.000000	1078.000000	17.975738
1423.000000	1077.000000	17.868956
1424.000000	1076.000000	17.763294
1425.000000	1075.000000	17.636982
1426.000000	1074.000000	17.536914
1427.000000	1073.000000	17.431137
1428.000000	1072.000000	17.336257
1429.000000	1071.000000	17.230116
1430.000000	1070.000000	17.153600
1431.000000	1069.000000	17.092908
1432.000000	1068.000000	17.028357
1433.000000	1067.000000	16.952960
1434.000000	1066.000000	16.901286
1435.000000	1065.000000	16.817405
1436.000000	1064.000000	16.762457
1437.000000	1063.000000	16.714501
1438.000000	1062.000000	16.656481
1439.000000	1061.000000	16.589795
1440.000000	1060.000000	16.521343
1441.000000	1059.000000	16.453677
1442.000000	1058.000000	16.375643
1443.000000	1057.000000	16.302288
1444.000000	1056.000000	16.255936
1445.000000	1055.000000	16.205507
1446.000000	1054.000000	16.135593
1447.000000	1053.000000	16.042178
1448.000000	1052.000000	15.988841
1449.000000	1051.000000	15.922050
1450.000000	1050.000000	15.871074
1451.000000	1049.000000	15.814841
1452.000000	1048.000000	15.753837
1453.000000	1047.000000	15.690065
1454.000000	1046.000000	15.628385
1455.000000	1045.000000	15.600607
1456.000000	1044.000000	15.535640
1457.000000	1043.000000	15.490591
1458.000000	1042.000000	15.444924
1459.000000	1041.000000	15.393524
1460.000000	1040.000000	15.352570
1461.000000	1039.000000	15.314903
1462.000000	1038.000000	15.275622
1463.000000	1037.000000	15.246716
1464.000000	1036.000000	15.205384
1465.000000	1035.000000	15.187433
1466.000000	1034.000000	15.146289
1467.000000	1033.000000	15.118652
1468.000000	1032.000000	15.089782
1469.000000	1031.000000	15.076497
1470.000000	1030.000000	15.051914
1471.000000	1029.000000	15.027027
1472.000000	1028.000000	14.993634
1473.000000	1027.000000	14.959518
1474.000000	1026.000000	14.922782
1475.000000	1025.000000	14.896216
1476.000000	1024.000000	14.866948
1477.000000	1023.000000	14.849727
1478.000000	1022.000000	14.809166
1479.000000	1021.000000	14.780492
1480.000000	1020.000000	14.759113
1481.000000	1019.000000	14.737667
1482.000000	1018.000000	14.711586
1483.000000	1017.000000	14.701950
1484.000000	1016.000000	14.672636
1485.000000	1015.000000	14.657597
1486.000000	1014.000000	14.640057
1487.000000	1013.000000	14.623962
1488.000000	1012.000000	14.599977
1489.000000	1011.000000	14.588658
1490.000000	1010.000000	14.568696
1491.000000	1009.000000	14.548034
1492.000000	1008.000000	14.534248
1493.000000	1007.000000	14.510614
1494.000000	1006.000000	14.495353
1495.000000	1005.000000	14.483191
1496.000000	1004.000000	14.475787
1497.000000	1003.000000	14.455106
1498.000000	1002.000000	14.438186
1499.000000	1001.000000	14.435423
1500.000000	1000.000000	14.415228
1501.000000	999.000000	14.417382
1502.000000	998.000000	14.415194
1503.000000	997.000000	14.400312
1504.000000	996.000000	14.395694
1505.000000	995.000000	14.399073
1506.000000	994.000000	14.385480
1507.000000	993.000000	14.383431
1508.000000	992.000000	14.386644
1509.000000	991.000000	14.382468
1510.000000	990.000000	14.374386
1511.000000	989.000000	14.374667
1512.000000	988.000000	14.376083
1513.000000	987.000000	14.370350
1514.000000	986.000000	14.366691
1515.000000	985.000000	14.361037
1516.000000	984.000000	14.365643
1517.000000	983.000000	14.367996
1518.000000	982.000000	14.362209
1519.000000	981.000000	14.355671
1520.000000	980.000000	14.365751
1521.000000	979.000000	14.373102
1522.000000	978.000000	14.361885
1523.000000	977.000000	14.359159
1524.000000	976.000000	14.365881
1525.000000	975.000000	14.367741
1526.000000	974.000000	14.365491
1527.000000	973.000000	14.363336
1528.000000	972.000000	14.365150
1529.000000	971.000000	14.361272
1530.000000	970.000000	14.364134
1531.000000	969.000000	14.365703
1532.000000	968.000000	14.371917
1533.000000	967.000000	14.368080
1534.000000	966.000000	14.365260
1535.000000	965.000000	14.367720
1536.000000	964.000000	14.361081
1537.000000	963.000000	14.363159
1538.000000	962.000000	14.371283
1539.000000	961.000000	14.377533
1540.000000	960.000000	14.382983
1541.000000	959.000000	14.390384
1542.000000	958.000000	14.405944
1543.000000	957.000000	14.415362
1544.000000	956.000000	14.423840
1545.000000	955.000000	14.438417
1546.000000	954.000000	14.458758
1547.000000	953.000000	14.479562
1548.000000	952.000000	14.491884
1549.000000	951.000000	14.494414
1550.000000	950.000000	14.503702
1551.000000	949.000000	14.518163
1552.000000	948.000000	14.519468
1553.000000	947.000000	14.515004
1554.000000	946.000000	14.514045
1555.000000	945.000000	14.521402
1556.000000	944.000000	14.520222
1557.000000	943.000000	14.514794
1558.000000	942.000000	14.501686
1559.000000	941.000000	14.486948
1560.000000	940.000000	14.474817
1561.000000	939.000000	14.464772
1562.000000	938.000000	14.448756
1563.000000	937.000000	14.428941
1564.000000	936.000000	14.408584
1565.000000	935.000000	14.386970
1566.000000	934.000000	14.367125
1567.000000	933.000000	14.348758
1568.000000	932.000000	14.335646
1569.000000	931.000000	14.317174
1570.000000	930.000000	14.303479
1571.000000	929.000000	14.286951
1572.000000	928.000000	14.266206
1573.000000	927.000000	14.257071
1574.000000	926.000000	14.254401
1575.000000	925.000000	14.248782
1576.000000	924.000000	14.249311
1577.000000	923.000000	14.244194
1578.000000	922.000000	14.240482
1579.000000	921.000000	14.250821
1580.000000	920.000000	14.254555
1581.000000	919.000000	14.249747
1582.000000	918.000000	14.252424
1583.000000	917.000000	14.266462
1584.000000	916.000000	14.278505
1585.000000	915.000000	14.285768
1586.000000	914.000000	14.299691
1587.000000	913.000000	14.306854
1588.000000	912.000000	14.320828
1589.000000	911.000000	14.336270
1590.000000	910.000000	14.346276
1591.000000	909.000000	14.358065
1592.000000	908.000000	14.374695
1593.000000	907.000000	14.398053
1594.000000	906.000000	14.405515
1595.000000	905.000000	14.422669
1596.000000	904.000000	14.446744
1597.000000	903.000000	14.457534
1598.000000	902.000000	14.481215
1599.000000	901.000000	14.501354
1600.000000	900.000000	14.533363
1601.000000	899.000000	14.559423
1602.000000	898.000000	14.588688
1603.000000	897.000000	14.616913
1604.000000	896.000000	14.651013
1605.000000	895.000000	14.677106
1606.000000	894.000000	14.707895
1607.000000	893.000000	14.745072
1608.000000	892.000000	14.782691
1609.000000	891.000000	14.816640
1610.000000	890.000000	14.853467
1611.000000	889.000000	14.889642
1612.000000	888.000000	14.924449
1613.000000	887.000000	14.961934
1614.000000	886.000000	15.004727
1615.000000	885.000000	15.036874
1616.000000	884.000000	15.078023
1617.000000	883.000000	15.128042
1618.000000	882.000000	15.168722
1619.000000	881.000000	15.208536
1620.000000	880.000000	15.250384
1621.000000	879.000000	15.302029
1622.000000	878.000000	15.349519
1623.000000	877.000000	15.393058
1624.000000	876.000000	15.437485
1625.000000	875.000000	15.489511
1626.000000	874.000000	15.538447
1627.000000	873.000000	15.593401
1628.000000	872.000000	15.627127
1629.000000	871.000000	15.678615
1630.000000	870.000000	15.729693
1631.000000	869.000000	15.780882
1632.000000	868.000000	15.836390
1633.000000	867.000000	15.883304
1634.000000	866.000000	15.924697
1635.000000	865.000000	15.971487
1636.000000	864.000000	16.023425
1637.000000	863.000000	16.069321
1638.000000	862.000000	16.115028
1639.000000	861.000000	16.166965
1640.000000	860.000000	16.200539
1641.000000	859.000000	16.245407
1642.000000	858.000000	16.273956
1643.000000	857.000000	16.305926
1644.000000	856.000000	16.351959
1645.000000	855.000000	16.393295
1646.000000	854.000000	16.430240
1647.000000	853.000000	16.467536
1648.000000	852.000000	16.489127
1649.000000	851.000000	16.530763
1650.000000	850.000000	16.544701
1651.000000	849.000000	16.568626
1652.000000	848.000000	16.595526
1653.000000	847.000000	16.604274
1654.000000	846.000000	16.614141
1655.000000	845.000000	16.620276
1656.000000	844.000000	16.634331
1657.000000	843.000000	16.627504
1658.000000	842.000000	16.624182
1659.000000	841.000000	16.617963
1660.000000	840.000000	16.607101
1661.000000	839.000000	16.587013
1662.000000	838.000000	16.564403
1663.000000	837.000000	16.528513
1664.000000	836.000000	16.491877
1665.000000	835.000000	16.443906
1666.000000	834.000000	16.411905
1667.000000	833.000000	16.352625
1668.000000	832.000000	16.293758
1669.000000	831.000000	16.225456
1670.000000	830.000000	16.134900
1671.000000	829.000000	16.020373
1672.000000	828.000000	15.892457
1673.000000	827.000000	15.748424
1674.000000	826.000000	15.569284
1675.000000	825.000000	15.376728
1676.000000	824.000000	15.138725
1677.000000	823.000000	14.885349
1678.000000	822.000000	14.591305
1679.000000	821.000000	14.304836
1680.000000	820.000000	13.990953
1681.000000	819.000000	13.714936
1682.000000	818.000000	13.493898
1683.000000	817.000000	13.345369
1684.000000	816.000000	13.243927
1685.000000	815.000000	13.220160
1686.000000	814.000000	13.192962
1687.000000	813.000000	13.183230
1688.000000	812.000000	13.158933
1689.000000	811.000000	13.108852
1690.000000	810.000000	13.032605
1691.000000	809.000000	12.917219
1692.000000	808.000000	12.817197
1693.000000	807.000000	12.724669
1694.000000	806.000000	12.641932
1695.000000	805.000000	12.573853
1696.000000	804.000000	12.568842
1697.000000	803.000000	12.554976
1698.000000	802.000000	12.579748
1699.000000	801.000000	12.598513
1700.000000	800.000000	12.636542
1701.000000	799.000000	12.673766
1702.000000	798.000000	12.704894
1703.000000	797.000000	12.707800
1704.000000	796.000000	12.700328
1705.000000	795.000000	12.688480
1706.000000	794.000000	12.656871
1707.000000	793.000000	12.629866
1708.000000	792.000000	12.616067
1709.000000	791.000000	12.585334
1710.000000	790.000000	12.552869
1711.000000	789.000000	12.519977
1712.000000	788.000000	12.485723
1713.000000	787.000000	12.426377
1714.000000	786.000000	12.367603
1715.000000	785.000000	12.306856
1716.000000	784.000000	12.273016
1717.000000	783.000000	12.219005
1718.000000	782.000000	12.170963
1719.000000	781.000000	12.144018
1720.000000	780.000000	12.110670
1721.000000	779.000000	12.082378
1722.000000	778.000000	12.061933
1723.000000	777.000000	12.017394
1724.000000	776.000000	11.974937
1725.000000	775.000000	11.927695
1726.000000	774.000000	11.868549
1727.000000	773.000000	11.790686
1728.000000	772.000000	11.699425
1729.000000	771.000000	11.623775
1730.000000	770.000000	11.555622
1731.000000	769.000000	11.496981
1732.000000	768.000000	11.471675
1733.000000	767.000000	11.480200
1734.000000	766.000000	11.515590
1735.000000	765.000000	11.600413
1736.000000	764.000000	11.686075
1737.000000	763.000000	11.820386
1738.000000	762.000000	11.954837
1739.000000	761.000000	12.105722
1740.000000	760.000000	12.259784
1741.000000	759.000000	12.408898
1742.000000	758.000000	12.546909
1743.000000	757.000000	12.666163
1744.000000	756.000000	12.783777
1745.000000	755.000000	12.874674
1746.000000	754.000000	12.957015
1747.000000	753.000000	13.019478
1748.000000	752.000000	13.059145
1749.000000	751.000000	13.094474
1750.000000	750.000000	13.128441
1751.000000	749.000000	13.145548
1752.000000	748.000000	13.152649
1753.000000	747.000000	13.151006
1754.000000	746.000000	13.136780
1755.000000	745.000000	13.120107
1756.000000	744.000000	13.091722
1757.000000	743.000000	13.054056
1758.000000	742.000000	13.023150
1759.000000	741.000000	12.968272
1760.000000	740.000000	12.928533
1761.000000	739.000000	12.900320
1762.000000	738.000000	12.871242
1763.000000	737.000000	12.855220
1764.000000	736.000000	12.882975
1765.000000	735.000000	12.928382
1766.000000	734.000000	12.989480
1767.000000	733.000000	13.079280
1768.000000	732.000000	13.179540
1769.000000	731.000000	13.285774
1770.000000	730.000000	13.397341
1771.000000	729.000000	13.516721
1772.000000	728.000000	13.610858
1773.000000	727.000000	13.719628
1774.000000	726.000000	13.815359
1775.000000	725.000000	13.909667
1776.000000	724.000000	13.992788
1777.000000	723.000000	14.072976
1778.000000	722.000000	14.150558
1779.000000	721.000000	14.234500
1780.000000	720.000000	14.292410
1781.000000	719.000000	14.348783
1782.000000	718.000000	14.412426
1783.000000	717.000000	14.474514
1784.000000	716.000000	14.542072
1785.000000	715.000000	14.604755
1786.000000	714.000000	14.658622
1787.000000	713.000000	14.702712
1788.000000	712.000000	14.746406
1789.000000	711.000000	14.795967
1790.000000	710.000000	14.841740
1791.000000	709.000000	14.882250
1792.000000	708.000000	14.922013
1793.000000	707.000000	14.959328
1794.000000	706.000000	14.986175
1795.000000	705.000000	15.015813
1796.000000	704.000000	15.046101
1797.000000	703.000000	15.073894
1798.000000	702.000000	15.110903
1799.000000	701.000000	15.143924
1800.000000	700.000000	15.182198
1801.000000	699.000000	15.218381
1802.000000	698.000000	15.250819
1803.000000	697.000000	15.283573
1804.000000	696.000000	15.323673
1805.000000	695.000000	15.363296
1806.000000	694.000000	15.407300
1807.000000	693.000000	15.431137
1808.000000	692.000000	15.456813
1809.000000	691.000000	15.490327
1810.000000	690.000000	15.529490
1811.000000	689.000000	15.563223
1812.000000	688.000000	15.572509
1813.000000	687.000000	15.591662
1814.000000	686.000000	15.601848
1815.000000	685.000000	15.613004
1816.000000	684.000000	15.612958
1817.000000	683.000000	15.612888
1818.000000	682.000000	15.647710
1819.000000	681.000000	15.689977
1820.000000	680.000000	15.711844
1821.000000	679.000000	15.705868
1822.000000	678.000000	15.704391
1823.000000	677.000000	15.721083
1824.000000	676.000000	15.754673
1825.000000	675.000000	15.808187
1826.000000	674.000000	15.863672
1827.000000	673.000000	15.911727
1828.000000	672.000000	15.976885
1829.000000	671.000000	16.044712
1830.000000	670.000000	16.088715
1831.000000	669.000000	16.131450
1832.000000	668.000000	16.185544
1833.000000	667.000000	16.251943
1834.000000	666.000000	16.330231
1835.000000	665.000000	16.393299
1836.000000	664.000000	16.447398
1837.000000	663.000000	16.485852
1838.000000	662.000000	16.512434
1839.000000	661.000000	16.551504
1840.000000	660.000000	16.585151
1841.000000	659.000000	16.613300
1842.000000	658.000000	16.623314
1843.000000	657.000000	16.630471
1844.000000	656.000000	16.667641
1845.000000	655.000000	16.755412
1846.000000	654.000000	16.847993
1847.000000	653.000000	16.901239
1848.000000	652.000000	16.917558
1849.000000	651.000000	16.942021
1850.000000	650.000000	16.987182
1851.000000	649.000000	17.051761
1852.000000	648.000000	17.111354
1853.000000	647.000000	17.181768
1854.000000	646.000000	17.243546
1855.000000	645.000000	17.272421
1856.000000	644.000000	17.316096
1857.000000	643.000000	17.370817
1858.000000	642.000000	17.401108
1859.000000	641.000000	17.408789
1860.000000	640.000000	17.406024
1861.000000	639.000000	17.411717
1862.000000	638.000000	17.406307
1863.000000	637.000000	17.407371
1864.000000	636.000000	17.427797
1865.000000	635.000000	17.437758
1866.000000	634.000000	17.443557
1867.000000	633.000000	17.449561
1868.000000	632.000000	17.425260
1869.000000	631.000000	17.364420
1870.000000	630.000000	17.273293
1871.000000	629.000000	17.156864
1872.000000	628.000000	17.030877
1873.000000	627.000000	16.872164
1874.000000	626.000000	16.706932
1875.000000	625.000000	16.551989
1876.000000	624.000000	16.370415
1877.000000	623.000000	16.188444
1878.000000	622.000000	15.983543
1879.000000	621.000000	15.771308
1880.000000	620.000000	15.569681
1881.000000	619.000000	15.352690
1882.000000	618.000000	15.124213
1883.000000	617.000000	14.918567
1884.000000	616.000000	14.704343
1885.000000	615.000000	14.503112
1886.000000	614.000000	14.328520
1887.000000	613.000000	14.183434
1888.000000	612.000000	14.073128
1889.000000	611.000000	13.945419
1890.000000	610.000000	13.832088
1891.000000	609.000000	13.709594
1892.000000	608.000000	13.582941
1893.000000	607.000000	13.455693
1894.000000	606.000000	13.353449
1895.000000	605.000000	13.264172
1896.000000	604.000000	13.201400
1897.000000	603.000000	13.133818
1898.000000	602.000000	13.010115
1899.000000	601.000000	12.888329
1900.000000	600.000000	12.746248
1901.000000	599.000000	12.620295
1902.000000	598.000000	12.533901
1903.000000	597.000000	12.452147
1904.000000	596.000000	12.360701
1905.000000	595.000000	12.218202
1906.000000	594.000000	12.070061
1907.000000	593.000000	11.949959
1908.000000	592.000000	11.845734
1909.000000	591.000000	11.778341
1910.000000	590.000000	11.738553
1911.000000	589.000000	11.654011
1912.000000	588.000000	11.561286
1913.000000	587.000000	11.438689
1914.000000	586.000000	11.315042
1915.000000	585.000000	11.207763
1916.000000	584.000000	11.153012
1917.000000	583.000000	11.097288
1918.000000	582.000000	11.029334
1919.000000	581.000000	10.954812
1920.000000	580.000000	10.871864
1921.000000	579.000000	10.791347
1922.000000	578.000000	10.688176
1923.000000	577.000000	10.614140
1924.000000	576.000000	10.571449
1925.000000	575.000000	10.532247
1926.000000	574.000000	10.491272
1927.000000	573.000000	10.433656
1928.000000	572.000000	10.386538
1929.000000	571.000000	10.323064
1930.000000	570.000000	10.290000
1931.000000	569.000000	10.255990
1932.000000	568.000000	10.230818
1933.000000	567.000000	10.205611
1934.000000	566.000000	10.175921
1935.000000	565.000000	10.172559
1936.000000	564.000000	10.155605
1937.000000	563.000000	10.149223
1938.000000	562.000000	10.138495
1939.000000	561.000000	10.138621
1940.000000	560.000000	10.115969
1941.000000	559.000000	10.113372
1942.000000	558.000000	10.124655
1943.000000	557.000000	10.139260
1944.000000	556.000000	10.145287
1945.000000	555.000000	10.167746
1946.000000	554.000000	10.182263
1947.000000	553.000000	10.192731
1948.000000	552.000000	10.209176
1949.000000	551.000000	10.225809
1950.000000	550.000000	10.252563
1951.000000	549.000000	10.280601
1952.000000	548.000000	10.310748
1953.000000	547.000000	10.348752
1954.000000	546.000000	10.362073
1955.000000	545.000000	10.386731
1956.000000	544.000000	10.414360
1957.000000	543.000000	10.454593
1958.000000	542.000000	10.482608
1959.000000	541.000000	10.513867
1960.000000	540.000000	10.525795
1961.000000	539.000000	10.558897
1962.000000	538.000000	10.592973
1963.000000	537.000000	10.635804
1964.000000	536.000000	10.651234
1965.000000	535.000000	10.681514
1966.000000	534.000000	10.706949
1967.000000	533.000000	10.737146
1968.000000	532.000000	10.775165
1969.000000	531.000000	10.795388
1970.000000	530.000000	10.826402
1971.000000	529.000000	10.842066
1972.000000	528.000000	10.880641
1973.000000	527.000000	10.900404
1974.000000	526.000000	10.932030
1975.000000	525.000000	10.959449
1976.000000	524.000000	10.985465
1977.000000	523.000000	11.022278
1978.000000	522.000000	11.061236
1979.000000	521.000000	11.077508
1980.000000	520.000000	11.110902
1981.000000	519.000000	11.136680
1982.000000	518.000000	11.167383
1983.000000	517.000000	11.193317
1984.000000	516.000000	11.210609
1985.000000	515.000000	11.232478
1986.000000	514.000000	11.260789
1987.000000	513.000000	11.271842
1988.000000	512.000000	11.301206
1989.000000	511.000000	11.320508
1990.000000	510.000000	11.316950
1991.000000	509.000000	11.327421
1992.000000	508.000000	11.351224
1993.000000	507.000000	11.361738
1994.000000	506.000000	11.367993
1995.000000	505.000000	11.369737
1996.000000	504.000000	11.368188
1997.000000	503.000000	11.378562
1998.000000	502.000000	11.367393
1999.000000	501.000000	11.363647
