PE UV       SUBTECH     SPECTRUM    ASCII       PEDS        4.00        
   -1
CICIMAUCR0015-1.Sample.ASC
24/03/08
11:15:04.00
24/03/08
11:15:04.00
Vinicio Soto Monge
C. resplendens
250,000000
1
Lambda 1050
1050L1511233
PerkinElmer UV WinLab 6.3.2.0749 / 2.02.05 Lambda 900 UV/VIS/NIR, Aug  7 2015 09:38:08

0
0
3350/servo 860,8/2
0
0
UV/VIS
1
1
1
DoubleDePol,CommonBeamDepol,RBeamAtt,SBeamAtt,60mm sphere, WB InGaAs Detector
0
0
0
0
Program
Program
3350/servo 860,8/2
3350/0,2 860,8/0,2
3350/0,2 860,8/0,2
0
15.00
 
 
 
0
 
860,8
319,2
860,8
Front
100
on
S:100 R:100
0
0
0
0
 
0
 
 
 
0
 
 
0
0
0
0
0
 
 
 
 
0
0


0
0
#HDR
-1
-1
#GR
nm
%R
1.0
0.0
2500,000000
-1,000000
2251
8
23,608200
1,584400
#DATA
501.000000	1999.000000	3.741025
502.000000	1998.000000	3.733506
503.000000	1997.000000	3.722390
504.000000	1996.000000	3.715525
505.000000	1995.000000	3.714299
506.000000	1994.000000	3.719693
507.000000	1993.000000	3.697054
508.000000	1992.000000	3.690106
509.000000	1991.000000	3.674496
510.000000	1990.000000	3.651611
511.000000	1989.000000	3.644010
512.000000	1988.000000	3.648832
513.000000	1987.000000	3.628726
514.000000	1986.000000	3.618509
515.000000	1985.000000	3.599139
516.000000	1984.000000	3.590394
517.000000	1983.000000	3.579523
518.000000	1982.000000	3.567182
519.000000	1981.000000	3.555576
520.000000	1980.000000	3.527951
521.000000	1979.000000	3.517080
522.000000	1978.000000	3.493623
523.000000	1977.000000	3.503758
524.000000	1976.000000	3.492642
525.000000	1975.000000	3.465181
526.000000	1974.000000	3.461748
527.000000	1973.000000	3.447608
528.000000	1972.000000	3.440579
529.000000	1971.000000	3.412055
530.000000	1970.000000	3.419656
531.000000	1969.000000	3.407805
532.000000	1968.000000	3.384511
533.000000	1967.000000	3.397098
534.000000	1966.000000	3.377155
535.000000	1965.000000	3.355170
536.000000	1964.000000	3.333266
537.000000	1963.000000	3.336943
538.000000	1962.000000	3.336698
539.000000	1961.000000	3.331631
540.000000	1960.000000	3.315039
541.000000	1959.000000	3.295179
542.000000	1958.000000	3.282837
543.000000	1957.000000	3.278505
544.000000	1956.000000	3.273356
545.000000	1955.000000	3.240173
546.000000	1954.000000	3.243688
547.000000	1953.000000	3.223745
548.000000	1952.000000	3.222437
549.000000	1951.000000	3.222683
550.000000	1950.000000	3.215899
551.000000	1949.000000	3.187456
552.000000	1948.000000	3.191134
553.000000	1947.000000	3.183942
554.000000	1946.000000	3.173643
555.000000	1945.000000	3.180754
556.000000	1944.000000	3.189091
557.000000	1943.000000	3.171110
558.000000	1942.000000	3.169475
559.000000	1941.000000	3.169884
560.000000	1940.000000	3.183778
561.000000	1939.000000	3.171355
562.000000	1938.000000	3.172091
563.000000	1937.000000	3.173643
564.000000	1936.000000	3.167759
565.000000	1935.000000	3.189254
566.000000	1934.000000	3.191543
567.000000	1933.000000	3.188600
568.000000	1932.000000	3.201024
569.000000	1931.000000	3.221783
570.000000	1930.000000	3.236659
571.000000	1929.000000	3.250471
572.000000	1928.000000	3.271885
573.000000	1927.000000	3.281039
574.000000	1926.000000	3.303679
575.000000	1925.000000	3.315775
576.000000	1924.000000	3.357540
577.000000	1923.000000	3.393011
578.000000	1922.000000	3.411074
579.000000	1921.000000	3.421536
580.000000	1920.000000	3.439599
581.000000	1919.000000	3.462729
582.000000	1918.000000	3.496729
583.000000	1917.000000	3.525662
584.000000	1916.000000	3.576499
585.000000	1915.000000	3.617447
586.000000	1914.000000	3.651120
587.000000	1913.000000	3.679481
588.000000	1912.000000	3.712991
589.000000	1911.000000	3.738410
590.000000	1910.000000	3.769059
591.000000	1909.000000	3.841474
592.000000	1908.000000	3.902118
593.000000	1907.000000	3.948215
594.000000	1906.000000	3.996273
595.000000	1905.000000	4.022755
596.000000	1904.000000	4.071712
597.000000	1903.000000	4.128025
598.000000	1902.000000	4.191122
599.000000	1901.000000	4.242776
600.000000	1900.000000	4.290181
601.000000	1899.000000	4.322301
602.000000	1898.000000	4.375427
603.000000	1897.000000	4.423485
604.000000	1896.000000	4.499496
605.000000	1895.000000	4.570112
606.000000	1894.000000	4.636233
607.000000	1893.000000	4.705378
608.000000	1892.000000	4.761037
609.000000	1891.000000	4.796836
610.000000	1890.000000	4.860178
611.000000	1889.000000	4.927198
612.000000	1888.000000	4.996506
613.000000	1887.000000	5.078974
614.000000	1886.000000	5.187514
615.000000	1885.000000	5.274149
616.000000	1884.000000	5.380319
617.000000	1883.000000	5.494416
618.000000	1882.000000	5.609004
619.000000	1881.000000	5.741818
620.000000	1880.000000	5.898661
621.000000	1879.000000	6.021259
622.000000	1878.000000	6.143938
623.000000	1877.000000	6.274954
624.000000	1876.000000	6.377201
625.000000	1875.000000	6.482553
626.000000	1874.000000	6.568780
627.000000	1873.000000	6.643074
628.000000	1872.000000	6.699387
629.000000	1871.000000	6.734123
630.000000	1870.000000	6.762811
631.000000	1869.000000	6.781282
632.000000	1868.000000	6.803922
633.000000	1867.000000	6.817244
634.000000	1866.000000	6.845524
635.000000	1865.000000	6.879279
636.000000	1864.000000	6.922351
637.000000	1863.000000	6.959294
638.000000	1862.000000	6.984958
639.000000	1861.000000	6.989780
640.000000	1860.000000	6.978092
641.000000	1859.000000	6.956270
642.000000	1858.000000	6.927746
643.000000	1857.000000	6.921534
644.000000	1856.000000	6.919818
645.000000	1855.000000	6.892765
646.000000	1854.000000	6.869308
647.000000	1853.000000	6.829831
648.000000	1852.000000	6.818716
649.000000	1851.000000	6.842745
650.000000	1850.000000	6.851000
651.000000	1849.000000	6.807845
652.000000	1848.000000	6.723498
653.000000	1847.000000	6.650021
654.000000	1846.000000	6.621007
655.000000	1845.000000	6.638252
656.000000	1844.000000	6.672988
657.000000	1843.000000	6.680344
658.000000	1842.000000	6.642093
659.000000	1841.000000	6.593708
660.000000	1840.000000	6.570251
661.000000	1839.000000	6.571150
662.000000	1838.000000	6.559136
663.000000	1837.000000	6.506255
664.000000	1836.000000	6.451904
665.000000	1835.000000	6.421663
666.000000	1834.000000	6.415288
667.000000	1833.000000	6.415615
668.000000	1832.000000	6.407768
669.000000	1831.000000	6.374504
670.000000	1830.000000	6.333474
671.000000	1829.000000	6.301354
672.000000	1828.000000	6.263839
673.000000	1827.000000	6.225752
674.000000	1826.000000	6.198126
675.000000	1825.000000	6.188237
676.000000	1824.000000	6.213819
677.000000	1823.000000	6.243161
678.000000	1822.000000	6.218233
679.000000	1821.000000	6.163472
680.000000	1820.000000	6.129554
681.000000	1819.000000	6.116150
682.000000	1818.000000	6.122606
683.000000	1817.000000	6.135765
684.000000	1816.000000	6.134212
685.000000	1815.000000	6.128246
686.000000	1814.000000	6.134866
687.000000	1813.000000	6.138544
688.000000	1812.000000	6.121789
689.000000	1811.000000	6.098741
690.000000	1810.000000	6.074139
691.000000	1809.000000	6.081332
692.000000	1808.000000	6.081250
693.000000	1807.000000	6.060981
694.000000	1806.000000	6.040793
695.000000	1805.000000	6.024283
696.000000	1804.000000	6.010634
697.000000	1803.000000	6.004177
698.000000	1802.000000	5.978513
699.000000	1801.000000	5.950643
700.000000	1800.000000	5.938955
701.000000	1799.000000	5.928739
702.000000	1798.000000	5.905936
703.000000	1797.000000	5.902421
704.000000	1796.000000	5.894738
705.000000	1795.000000	5.882887
706.000000	1794.000000	5.863353
707.000000	1793.000000	5.855344
708.000000	1792.000000	5.842839
709.000000	1791.000000	5.809656
710.000000	1790.000000	5.784482
711.000000	1789.000000	5.760290
712.000000	1788.000000	5.750318
713.000000	1787.000000	5.724328
714.000000	1786.000000	5.696048
715.000000	1785.000000	5.679293
716.000000	1784.000000	5.648889
717.000000	1783.000000	5.625759
718.000000	1782.000000	5.604918
719.000000	1781.000000	5.574186
720.000000	1780.000000	5.543047
721.000000	1779.000000	5.522205
722.000000	1778.000000	5.479296
723.000000	1777.000000	5.454613
724.000000	1776.000000	5.406718
725.000000	1775.000000	5.375088
726.000000	1774.000000	5.331607
727.000000	1773.000000	5.279380
728.000000	1772.000000	5.241620
729.000000	1771.000000	5.201817
730.000000	1770.000000	5.153186
731.000000	1769.000000	5.119513
732.000000	1768.000000	5.076930
733.000000	1767.000000	5.036964
734.000000	1766.000000	5.009257
735.000000	1765.000000	4.976319
736.000000	1764.000000	4.970025
737.000000	1763.000000	4.974357
738.000000	1762.000000	4.966021
739.000000	1761.000000	4.996343
740.000000	1760.000000	4.998468
741.000000	1759.000000	5.027401
742.000000	1758.000000	5.058704
743.000000	1757.000000	5.067368
744.000000	1756.000000	5.067940
745.000000	1755.000000	5.083796
746.000000	1754.000000	5.104147
747.000000	1753.000000	5.085512
748.000000	1752.000000	5.069902
749.000000	1751.000000	5.077094
750.000000	1750.000000	5.061075
751.000000	1749.000000	5.034185
752.000000	1748.000000	4.999367
753.000000	1747.000000	4.971660
754.000000	1746.000000	4.931530
755.000000	1745.000000	4.881183
756.000000	1744.000000	4.833043
757.000000	1743.000000	4.770682
758.000000	1742.000000	4.718619
759.000000	1741.000000	4.647594
760.000000	1740.000000	4.601906
761.000000	1739.000000	4.529900
762.000000	1738.000000	4.459611
763.000000	1737.000000	4.421932
764.000000	1736.000000	4.367172
765.000000	1735.000000	4.339628
766.000000	1734.000000	4.342407
767.000000	1733.000000	4.318705
768.000000	1732.000000	4.333499
769.000000	1731.000000	4.344205
770.000000	1730.000000	4.378860
771.000000	1729.000000	4.419889
772.000000	1728.000000	4.430351
773.000000	1727.000000	4.460183
774.000000	1726.000000	4.468928
775.000000	1725.000000	4.503255
776.000000	1724.000000	4.507342
777.000000	1723.000000	4.520010
778.000000	1722.000000	4.533006
779.000000	1721.000000	4.522217
780.000000	1720.000000	4.552540
781.000000	1719.000000	4.543713
782.000000	1718.000000	4.556953
783.000000	1717.000000	4.579348
784.000000	1716.000000	4.597982
785.000000	1715.000000	4.620377
786.000000	1714.000000	4.624382
787.000000	1713.000000	4.661406
788.000000	1712.000000	4.663613
789.000000	1711.000000	4.691647
790.000000	1710.000000	4.678570
791.000000	1709.000000	4.704969
792.000000	1708.000000	4.690503
793.000000	1707.000000	4.693527
794.000000	1706.000000	4.680858
795.000000	1705.000000	4.678733
796.000000	1704.000000	4.671459
797.000000	1703.000000	4.637704
798.000000	1702.000000	4.640728
799.000000	1701.000000	4.584824
800.000000	1700.000000	4.579184
801.000000	1699.000000	4.532679
802.000000	1698.000000	4.510203
803.000000	1697.000000	4.483231
804.000000	1696.000000	4.476366
805.000000	1695.000000	4.484702
806.000000	1694.000000	4.508241
807.000000	1693.000000	4.553439
808.000000	1692.000000	4.603377
809.000000	1691.000000	4.608199
810.000000	1690.000000	4.656584
811.000000	1689.000000	4.689686
812.000000	1688.000000	4.688214
813.000000	1687.000000	4.703743
814.000000	1686.000000	4.689113
815.000000	1685.000000	4.709219
816.000000	1684.000000	4.730551
817.000000	1683.000000	4.810240
818.000000	1682.000000	4.890255
819.000000	1681.000000	5.027319
820.000000	1680.000000	5.188413
821.000000	1679.000000	5.328010
822.000000	1678.000000	5.487551
823.000000	1677.000000	5.615870
824.000000	1676.000000	5.763559
825.000000	1675.000000	5.859757
826.000000	1674.000000	5.967725
827.000000	1673.000000	6.061062
828.000000	1672.000000	6.141977
829.000000	1671.000000	6.212920
830.000000	1670.000000	6.253868
831.000000	1669.000000	6.307974
832.000000	1668.000000	6.361263
833.000000	1667.000000	6.411855
834.000000	1666.000000	6.435802
835.000000	1665.000000	6.470048
836.000000	1664.000000	6.480510
837.000000	1663.000000	6.511649
838.000000	1662.000000	6.527424
839.000000	1661.000000	6.544506
840.000000	1660.000000	6.558237
841.000000	1659.000000	6.580549
842.000000	1658.000000	6.575891
843.000000	1657.000000	6.581612
844.000000	1656.000000	6.569761
845.000000	1655.000000	6.582184
846.000000	1654.000000	6.582511
847.000000	1653.000000	6.572458
848.000000	1652.000000	6.567554
849.000000	1651.000000	6.557746
850.000000	1650.000000	6.544260
851.000000	1649.000000	6.550063
852.000000	1648.000000	6.534453
853.000000	1647.000000	6.510097
854.000000	1646.000000	6.500125
855.000000	1645.000000	6.485414
856.000000	1644.000000	6.461957
857.000000	1643.000000	6.436129
858.000000	1642.000000	6.416187
859.000000	1641.000000	6.407932
860.000000	1640.000000	6.366330
861.000000	1639.000000	6.352191
862.000000	1638.000000	6.330859
863.000000	1637.000000	6.313041
864.000000	1636.000000	6.293671
865.000000	1635.000000	6.275853
866.000000	1634.000000	6.254276
867.000000	1633.000000	6.231718
868.000000	1632.000000	6.202377
869.000000	1631.000000	6.190852
870.000000	1630.000000	6.152030
871.000000	1629.000000	6.118193
872.000000	1628.000000	6.098414
873.000000	1627.000000	6.077164
874.000000	1626.000000	6.042918
875.000000	1625.000000	6.026817
876.000000	1624.000000	6.000908
877.000000	1623.000000	5.967153
878.000000	1622.000000	5.950152
879.000000	1621.000000	5.919993
880.000000	1620.000000	5.906262
881.000000	1619.000000	5.875286
882.000000	1618.000000	5.858858
883.000000	1617.000000	5.812026
884.000000	1616.000000	5.783992
885.000000	1615.000000	5.766992
886.000000	1614.000000	5.753179
887.000000	1613.000000	5.737895
888.000000	1612.000000	5.724655
889.000000	1611.000000	5.698337
890.000000	1610.000000	5.667361
891.000000	1609.000000	5.642923
892.000000	1608.000000	5.626822
893.000000	1607.000000	5.620610
894.000000	1606.000000	5.583586
895.000000	1605.000000	5.552691
896.000000	1604.000000	5.539369
897.000000	1603.000000	5.521633
898.000000	1602.000000	5.508311
899.000000	1601.000000	5.489594
900.000000	1600.000000	5.463767
901.000000	1599.000000	5.449219
902.000000	1598.000000	5.430829
903.000000	1597.000000	5.412358
904.000000	1596.000000	5.394050
905.000000	1595.000000	5.371737
906.000000	1594.000000	5.353919
907.000000	1593.000000	5.353838
908.000000	1592.000000	5.336347
909.000000	1591.000000	5.323352
910.000000	1590.000000	5.320655
911.000000	1589.000000	5.306106
912.000000	1588.000000	5.292539
913.000000	1587.000000	5.279053
914.000000	1586.000000	5.268428
915.000000	1585.000000	5.269981
916.000000	1584.000000	5.266385
917.000000	1583.000000	5.252817
918.000000	1582.000000	5.245543
919.000000	1581.000000	5.240394
920.000000	1580.000000	5.223884
921.000000	1579.000000	5.217427
922.000000	1578.000000	5.220860
923.000000	1577.000000	5.219798
924.000000	1576.000000	5.221514
925.000000	1575.000000	5.230341
926.000000	1574.000000	5.237206
927.000000	1573.000000	5.236389
928.000000	1572.000000	5.239331
929.000000	1571.000000	5.254288
930.000000	1570.000000	5.267039
931.000000	1569.000000	5.257639
932.000000	1568.000000	5.260010
933.000000	1567.000000	5.273495
934.000000	1566.000000	5.273741
935.000000	1565.000000	5.282976
936.000000	1564.000000	5.302755
937.000000	1563.000000	5.315179
938.000000	1562.000000	5.319020
939.000000	1561.000000	5.325804
940.000000	1560.000000	5.338227
941.000000	1559.000000	5.340434
942.000000	1558.000000	5.336265
943.000000	1557.000000	5.336347
944.000000	1556.000000	5.351059
945.000000	1555.000000	5.363972
946.000000	1554.000000	5.361684
947.000000	1553.000000	5.358333
948.000000	1552.000000	5.352040
949.000000	1551.000000	5.342068
950.000000	1550.000000	5.348362
951.000000	1549.000000	5.355636
952.000000	1548.000000	5.346482
953.000000	1547.000000	5.341987
954.000000	1546.000000	5.346073
955.000000	1545.000000	5.344438
956.000000	1544.000000	5.340025
957.000000	1543.000000	5.332996
958.000000	1542.000000	5.335366
959.000000	1541.000000	5.333159
960.000000	1540.000000	5.326131
961.000000	1539.000000	5.327929
962.000000	1538.000000	5.328501
963.000000	1537.000000	5.328174
964.000000	1536.000000	5.320981
965.000000	1535.000000	5.320001
966.000000	1534.000000	5.317630
967.000000	1533.000000	5.318039
968.000000	1532.000000	5.316568
969.000000	1531.000000	5.304553
970.000000	1530.000000	5.299649
971.000000	1529.000000	5.303491
972.000000	1528.000000	5.302101
973.000000	1527.000000	5.291967
974.000000	1526.000000	5.283303
975.000000	1525.000000	5.272351
976.000000	1524.000000	5.270063
977.000000	1523.000000	5.274803
978.000000	1522.000000	5.271534
979.000000	1521.000000	5.259683
980.000000	1520.000000	5.252327
981.000000	1519.000000	5.244644
982.000000	1518.000000	5.249139
983.000000	1517.000000	5.239331
984.000000	1516.000000	5.229033
985.000000	1515.000000	5.231240
986.000000	1514.000000	5.226990
987.000000	1513.000000	5.222822
988.000000	1512.000000	5.209499
989.000000	1511.000000	5.202634
990.000000	1510.000000	5.202470
991.000000	1509.000000	5.185797
992.000000	1508.000000	5.166345
993.000000	1507.000000	5.169206
994.000000	1506.000000	5.181465
995.000000	1505.000000	5.167571
996.000000	1504.000000	5.165446
997.000000	1503.000000	5.159480
998.000000	1502.000000	5.134306
999.000000	1501.000000	5.134061
1000.000000	1500.000000	5.145585
1001.000000	1499.000000	5.134715
1002.000000	1498.000000	5.138556
1003.000000	1497.000000	5.131772
1004.000000	1496.000000	5.128585
1005.000000	1495.000000	5.134960
1006.000000	1494.000000	5.133816
1007.000000	1493.000000	5.147874
1008.000000	1492.000000	5.140600
1009.000000	1491.000000	5.148691
1010.000000	1490.000000	5.139946
1011.000000	1489.000000	5.140191
1012.000000	1488.000000	5.152205
1013.000000	1487.000000	5.151061
1014.000000	1486.000000	5.145176
1015.000000	1485.000000	5.148854
1016.000000	1484.000000	5.167162
1017.000000	1483.000000	5.170186
1018.000000	1482.000000	5.179013
1019.000000	1481.000000	5.192744
1020.000000	1480.000000	5.194788
1021.000000	1479.000000	5.198793
1022.000000	1478.000000	5.217591
1023.000000	1477.000000	5.224375
1024.000000	1476.000000	5.230014
1025.000000	1475.000000	5.245380
1026.000000	1474.000000	5.258048
1027.000000	1473.000000	5.259437
1028.000000	1472.000000	5.291231
1029.000000	1471.000000	5.286000
1030.000000	1470.000000	5.304880
1031.000000	1469.000000	5.311991
1032.000000	1468.000000	5.320736
1033.000000	1467.000000	5.335857
1034.000000	1466.000000	5.345419
1035.000000	1465.000000	5.345011
1036.000000	1464.000000	5.374107
1037.000000	1463.000000	5.385468
1038.000000	1462.000000	5.404511
1039.000000	1461.000000	5.425026
1040.000000	1460.000000	5.441781
1041.000000	1459.000000	5.464584
1042.000000	1458.000000	5.487551
1043.000000	1457.000000	5.507657
1044.000000	1456.000000	5.537325
1045.000000	1455.000000	5.568057
1046.000000	1454.000000	5.577701
1047.000000	1453.000000	5.613418
1048.000000	1452.000000	5.649380
1049.000000	1451.000000	5.669649
1050.000000	1450.000000	5.684688
1051.000000	1449.000000	5.722366
1052.000000	1448.000000	5.784564
1053.000000	1447.000000	5.808184
1054.000000	1446.000000	5.829189
1055.000000	1445.000000	5.863272
1056.000000	1444.000000	5.899969
1057.000000	1443.000000	5.923017
1058.000000	1442.000000	5.966254
1059.000000	1441.000000	5.989384
1060.000000	1440.000000	6.020932
1061.000000	1439.000000	6.076346
1062.000000	1438.000000	6.106996
1063.000000	1437.000000	6.112390
1064.000000	1436.000000	6.154318
1065.000000	1435.000000	6.203112
1066.000000	1434.000000	6.240382
1067.000000	1433.000000	6.284435
1068.000000	1432.000000	6.284027
1069.000000	1431.000000	6.328489
1070.000000	1430.000000	6.370662
1071.000000	1429.000000	6.427629
1072.000000	1428.000000	6.470947
1073.000000	1427.000000	6.518515
1074.000000	1426.000000	6.587905
1075.000000	1425.000000	6.666122
1076.000000	1424.000000	6.702166
1077.000000	1423.000000	6.763220
1078.000000	1422.000000	6.796566
1079.000000	1421.000000	6.880096
1080.000000	1420.000000	6.952510
1081.000000	1419.000000	7.001876
1082.000000	1418.000000	7.027949
1083.000000	1417.000000	7.096113
1084.000000	1416.000000	7.180705
1085.000000	1415.000000	7.223043
1086.000000	1414.000000	7.255735
1087.000000	1413.000000	7.282870
1088.000000	1412.000000	7.364684
1089.000000	1411.000000	7.430886
1090.000000	1410.000000	7.510820
1091.000000	1409.000000	7.576941
1092.000000	1408.000000	7.680168
1093.000000	1407.000000	7.761328
1094.000000	1406.000000	7.867089
1095.000000	1405.000000	7.953070
1096.000000	1404.000000	8.030389
1097.000000	1403.000000	8.157727
1098.000000	1402.000000	8.291195
1099.000000	1401.000000	8.351186
1100.000000	1400.000000	8.360994
1101.000000	1399.000000	8.417797
1102.000000	1398.000000	8.498303
1103.000000	1397.000000	8.551183
1104.000000	1396.000000	8.485144
1105.000000	1395.000000	8.410278
1106.000000	1394.000000	8.460052
1107.000000	1393.000000	8.512442
1108.000000	1392.000000	8.528952
1109.000000	1391.000000	8.553145
1110.000000	1390.000000	8.621309
1111.000000	1389.000000	8.663564
1112.000000	1388.000000	8.705983
1113.000000	1387.000000	8.760171
1114.000000	1386.000000	8.866423
1115.000000	1385.000000	8.993679
1116.000000	1384.000000	9.120036
1117.000000	1383.000000	9.236422
1118.000000	1382.000000	9.297312
1119.000000	1381.000000	9.376347
1120.000000	1380.000000	9.479247
1121.000000	1379.000000	9.564984
1122.000000	1378.000000	9.673524
1123.000000	1377.000000	9.796857
1124.000000	1376.000000	9.940132
1125.000000	1375.000000	10.101716
1126.000000	1374.000000	10.313892
1127.000000	1373.000000	10.531135
1128.000000	1372.000000	10.734892
1129.000000	1371.000000	10.905956
1130.000000	1370.000000	11.078574
1131.000000	1369.000000	11.232638
1132.000000	1368.000000	11.335538
1133.000000	1367.000000	11.455848
1134.000000	1366.000000	11.573214
1135.000000	1365.000000	11.652903
1136.000000	1364.000000	11.729322
1137.000000	1363.000000	11.824539
1138.000000	1362.000000	11.855924
1139.000000	1361.000000	11.837044
1140.000000	1360.000000	11.865405
1141.000000	1359.000000	11.915752
1142.000000	1358.000000	11.990455
1143.000000	1357.000000	12.091148
1144.000000	1356.000000	12.211866
1145.000000	1355.000000	12.390205
1146.000000	1354.000000	12.609082
1147.000000	1353.000000	12.855749
1148.000000	1352.000000	13.105684
1149.000000	1351.000000	13.333144
1150.000000	1350.000000	13.540743
1151.000000	1349.000000	13.735182
1152.000000	1348.000000	13.915810
1153.000000	1347.000000	14.077557
1154.000000	1346.000000	14.248703
1155.000000	1345.000000	14.427941
1156.000000	1344.000000	14.566394
1157.000000	1343.000000	14.682617
1158.000000	1342.000000	14.816820
1159.000000	1341.000000	14.937293
1160.000000	1340.000000	15.045260
1161.000000	1339.000000	15.169574
1162.000000	1338.000000	15.282201
1163.000000	1337.000000	15.386817
1164.000000	1336.000000	15.487838
1165.000000	1335.000000	15.575945
1166.000000	1334.000000	15.670100
1167.000000	1333.000000	15.764255
1168.000000	1332.000000	15.860535
1169.000000	1331.000000	15.937117
1170.000000	1330.000000	16.010757
1171.000000	1329.000000	16.080883
1172.000000	1328.000000	16.147413
1173.000000	1327.000000	16.214024
1174.000000	1326.000000	16.277285
1175.000000	1325.000000	16.337194
1176.000000	1324.000000	16.390810
1177.000000	1323.000000	16.446551
1178.000000	1322.000000	16.492893
1179.000000	1321.000000	16.534494
1180.000000	1320.000000	16.585332
1181.000000	1319.000000	16.642462
1182.000000	1318.000000	16.680631
1183.000000	1317.000000	16.711035
1184.000000	1316.000000	16.747978
1185.000000	1315.000000	16.775930
1186.000000	1314.000000	16.800368
1187.000000	1313.000000	16.841724
1188.000000	1312.000000	16.887412
1189.000000	1311.000000	16.903595
1190.000000	1310.000000	16.918797
1191.000000	1309.000000	16.932855
1192.000000	1308.000000	16.942663
1193.000000	1307.000000	16.961298
1194.000000	1306.000000	16.975764
1195.000000	1305.000000	16.988024
1196.000000	1304.000000	16.993827
1197.000000	1303.000000	16.984428
1198.000000	1302.000000	16.988514
1199.000000	1301.000000	16.980668
1200.000000	1300.000000	16.964076
1201.000000	1299.000000	16.955576
1202.000000	1298.000000	16.952225
1203.000000	1297.000000	16.952062
1204.000000	1296.000000	16.941028
1205.000000	1295.000000	16.932773
1206.000000	1294.000000	16.923619
1207.000000	1293.000000	16.905148
1208.000000	1292.000000	16.900162
1209.000000	1291.000000	16.882018
1210.000000	1290.000000	16.855618
1211.000000	1289.000000	16.831017
1212.000000	1288.000000	16.798733
1213.000000	1287.000000	16.779199
1214.000000	1286.000000	16.741766
1215.000000	1285.000000	16.701881
1216.000000	1284.000000	16.671640
1217.000000	1283.000000	16.638375
1218.000000	1282.000000	16.609361
1219.000000	1281.000000	16.574298
1220.000000	1280.000000	16.534903
1221.000000	1279.000000	16.508749
1222.000000	1278.000000	16.483085
1223.000000	1277.000000	16.449248
1224.000000	1276.000000	16.421133
1225.000000	1275.000000	16.393425
1226.000000	1274.000000	16.369723
1227.000000	1273.000000	16.350271
1228.000000	1272.000000	16.336458
1229.000000	1271.000000	16.306545
1230.000000	1270.000000	16.276222
1231.000000	1269.000000	16.253746
1232.000000	1268.000000	16.235601
1233.000000	1267.000000	16.213616
1234.000000	1266.000000	16.181659
1235.000000	1265.000000	16.159918
1236.000000	1264.000000	16.128451
1237.000000	1263.000000	16.096494
1238.000000	1262.000000	16.070013
1239.000000	1261.000000	16.036993
1240.000000	1260.000000	15.999642
1241.000000	1259.000000	15.967685
1242.000000	1258.000000	15.944473
1243.000000	1257.000000	15.910227
1244.000000	1256.000000	15.861924
1245.000000	1255.000000	15.825553
1246.000000	1254.000000	15.800217
1247.000000	1253.000000	15.765971
1248.000000	1252.000000	15.733360
1249.000000	1251.000000	15.688898
1250.000000	1250.000000	15.649667
1251.000000	1249.000000	15.605123
1252.000000	1248.000000	15.551180
1253.000000	1247.000000	15.504511
1254.000000	1246.000000	15.441251
1255.000000	1245.000000	15.393192
1256.000000	1244.000000	15.321759
1257.000000	1243.000000	15.262749
1258.000000	1242.000000	15.204392
1259.000000	1241.000000	15.140641
1260.000000	1240.000000	15.072967
1261.000000	1239.000000	15.001943
1262.000000	1238.000000	14.931408
1263.000000	1237.000000	14.857604
1264.000000	1236.000000	14.791729
1265.000000	1235.000000	14.710978
1266.000000	1234.000000	14.638808
1267.000000	1233.000000	14.587399
1268.000000	1232.000000	14.497413
1269.000000	1231.000000	14.403176
1270.000000	1230.000000	14.346781
1271.000000	1229.000000	14.260636
1272.000000	1228.000000	14.173837
1273.000000	1227.000000	14.098235
1274.000000	1226.000000	13.998032
1275.000000	1225.000000	13.930439
1276.000000	1224.000000	13.851487
1277.000000	1223.000000	13.753572
1278.000000	1222.000000	13.688759
1279.000000	1221.000000	13.607190
1280.000000	1220.000000	13.537964
1281.000000	1219.000000	13.470698
1282.000000	1218.000000	13.398938
1283.000000	1217.000000	13.331264
1284.000000	1216.000000	13.274951
1285.000000	1215.000000	13.223296
1286.000000	1214.000000	13.151373
1287.000000	1213.000000	13.098329
1288.000000	1212.000000	13.055501
1289.000000	1211.000000	13.013246
1290.000000	1210.000000	12.985375
1291.000000	1209.000000	12.943937
1292.000000	1208.000000	12.920399
1293.000000	1207.000000	12.891384
1294.000000	1206.000000	12.872749
1295.000000	1205.000000	12.866701
1296.000000	1204.000000	12.877163
1297.000000	1203.000000	12.862451
1298.000000	1202.000000	12.864739
1299.000000	1201.000000	12.843162
1300.000000	1200.000000	12.834499
1301.000000	1199.000000	12.810551
1302.000000	1198.000000	12.767887
1303.000000	1197.000000	12.684930
1304.000000	1196.000000	12.597722
1305.000000	1195.000000	12.489100
1306.000000	1194.000000	12.350974
1307.000000	1193.000000	12.184486
1308.000000	1192.000000	11.979585
1309.000000	1191.000000	11.777053
1310.000000	1190.000000	11.603782
1311.000000	1189.000000	11.454703
1312.000000	1188.000000	11.354991
1313.000000	1187.000000	11.327529
1314.000000	1186.000000	11.319928
1315.000000	1185.000000	11.384496
1316.000000	1184.000000	11.507584
1317.000000	1183.000000	11.662956
1318.000000	1182.000000	11.876439
1319.000000	1181.000000	12.106105
1320.000000	1180.000000	12.335526
1321.000000	1179.000000	12.529394
1322.000000	1178.000000	12.701112
1323.000000	1177.000000	12.870052
1324.000000	1176.000000	13.003029
1325.000000	1175.000000	13.140094
1326.000000	1174.000000	13.270864
1327.000000	1173.000000	13.436208
1328.000000	1172.000000	13.576051
1329.000000	1171.000000	13.721533
1330.000000	1170.000000	13.902160
1331.000000	1169.000000	14.054427
1332.000000	1168.000000	14.241102
1333.000000	1167.000000	14.401133
1334.000000	1166.000000	14.567048
1335.000000	1165.000000	14.740401
1336.000000	1164.000000	14.933370
1337.000000	1163.000000	15.121925
1338.000000	1162.000000	15.279585
1339.000000	1161.000000	15.476395
1340.000000	1160.000000	15.648849
1341.000000	1159.000000	15.794986
1342.000000	1158.000000	15.914968
1343.000000	1157.000000	16.028575
1344.000000	1156.000000	16.128369
1345.000000	1155.000000	16.189995
1346.000000	1154.000000	16.230779
1347.000000	1153.000000	16.247780
1348.000000	1152.000000	16.240178
1349.000000	1151.000000	16.226856
1350.000000	1150.000000	16.187461
1351.000000	1149.000000	16.183947
1352.000000	1148.000000	16.191630
1353.000000	1147.000000	16.218765
1354.000000	1146.000000	16.265679
1355.000000	1145.000000	16.362613
1356.000000	1144.000000	16.482840
1357.000000	1143.000000	16.638049
1358.000000	1142.000000	16.805027
1359.000000	1141.000000	16.988678
1360.000000	1140.000000	17.144213
1361.000000	1139.000000	17.320590
1362.000000	1138.000000	17.511189
1363.000000	1137.000000	17.716417
1364.000000	1136.000000	17.915924
1365.000000	1135.000000	18.094345
1366.000000	1134.000000	18.216288
1367.000000	1133.000000	18.379670
1368.000000	1132.000000	18.542807
1369.000000	1131.000000	18.673332
1370.000000	1130.000000	18.788165
1371.000000	1129.000000	18.886570
1372.000000	1128.000000	18.963725
1373.000000	1127.000000	19.029111
1374.000000	1126.000000	19.068914
1375.000000	1125.000000	19.123429
1376.000000	1124.000000	19.161107
1377.000000	1123.000000	19.207449
1378.000000	1122.000000	19.219137
1379.000000	1121.000000	19.256652
1380.000000	1120.000000	19.282642
1381.000000	1119.000000	19.295393
1382.000000	1118.000000	19.280109
1383.000000	1117.000000	19.294085
1384.000000	1116.000000	19.284931
1385.000000	1115.000000	19.290489
1386.000000	1114.000000	19.286647
1387.000000	1113.000000	19.293104
1388.000000	1112.000000	19.287710
1389.000000	1111.000000	19.280844
1390.000000	1110.000000	19.283460
1391.000000	1109.000000	19.287792
1392.000000	1108.000000	19.283868
1393.000000	1107.000000	19.285094
1394.000000	1106.000000	19.281662
1395.000000	1105.000000	19.272508
1396.000000	1104.000000	19.256325
1397.000000	1103.000000	19.243902
1398.000000	1102.000000	19.252565
1399.000000	1101.000000	19.232623
1400.000000	1100.000000	19.217747
1401.000000	1099.000000	19.206223
1402.000000	1098.000000	19.201973
1403.000000	1097.000000	19.177127
1404.000000	1096.000000	19.165766
1405.000000	1095.000000	19.144025
1406.000000	1094.000000	19.134299
1407.000000	1093.000000	19.102506
1408.000000	1092.000000	19.091717
1409.000000	1091.000000	19.077904
1410.000000	1090.000000	19.056491
1411.000000	1089.000000	19.031154
1412.000000	1088.000000	19.014399
1413.000000	1087.000000	18.984975
1414.000000	1086.000000	18.954326
1415.000000	1085.000000	18.917792
1416.000000	1084.000000	18.899566
1417.000000	1083.000000	18.883792
1418.000000	1082.000000	18.859272
1419.000000	1081.000000	18.834671
1420.000000	1080.000000	18.798382
1421.000000	1079.000000	18.773781
1422.000000	1078.000000	18.752776
1423.000000	1077.000000	18.728338
1424.000000	1076.000000	18.712400
1425.000000	1075.000000	18.688044
1426.000000	1074.000000	18.661073
1427.000000	1073.000000	18.653226
1428.000000	1072.000000	18.618082
1429.000000	1071.000000	18.581302
1430.000000	1070.000000	18.558091
1431.000000	1069.000000	18.536268
1432.000000	1068.000000	18.517960
1433.000000	1067.000000	18.502268
1434.000000	1066.000000	18.473825
1435.000000	1065.000000	18.449306
1436.000000	1064.000000	18.435248
1437.000000	1063.000000	18.398305
1438.000000	1062.000000	18.365204
1439.000000	1061.000000	18.334473
1440.000000	1060.000000	18.314203
1441.000000	1059.000000	18.288049
1442.000000	1058.000000	18.263202
1443.000000	1057.000000	18.234024
1444.000000	1056.000000	18.195447
1445.000000	1055.000000	18.162754
1446.000000	1054.000000	18.134638
1447.000000	1053.000000	18.118129
1448.000000	1052.000000	18.102027
1449.000000	1051.000000	18.075873
1450.000000	1050.000000	18.056585
1451.000000	1049.000000	18.038032
1452.000000	1048.000000	18.009834
1453.000000	1047.000000	17.991690
1454.000000	1046.000000	17.970031
1455.000000	1045.000000	17.954257
1456.000000	1044.000000	17.943304
1457.000000	1043.000000	17.936929
1458.000000	1042.000000	17.922054
1459.000000	1041.000000	17.896963
1460.000000	1040.000000	17.893938
1461.000000	1039.000000	17.875712
1462.000000	1038.000000	17.842693
1463.000000	1037.000000	17.822015
1464.000000	1036.000000	17.806322
1465.000000	1035.000000	17.783437
1466.000000	1034.000000	17.759898
1467.000000	1033.000000	17.738403
1468.000000	1032.000000	17.708081
1469.000000	1031.000000	17.680619
1470.000000	1030.000000	17.646863
1471.000000	1029.000000	17.620137
1472.000000	1028.000000	17.588098
1473.000000	1027.000000	17.550338
1474.000000	1026.000000	17.514376
1475.000000	1025.000000	17.473429
1476.000000	1024.000000	17.438774
1477.000000	1023.000000	17.406163
1478.000000	1022.000000	17.373226
1479.000000	1021.000000	17.341841
1480.000000	1020.000000	17.304407
1481.000000	1019.000000	17.279234
1482.000000	1018.000000	17.252508
1483.000000	1017.000000	17.226599
1484.000000	1016.000000	17.208373
1485.000000	1015.000000	17.175435
1486.000000	1014.000000	17.168651
1487.000000	1013.000000	17.157536
1488.000000	1012.000000	17.149689
1489.000000	1011.000000	17.146829
1490.000000	1010.000000	17.146257
1491.000000	1009.000000	17.143314
1492.000000	1008.000000	17.144867
1493.000000	1007.000000	17.149035
1494.000000	1006.000000	17.166117
1495.000000	1005.000000	17.177968
1496.000000	1004.000000	17.179194
1497.000000	1003.000000	17.174944
1498.000000	1002.000000	17.174863
1499.000000	1001.000000	17.176089
1500.000000	1000.000000	17.166689
1501.000000	999.000000	17.189002
1502.000000	998.000000	17.186223
1503.000000	997.000000	17.174863
1504.000000	996.000000	17.186632
1505.000000	995.000000	17.191046
1506.000000	994.000000	17.182709
1507.000000	993.000000	17.186387
1508.000000	992.000000	17.186060
1509.000000	991.000000	17.180829
1510.000000	990.000000	17.174536
1511.000000	989.000000	17.183118
1512.000000	988.000000	17.192435
1513.000000	987.000000	17.197829
1514.000000	986.000000	17.188430
1515.000000	985.000000	17.194233
1516.000000	984.000000	17.202406
1517.000000	983.000000	17.194642
1518.000000	982.000000	17.200281
1519.000000	981.000000	17.199709
1520.000000	980.000000	17.200118
1521.000000	979.000000	17.190310
1522.000000	978.000000	17.205185
1523.000000	977.000000	17.198483
1524.000000	976.000000	17.190800
1525.000000	975.000000	17.192844
1526.000000	974.000000	17.189983
1527.000000	973.000000	17.191618
1528.000000	972.000000	17.189738
1529.000000	971.000000	17.181319
1530.000000	970.000000	17.174209
1531.000000	969.000000	17.162848
1532.000000	968.000000	17.157127
1533.000000	967.000000	17.149281
1534.000000	966.000000	17.146665
1535.000000	965.000000	17.143396
1536.000000	964.000000	17.128112
1537.000000	963.000000	17.120920
1538.000000	962.000000	17.121247
1539.000000	961.000000	17.121328
1540.000000	960.000000	17.127050
1541.000000	959.000000	17.121900
1542.000000	958.000000	17.112828
1543.000000	957.000000	17.114953
1544.000000	956.000000	17.123699
1545.000000	955.000000	17.092232
1546.000000	954.000000	17.085366
1547.000000	953.000000	17.070982
1548.000000	952.000000	17.042130
1549.000000	951.000000	17.008293
1550.000000	950.000000	16.991293
1551.000000	949.000000	16.972822
1552.000000	948.000000	16.937105
1553.000000	947.000000	16.914465
1554.000000	946.000000	16.900571
1555.000000	945.000000	16.872864
1556.000000	944.000000	16.845647
1557.000000	943.000000	16.818185
1558.000000	942.000000	16.789497
1559.000000	941.000000	16.793993
1560.000000	940.000000	16.783041
1561.000000	939.000000	16.764406
1562.000000	938.000000	16.750675
1563.000000	937.000000	16.730569
1564.000000	936.000000	16.740458
1565.000000	935.000000	16.703107
1566.000000	934.000000	16.677934
1567.000000	933.000000	16.681530
1568.000000	932.000000	16.676953
1569.000000	931.000000	16.640010
1570.000000	930.000000	16.614101
1571.000000	929.000000	16.609034
1572.000000	928.000000	16.610505
1573.000000	927.000000	16.605683
1574.000000	926.000000	16.598817
1575.000000	925.000000	16.589745
1576.000000	924.000000	16.595466
1577.000000	923.000000	16.602332
1578.000000	922.000000	16.598082
1579.000000	921.000000	16.587620
1580.000000	920.000000	16.582961
1581.000000	919.000000	16.572663
1582.000000	918.000000	16.583533
1583.000000	917.000000	16.568822
1584.000000	916.000000	16.553783
1585.000000	915.000000	16.540870
1586.000000	914.000000	16.527874
1587.000000	913.000000	16.528610
1588.000000	912.000000	16.522725
1589.000000	911.000000	16.515287
1590.000000	910.000000	16.493792
1591.000000	909.000000	16.498042
1592.000000	908.000000	16.513898
1593.000000	907.000000	16.519864
1594.000000	906.000000	16.549370
1595.000000	905.000000	16.553783
1596.000000	904.000000	16.581735
1597.000000	903.000000	16.602740
1598.000000	902.000000	16.623827
1599.000000	901.000000	16.639847
1600.000000	900.000000	16.707275
1601.000000	899.000000	16.729261
1602.000000	898.000000	16.758439
1603.000000	897.000000	16.795219
1604.000000	896.000000	16.846791
1605.000000	895.000000	16.873599
1606.000000	894.000000	16.911360
1607.000000	893.000000	16.950264
1608.000000	892.000000	16.979687
1609.000000	891.000000	17.018755
1610.000000	890.000000	17.026520
1611.000000	889.000000	17.075559
1612.000000	888.000000	17.107679
1613.000000	887.000000	17.120511
1614.000000	886.000000	17.151079
1615.000000	885.000000	17.182627
1616.000000	884.000000	17.217445
1617.000000	883.000000	17.227007
1618.000000	882.000000	17.241229
1619.000000	881.000000	17.259210
1620.000000	880.000000	17.304653
1621.000000	879.000000	17.318710
1622.000000	878.000000	17.342821
1623.000000	877.000000	17.360639
1624.000000	876.000000	17.383442
1625.000000	875.000000	17.415890
1626.000000	874.000000	17.463049
1627.000000	873.000000	17.500564
1628.000000	872.000000	17.531376
1629.000000	871.000000	17.578291
1630.000000	870.000000	17.631661
1631.000000	869.000000	17.667215
1632.000000	868.000000	17.698927
1633.000000	867.000000	17.749764
1634.000000	866.000000	17.806976
1635.000000	865.000000	17.857077
1636.000000	864.000000	17.889770
1637.000000	863.000000	17.918948
1638.000000	862.000000	17.947555
1639.000000	861.000000	17.953112
1640.000000	860.000000	17.987358
1641.000000	859.000000	18.003377
1642.000000	858.000000	17.460433
1643.000000	857.000000	17.498600
1644.000000	856.000000	17.485900
1645.000000	855.000000	17.396800
1646.000000	854.000000	17.498300
1647.000000	853.000000	17.275800
1648.000000	852.000000	17.234400
1649.000000	851.000000	17.392900
1650.000000	850.000000	17.423000
1651.000000	849.000000	17.407900
1652.000000	848.000000	17.473400
1653.000000	847.000000	17.309800
1654.000000	846.000000	17.281800
1655.000000	845.000000	17.309300
1656.000000	844.000000	17.277400
1657.000000	843.000000	17.202000
1658.000000	842.000000	17.266700
1659.000000	841.000000	17.257900
1660.000000	840.000000	17.263300
1661.000000	839.000000	17.316600
1662.000000	838.000000	17.342700
1663.000000	837.000000	17.251200
1664.000000	836.000000	17.265200
1665.000000	835.000000	17.268600
1666.000000	834.000000	17.316700
1667.000000	833.000000	17.336700
1668.000000	832.000000	17.373800
1669.000000	831.000000	17.263100
1670.000000	830.000000	17.316700
1671.000000	829.000000	17.415600
1672.000000	828.000000	17.432800
1673.000000	827.000000	17.386400
1674.000000	826.000000	17.357200
1675.000000	825.000000	17.299400
1676.000000	824.000000	17.339700
1677.000000	823.000000	17.272200
1678.000000	822.000000	17.304400
1679.000000	821.000000	17.314000
1680.000000	820.000000	17.318400
1681.000000	819.000000	17.293400
1682.000000	818.000000	17.294200
1683.000000	817.000000	17.255600
1684.000000	816.000000	17.208100
1685.000000	815.000000	17.201000
1686.000000	814.000000	17.195700
1687.000000	813.000000	17.148200
1688.000000	812.000000	17.126800
1689.000000	811.000000	17.151300
1690.000000	810.000000	17.137100
1691.000000	809.000000	17.087900
1692.000000	808.000000	17.064600
1693.000000	807.000000	17.039300
1694.000000	806.000000	16.986800
1695.000000	805.000000	16.951600
1696.000000	804.000000	16.954300
1697.000000	803.000000	16.927800
1698.000000	802.000000	16.957100
1699.000000	801.000000	16.975900
1700.000000	800.000000	16.997000
1701.000000	799.000000	16.992500
1702.000000	798.000000	16.979400
1703.000000	797.000000	16.914400
1704.000000	796.000000	16.903900
1705.000000	795.000000	16.861600
1706.000000	794.000000	16.794500
1707.000000	793.000000	16.765900
1708.000000	792.000000	16.708800
1709.000000	791.000000	16.691800
1710.000000	790.000000	16.679500
1711.000000	789.000000	16.632700
1712.000000	788.000000	16.536300
1713.000000	787.000000	16.443400
1714.000000	786.000000	16.413000
1715.000000	785.000000	16.379200
1716.000000	784.000000	16.304900
1717.000000	783.000000	16.200200
1718.000000	782.000000	16.110500
1719.000000	781.000000	16.053600
1720.000000	780.000000	16.006600
1721.000000	779.000000	15.973000
1722.000000	778.000000	15.928000
1723.000000	777.000000	15.872700
1724.000000	776.000000	15.842200
1725.000000	775.000000	15.779400
1726.000000	774.000000	15.754300
1727.000000	773.000000	15.740000
1728.000000	772.000000	15.734000
1729.000000	771.000000	15.683700
1730.000000	770.000000	15.619900
1731.000000	769.000000	15.630700
1732.000000	768.000000	15.634800
1733.000000	767.000000	15.626400
1734.000000	766.000000	15.610600
1735.000000	765.000000	15.599900
1736.000000	764.000000	15.573500
1737.000000	763.000000	15.531200
1738.000000	762.000000	15.512300
1739.000000	761.000000	15.492300
1740.000000	760.000000	15.456400
1741.000000	759.000000	15.415400
1742.000000	758.000000	15.385900
1743.000000	757.000000	15.369200
1744.000000	756.000000	15.330900
1745.000000	755.000000	15.292000
1746.000000	754.000000	15.248000
1747.000000	753.000000	15.195000
1748.000000	752.000000	15.140400
1749.000000	751.000000	15.084700
1750.000000	750.000000	15.028100
1751.000000	749.000000	14.970700
1752.000000	748.000000	14.921200
1753.000000	747.000000	14.872000
1754.000000	746.000000	14.824300
1755.000000	745.000000	14.788200
1756.000000	744.000000	14.735500
1757.000000	743.000000	14.696000
1758.000000	742.000000	14.689200
1759.000000	741.000000	14.638400
1760.000000	740.000000	14.569000
1761.000000	739.000000	14.536900
1762.000000	738.000000	14.495400
1763.000000	737.000000	14.424600
1764.000000	736.000000	14.384800
1765.000000	735.000000	14.335400
1766.000000	734.000000	14.300800
1767.000000	733.000000	14.249500
1768.000000	732.000000	14.163200
1769.000000	731.000000	14.099400
1770.000000	730.000000	14.044700
1771.000000	729.000000	13.989800
1772.000000	728.000000	13.924400
1773.000000	727.000000	13.862200
1774.000000	726.000000	13.790000
1775.000000	725.000000	13.724600
1776.000000	724.000000	13.661300
1777.000000	723.000000	13.581300
1778.000000	722.000000	13.506300
1779.000000	721.000000	13.417300
1780.000000	720.000000	13.339800
1781.000000	719.000000	13.252000
1782.000000	718.000000	13.144600
1783.000000	717.000000	13.048300
1784.000000	716.000000	12.965800
1785.000000	715.000000	12.905200
1786.000000	714.000000	12.819500
1787.000000	713.000000	12.748200
1788.000000	712.000000	12.697000
1789.000000	711.000000	12.630500
1790.000000	710.000000	12.581600
1791.000000	709.000000	12.551400
1792.000000	708.000000	12.500500
1793.000000	707.000000	12.474400
1794.000000	706.000000	12.440500
1795.000000	705.000000	12.380300
1796.000000	704.000000	12.361300
1797.000000	703.000000	12.356300
1798.000000	702.000000	12.351100
1799.000000	701.000000	12.344800
1800.000000	700.000000	12.319200
1801.000000	699.000000	12.303900
1802.000000	698.000000	12.294000
1803.000000	697.000000	12.270700
1804.000000	696.000000	12.250600
1805.000000	695.000000	12.264800
1806.000000	694.000000	12.271300
1807.000000	693.000000	12.282100
1808.000000	692.000000	12.288400
1809.000000	691.000000	12.291300
1810.000000	690.000000	12.270600
1811.000000	689.000000	12.245400
1812.000000	688.000000	12.240500
1813.000000	687.000000	12.204600
1814.000000	686.000000	12.169200
1815.000000	685.000000	12.158100
1816.000000	684.000000	12.123900
1817.000000	683.000000	12.109900
1818.000000	682.000000	12.082600
1819.000000	681.000000	12.032500
1820.000000	680.000000	11.990100
1821.000000	679.000000	11.920200
1822.000000	678.000000	11.878000
1823.000000	677.000000	11.831200
1824.000000	676.000000	11.790400
1825.000000	675.000000	11.721100
1826.000000	674.000000	11.655200
1827.000000	673.000000	11.606500
1828.000000	672.000000	11.543200
1829.000000	671.000000	11.482400
1830.000000	670.000000	11.433200
1831.000000	669.000000	11.371200
1832.000000	668.000000	11.304700
1833.000000	667.000000	11.246700
1834.000000	666.000000	11.180700
1835.000000	665.000000	11.101000
1836.000000	664.000000	11.031600
1837.000000	663.000000	10.932400
1838.000000	662.000000	10.823700
1839.000000	661.000000	10.734800
1840.000000	660.000000	10.636400
1841.000000	659.000000	10.531200
1842.000000	658.000000	10.431700
1843.000000	657.000000	10.304000
1844.000000	656.000000	10.175100
1845.000000	655.000000	10.068000
1846.000000	654.000000	9.960700
1847.000000	653.000000	9.848800
1848.000000	652.000000	9.708000
1849.000000	651.000000	9.594100
1850.000000	650.000000	9.497700
1851.000000	649.000000	9.416300
1852.000000	648.000000	9.342700
1853.000000	647.000000	9.287300
1854.000000	646.000000	9.239100
1855.000000	645.000000	9.204700
1856.000000	644.000000	9.187500
1857.000000	643.000000	9.195100
1858.000000	642.000000	9.222600
1859.000000	641.000000	9.252700
1860.000000	640.000000	9.306500
1861.000000	639.000000	9.371700
1862.000000	638.000000	9.440100
1863.000000	637.000000	9.543400
1864.000000	636.000000	9.645500
1865.000000	635.000000	9.761600
1866.000000	634.000000	9.889100
1867.000000	633.000000	10.014100
1868.000000	632.000000	10.158100
1869.000000	631.000000	10.316200
1870.000000	630.000000	10.472400
1871.000000	629.000000	10.614500
1872.000000	628.000000	10.768300
1873.000000	627.000000	10.922300
1874.000000	626.000000	11.059700
1875.000000	625.000000	11.173200
1876.000000	624.000000	11.315200
1877.000000	623.000000	11.439000
1878.000000	622.000000	11.574600
1879.000000	621.000000	11.694000
1880.000000	620.000000	11.797500
1881.000000	619.000000	11.866400
1882.000000	618.000000	11.960800
1883.000000	617.000000	12.047300
1884.000000	616.000000	12.112800
1885.000000	615.000000	12.159500
1886.000000	614.000000	12.230400
1887.000000	613.000000	12.309700
1888.000000	612.000000	12.369200
1889.000000	611.000000	12.418900
1890.000000	610.000000	12.455100
1891.000000	609.000000	12.491600
1892.000000	608.000000	12.565000
1893.000000	607.000000	12.610300
1894.000000	606.000000	12.644900
1895.000000	605.000000	12.692600
1896.000000	604.000000	12.729000
1897.000000	603.000000	12.726500
1898.000000	602.000000	12.774400
1899.000000	601.000000	12.783600
1900.000000	600.000000	12.785100
1901.000000	599.000000	12.813300
1902.000000	598.000000	12.821700
1903.000000	597.000000	12.840800
1904.000000	596.000000	12.828000
1905.000000	595.000000	12.849800
1906.000000	594.000000	12.854000
1907.000000	593.000000	12.847700
1908.000000	592.000000	12.844800
1909.000000	591.000000	12.813700
1910.000000	590.000000	12.797500
1911.000000	589.000000	12.818000
1912.000000	588.000000	12.833600
1913.000000	587.000000	12.813700
1914.000000	586.000000	12.787200
1915.000000	585.000000	12.786700
1916.000000	584.000000	12.779100
1917.000000	583.000000	12.772100
1918.000000	582.000000	12.715800
1919.000000	581.000000	12.697000
1920.000000	580.000000	12.693100
1921.000000	579.000000	12.680500
1922.000000	578.000000	12.655000
1923.000000	577.000000	12.637000
1924.000000	576.000000	12.603600
1925.000000	575.000000	12.583400
1926.000000	574.000000	12.553000
1927.000000	573.000000	12.506900
1928.000000	572.000000	12.454800
1929.000000	571.000000	12.406300
1930.000000	570.000000	12.387700
1931.000000	569.000000	12.367200
1932.000000	568.000000	12.353700
1933.000000	567.000000	12.293600
1934.000000	566.000000	12.275500
1935.000000	565.000000	12.236800
1936.000000	564.000000	12.201800
1937.000000	563.000000	12.173100
1938.000000	562.000000	12.133900
1939.000000	561.000000	12.096600
1940.000000	560.000000	12.077500
1941.000000	559.000000	12.099400
1942.000000	558.000000	12.044000
1943.000000	557.000000	11.977500
1944.000000	556.000000	11.900700
1945.000000	555.000000	11.824500
1946.000000	554.000000	11.728000
1947.000000	553.000000	11.612300
1948.000000	552.000000	11.521800
1949.000000	551.000000	11.407600
1950.000000	550.000000	11.304500
1951.000000	549.000000	11.180900
1952.000000	548.000000	11.056900
1953.000000	547.000000	10.926400
1954.000000	546.000000	10.804400
1955.000000	545.000000	10.654800
1956.000000	544.000000	10.499900
1957.000000	543.000000	10.348400
1958.000000	542.000000	10.194100
1959.000000	541.000000	10.010500
1960.000000	540.000000	9.823200
1961.000000	539.000000	9.641600
1962.000000	538.000000	9.450700
1963.000000	537.000000	9.245200
1964.000000	536.000000	9.044600
1965.000000	535.000000	8.834400
1966.000000	534.000000	8.631800
1967.000000	533.000000	8.431100
1968.000000	532.000000	8.247400
1969.000000	531.000000	8.056000
1970.000000	530.000000	7.867700
1971.000000	529.000000	7.694500
1972.000000	528.000000	7.520100
1973.000000	527.000000	7.331000
1974.000000	526.000000	7.155400
1975.000000	525.000000	6.975500
1976.000000	524.000000	6.812500
1977.000000	523.000000	6.659500
1978.000000	522.000000	6.517800
1979.000000	521.000000	6.370000
1980.000000	520.000000	6.232600
1981.000000	519.000000	6.095700
1982.000000	518.000000	5.976800
1983.000000	517.000000	5.869700
1984.000000	516.000000	5.776400
1985.000000	515.000000	5.682500
1986.000000	514.000000	5.599100
1987.000000	513.000000	5.519800
1988.000000	512.000000	5.445600
1989.000000	511.000000	5.382300
1990.000000	510.000000	5.323700
1991.000000	509.000000	5.276200
1992.000000	508.000000	5.221900
1993.000000	507.000000	5.171400
1994.000000	506.000000	5.121600
1995.000000	505.000000	5.073500
1996.000000	504.000000	5.040400
1997.000000	503.000000	5.015800
1998.000000	502.000000	4.982000
1999.000000	501.000000	4.955700
2000.000000	500.000000	4.926500
2001.000000	499.000000	4.898500
2002.000000	498.000000	4.876300
2003.000000	497.000000	4.861200
2004.000000	496.000000	4.839400
2005.000000	495.000000	4.814000
2006.000000	494.000000	4.796000
2007.000000	493.000000	4.785200
2008.000000	492.000000	4.764300
2009.000000	491.000000	4.744200
2010.000000	490.000000	4.722500
2011.000000	489.000000	4.704200
2012.000000	488.000000	4.681700
2013.000000	487.000000	4.655000
2014.000000	486.000000	4.629500
2015.000000	485.000000	4.590200
2016.000000	484.000000	4.551300
2017.000000	483.000000	4.517300
2018.000000	482.000000	4.501400
2019.000000	481.000000	4.508900
2020.000000	480.000000	4.521300
2021.000000	479.000000	4.513600
2022.000000	478.000000	4.477900
2023.000000	477.000000	4.441800
2024.000000	476.000000	4.403600
2025.000000	475.000000	4.367100
2026.000000	474.000000	4.324900
2027.000000	473.000000	4.282300
2028.000000	472.000000	4.247500
2029.000000	471.000000	4.205800
2030.000000	470.000000	4.154600
2031.000000	469.000000	4.097900
2032.000000	468.000000	4.058800
2033.000000	467.000000	4.018400
2034.000000	466.000000	3.976100
2035.000000	465.000000	3.945100
2036.000000	464.000000	3.911200
2037.000000	463.000000	3.879200
2038.000000	462.000000	3.846100
2039.000000	461.000000	3.813600
2040.000000	460.000000	3.797600
2041.000000	459.000000	3.787100
2042.000000	458.000000	3.766300
2043.000000	457.000000	3.756300
2044.000000	456.000000	3.755200
2045.000000	455.000000	3.755000
2046.000000	454.000000	3.761800
2047.000000	453.000000	3.771900
2048.000000	452.000000	3.777100
2049.000000	451.000000	3.782100
2050.000000	450.000000	3.790400
2051.000000	449.000000	3.806600
2052.000000	448.000000	3.818800
2053.000000	447.000000	3.823100
2054.000000	446.000000	3.830200
2055.000000	445.000000	3.828600
2056.000000	444.000000	3.821800
2057.000000	443.000000	3.828800
2058.000000	442.000000	3.839800
2059.000000	441.000000	3.836700
2060.000000	440.000000	3.835600
2061.000000	439.000000	3.835900
2062.000000	438.000000	3.830600
2063.000000	437.000000	3.819600
2064.000000	436.000000	3.802200
2065.000000	435.000000	3.794600
2066.000000	434.000000	3.779100
2067.000000	433.000000	3.759100
2068.000000	432.000000	3.738100
2069.000000	431.000000	3.707800
2070.000000	430.000000	3.685000
2071.000000	429.000000	3.661700
2072.000000	428.000000	3.637500
2073.000000	427.000000	3.607000
2074.000000	426.000000	3.575700
2075.000000	425.000000	3.547700
2076.000000	424.000000	3.509800
2077.000000	423.000000	3.473100
2078.000000	422.000000	3.430100
2079.000000	421.000000	3.391200
2080.000000	420.000000	3.356500
2081.000000	419.000000	3.308100
2082.000000	418.000000	3.251100
2083.000000	417.000000	3.206500
2084.000000	416.000000	3.171500
2085.000000	415.000000	3.134100
2086.000000	414.000000	3.094000
2087.000000	413.000000	3.046600
2088.000000	412.000000	2.994600
2089.000000	411.000000	2.948100
2090.000000	410.000000	2.898500
2091.000000	409.000000	2.838700
2092.000000	408.000000	2.800300
2093.000000	407.000000	2.758500
2094.000000	406.000000	2.702200
2095.000000	405.000000	2.652200
2096.000000	404.000000	2.599000
2097.000000	403.000000	2.551300
2098.000000	402.000000	2.506500
2099.000000	401.000000	2.463800
2100.000000	400.000000	2.426600
2101.000000	399.000000	2.379400
2102.000000	398.000000	2.327300
2103.000000	397.000000	2.282700
2104.000000	396.000000	2.238700
2105.000000	395.000000	2.197800
2106.000000	394.000000	2.155900
2107.000000	393.000000	2.116000
2108.000000	392.000000	2.068400
2109.000000	391.000000	2.043400
2110.000000	390.000000	2.017300
2111.000000	389.000000	1.978000
2112.000000	388.000000	1.940100
2113.000000	387.000000	1.916300
2114.000000	386.000000	1.889600
2115.000000	385.000000	1.862800
2116.000000	384.000000	1.843900
2117.000000	383.000000	1.812400
2118.000000	382.000000	1.790800
2119.000000	381.000000	1.778100
2120.000000	380.000000	1.750600
2121.000000	379.000000	1.716700
2122.000000	378.000000	1.702300
2123.000000	377.000000	1.683600
2124.000000	376.000000	1.841600
2125.000000	375.000000	1.815800
2126.000000	374.000000	1.792400
2127.000000	373.000000	1.752100
2128.000000	372.000000	1.793800
2129.000000	371.000000	1.823900
2130.000000	370.000000	1.802900
2131.000000	369.000000	1.831800
2132.000000	368.000000	1.830100
2133.000000	367.000000	1.850100
2134.000000	366.000000	1.858200
2135.000000	365.000000	1.825100
2136.000000	364.000000	1.853000
2137.000000	363.000000	1.782300
2138.000000	362.000000	1.829900
2139.000000	361.000000	1.806400
2140.000000	360.000000	1.802800
2141.000000	359.000000	1.779200
2142.000000	358.000000	1.802300
2143.000000	357.000000	1.812000
2144.000000	356.000000	1.830500
2145.000000	355.000000	1.815200
2146.000000	354.000000	1.764500
2147.000000	353.000000	1.812800
2148.000000	352.000000	1.781200
2149.000000	351.000000	1.766800
2150.000000	350.000000	1.754200
2151.000000	349.000000	1.833700
2152.000000	348.000000	1.812600
2153.000000	347.000000	1.779800
2154.000000	346.000000	1.758000
2155.000000	345.000000	1.793600
2156.000000	344.000000	1.818800
2157.000000	343.000000	1.872400
2158.000000	342.000000	1.877300
2159.000000	341.000000	1.801400
2160.000000	340.000000	1.842100
2161.000000	339.000000	1.811100
2162.000000	338.000000	1.789800
2163.000000	337.000000	1.731500
2164.000000	336.000000	1.685500
2165.000000	335.000000	1.761300
2166.000000	334.000000	1.759500
2167.000000	333.000000	1.868600
2168.000000	332.000000	1.791200
2169.000000	331.000000	1.939200
2170.000000	330.000000	1.908100
2171.000000	329.000000	1.828600
2172.000000	328.000000	1.717100
2173.000000	327.000000	1.853900
2174.000000	326.000000	1.883500
2175.000000	325.000000	1.942300
2176.000000	324.000000	1.943000
2177.000000	323.000000	2.016500
2178.000000	322.000000	1.975700
2179.000000	321.000000	1.926700
2180.000000	320.000000	1.872300
2181.000000	319.000000	1.982100
2182.000000	318.000000	1.982600
2183.000000	317.000000	2.055500
2184.000000	316.000000	1.703100
2185.000000	315.000000	1.634100
2186.000000	314.000000	1.595700
2187.000000	313.000000	1.591400
2188.000000	312.000000	1.625800
2189.000000	311.000000	1.621300
2190.000000	310.000000	1.642100
2191.000000	309.000000	1.659600
2192.000000	308.000000	1.629200
2193.000000	307.000000	1.625400
2194.000000	306.000000	1.630800
2195.000000	305.000000	1.618500
2196.000000	304.000000	1.600700
2197.000000	303.000000	1.593900
2198.000000	302.000000	1.606100
2199.000000	301.000000	1.634700
2200.000000	300.000000	1.644900
2201.000000	299.000000	1.615800
2202.000000	298.000000	1.595500
2203.000000	297.000000	1.641800
2204.000000	296.000000	1.635900
2205.000000	295.000000	1.590200
2206.000000	294.000000	1.608000
2207.000000	293.000000	1.616900
2208.000000	292.000000	1.601900
2209.000000	291.000000	1.596900
2210.000000	290.000000	1.584400
2211.000000	289.000000	1.665700
2212.000000	288.000000	1.599200
2213.000000	287.000000	1.595200
2214.000000	286.000000	1.611900
2215.000000	285.000000	1.621300
2216.000000	284.000000	1.605200
2217.000000	283.000000	1.597300
2218.000000	282.000000	1.649100
2219.000000	281.000000	1.645000
2220.000000	280.000000	1.608400
2221.000000	279.000000	1.662700
2222.000000	278.000000	1.602700
2223.000000	277.000000	1.617400
2224.000000	276.000000	1.620200
2225.000000	275.000000	1.607500
2226.000000	274.000000	1.670400
2227.000000	273.000000	1.630200
2228.000000	272.000000	1.729300
2229.000000	271.000000	1.660000
2230.000000	270.000000	1.645400
2231.000000	269.000000	1.631000
2232.000000	268.000000	1.673300
2233.000000	267.000000	1.662500
2234.000000	266.000000	1.659700
2235.000000	265.000000	1.677000
2236.000000	264.000000	1.661400
2237.000000	263.000000	1.677400
2238.000000	262.000000	1.719000
2239.000000	261.000000	1.686300
2240.000000	260.000000	1.706300
2241.000000	259.000000	1.688700
2242.000000	258.000000	1.703000
2243.000000	257.000000	1.678800
2244.000000	256.000000	1.701300
2245.000000	255.000000	1.687300
2246.000000	254.000000	1.696700
2247.000000	253.000000	1.699100
2248.000000	252.000000	1.692700
2249.000000	251.000000	1.714300
2250.000000	250.000000	1.722200
