Time1=100ms:Average1=5:Objective=10X:Aperture=1: (11/21/2018 10:19:35 AM)
11/21/2018 10:19:35 AM
Reflectance
10X
Ap#: 1
Avg1: 5.000000
Avg2: 0.000000
Int.Time1:100.000000
Int.Time2:0.000000
420.190645	8.672930
420.624620	8.579184
421.058582	8.480788
421.492531	8.398839
421.926468	8.317281
422.360391	8.252009
422.794301	8.211435
423.228199	8.192306
423.662083	8.186028
424.095955	8.187571
424.529813	8.195871
424.963658	8.182221
425.397491	8.186338
425.831310	8.174869
426.265116	8.154817
426.698909	8.138079
427.132689	8.144908
427.566455	8.144822
428.000209	8.162810
428.433949	8.184206
428.867676	8.203472
429.301389	8.223887
429.735090	8.247975
430.168777	8.249937
430.602451	8.251392
431.036111	8.230454
431.469759	8.214395
431.903392	8.189940
432.337013	8.173261
432.770620	8.146390
433.204213	8.144432
433.637794	8.154610
434.071360	8.173559
434.504914	8.207163
434.938453	8.243390
435.371979	8.291801
435.805492	8.332923
436.238991	8.355599
436.672477	8.380563
437.105949	8.398612
437.539407	8.412475
437.972852	8.407501
438.406283	8.414131
438.839700	8.405944
439.273104	8.425119
439.706494	8.443006
440.139871	8.466518
440.573233	8.486219
441.006582	8.504793
441.439917	8.518666
441.873238	8.522613
442.306546	8.511655
442.739839	8.497404
443.173119	8.475306
443.606385	8.452239
444.039636	8.428911
444.472874	8.424205
444.906099	8.421992
445.339309	8.427043
445.772505	8.442579
446.205687	8.470900
446.638855	8.495282
447.072009	8.517628
447.505149	8.546864
447.938275	8.569018
448.371387	8.594079
448.804485	8.611313
449.237569	8.627214
449.670638	8.645727
450.103694	8.647172
450.536735	8.636964
450.969762	8.639926
451.402774	8.649531
451.835773	8.664361
452.268757	8.695487
452.701727	8.726323
453.134683	8.758468
453.567624	8.790298
454.000551	8.819676
454.433464	8.849313
454.866362	8.873163
455.299246	8.902812
455.732116	8.934217
456.164971	8.960170
456.597811	8.996854
457.030638	9.040174
457.463449	9.084057
457.896246	9.130186
458.329029	9.180093
458.761797	9.244837
459.194551	9.306273
459.627290	9.368738
460.060014	9.439450
460.492724	9.514542
460.925419	9.592234
461.358099	9.670729
461.790765	9.738936
462.223416	9.812012
462.656052	9.878571
463.088674	9.949417
463.521281	10.023624
463.953873	10.101455
464.386450	10.175920
464.819012	10.254795
465.251560	10.337077
465.684093	10.423773
466.116611	10.515296
466.549114	10.617387
466.981602	10.722110
467.414075	10.828573
467.846533	10.934598
468.278977	11.042330
468.711405	11.143610
469.143818	11.242563
469.576216	11.336911
470.008600	11.418507
470.440968	11.499200
470.873321	11.575171
471.305659	11.642989
471.737982	11.709411
472.170289	11.769940
472.602582	11.832839
473.034859	11.900328
473.467122	11.967227
473.899369	12.038916
474.331600	12.114394
474.763817	12.194582
475.196018	12.290213
475.628204	12.383736
476.060375	12.487600
476.492530	12.589249
476.924670	12.686660
477.356795	12.782543
477.788904	12.872482
478.220998	12.953663
478.653076	13.027860
479.085139	13.088031
479.517186	13.148026
479.949219	13.207335
480.381235	13.270874
480.813236	13.346583
481.245221	13.433026
481.677191	13.520315
482.109146	13.614547
482.541084	13.708846
482.973008	13.802249
483.404915	13.891990
483.836807	13.969504
484.268683	14.043163
484.700544	14.106270
485.132388	14.158072
485.564217	14.195686
485.996031	14.228136
486.427828	14.255019
486.859610	14.276706
487.291376	14.298083
487.723126	14.322011
488.154860	14.351777
488.586579	14.386591
489.018281	14.439170
489.449968	14.512693
489.881639	14.597096
490.313293	14.698876
490.744932	14.818069
491.176555	14.943550
491.608162	15.070572
492.039753	15.197272
492.471328	15.316429
492.902886	15.415891
493.334429	15.499924
493.765956	15.574311
494.197466	15.641946
494.628960	15.708676
495.060439	15.784415
495.491901	15.874075
495.923347	15.981397
496.354776	16.110649
496.786190	16.268078
497.217587	16.444201
497.648968	16.630040
498.080332	16.827981
498.511681	17.034009
498.943013	17.237912
499.374328	17.428774
499.805628	17.606770
500.236911	17.778772
500.668177	17.937447
501.099427	18.081283
501.530661	18.216160
501.961878	18.336024
502.393079	18.453726
502.824264	18.555232
503.255431	18.663469
503.686583	18.771316
504.117717	18.888124
504.548835	19.018650
504.979937	19.178280
505.411022	19.354950
505.842090	19.568164
506.273142	19.801532
506.704177	20.060872
507.135195	20.325034
507.566197	20.590121
507.997182	20.839651
508.428150	21.076322
508.859102	21.290014
509.290036	21.480073
509.720954	21.646479
510.151855	21.789633
510.582739	21.921144
511.013607	22.057192
511.444457	22.200965
511.875291	22.355293
512.306107	22.544077
512.736907	22.757215
513.167690	23.001929
513.598456	23.274577
514.029205	23.562099
514.459936	23.863753
514.890651	24.161447
515.321349	24.456627
515.752030	24.732846
516.182693	24.984122
516.613340	25.206390
517.043969	25.402084
517.474582	25.567697
517.905177	25.701118
518.335755	25.800618
518.766315	25.881920
519.196859	25.928951
519.627385	25.969767
520.057894	25.998824
520.488386	26.031748
520.918860	26.077023
521.349318	26.147273
521.779757	26.239134
522.210180	26.359083
522.640585	26.509490
523.070973	26.692102
523.501343	26.898192
523.931696	27.124821
524.362031	27.357839
524.792349	27.594383
525.222650	27.826213
525.652933	28.019269
526.083198	28.191245
526.513446	28.326999
526.943677	28.418288
527.373890	28.487144
527.804085	28.536454
528.234262	28.582928
528.664422	28.624054
529.094565	28.680785
529.524689	28.765641
529.954796	28.881439
530.384885	29.027492
530.814957	29.211223
531.245011	29.428729
531.675047	29.669559
532.105065	29.929005
532.535065	30.201219
532.965048	30.467938
533.395013	30.720962
533.824959	30.955175
534.254888	31.163700
534.684799	31.333707
535.114693	31.474485
535.544568	31.585420
535.974425	31.652753
536.404264	31.683852
536.834086	31.684357
537.263889	31.667177
537.693674	31.630978
538.123441	31.582508
538.553190	31.536568
538.982921	31.509458
539.412634	31.499882
539.842329	31.515152
540.272006	31.566275
540.701664	31.644645
541.131304	31.753072
541.560926	31.889788
541.990530	32.056009
542.420116	32.240401
542.849683	32.431301
543.279232	32.620825
543.708763	32.800314
544.138275	32.956299
544.567769	33.096519
544.997245	33.213322
545.426702	33.300960
545.856141	33.364963
546.285562	33.411535
546.714964	33.448576
547.144347	33.477268
547.573713	33.510867
548.003059	33.559372
548.432387	33.624852
548.861697	33.709371
549.290988	33.828592
549.720260	33.983939
550.149514	34.175979
550.578750	34.387468
551.007966	34.623957
551.437164	34.881193
551.866344	35.143160
552.295504	35.403685
552.724646	35.658685
553.153769	35.895763
553.582874	36.101142
554.011960	36.274462
554.441027	36.401700
554.870075	36.479997
555.299104	36.511161
555.728115	36.492300
556.157106	36.439430
556.586079	36.347169
557.015033	36.240388
557.443968	36.127185
557.872884	35.996723
558.301781	35.881267
558.730659	35.784964
559.159518	35.708178
559.588358	35.658331
560.017180	35.636869
560.445982	35.645082
560.874765	35.683307
561.303528	35.751695
561.732273	35.834745
562.160999	35.934388
562.589705	36.053020
563.018393	36.171095
563.447061	36.296512
563.875710	36.422415
564.304340	36.542203
564.732950	36.645453
565.161542	36.738979
565.590114	36.821912
566.018666	36.897026
566.447200	36.959897
566.875714	37.014592
567.304208	37.061676
567.732684	37.112173
568.161140	37.165355
568.589576	37.226606
569.017993	37.300654
569.446391	37.386900
569.874769	37.496422
570.303128	37.623826
570.731467	37.766351
571.159787	37.937131
571.588087	38.122176
572.016368	38.325449
572.444629	38.539861
572.872870	38.763361
573.301092	38.977485
573.729294	39.183003
574.157476	39.361877
574.585639	39.501195
575.013782	39.605333
575.441906	39.668375
575.870009	39.683114
576.298093	39.654759
576.726157	39.571304
577.154202	39.450644
577.582226	39.305961
578.010231	39.143579
578.438216	38.963130
578.866181	38.786305
579.294126	38.605681
579.722051	38.443477
580.149957	38.299373
580.577842	38.175419
581.005707	38.077289
581.433553	37.994701
581.861378	37.941226
582.289184	37.901211
582.716969	37.874275
583.144734	37.863514
583.572479	37.862321
584.000205	37.869727
584.427910	37.877201
584.855594	37.884455
585.283259	37.894256
585.710904	37.912748
586.138528	37.920841
586.566132	37.939004
586.993716	37.954027
587.421280	37.964244
587.848823	37.981835
588.276346	38.002243
588.703849	38.013674
589.131332	38.025917
589.558794	38.033762
589.986236	38.036514
590.413657	38.040381
590.841058	38.034621
591.268438	38.030775
591.695799	38.032563
592.123138	38.033385
592.550458	38.046609
592.977756	38.067824
593.405034	38.099284
593.832292	38.144835
594.259529	38.197602
594.686746	38.271733
595.113942	38.349378
595.541117	38.437464
595.968272	38.523913
596.395406	38.606318
596.822519	38.676034
597.249612	38.728262
597.676684	38.761537
598.103735	38.772163
598.530766	38.744254
598.957775	38.674291
599.384764	38.582408
599.811733	38.454947
600.238680	38.309935
600.665606	38.153392
601.092512	37.984421
601.519397	37.813105
601.946261	37.653685
602.373104	37.493672
602.799926	37.353439
603.226727	37.226823
603.653507	37.113608
604.080266	37.019060
604.507004	36.933817
604.933721	36.864619
605.360417	36.801773
605.787092	36.732310
606.213746	36.662551
606.640379	36.594446
607.066991	36.525520
607.493581	36.453368
607.920150	36.381515
608.346699	36.307219
608.773226	36.234425
609.199731	36.171302
609.626216	36.108248
610.052679	36.059549
610.479121	36.025274
610.905542	36.006467
611.331941	35.999126
611.758319	36.011015
612.184676	36.040410
612.611011	36.083104
613.037325	36.143365
613.463617	36.204006
613.889888	36.273675
614.316138	36.342836
614.742366	36.404765
615.168573	36.466941
615.594758	36.525340
616.020921	36.575187
616.447063	36.629970
616.873184	36.682097
617.299283	36.732657
617.725360	36.796449
618.151416	36.861704
618.577450	36.938731
619.003462	37.030747
619.429453	37.132385
619.855422	37.246998
620.281369	37.362044
620.707295	37.487254
621.133199	37.611649
621.559081	37.731942
621.984941	37.842061
622.410779	37.937947
622.836596	38.019207
623.262391	38.076742
623.688163	38.107246
624.113914	38.114096
624.539644	38.092468
624.965351	38.044477
625.391036	37.976895
625.816699	37.891601
626.242340	37.783632
626.667960	37.664997
627.093557	37.537080
627.519132	37.407399
627.944685	37.277571
628.370216	37.142073
628.795725	37.012028
629.221212	36.882264
629.646677	36.750685
630.072119	36.615708
630.497540	36.486465
630.922938	36.345306
631.348314	36.204128
631.773668	36.056414
632.198999	35.898076
632.624308	35.739106
633.049595	35.574303
633.474860	35.413548
633.900102	35.254091
634.325322	35.101678
634.750520	34.962513
635.175695	34.845009
635.600848	34.744321
636.025978	34.670493
636.451086	34.620897
636.876171	34.605702
637.301234	34.618573
637.726275	34.662008
638.151293	34.735168
638.576288	34.837124
639.001261	34.961164
639.426211	35.103434
639.851139	35.268046
640.276044	35.437119
640.700927	35.611676
641.125787	35.790541
641.550624	35.969850
641.975438	36.146090
642.400230	36.312963
642.824999	36.474197
643.249745	36.626697
643.674469	36.769753
644.099169	36.906061
644.523847	37.033021
644.948502	37.156774
645.373135	37.277638
645.797744	37.395430
646.222330	37.506856
646.646894	37.618804
647.071435	37.724989
647.495953	37.825618
647.920447	37.919803
648.344919	37.996781
648.769368	38.070491
649.193794	38.125549
649.618197	38.164797
650.042576	38.176573
650.466933	38.172052
650.891267	38.147601
651.315577	38.107565
651.739864	38.051380
652.164129	37.979301
652.588370	37.891283
653.012587	37.793322
653.436782	37.688475
653.860953	37.577396
654.285102	37.465333
654.709226	37.352513
655.133328	37.242616
655.557406	37.139320
655.981461	37.041825
656.405493	36.953357
656.829501	36.864233
657.253486	36.777879
657.677448	36.685666
658.101386	36.595463
658.525301	36.503996
658.949192	36.405017
659.373060	36.299263
659.796904	36.185530
660.220725	36.061448
660.644522	35.934289
661.068296	35.797418
661.492046	35.666138
661.915772	35.530011
662.339475	35.406957
662.763154	35.294714
663.186810	35.199699
663.610442	35.123732
664.034050	35.073099
664.457635	35.050231
664.881196	35.054851
665.304733	35.092100
665.728247	35.165928
666.151736	35.268823
666.575202	35.409412
666.998644	35.579013
667.422062	35.775545
667.845457	35.993413
668.268827	36.230827
668.692174	36.479509
669.115496	36.734540
669.538795	36.990095
669.962070	37.243401
670.385321	37.487814
670.808547	37.722066
671.231750	37.933704
671.654929	38.130151
672.078084	38.309482
672.501214	38.475845
672.924321	38.616309
673.347404	38.744040
673.770462	38.849877
674.193496	38.946200
674.616506	39.032306
675.039492	39.108776
675.462454	39.175864
675.885391	39.241994
676.308305	39.303393
676.731194	39.366736
677.154058	39.424701
677.576899	39.483182
677.999715	39.544607
678.422507	39.601306
678.845274	39.660709
679.268017	39.723873
679.690736	39.778648
680.113430	39.841068
680.536100	39.891013
680.958746	39.943952
681.381367	39.988215
681.803963	40.030246
682.226535	40.068429
682.649083	40.108310
683.071605	40.148485
683.494104	40.195195
683.916578	40.245148
684.339027	40.297473
684.761451	40.350347
685.183851	40.405530
685.606227	40.454469
686.028577	40.503491
686.450903	40.548676
686.873204	40.586911
687.295481	40.620797
687.717733	40.635557
688.139959	40.642099
688.562162	40.624198
688.984339	40.581531
689.406492	40.518904
689.828619	40.423186
690.250722	40.307765
690.672800	40.163592
691.094853	39.991542
691.516881	39.797301
691.938884	39.579270
692.360863	39.335742
692.782816	39.088767
693.204744	38.825592
693.626647	38.570985
694.048526	38.309784
694.470379	38.063470
694.892207	37.831199
695.314010	37.622375
695.735788	37.435638
696.157540	37.277829
696.579268	37.144757
697.000970	37.049773
697.422648	36.990207
697.844300	36.965641
698.265926	36.977931
698.687528	37.029509
699.109104	37.116137
699.530655	37.231257
699.952181	37.380340
