PE UV       SUBTECH     SPECTRUM    ASCII       PEDS        4.00        
   -1
CICIMAUCR0254-3.Sample.ASC
24/06/26
14:46:43.00
24/06/26
14:46:43.00
Vinicio Soto Monge
C. resplendens. Sex F. Dorsal.
250,000000
1
Lambda 1050
1050L1511233
PerkinElmer UV WinLab 6.3.2.0749 / 2.02.05 Lambda 900 UV/VIS/NIR, Aug  7 2015 09:38:08

0
0
3350/servo 860,8/2
0
0
UV/VIS
1
1
1
DoubleDePol,CommonBeamDepol,RBeamAtt,SBeamAtt,60mm sphere, WB InGaAs Detector
0
0
0
0
Program
Program
3350/servo 860,8/2
3350/0,2 860,8/0,2
3350/0,2 860,8/0,2
0
15.00
 
 
 
0
 
860,8
319,2
860,8
Front
100
on
S:100 R:100
0
0
0
0
 
0
 
 
 
0
 
 
0
0
0
0
0
 
 
 
 
0
0


0
0
#HDR
-1
-1
#GR
nm
%R
1.0
0.0
2500,000000
-1,000000
2251
8
89,696700
5,956700
#DATA
250.000000	0.050202
251.000000	0.052174
252.000000	0.052491
253.000000	0.060762
254.000000	0.035502
255.000000	0.039616
256.000000	0.044847
257.000000	0.034681
258.000000	0.049339
259.000000	0.046101
260.000000	0.053671
261.000000	0.066739
262.000000	0.034880
263.000000	0.034436
264.000000	0.014915
265.000000	0.027687
266.000000	0.056176
267.000000	0.029843
268.000000	0.035021
269.000000	0.042975
270.000000	0.048689
271.000000	0.060969
272.000000	0.063651
273.000000	0.054964
274.000000	0.046995
275.000000	0.055812
276.000000	0.086769
277.000000	0.059873
278.000000	0.041172
279.000000	0.045612
280.000000	0.029156
281.000000	0.017512
282.000000	0.030537
283.000000	0.023774
284.000000	0.026111
285.000000	0.008439
286.000000	0.030388
287.000000	0.043458
288.000000	0.059762
289.000000	0.037724
290.000000	0.016690
291.000000	0.036990
292.000000	0.022905
293.000000	0.041400
294.000000	0.045027
295.000000	0.036511
296.000000	0.071473
297.000000	0.080940
298.000000	0.065133
299.000000	0.041657
300.000000	0.039573
301.000000	0.046951
302.000000	0.068811
303.000000	0.056879
304.000000	0.030484
305.000000	0.030416
306.000000	0.023710
307.000000	0.034904
308.000000	0.039195
309.000000	0.057092
310.000000	0.057686
311.000000	0.039558
312.000000	0.027198
313.000000	0.044580
314.000000	0.066999
315.000000	0.053022
316.000000	0.106857
317.000000	0.056207
318.000000	0.285951
319.000000	0.476363
320.000000	0.456558
321.000000	0.408614
322.000000	0.266097
323.000000	0.223510
324.000000	0.147017
325.000000	0.294754
326.000000	0.473423
327.000000	0.292114
328.000000	0.090776
329.000000	0.064057
330.000000	0.189789
331.000000	0.174477
332.000000	0.114954
333.000000	0.203682
334.000000	0.206903
335.000000	0.107708
336.000000	0.018236
337.000000	0.032107
338.000000	0.078295
339.000000	0.134904
340.000000	0.062604
341.000000	0.113480
342.000000	0.145169
343.000000	0.207694
344.000000	0.103381
345.000000	0.093838
346.000000	0.036706
347.000000	0.070908
348.000000	0.080940
349.000000	0.197876
350.000000	0.190576
351.000000	0.163393
352.000000	0.014294
353.000000	0.006873
354.000000	0.079075
355.000000	0.066712
356.000000	0.110472
357.000000	0.067112
358.000000	0.089421
359.000000	0.113174
360.000000	0.073124
361.000000	0.134163
362.000000	0.109667
363.000000	0.077514
364.000000	0.130963
365.000000	0.160426
366.000000	0.061977
367.000000	0.071732
368.000000	0.077469
369.000000	0.015573
370.000000	0.050931
371.000000	0.053397
372.000000	0.183997
373.000000	0.122325
374.000000	0.122551
375.000000	0.197616
376.000000	0.144402
377.000000	0.078605
378.000000	0.099591
379.000000	0.105793
380.000000	0.108907
381.000000	0.105553
382.000000	0.107639
383.000000	0.104601
384.000000	0.094719
385.000000	0.126471
386.000000	0.133818
387.000000	0.131588
388.000000	0.127057
389.000000	0.164454
390.000000	0.188471
391.000000	0.192476
392.000000	0.212541
393.000000	0.224396
394.000000	0.241791
395.000000	0.259703
396.000000	0.269384
397.000000	0.283618
398.000000	0.324183
399.000000	0.360555
400.000000	0.372233
401.000000	0.392409
402.000000	0.434804
403.000000	0.433586
404.000000	0.438198
405.000000	0.468863
406.000000	0.505134
407.000000	0.522097
408.000000	0.532974
409.000000	0.534724
410.000000	0.549563
411.000000	0.556052
412.000000	0.564237
413.000000	0.565216
414.000000	0.567420
415.000000	0.556009
416.000000	0.555434
417.000000	0.531605
418.000000	0.520032
419.000000	0.510838
420.000000	0.477238
421.000000	0.468634
422.000000	0.411560
423.000000	0.363495
424.000000	0.334141
425.000000	0.316913
426.000000	0.276386
427.000000	0.219125
428.000000	0.181758
429.000000	0.155039
430.000000	0.117689
431.000000	0.084069
432.000000	0.043062
433.000000	0.048594
434.000000	0.077226
435.000000	0.124288
436.000000	0.132008
437.000000	0.179812
438.000000	0.177773
439.000000	0.239807
440.000000	0.278953
441.000000	0.297650
442.000000	0.335263
443.000000	0.340238
444.000000	0.356692
445.000000	0.387031
446.000000	0.419287
447.000000	0.424701
448.000000	0.437800
449.000000	0.470254
450.000000	0.482711
451.000000	0.513381
452.000000	0.573262
453.000000	0.562176
454.000000	0.586328
455.000000	0.595360
456.000000	0.622628
457.000000	0.638333
458.000000	0.633815
459.000000	0.639643
460.000000	0.668760
461.000000	0.666117
462.000000	0.672577
463.000000	0.682579
464.000000	0.676621
465.000000	0.678798
466.000000	0.694284
467.000000	0.665500
468.000000	0.648534
469.000000	0.625667
470.000000	0.618268
471.000000	0.581180
472.000000	0.525173
473.000000	0.500709
474.000000	0.442487
475.000000	0.410140
476.000000	0.355096
477.000000	0.294502
478.000000	0.227567
479.000000	0.180909
480.000000	0.121418
481.000000	0.087273
482.000000	0.089533
483.000000	0.124581
484.000000	0.182918
485.000000	0.256924
486.000000	0.288981
487.000000	0.328055
488.000000	0.387563
489.000000	0.410587
490.000000	0.429796
491.000000	0.443686
492.000000	0.489426
493.000000	0.424025
494.000000	0.468893
495.000000	0.411956
496.000000	0.400031
497.000000	0.349766
498.000000	0.295862
499.000000	0.259583
500.000000	0.224084
501.000000	0.167964
502.000000	0.181264
503.000000	0.149492
504.000000	0.135369
505.000000	0.135552
506.000000	0.164116
507.000000	0.200638
508.000000	0.251082
509.000000	0.325308
510.000000	0.377242
511.000000	0.490731
512.000000	0.579100
513.000000	0.670306
514.000000	0.797423
515.000000	0.924870
516.000000	1.076523
517.000000	1.207323
518.000000	1.367790
519.000000	1.502184
520.000000	1.638005
521.000000	1.775399
522.000000	1.898950
523.000000	1.987626
524.000000	2.111308
525.000000	2.164939
526.000000	2.223242
527.000000	2.240563
528.000000	2.243083
529.000000	2.211153
530.000000	2.187534
531.000000	2.140194
532.000000	2.084410
533.000000	1.997066
534.000000	1.884487
535.000000	1.761764
536.000000	1.637200
537.000000	1.497850
538.000000	1.326322
539.000000	1.168691
540.000000	1.017259
541.000000	0.864981
542.000000	0.691744
543.000000	0.558918
544.000000	0.407071
545.000000	0.277603
546.000000	0.174684
547.000000	0.057804
548.000000	0.079156
549.000000	0.161742
550.000000	0.238854
551.000000	0.327743
552.000000	0.367742
553.000000	0.413523
554.000000	0.434237
555.000000	0.480135
556.000000	0.528998
557.000000	0.570199
558.000000	0.594550
559.000000	0.668677
560.000000	0.726554
561.000000	0.770143
562.000000	0.810147
563.000000	0.893962
564.000000	0.945024
565.000000	0.985198
566.000000	1.063113
567.000000	1.113481
568.000000	1.143322
569.000000	1.189317
570.000000	1.220934
571.000000	1.257216
572.000000	1.302423
573.000000	1.345979
574.000000	1.391331
575.000000	1.416096
576.000000	1.426869
577.000000	1.426161
578.000000	1.463438
579.000000	1.491250
580.000000	1.486700
581.000000	1.495430
582.000000	1.539848
583.000000	1.594582
584.000000	1.621264
585.000000	1.632305
586.000000	1.654768
587.000000	1.673536
588.000000	1.690406
589.000000	1.728301
590.000000	1.772017
591.000000	1.810672
592.000000	1.822466
593.000000	1.800736
594.000000	1.840363
595.000000	1.892193
596.000000	1.927288
597.000000	1.979120
598.000000	2.009095
599.000000	2.064343
600.000000	2.113278
601.000000	2.167616
602.000000	2.201299
603.000000	2.235037
604.000000	2.298326
605.000000	2.368703
606.000000	2.422796
607.000000	2.467874
608.000000	2.519153
609.000000	2.551364
610.000000	2.599195
611.000000	2.659928
612.000000	2.666335
613.000000	2.702380
614.000000	2.768711
615.000000	2.814251
616.000000	2.836115
617.000000	2.865978
618.000000	2.912469
619.000000	2.969450
620.000000	2.998445
621.000000	3.033436
622.000000	3.099447
623.000000	3.150310
624.000000	3.197634
625.000000	3.261938
626.000000	3.309987
627.000000	3.325359
628.000000	3.355566
629.000000	3.387076
630.000000	3.412606
631.000000	3.394791
632.000000	3.372183
633.000000	3.329163
634.000000	3.275334
635.000000	3.260932
636.000000	3.219567
637.000000	3.152755
638.000000	3.131657
639.000000	3.111563
640.000000	3.064287
641.000000	2.999845
642.000000	2.928650
643.000000	2.827802
644.000000	2.725388
645.000000	2.632367
646.000000	2.490999
647.000000	2.301644
648.000000	2.106167
649.000000	1.881898
650.000000	1.649190
651.000000	1.400175
652.000000	1.117424
653.000000	0.817990
654.000000	0.518559
655.000000	0.275849
656.000000	0.183268
657.000000	0.384684
658.000000	0.635218
659.000000	0.876942
660.000000	1.099016
661.000000	1.271865
662.000000	1.410615
663.000000	1.563472
664.000000	1.698168
665.000000	1.801024
666.000000	1.872353
667.000000	1.887843
668.000000	1.923703
669.000000	1.982434
670.000000	1.998142
671.000000	1.977220
672.000000	1.962281
673.000000	1.949553
674.000000	1.906971
675.000000	1.824628
676.000000	1.736877
677.000000	1.657510
678.000000	1.525220
679.000000	1.364512
680.000000	1.249992
681.000000	1.152567
682.000000	1.031115
683.000000	0.892024
684.000000	0.761769
685.000000	0.637785
686.000000	0.508001
687.000000	0.441050
688.000000	0.319665
689.000000	0.234690
690.000000	0.188357
691.000000	0.119713
692.000000	0.102889
693.000000	0.142389
694.000000	0.214881
695.000000	0.314288
696.000000	0.342306
697.000000	0.413987
698.000000	0.462705
699.000000	0.471751
700.000000	0.497380
701.000000	0.506080
702.000000	0.518710
703.000000	0.590415
704.000000	0.684158
705.000000	0.677266
706.000000	0.651571
707.000000	0.612903
708.000000	0.621186
709.000000	0.573932
710.000000	0.572872
711.000000	0.574750
712.000000	0.540406
713.000000	0.554465
714.000000	0.527167
715.000000	0.608189
716.000000	0.567748
717.000000	0.461613
718.000000	0.449066
719.000000	0.470578
720.000000	0.430081
721.000000	0.423247
722.000000	0.392088
723.000000	0.382895
724.000000	0.371479
725.000000	0.374633
726.000000	0.349910
727.000000	0.253435
728.000000	0.263876
729.000000	0.240716
730.000000	0.222002
731.000000	0.238402
732.000000	0.238532
733.000000	0.232896
734.000000	0.266594
735.000000	0.248324
736.000000	0.283489
737.000000	0.266676
738.000000	0.328557
739.000000	0.426853
740.000000	0.363807
741.000000	0.293698
742.000000	0.319839
743.000000	0.382009
744.000000	0.352964
745.000000	0.365243
746.000000	0.357879
747.000000	0.321201
748.000000	0.249061
749.000000	0.129270
750.000000	0.175328
751.000000	0.023322
752.000000	0.054532
753.000000	0.123481
754.000000	0.173656
755.000000	0.192470
756.000000	0.248612
757.000000	0.399286
758.000000	0.446380
759.000000	0.541265
760.000000	0.551283
761.000000	0.411018
762.000000	0.588235
763.000000	0.550635
764.000000	0.635091
765.000000	0.669915
766.000000	0.545737
767.000000	0.611359
768.000000	0.610634
769.000000	0.677418
770.000000	0.677608
771.000000	0.671524
772.000000	0.779451
773.000000	0.785254
774.000000	0.820082
775.000000	0.791154
776.000000	0.953518
777.000000	0.927775
778.000000	0.949976
779.000000	1.141022
780.000000	1.063943
781.000000	1.095265
782.000000	1.186331
783.000000	1.097799
784.000000	1.197774
785.000000	1.407225
786.000000	1.387039
787.000000	1.430595
788.000000	1.688357
789.000000	1.607332
790.000000	1.704198
791.000000	1.747835
792.000000	1.883038
793.000000	1.686426
794.000000	2.061005
795.000000	1.992874
796.000000	2.113838
797.000000	2.100874
798.000000	2.031542
799.000000	2.077958
800.000000	2.091501
801.000000	2.261037
802.000000	1.929817
803.000000	2.089208
804.000000	2.078839
805.000000	2.007221
806.000000	2.135256
807.000000	2.110556
808.000000	2.017605
809.000000	2.003250
810.000000	2.029142
811.000000	1.938842
812.000000	1.919313
813.000000	1.777983
814.000000	1.869506
815.000000	1.742966
816.000000	1.715689
817.000000	1.650414
818.000000	1.626621
819.000000	1.604937
820.000000	1.734340
821.000000	1.668475
822.000000	1.670272
823.000000	1.642502
824.000000	1.606076
825.000000	1.781839
826.000000	1.690510
827.000000	1.715138
828.000000	1.779591
829.000000	1.948252
830.000000	1.983580
831.000000	1.771204
832.000000	2.032164
833.000000	2.061904
834.000000	2.225306
835.000000	2.273629
836.000000	2.323422
837.000000	2.249143
838.000000	1.972055
839.000000	2.376061
840.000000	2.120408
841.000000	2.244773
842.000000	2.182598
843.000000	2.257959
844.000000	2.270005
845.000000	2.122892
846.000000	1.693288
847.000000	1.972423
848.000000	1.839763
849.000000	2.113135
850.000000	2.072861
851.000000	2.258441
852.000000	1.884690
853.000000	1.952782
854.000000	2.335123
855.000000	1.715991
856.000000	1.935117
857.000000	2.058068
858.000000	1.887196
859.000000	1.870581
860.000000	1.866480
861.000000	1.858318
862.000000	1.849725
863.000000	1.834997
864.000000	1.822589
865.000000	1.803152
866.000000	1.796847
867.000000	1.775783
868.000000	1.756430
869.000000	1.720193
870.000000	1.701916
871.000000	1.683948
872.000000	1.661170
873.000000	1.627565
874.000000	1.597872
875.000000	1.566625
876.000000	1.509507
877.000000	1.476911
878.000000	1.440195
879.000000	1.381284
880.000000	1.343227
881.000000	1.310485
882.000000	1.259679
883.000000	1.224236
884.000000	1.175883
885.000000	1.147275
886.000000	1.111289
887.000000	1.085431
888.000000	1.067430
889.000000	1.038622
890.000000	1.003628
891.000000	0.983148
892.000000	0.971989
893.000000	0.966316
894.000000	0.943770
895.000000	0.928417
896.000000	0.933260
897.000000	0.937948
898.000000	0.920498
899.000000	0.908993
900.000000	0.906797
901.000000	0.900592
902.000000	0.884563
903.000000	0.891955
904.000000	0.882446
905.000000	0.871859
906.000000	0.866677
907.000000	0.849497
908.000000	0.836136
909.000000	0.825788
910.000000	0.810455
911.000000	0.801028
912.000000	0.790770
913.000000	0.782369
914.000000	0.771122
915.000000	0.759476
916.000000	0.747405
917.000000	0.719283
918.000000	0.708640
919.000000	0.707793
920.000000	0.686910
921.000000	0.659794
922.000000	0.644517
923.000000	0.638246
924.000000	0.612571
925.000000	0.585042
926.000000	0.556827
927.000000	0.525567
928.000000	0.503587
929.000000	0.476167
930.000000	0.448352
931.000000	0.427439
932.000000	0.410747
933.000000	0.386863
934.000000	0.374918
935.000000	0.349172
936.000000	0.320953
937.000000	0.315077
938.000000	0.299325
939.000000	0.271025
940.000000	0.238623
941.000000	0.214150
942.000000	0.193174
943.000000	0.160645
944.000000	0.140753
945.000000	0.126058
946.000000	0.102261
947.000000	0.087322
948.000000	0.078275
949.000000	0.074205
950.000000	0.080892
951.000000	0.083742
952.000000	0.090319
953.000000	0.103450
954.000000	0.107515
955.000000	0.113733
956.000000	0.116734
957.000000	0.117685
958.000000	0.126110
959.000000	0.120903
960.000000	0.120717
961.000000	0.114640
962.000000	0.115927
963.000000	0.129349
964.000000	0.123545
965.000000	0.115282
966.000000	0.113698
967.000000	0.128608
968.000000	0.142996
969.000000	0.132156
970.000000	0.130079
971.000000	0.133019
972.000000	0.144076
973.000000	0.149611
974.000000	0.149551
975.000000	0.162895
976.000000	0.158641
977.000000	0.167928
978.000000	0.185038
979.000000	0.189384
980.000000	0.197664
981.000000	0.208295
982.000000	0.223328
983.000000	0.239314
984.000000	0.248724
985.000000	0.269981
986.000000	0.282956
987.000000	0.294944
988.000000	0.312084
989.000000	0.338247
990.000000	0.355891
991.000000	0.366959
992.000000	0.387825
993.000000	0.410910
994.000000	0.417213
995.000000	0.423957
996.000000	0.438439
997.000000	0.459572
998.000000	0.464942
999.000000	0.472341
1000.000000	0.486072
1001.000000	0.490898
1002.000000	0.496837
1003.000000	0.511035
1004.000000	0.510237
1005.000000	0.496213
1006.000000	0.493223
1007.000000	0.507112
1008.000000	0.515061
1009.000000	0.503839
1010.000000	0.499970
1011.000000	0.504990
1012.000000	0.497660
1013.000000	0.503923
1014.000000	0.493707
1015.000000	0.500461
1016.000000	0.496304
1017.000000	0.479850
1018.000000	0.492904
1019.000000	0.497996
1020.000000	0.491975
1021.000000	0.486593
1022.000000	0.484266
1023.000000	0.497772
1024.000000	0.502860
1025.000000	0.493775
1026.000000	0.490079
1027.000000	0.502056
1028.000000	0.514466
1029.000000	0.510085
1030.000000	0.514173
1031.000000	0.516023
1032.000000	0.510007
1033.000000	0.512630
1034.000000	0.528510
1035.000000	0.531899
1036.000000	0.521655
1037.000000	0.527052
1038.000000	0.543102
1039.000000	0.547061
1040.000000	0.553720
1041.000000	0.561539
1042.000000	0.570693
1043.000000	0.580792
1044.000000	0.581974
1045.000000	0.583228
1046.000000	0.595559
1047.000000	0.601105
1048.000000	0.603454
1049.000000	0.612210
1050.000000	0.623168
1051.000000	0.630387
1052.000000	0.635735
1053.000000	0.643774
1054.000000	0.658617
1055.000000	0.656695
1056.000000	0.653823
1057.000000	0.658907
1058.000000	0.673978
1059.000000	0.673343
1060.000000	0.669799
1061.000000	0.692797
1062.000000	0.685381
1063.000000	0.693772
1064.000000	0.698660
1065.000000	0.693471
1066.000000	0.712247
1067.000000	0.714070
1068.000000	0.717129
1069.000000	0.704600
1070.000000	0.712897
1071.000000	0.721105
1072.000000	0.729428
1073.000000	0.718149
1074.000000	0.731535
1075.000000	0.736495
1076.000000	0.733889
1077.000000	0.735783
1078.000000	0.745421
1079.000000	0.741107
1080.000000	0.744247
1081.000000	0.735883
1082.000000	0.736085
1083.000000	0.754296
1084.000000	0.752682
1085.000000	0.739060
1086.000000	0.743192
1087.000000	0.751070
1088.000000	0.750475
1089.000000	0.750373
1090.000000	0.763549
1091.000000	0.750012
1092.000000	0.750901
1093.000000	0.758040
1094.000000	0.761264
1095.000000	0.748232
1096.000000	0.757527
1097.000000	0.745324
1098.000000	0.743476
1099.000000	0.750504
1100.000000	0.754837
1101.000000	0.744473
1102.000000	0.745374
1103.000000	0.742134
1104.000000	0.743744
1105.000000	0.736721
1106.000000	0.733813
1107.000000	0.729808
1108.000000	0.731394
1109.000000	0.735069
1110.000000	0.726102
1111.000000	0.729579
1112.000000	0.725523
1113.000000	0.722502
1114.000000	0.718032
1115.000000	0.715237
1116.000000	0.712094
1117.000000	0.719266
1118.000000	0.712126
1119.000000	0.712312
1120.000000	0.711520
1121.000000	0.704893
1122.000000	0.693056
1123.000000	0.690061
1124.000000	0.681849
1125.000000	0.680964
1126.000000	0.668729
1127.000000	0.671722
1128.000000	0.665918
1129.000000	0.652722
1130.000000	0.647302
1131.000000	0.627657
1132.000000	0.614225
1133.000000	0.603007
1134.000000	0.590922
1135.000000	0.574042
1136.000000	0.570928
1137.000000	0.553428
1138.000000	0.537269
1139.000000	0.532771
1140.000000	0.513676
1141.000000	0.509122
1142.000000	0.505870
1143.000000	0.501510
1144.000000	0.500351
1145.000000	0.492432
1146.000000	0.480588
1147.000000	0.474505
1148.000000	0.473025
1149.000000	0.475643
1150.000000	0.476078
1151.000000	0.469049
1152.000000	0.463611
1153.000000	0.461473
1154.000000	0.445490
1155.000000	0.447152
1156.000000	0.441336
1157.000000	0.432093
1158.000000	0.422386
1159.000000	0.412981
1160.000000	0.405188
1161.000000	0.394826
1162.000000	0.385333
1163.000000	0.370675
1164.000000	0.369215
1165.000000	0.355491
1166.000000	0.349248
1167.000000	0.329750
1168.000000	0.324241
1169.000000	0.326434
1170.000000	0.320680
1171.000000	0.302116
1172.000000	0.302598
1173.000000	0.296344
1174.000000	0.284622
1175.000000	0.282494
1176.000000	0.274747
1177.000000	0.266772
1178.000000	0.259786
1179.000000	0.245781
1180.000000	0.240713
1181.000000	0.236720
1182.000000	0.226147
1183.000000	0.220681
1184.000000	0.209687
1185.000000	0.207240
1186.000000	0.206891
1187.000000	0.212261
1188.000000	0.218403
1189.000000	0.209896
1190.000000	0.212785
1191.000000	0.229003
1192.000000	0.233451
1193.000000	0.238708
1194.000000	0.243529
1195.000000	0.242531
1196.000000	0.243403
1197.000000	0.243655
1198.000000	0.241588
1199.000000	0.247097
1200.000000	0.250065
1201.000000	0.247958
1202.000000	0.245378
1203.000000	0.241782
1204.000000	0.241669
1205.000000	0.256442
1206.000000	0.255350
1207.000000	0.253156
1208.000000	0.257957
1209.000000	0.262404
1210.000000	0.260746
1211.000000	0.261279
1212.000000	0.271456
1213.000000	0.279943
1214.000000	0.286068
1215.000000	0.283659
1216.000000	0.284256
1217.000000	0.278991
1218.000000	0.282013
1219.000000	0.292960
1220.000000	0.296977
1221.000000	0.300497
1222.000000	0.303213
1223.000000	0.309956
1224.000000	0.320635
1225.000000	0.315348
1226.000000	0.318727
1227.000000	0.327171
1228.000000	0.327689
1229.000000	0.328211
1230.000000	0.331408
1231.000000	0.335989
1232.000000	0.336331
1233.000000	0.342407
1234.000000	0.348717
1235.000000	0.351832
1236.000000	0.358956
1237.000000	0.369630
1238.000000	0.375405
1239.000000	0.362343
1240.000000	0.358063
1241.000000	0.370926
1242.000000	0.382269
1243.000000	0.377689
1244.000000	0.379971
1245.000000	0.389085
1246.000000	0.400609
1247.000000	0.407784
1248.000000	0.398243
1249.000000	0.402476
1250.000000	0.400669
1251.000000	0.404441
1252.000000	0.412949
1253.000000	0.412912
1254.000000	0.412160
1255.000000	0.405027
1256.000000	0.411975
1257.000000	0.413965
1258.000000	0.415857
1259.000000	0.418362
1260.000000	0.420317
1261.000000	0.413536
1262.000000	0.414420
1263.000000	0.406916
1264.000000	0.399854
1265.000000	0.397896
1266.000000	0.401171
1267.000000	0.405773
1268.000000	0.397892
1269.000000	0.402602
1270.000000	0.404930
1271.000000	0.394213
1272.000000	0.396188
1273.000000	0.394152
1274.000000	0.399362
1275.000000	0.400865
1276.000000	0.395076
1277.000000	0.393380
1278.000000	0.398259
1279.000000	0.397489
1280.000000	0.398145
1281.000000	0.396467
1282.000000	0.397335
1283.000000	0.399505
1284.000000	0.388922
1285.000000	0.390249
1286.000000	0.387194
1287.000000	0.390391
1288.000000	0.390016
1289.000000	0.389895
1290.000000	0.390698
1291.000000	0.392864
1292.000000	0.399713
1293.000000	0.387353
1294.000000	0.386942
1295.000000	0.390251
1296.000000	0.382584
1297.000000	0.387784
1298.000000	0.390105
1299.000000	0.382521
1300.000000	0.379856
1301.000000	0.380229
1302.000000	0.373581
1303.000000	0.369209
1304.000000	0.372717
1305.000000	0.372000
1306.000000	0.365124
1307.000000	0.368768
1308.000000	0.363866
1309.000000	0.349196
1310.000000	0.348041
1311.000000	0.338510
1312.000000	0.333733
1313.000000	0.346745
1314.000000	0.340013
1315.000000	0.330871
1316.000000	0.316828
1317.000000	0.321747
1318.000000	0.313950
1319.000000	0.318208
1320.000000	0.310624
1321.000000	0.300998
1322.000000	0.286750
1323.000000	0.294472
1324.000000	0.295871
1325.000000	0.288978
1326.000000	0.285514
1327.000000	0.282097
1328.000000	0.266203
1329.000000	0.272251
1330.000000	0.249091
1331.000000	0.246207
1332.000000	0.253666
1333.000000	0.253675
1334.000000	0.242068
1335.000000	0.229198
1336.000000	0.230158
1337.000000	0.231609
1338.000000	0.232986
1339.000000	0.228744
1340.000000	0.234453
1341.000000	0.238495
1342.000000	0.228922
1343.000000	0.229386
1344.000000	0.241006
1345.000000	0.236946
1346.000000	0.242664
1347.000000	0.241965
1348.000000	0.258944
1349.000000	0.266173
1350.000000	0.264522
1351.000000	0.281076
1352.000000	0.267578
1353.000000	0.279479
1354.000000	0.291281
1355.000000	0.289912
1356.000000	0.292001
1357.000000	0.283805
1358.000000	0.297906
1359.000000	0.278747
1360.000000	0.299929
1361.000000	0.294125
1362.000000	0.279551
1363.000000	0.299836
1364.000000	0.317992
1365.000000	0.308468
1366.000000	0.325472
1367.000000	0.333198
1368.000000	0.341015
1369.000000	0.336344
1370.000000	0.332460
1371.000000	0.358050
1372.000000	0.341927
1373.000000	0.363923
1374.000000	0.356629
1375.000000	0.374841
1376.000000	0.375050
1377.000000	0.379557
1378.000000	0.386737
1379.000000	0.395275
1380.000000	0.387497
1381.000000	0.419610
1382.000000	0.445333
1383.000000	0.428108
1384.000000	0.448448
1385.000000	0.457241
1386.000000	0.464438
1387.000000	0.479399
1388.000000	0.498934
1389.000000	0.488846
1390.000000	0.501099
1391.000000	0.512146
1392.000000	0.515386
1393.000000	0.518591
1394.000000	0.522899
1395.000000	0.545050
1396.000000	0.534509
1397.000000	0.544318
1398.000000	0.546110
1399.000000	0.567554
1400.000000	0.552004
1401.000000	0.568182
1402.000000	0.576024
1403.000000	0.591591
1404.000000	0.607518
1405.000000	0.614505
1406.000000	0.617972
1407.000000	0.623866
1408.000000	0.628662
1409.000000	0.626170
1410.000000	0.641398
1411.000000	0.647635
1412.000000	0.663463
1413.000000	0.676478
1414.000000	0.681118
1415.000000	0.679751
1416.000000	0.704158
1417.000000	0.691506
1418.000000	0.695012
1419.000000	0.698760
1420.000000	0.701049
1421.000000	0.707409
1422.000000	0.719528
1423.000000	0.705042
1424.000000	0.715886
1425.000000	0.731667
1426.000000	0.736355
1427.000000	0.739242
1428.000000	0.745887
1429.000000	0.757642
1430.000000	0.757953
1431.000000	0.743917
1432.000000	0.748589
1433.000000	0.767569
1434.000000	0.754389
1435.000000	0.752372
1436.000000	0.766788
1437.000000	0.762820
1438.000000	0.769521
1439.000000	0.776781
1440.000000	0.776988
1441.000000	0.775972
1442.000000	0.770686
1443.000000	0.781029
1444.000000	0.773036
1445.000000	0.767309
1446.000000	0.775259
1447.000000	0.783940
1448.000000	0.778313
1449.000000	0.768721
1450.000000	0.767937
1451.000000	0.770733
1452.000000	0.772094
1453.000000	0.764331
1454.000000	0.776440
1455.000000	0.774717
1456.000000	0.770785
1457.000000	0.779450
1458.000000	0.779479
1459.000000	0.778680
1460.000000	0.774206
1461.000000	0.766875
1462.000000	0.766964
1463.000000	0.773249
1464.000000	0.770378
1465.000000	0.757367
1466.000000	0.754394
1467.000000	0.762661
1468.000000	0.761749
1469.000000	0.750008
1470.000000	0.737956
1471.000000	0.732979
1472.000000	0.737195
1473.000000	0.731169
1474.000000	0.724861
1475.000000	0.721833
1476.000000	0.722722
1477.000000	0.718107
1478.000000	0.705443
1479.000000	0.712892
1480.000000	0.716305
1481.000000	0.712721
1482.000000	0.702967
1483.000000	0.700227
1484.000000	0.700361
1485.000000	0.695626
1486.000000	0.695014
1487.000000	0.677411
1488.000000	0.671849
1489.000000	0.676683
1490.000000	0.676057
1491.000000	0.673797
1492.000000	0.671180
1493.000000	0.661308
1494.000000	0.659564
1495.000000	0.662725
1496.000000	0.666762
1497.000000	0.667274
1498.000000	0.660768
1499.000000	0.656175
1500.000000	0.650128
1501.000000	0.646328
1502.000000	0.644300
1503.000000	0.644434
1504.000000	0.643110
1505.000000	0.630504
1506.000000	0.632860
1507.000000	0.630275
1508.000000	0.626566
1509.000000	0.630602
1510.000000	0.624190
1511.000000	0.613611
1512.000000	0.614377
1513.000000	0.611019
1514.000000	0.613421
1515.000000	0.624377
1516.000000	0.621449
1517.000000	0.616782
1518.000000	0.612405
1519.000000	0.610164
1520.000000	0.620205
1521.000000	0.624134
1522.000000	0.617339
1523.000000	0.613372
1524.000000	0.614934
1525.000000	0.612035
1526.000000	0.614788
1527.000000	0.623193
1528.000000	0.618040
1529.000000	0.618180
1530.000000	0.629470
1531.000000	0.632263
1532.000000	0.621589
1533.000000	0.623595
1534.000000	0.626558
1535.000000	0.628615
1536.000000	0.631427
1537.000000	0.626893
1538.000000	0.625957
1539.000000	0.625533
1540.000000	0.625336
1541.000000	0.629955
1542.000000	0.635514
1543.000000	0.640980
1544.000000	0.636630
1545.000000	0.636094
1546.000000	0.638789
1547.000000	0.632326
1548.000000	0.627209
1549.000000	0.623820
1550.000000	0.639045
1551.000000	0.634981
1552.000000	0.611481
1553.000000	0.616949
1554.000000	0.616973
1555.000000	0.618406
1556.000000	0.623879
1557.000000	0.616692
1558.000000	0.624350
1559.000000	0.625131
1560.000000	0.623690
1561.000000	0.630271
1562.000000	0.616267
1563.000000	0.619132
1564.000000	0.615708
1565.000000	0.618002
1566.000000	0.612488
1567.000000	0.616197
1568.000000	0.611222
1569.000000	0.614338
1570.000000	0.601965
1571.000000	0.606928
1572.000000	0.610365
1573.000000	0.615189
1574.000000	0.611610
1575.000000	0.596385
1576.000000	0.590853
1577.000000	0.592187
1578.000000	0.592276
1579.000000	0.576569
1580.000000	0.577425
1581.000000	0.571432
1582.000000	0.568382
1583.000000	0.559017
1584.000000	0.559738
1585.000000	0.560512
1586.000000	0.554007
1587.000000	0.542618
1588.000000	0.533379
1589.000000	0.524151
1590.000000	0.529359
1591.000000	0.517985
1592.000000	0.517251
1593.000000	0.518626
1594.000000	0.515151
1595.000000	0.507701
1596.000000	0.509972
1597.000000	0.497352
1598.000000	0.489414
1599.000000	0.475765
1600.000000	0.473073
1601.000000	0.481854
1602.000000	0.471589
1603.000000	0.462139
1604.000000	0.464796
1605.000000	0.442963
1606.000000	0.437706
1607.000000	0.440307
1608.000000	0.439342
1609.000000	0.437871
1610.000000	0.438323
1611.000000	0.431569
1612.000000	0.432095
1613.000000	0.424675
1614.000000	0.419508
1615.000000	0.414597
1616.000000	0.410964
1617.000000	0.403425
1618.000000	0.402991
1619.000000	0.415533
1620.000000	0.414000
1621.000000	0.408846
1622.000000	0.393063
1623.000000	0.392578
1624.000000	0.401363
1625.000000	0.397543
1626.000000	0.391930
1627.000000	0.381799
1628.000000	0.384922
1629.000000	0.379854
1630.000000	0.377707
1631.000000	0.380313
1632.000000	0.375744
1633.000000	0.389032
1634.000000	0.375543
1635.000000	0.381213
1636.000000	0.373761
1637.000000	0.366533
1638.000000	0.365503
1639.000000	0.373791
1640.000000	0.367170
1641.000000	0.361337
1642.000000	0.363829
1643.000000	0.372184
1644.000000	0.374954
1645.000000	0.373381
1646.000000	0.381895
1647.000000	0.371346
1648.000000	0.386583
1649.000000	0.382647
1650.000000	0.384011
1651.000000	0.394883
1652.000000	0.373967
1653.000000	0.370145
1654.000000	0.390238
1655.000000	0.389148
1656.000000	0.398053
1657.000000	0.392141
1658.000000	0.409990
1659.000000	0.397444
1660.000000	0.400261
1661.000000	0.397924
1662.000000	0.412634
1663.000000	0.419353
1664.000000	0.425220
1665.000000	0.440467
1666.000000	0.445221
1667.000000	0.445426
1668.000000	0.454903
1669.000000	0.464727
1670.000000	0.479724
1671.000000	0.482651
1672.000000	0.482684
1673.000000	0.492920
1674.000000	0.506164
1675.000000	0.519463
1676.000000	0.549389
1677.000000	0.540579
1678.000000	0.570364
1679.000000	0.580342
1680.000000	0.586978
1681.000000	0.596015
1682.000000	0.612508
1683.000000	0.610863
1684.000000	0.614300
1685.000000	0.620837
1686.000000	0.609040
1687.000000	0.619074
1688.000000	0.612236
1689.000000	0.624487
1690.000000	0.622103
1691.000000	0.635963
1692.000000	0.630507
1693.000000	0.619263
1694.000000	0.619934
1695.000000	0.620759
1696.000000	0.628147
1697.000000	0.597076
1698.000000	0.605441
1699.000000	0.595858
1700.000000	0.603844
1701.000000	0.588101
1702.000000	0.588992
1703.000000	0.592753
1704.000000	0.587647
1705.000000	0.585978
1706.000000	0.577751
1707.000000	0.583801
1708.000000	0.582522
1709.000000	0.584347
1710.000000	0.582778
1711.000000	0.572348
1712.000000	0.593237
1713.000000	0.596712
1714.000000	0.593215
1715.000000	0.599528
1716.000000	0.600992
1717.000000	0.603886
1718.000000	0.601153
1719.000000	0.607179
1720.000000	0.604961
1721.000000	0.610729
1722.000000	0.601421
1723.000000	0.603859
1724.000000	0.609788
1725.000000	0.611988
1726.000000	0.611160
1727.000000	0.613748
1728.000000	0.600801
1729.000000	0.597936
1730.000000	0.599852
1731.000000	0.597475
1732.000000	0.597893
1733.000000	0.602402
1734.000000	0.597863
1735.000000	0.584934
1736.000000	0.572620
1737.000000	0.567953
1738.000000	0.560241
1739.000000	0.551367
1740.000000	0.546280
1741.000000	0.535933
1742.000000	0.526892
1743.000000	0.522920
1744.000000	0.517960
1745.000000	0.525325
1746.000000	0.526848
1747.000000	0.516784
1748.000000	0.509095
1749.000000	0.518157
1750.000000	0.520144
1751.000000	0.507949
1752.000000	0.512867
1753.000000	0.514775
1754.000000	0.521986
1755.000000	0.523331
1756.000000	0.517432
1757.000000	0.528295
1758.000000	0.531923
1759.000000	0.527100
1760.000000	0.529913
1761.000000	0.531692
1762.000000	0.540137
1763.000000	0.536844
1764.000000	0.524397
1765.000000	0.525639
1766.000000	0.525983
1767.000000	0.513881
1768.000000	0.511148
1769.000000	0.519514
1770.000000	0.518700
1771.000000	0.515717
1772.000000	0.514224
1773.000000	0.505399
1774.000000	0.504748
1775.000000	0.510444
1776.000000	0.502318
1777.000000	0.495762
1778.000000	0.508641
1779.000000	0.510675
1780.000000	0.496972
1781.000000	0.500031
1782.000000	0.512869
1783.000000	0.507465
1784.000000	0.508266
1785.000000	0.506587
1786.000000	0.502248
1787.000000	0.503913
1788.000000	0.502291
1789.000000	0.507917
1790.000000	0.511432
1791.000000	0.507648
1792.000000	0.508701
1793.000000	0.507715
1794.000000	0.514733
1795.000000	0.520167
1796.000000	0.518414
1797.000000	0.508991
1798.000000	0.506333
1799.000000	0.517107
1800.000000	0.521908
1801.000000	0.523559
1802.000000	0.525380
1803.000000	0.529359
1804.000000	0.530856
1805.000000	0.529028
1806.000000	0.529891
1807.000000	0.526935
1808.000000	0.525647
1809.000000	0.524096
1810.000000	0.521194
1811.000000	0.527688
1812.000000	0.537688
1813.000000	0.538252
1814.000000	0.535721
1815.000000	0.541939
1816.000000	0.544891
1817.000000	0.543330
1818.000000	0.542374
1819.000000	0.539162
1820.000000	0.544218
1821.000000	0.557454
1822.000000	0.553661
1823.000000	0.550374
1824.000000	0.548780
1825.000000	0.542649
1826.000000	0.546111
1827.000000	0.548611
1828.000000	0.548573
1829.000000	0.555745
1830.000000	0.554811
1831.000000	0.549810
1832.000000	0.555111
1833.000000	0.550040
1834.000000	0.554805
1835.000000	0.558000
1836.000000	0.563468
1837.000000	0.564151
1838.000000	0.556641
1839.000000	0.555532
1840.000000	0.553202
1841.000000	0.559820
1842.000000	0.558603
1843.000000	0.553712
1844.000000	0.555230
1845.000000	0.551062
1846.000000	0.554642
1847.000000	0.547652
1848.000000	0.553251
1849.000000	0.543692
1850.000000	0.543966
1851.000000	0.546630
1852.000000	0.543768
1853.000000	0.548907
1854.000000	0.546195
1855.000000	0.541568
1856.000000	0.555366
1857.000000	0.549862
1858.000000	0.543982
1859.000000	0.554726
1860.000000	0.552466
1861.000000	0.556277
1862.000000	0.552163
1863.000000	0.567104
1864.000000	0.565512
1865.000000	0.571448
1866.000000	0.579558
1867.000000	0.578621
1868.000000	0.570809
1869.000000	0.571111
1870.000000	0.573441
1871.000000	0.572934
1872.000000	0.577882
1873.000000	0.588022
1874.000000	0.595399
1875.000000	0.597695
1876.000000	0.604572
1877.000000	0.605439
1878.000000	0.601625
1879.000000	0.605822
1880.000000	0.627432
1881.000000	0.633985
1882.000000	0.645140
1883.000000	0.650899
1884.000000	0.642709
1885.000000	0.649986
1886.000000	0.631521
1887.000000	0.627736
1888.000000	0.622038
1889.000000	0.627807
1890.000000	0.602295
1891.000000	0.587740
1892.000000	0.567580
1893.000000	0.554001
1894.000000	0.558344
1895.000000	0.562892
1896.000000	0.547999
1897.000000	0.541900
1898.000000	0.542427
1899.000000	0.510316
1900.000000	0.477121
1901.000000	0.457787
1902.000000	0.461179
1903.000000	0.440458
1904.000000	0.430586
1905.000000	0.417651
1906.000000	0.421300
1907.000000	0.409152
1908.000000	0.389367
1909.000000	0.392317
1910.000000	0.392038
1911.000000	0.399589
1912.000000	0.376808
1913.000000	0.339462
1914.000000	0.340942
1915.000000	0.339673
1916.000000	0.329154
1917.000000	0.338868
1918.000000	0.324583
1919.000000	0.326148
1920.000000	0.312160
1921.000000	0.300216
1922.000000	0.300511
1923.000000	0.288596
1924.000000	0.301892
1925.000000	0.295260
1926.000000	0.286930
1927.000000	0.269737
1928.000000	0.277564
1929.000000	0.269906
1930.000000	0.269940
1931.000000	0.267185
1932.000000	0.276830
1933.000000	0.283136
1934.000000	0.280224
1935.000000	0.282364
1936.000000	0.279364
1937.000000	0.285951
1938.000000	0.277298
1939.000000	0.288891
1940.000000	0.281143
1941.000000	0.279280
1942.000000	0.294120
1943.000000	0.285901
1944.000000	0.299710
1945.000000	0.285219
1946.000000	0.296171
1947.000000	0.308742
1948.000000	0.299082
1949.000000	0.317257
1950.000000	0.326776
1951.000000	0.341385
1952.000000	0.330596
1953.000000	0.319024
1954.000000	0.324254
1955.000000	0.339874
1956.000000	0.343923
1957.000000	0.332947
1958.000000	0.344007
1959.000000	0.343285
1960.000000	0.355468
1961.000000	0.354725
1962.000000	0.361481
1963.000000	0.364678
1964.000000	0.366090
1965.000000	0.378085
1966.000000	0.384521
1967.000000	0.391331
1968.000000	0.410319
1969.000000	0.405141
1970.000000	0.411176
1971.000000	0.407731
1972.000000	0.420980
1973.000000	0.425135
1974.000000	0.425533
1975.000000	0.423406
1976.000000	0.432828
1977.000000	0.437911
1978.000000	0.444161
1979.000000	0.436849
1980.000000	0.448107
1981.000000	0.460990
1982.000000	0.455285
1983.000000	0.460216
1984.000000	0.468640
1985.000000	0.473021
1986.000000	0.475563
1987.000000	0.474298
1988.000000	0.475076
1989.000000	0.493827
1990.000000	0.478127
1991.000000	0.471767
1992.000000	0.480818
1993.000000	0.494653
1994.000000	0.505158
1995.000000	0.499085
1996.000000	0.506205
1997.000000	0.505202
1998.000000	0.501722
1999.000000	0.498972
