PE UV       SUBTECH     SPECTRUM    ASCII       PEDS        4.00        
   -1
CICIMAUCR0253-3.Sample.ASC
24/06/26
14:04:18.00
24/06/26
14:04:18.00
Vinicio Soto Monge
C. resplendens. Sex M. Dorsal.
250,000000
1
Lambda 1050
1050L1511233
PerkinElmer UV WinLab 6.3.2.0749 / 2.02.05 Lambda 900 UV/VIS/NIR, Aug  7 2015 09:38:08

0
0
3350/servo 860,8/2
0
0
UV/VIS
1
1
1
DoubleDePol,CommonBeamDepol,RBeamAtt,SBeamAtt,60mm sphere, WB InGaAs Detector
0
0
0
0
Program
Program
3350/servo 860,8/2
3350/0,2 860,8/0,2
3350/0,2 860,8/0,2
0
15.00
 
 
 
0
 
860,8
319,2
860,8
Front
100
on
S:100 R:100
0
0
0
0
 
0
 
 
 
0
 
 
0
0
0
0
0
 
 
 
 
0
0


0
0
#HDR
-1
-1
#GR
nm
%R
1.0
0.0
2500,000000
-1,000000
2251
8
90,933900
5,761100
#DATA
250.000000	0.308264
251.000000	0.306535
252.000000	0.284035
253.000000	0.301908
254.000000	0.276516
255.000000	0.268686
256.000000	0.258112
257.000000	0.218567
258.000000	0.236968
259.000000	0.226189
260.000000	0.222244
261.000000	0.212043
262.000000	0.225682
263.000000	0.243545
264.000000	0.231710
265.000000	0.240260
266.000000	0.221512
267.000000	0.217501
268.000000	0.220300
269.000000	0.215779
270.000000	0.229899
271.000000	0.219545
272.000000	0.196224
273.000000	0.197343
274.000000	0.213479
275.000000	0.197656
276.000000	0.198302
277.000000	0.220743
278.000000	0.212300
279.000000	0.224077
280.000000	0.233209
281.000000	0.208922
282.000000	0.204618
283.000000	0.199512
284.000000	0.208970
285.000000	0.186284
286.000000	0.180348
287.000000	0.189533
288.000000	0.184657
289.000000	0.207448
290.000000	0.226656
291.000000	0.236243
292.000000	0.220823
293.000000	0.204873
294.000000	0.230228
295.000000	0.208256
296.000000	0.188938
297.000000	0.189273
298.000000	0.164055
299.000000	0.175061
300.000000	0.197110
301.000000	0.187967
302.000000	0.182866
303.000000	0.180766
304.000000	0.210857
305.000000	0.204831
306.000000	0.201778
307.000000	0.198419
308.000000	0.159687
309.000000	0.191250
310.000000	0.169070
311.000000	0.159347
312.000000	0.172834
313.000000	0.176101
314.000000	0.186604
315.000000	0.210408
316.000000	0.358587
317.000000	0.349419
318.000000	0.105543
319.000000	0.296204
320.000000	0.580081
321.000000	0.724788
322.000000	0.475114
323.000000	0.170503
324.000000	0.118809
325.000000	0.083225
326.000000	0.161041
327.000000	0.115750
328.000000	0.280384
329.000000	0.358908
330.000000	0.269207
331.000000	0.150148
332.000000	0.257153
333.000000	0.333928
334.000000	0.218712
335.000000	0.208798
336.000000	0.390786
337.000000	0.421534
338.000000	0.405875
339.000000	0.378747
340.000000	0.341891
341.000000	0.196339
342.000000	0.155689
343.000000	0.219935
344.000000	0.209087
345.000000	0.127057
346.000000	0.117535
347.000000	0.187723
348.000000	0.259153
349.000000	0.298322
350.000000	0.173464
351.000000	0.026624
352.000000	0.112123
353.000000	0.038802
354.000000	0.069479
355.000000	0.110010
356.000000	0.182335
357.000000	0.122889
358.000000	0.166310
359.000000	0.299469
360.000000	0.276142
361.000000	0.281927
362.000000	0.241295
363.000000	0.232759
364.000000	0.234855
365.000000	0.181500
366.000000	0.258508
367.000000	0.284003
368.000000	0.290831
369.000000	0.176407
370.000000	0.175894
371.000000	0.167300
372.000000	0.102883
373.000000	0.130119
374.000000	0.029669
375.000000	0.156163
376.000000	0.081971
377.000000	0.082861
378.000000	0.081267
379.000000	0.079425
380.000000	0.068051
381.000000	0.074551
382.000000	0.063884
383.000000	0.065625
384.000000	0.051702
385.000000	0.051120
386.000000	0.044997
387.000000	0.035100
388.000000	0.032538
389.000000	0.017218
390.000000	0.015510
391.000000	0.004801
392.000000	0.008529
393.000000	0.026197
394.000000	0.036556
395.000000	0.058147
396.000000	0.054412
397.000000	0.073094
398.000000	0.084543
399.000000	0.091257
400.000000	0.102397
401.000000	0.118516
402.000000	0.133960
403.000000	0.163878
404.000000	0.182030
405.000000	0.191274
406.000000	0.190867
407.000000	0.224306
408.000000	0.208588
409.000000	0.221686
410.000000	0.241485
411.000000	0.254078
412.000000	0.263836
413.000000	0.273020
414.000000	0.262039
415.000000	0.292011
416.000000	0.299314
417.000000	0.290046
418.000000	0.284162
419.000000	0.300274
420.000000	0.295598
421.000000	0.311705
422.000000	0.313152
423.000000	0.303503
424.000000	0.291811
425.000000	0.294516
426.000000	0.290703
427.000000	0.312197
428.000000	0.298765
429.000000	0.280398
430.000000	0.279580
431.000000	0.269031
432.000000	0.266379
433.000000	0.261871
434.000000	0.238664
435.000000	0.232814
436.000000	0.243372
437.000000	0.233540
438.000000	0.207052
439.000000	0.175511
440.000000	0.175497
441.000000	0.209568
442.000000	0.177066
443.000000	0.199814
444.000000	0.186287
445.000000	0.167453
446.000000	0.184191
447.000000	0.181300
448.000000	0.160783
449.000000	0.157396
450.000000	0.177843
451.000000	0.182600
452.000000	0.189095
453.000000	0.179051
454.000000	0.174908
455.000000	0.182488
456.000000	0.197295
457.000000	0.232555
458.000000	0.239741
459.000000	0.250212
460.000000	0.245030
461.000000	0.259997
462.000000	0.302564
463.000000	0.314639
464.000000	0.338266
465.000000	0.330724
466.000000	0.336619
467.000000	0.356216
468.000000	0.365569
469.000000	0.359943
470.000000	0.344094
471.000000	0.363012
472.000000	0.339018
473.000000	0.353548
474.000000	0.338875
475.000000	0.322002
476.000000	0.309381
477.000000	0.294073
478.000000	0.289835
479.000000	0.252316
480.000000	0.233149
481.000000	0.194331
482.000000	0.160603
483.000000	0.151807
484.000000	0.127417
485.000000	0.130133
486.000000	0.123718
487.000000	0.167688
488.000000	0.195674
489.000000	0.209206
490.000000	0.210967
491.000000	0.232420
492.000000	0.225125
493.000000	0.236867
494.000000	0.240042
495.000000	0.249782
496.000000	0.237853
497.000000	0.261941
498.000000	0.241120
499.000000	0.268323
500.000000	0.237612
501.000000	0.232679
502.000000	0.237558
503.000000	0.236445
504.000000	0.200417
505.000000	0.207926
506.000000	0.199685
507.000000	0.210315
508.000000	0.181337
509.000000	0.185263
510.000000	0.156695
511.000000	0.170592
512.000000	0.203978
513.000000	0.243765
514.000000	0.289047
515.000000	0.330360
516.000000	0.371603
517.000000	0.425859
518.000000	0.479051
519.000000	0.494139
520.000000	0.544597
521.000000	0.570166
522.000000	0.580566
523.000000	0.589292
524.000000	0.600799
525.000000	0.602990
526.000000	0.593153
527.000000	0.632551
528.000000	0.632987
529.000000	0.653107
530.000000	0.696033
531.000000	0.698763
532.000000	0.715259
533.000000	0.747897
534.000000	0.746675
535.000000	0.765982
536.000000	0.783300
537.000000	0.764014
538.000000	0.780912
539.000000	0.772935
540.000000	0.782474
541.000000	0.774480
542.000000	0.773650
543.000000	0.801435
544.000000	0.759487
545.000000	0.767477
546.000000	0.741888
547.000000	0.743268
548.000000	0.770337
549.000000	0.785836
550.000000	0.760707
551.000000	0.780831
552.000000	0.825860
553.000000	0.836802
554.000000	0.820434
555.000000	0.821105
556.000000	0.820086
557.000000	0.844242
558.000000	0.850203
559.000000	0.830719
560.000000	0.826131
561.000000	0.834041
562.000000	0.838747
563.000000	0.811499
564.000000	0.808648
565.000000	0.797450
566.000000	0.787692
567.000000	0.782797
568.000000	0.777633
569.000000	0.756948
570.000000	0.800279
571.000000	0.804002
572.000000	0.799354
573.000000	0.838535
574.000000	0.831236
575.000000	0.840210
576.000000	0.847692
577.000000	0.852797
578.000000	0.867762
579.000000	0.875540
580.000000	0.875191
581.000000	0.867616
582.000000	0.861524
583.000000	0.862479
584.000000	0.882752
585.000000	0.866356
586.000000	0.862963
587.000000	0.877149
588.000000	0.879046
589.000000	0.845808
590.000000	0.838279
591.000000	0.841324
592.000000	0.878838
593.000000	0.846571
594.000000	0.845293
595.000000	0.889363
596.000000	0.885410
597.000000	0.892920
598.000000	0.890559
599.000000	0.903583
600.000000	0.909170
601.000000	0.920396
602.000000	0.955126
603.000000	0.922488
604.000000	0.870013
605.000000	0.871253
606.000000	0.886520
607.000000	0.862807
608.000000	0.821715
609.000000	0.799579
610.000000	0.763726
611.000000	0.746388
612.000000	0.706283
613.000000	0.687833
614.000000	0.668690
615.000000	0.666293
616.000000	0.642029
617.000000	0.602675
618.000000	0.601815
619.000000	0.576619
620.000000	0.519971
621.000000	0.512460
622.000000	0.516411
623.000000	0.522550
624.000000	0.476099
625.000000	0.443839
626.000000	0.457375
627.000000	0.432382
628.000000	0.395818
629.000000	0.366128
630.000000	0.359101
631.000000	0.338076
632.000000	0.338710
633.000000	0.352201
634.000000	0.353808
635.000000	0.421175
636.000000	0.488353
637.000000	0.521950
638.000000	0.519017
639.000000	0.508578
640.000000	0.501049
641.000000	0.468816
642.000000	0.387658
643.000000	0.293316
644.000000	0.223130
645.000000	0.147459
646.000000	0.163690
647.000000	0.233567
648.000000	0.323237
649.000000	0.414042
650.000000	0.505363
651.000000	0.596148
652.000000	0.658922
653.000000	0.694555
654.000000	0.716240
655.000000	0.735449
656.000000	0.769226
657.000000	0.782687
658.000000	0.789925
659.000000	0.803736
660.000000	0.809345
661.000000	0.808329
662.000000	0.813114
663.000000	0.830974
664.000000	0.869640
665.000000	0.909035
666.000000	0.905395
667.000000	0.931267
668.000000	0.993558
669.000000	1.013508
670.000000	1.021218
671.000000	1.028715
672.000000	1.022839
673.000000	1.010249
674.000000	0.984724
675.000000	0.934564
676.000000	0.922511
677.000000	0.904152
678.000000	0.873491
679.000000	0.825146
680.000000	0.811767
681.000000	0.793699
682.000000	0.768569
683.000000	0.751252
684.000000	0.770460
685.000000	0.784792
686.000000	0.765518
687.000000	0.754945
688.000000	0.777029
689.000000	0.763820
690.000000	0.745302
691.000000	0.762269
692.000000	0.773538
693.000000	0.757653
694.000000	0.804212
695.000000	0.854172
696.000000	0.874738
697.000000	0.851136
698.000000	0.844784
699.000000	0.820305
700.000000	0.883110
701.000000	0.899872
702.000000	0.891852
703.000000	0.940587
704.000000	0.970435
705.000000	0.945088
706.000000	1.001591
707.000000	0.937599
708.000000	0.964622
709.000000	1.005421
710.000000	1.041096
711.000000	1.028261
712.000000	1.075833
713.000000	1.087259
714.000000	1.108681
715.000000	1.111979
716.000000	1.196012
717.000000	1.193675
718.000000	1.226273
719.000000	1.233509
720.000000	1.205775
721.000000	1.280964
722.000000	1.295172
723.000000	1.336566
724.000000	1.332000
725.000000	1.231451
726.000000	1.273484
727.000000	1.222227
728.000000	1.216540
729.000000	1.176481
730.000000	1.173198
731.000000	1.118695
732.000000	1.090979
733.000000	1.127565
734.000000	1.033821
735.000000	1.094855
736.000000	1.049978
737.000000	1.031882
738.000000	1.044315
739.000000	1.003393
740.000000	1.057055
741.000000	1.049589
742.000000	1.054682
743.000000	1.157274
744.000000	1.215190
745.000000	1.126952
746.000000	1.165265
747.000000	1.251782
748.000000	1.238453
749.000000	1.195449
750.000000	1.207488
751.000000	1.288608
752.000000	1.337264
753.000000	1.230668
754.000000	1.296729
755.000000	1.263683
756.000000	1.265157
757.000000	1.306061
758.000000	1.296274
759.000000	1.155441
760.000000	1.194688
761.000000	1.146395
762.000000	1.101095
763.000000	1.073915
764.000000	1.105313
765.000000	1.125179
766.000000	1.116556
767.000000	1.023443
768.000000	0.995100
769.000000	1.024218
770.000000	0.969063
771.000000	0.881919
772.000000	0.847478
773.000000	0.874003
774.000000	0.821333
775.000000	0.814655
776.000000	0.955604
777.000000	0.911610
778.000000	0.874400
779.000000	0.933520
780.000000	0.897378
781.000000	0.830988
782.000000	0.766017
783.000000	0.780968
784.000000	0.772679
785.000000	0.833759
786.000000	1.025118
787.000000	0.948396
788.000000	1.062764
789.000000	1.105114
790.000000	1.186709
791.000000	1.010731
792.000000	1.161373
793.000000	1.097071
794.000000	1.010776
795.000000	1.049572
796.000000	1.038978
797.000000	1.117621
798.000000	1.029541
799.000000	1.085269
800.000000	0.995833
801.000000	0.951251
802.000000	0.891703
803.000000	0.893913
804.000000	0.715763
805.000000	0.798845
806.000000	0.828031
807.000000	0.725824
808.000000	0.824153
809.000000	0.705381
810.000000	0.708034
811.000000	0.664171
812.000000	0.754039
813.000000	0.741241
814.000000	0.804235
815.000000	0.564783
816.000000	0.639600
817.000000	0.628348
818.000000	0.547834
819.000000	0.571524
820.000000	0.595007
821.000000	0.657602
822.000000	0.646933
823.000000	0.618976
824.000000	0.587773
825.000000	0.658062
826.000000	0.637523
827.000000	0.753278
828.000000	0.658266
829.000000	0.551941
830.000000	0.696297
831.000000	0.619006
832.000000	0.631440
833.000000	0.768572
834.000000	0.658112
835.000000	0.574383
836.000000	0.681282
837.000000	0.743014
838.000000	0.631126
839.000000	0.738368
840.000000	0.598564
841.000000	0.416206
842.000000	0.721478
843.000000	0.333836
844.000000	0.773516
845.000000	0.589117
846.000000	0.684522
847.000000	0.364181
848.000000	0.537108
849.000000	0.784802
850.000000	0.755343
851.000000	0.668935
852.000000	0.495671
853.000000	0.515882
854.000000	0.687944
855.000000	0.498035
856.000000	0.442337
857.000000	0.606932
858.000000	0.478020
859.000000	0.451259
860.000000	0.424058
861.000000	0.412542
862.000000	0.402705
863.000000	0.383682
864.000000	0.378017
865.000000	0.372079
866.000000	0.362588
867.000000	0.362341
868.000000	0.378838
869.000000	0.374139
870.000000	0.376265
871.000000	0.365001
872.000000	0.329015
873.000000	0.321261
874.000000	0.349140
875.000000	0.343601
876.000000	0.354813
877.000000	0.381801
878.000000	0.389994
879.000000	0.410756
880.000000	0.423913
881.000000	0.414519
882.000000	0.430317
883.000000	0.447091
884.000000	0.445692
885.000000	0.455393
886.000000	0.469974
887.000000	0.480455
888.000000	0.484226
889.000000	0.481710
890.000000	0.487806
891.000000	0.492605
892.000000	0.497857
893.000000	0.501701
894.000000	0.496060
895.000000	0.498974
896.000000	0.494354
897.000000	0.490729
898.000000	0.489945
899.000000	0.488670
900.000000	0.482730
901.000000	0.486305
902.000000	0.477210
903.000000	0.486933
904.000000	0.494503
905.000000	0.506458
906.000000	0.516290
907.000000	0.507163
908.000000	0.520005
909.000000	0.525295
910.000000	0.527699
911.000000	0.536494
912.000000	0.549642
913.000000	0.557883
914.000000	0.542109
915.000000	0.556212
916.000000	0.572738
917.000000	0.572949
918.000000	0.582899
919.000000	0.579730
920.000000	0.587949
921.000000	0.583905
922.000000	0.579588
923.000000	0.575881
924.000000	0.572397
925.000000	0.589373
926.000000	0.593904
927.000000	0.580186
928.000000	0.585565
929.000000	0.589541
930.000000	0.577122
931.000000	0.575220
932.000000	0.580359
933.000000	0.580499
934.000000	0.582059
935.000000	0.579249
936.000000	0.578840
937.000000	0.583897
938.000000	0.591237
939.000000	0.592182
940.000000	0.579800
941.000000	0.579747
942.000000	0.595571
943.000000	0.594029
944.000000	0.588138
945.000000	0.592357
946.000000	0.593025
947.000000	0.586235
948.000000	0.591789
949.000000	0.602537
950.000000	0.601683
951.000000	0.608533
952.000000	0.613516
953.000000	0.617103
954.000000	0.628974
955.000000	0.636041
956.000000	0.632618
957.000000	0.624663
958.000000	0.629917
959.000000	0.648673
960.000000	0.670709
961.000000	0.677520
962.000000	0.679001
963.000000	0.684406
964.000000	0.690808
965.000000	0.694295
966.000000	0.699969
967.000000	0.699328
968.000000	0.703059
969.000000	0.712657
970.000000	0.721914
971.000000	0.720432
972.000000	0.717193
973.000000	0.725155
974.000000	0.733863
975.000000	0.726409
976.000000	0.727655
977.000000	0.731490
978.000000	0.721870
979.000000	0.722251
980.000000	0.725075
981.000000	0.727092
982.000000	0.714839
983.000000	0.708870
984.000000	0.711580
985.000000	0.714826
986.000000	0.709557
987.000000	0.699194
988.000000	0.695916
989.000000	0.696901
990.000000	0.707453
991.000000	0.703832
992.000000	0.707460
993.000000	0.697440
994.000000	0.684643
995.000000	0.700270
996.000000	0.707105
997.000000	0.706809
998.000000	0.692711
999.000000	0.692929
1000.000000	0.702219
1001.000000	0.706055
1002.000000	0.710518
1003.000000	0.704099
1004.000000	0.704075
1005.000000	0.719684
1006.000000	0.728194
1007.000000	0.727608
1008.000000	0.722467
1009.000000	0.726976
1010.000000	0.728064
1011.000000	0.736988
1012.000000	0.738701
1013.000000	0.736931
1014.000000	0.744328
1015.000000	0.748725
1016.000000	0.737072
1017.000000	0.743940
1018.000000	0.746510
1019.000000	0.753265
1020.000000	0.760700
1021.000000	0.753736
1022.000000	0.764074
1023.000000	0.765138
1024.000000	0.762324
1025.000000	0.779357
1026.000000	0.787572
1027.000000	0.769031
1028.000000	0.775422
1029.000000	0.783935
1030.000000	0.783548
1031.000000	0.778569
1032.000000	0.788106
1033.000000	0.781471
1034.000000	0.782281
1035.000000	0.784912
1036.000000	0.787455
1037.000000	0.801015
1038.000000	0.798389
1039.000000	0.806763
1040.000000	0.801014
1041.000000	0.806250
1042.000000	0.805453
1043.000000	0.812050
1044.000000	0.811042
1045.000000	0.806580
1046.000000	0.814570
1047.000000	0.813455
1048.000000	0.820042
1049.000000	0.809193
1050.000000	0.808649
1051.000000	0.815794
1052.000000	0.819758
1053.000000	0.819433
1054.000000	0.807994
1055.000000	0.824637
1056.000000	0.809891
1057.000000	0.826937
1058.000000	0.815823
1059.000000	0.818496
1060.000000	0.826740
1061.000000	0.812883
1062.000000	0.810234
1063.000000	0.823007
1064.000000	0.822495
1065.000000	0.814934
1066.000000	0.806921
1067.000000	0.826716
1068.000000	0.828529
1069.000000	0.835505
1070.000000	0.819101
1071.000000	0.823753
1072.000000	0.822915
1073.000000	0.829976
1074.000000	0.833742
1075.000000	0.824709
1076.000000	0.843579
1077.000000	0.843793
1078.000000	0.854236
1079.000000	0.842933
1080.000000	0.848438
1081.000000	0.847240
1082.000000	0.874792
1083.000000	0.867809
1084.000000	0.875448
1085.000000	0.874476
1086.000000	0.885451
1087.000000	0.893800
1088.000000	0.891587
1089.000000	0.890351
1090.000000	0.900869
1091.000000	0.908904
1092.000000	0.903522
1093.000000	0.919861
1094.000000	0.936247
1095.000000	0.941506
1096.000000	0.941266
1097.000000	0.954999
1098.000000	0.951119
1099.000000	0.955621
1100.000000	0.962682
1101.000000	0.981692
1102.000000	0.980431
1103.000000	0.998385
1104.000000	0.997181
1105.000000	0.999722
1106.000000	1.005893
1107.000000	1.002858
1108.000000	1.010303
1109.000000	1.011446
1110.000000	1.023788
1111.000000	1.018137
1112.000000	1.020338
1113.000000	1.030521
1114.000000	1.026412
1115.000000	1.039862
1116.000000	1.034744
1117.000000	1.045594
1118.000000	1.038857
1119.000000	1.046173
1120.000000	1.042812
1121.000000	1.054378
1122.000000	1.054306
1123.000000	1.061617
1124.000000	1.057017
1125.000000	1.070351
1126.000000	1.083491
1127.000000	1.089607
1128.000000	1.099000
1129.000000	1.108487
1130.000000	1.133440
1131.000000	1.153285
1132.000000	1.154162
1133.000000	1.172465
1134.000000	1.194292
1135.000000	1.205310
1136.000000	1.215297
1137.000000	1.234782
1138.000000	1.248281
1139.000000	1.254729
1140.000000	1.264789
1141.000000	1.283894
1142.000000	1.286587
1143.000000	1.299687
1144.000000	1.314286
1145.000000	1.317311
1146.000000	1.328682
1147.000000	1.341176
1148.000000	1.344783
1149.000000	1.345148
1150.000000	1.357021
1151.000000	1.368379
1152.000000	1.380801
1153.000000	1.387513
1154.000000	1.391729
1155.000000	1.411812
1156.000000	1.421676
1157.000000	1.432849
1158.000000	1.451142
1159.000000	1.454966
1160.000000	1.459833
1161.000000	1.485854
1162.000000	1.491931
1163.000000	1.490285
1164.000000	1.509662
1165.000000	1.524633
1166.000000	1.537093
1167.000000	1.530541
1168.000000	1.544711
1169.000000	1.555035
1170.000000	1.558680
1171.000000	1.568600
1172.000000	1.567933
1173.000000	1.573493
1174.000000	1.585490
1175.000000	1.594308
1176.000000	1.601601
1177.000000	1.608236
1178.000000	1.611023
1179.000000	1.620667
1180.000000	1.633829
1181.000000	1.634883
1182.000000	1.642416
1183.000000	1.642058
1184.000000	1.636404
1185.000000	1.629231
1186.000000	1.620884
1187.000000	1.607168
1188.000000	1.586241
1189.000000	1.576280
1190.000000	1.568122
1191.000000	1.558072
1192.000000	1.541747
1193.000000	1.534264
1194.000000	1.525643
1195.000000	1.513055
1196.000000	1.519995
1197.000000	1.516702
1198.000000	1.505372
1199.000000	1.504956
1200.000000	1.507248
1201.000000	1.507804
1202.000000	1.499430
1203.000000	1.503503
1204.000000	1.502685
1205.000000	1.497979
1206.000000	1.502370
1207.000000	1.491535
1208.000000	1.486580
1209.000000	1.484760
1210.000000	1.483785
1211.000000	1.487042
1212.000000	1.485146
1213.000000	1.479547
1214.000000	1.477978
1215.000000	1.480268
1216.000000	1.481405
1217.000000	1.480841
1218.000000	1.474813
1219.000000	1.471778
1220.000000	1.468664
1221.000000	1.466166
1222.000000	1.474266
1223.000000	1.477405
1224.000000	1.472566
1225.000000	1.466983
1226.000000	1.464009
1227.000000	1.462145
1228.000000	1.455708
1229.000000	1.456034
1230.000000	1.460387
1231.000000	1.454346
1232.000000	1.453699
1233.000000	1.456678
1234.000000	1.455381
1235.000000	1.450257
1236.000000	1.435434
1237.000000	1.424881
1238.000000	1.422146
1239.000000	1.418615
1240.000000	1.418352
1241.000000	1.405568
1242.000000	1.404109
1243.000000	1.410232
1244.000000	1.392862
1245.000000	1.377046
1246.000000	1.370434
1247.000000	1.370726
1248.000000	1.370950
1249.000000	1.362006
1250.000000	1.358835
1251.000000	1.356236
1252.000000	1.347629
1253.000000	1.344778
1254.000000	1.335426
1255.000000	1.333517
1256.000000	1.328111
1257.000000	1.318615
1258.000000	1.309752
1259.000000	1.316934
1260.000000	1.315301
1261.000000	1.305642
1262.000000	1.300655
1263.000000	1.294868
1264.000000	1.293252
1265.000000	1.288003
1266.000000	1.286551
1267.000000	1.287703
1268.000000	1.282568
1269.000000	1.278793
1270.000000	1.279560
1271.000000	1.273069
1272.000000	1.271979
1273.000000	1.274638
1274.000000	1.274831
1275.000000	1.274183
1276.000000	1.275750
1277.000000	1.271457
1278.000000	1.269308
1279.000000	1.267913
1280.000000	1.270936
1281.000000	1.258883
1282.000000	1.259786
1283.000000	1.269064
1284.000000	1.271771
1285.000000	1.278554
1286.000000	1.281869
1287.000000	1.285444
1288.000000	1.277240
1289.000000	1.277665
1290.000000	1.281863
1291.000000	1.279848
1292.000000	1.289485
1293.000000	1.293231
1294.000000	1.288808
1295.000000	1.288772
1296.000000	1.281370
1297.000000	1.289812
1298.000000	1.293470
1299.000000	1.294997
1300.000000	1.288985
1301.000000	1.285940
1302.000000	1.292258
1303.000000	1.303058
1304.000000	1.300376
1305.000000	1.293780
1306.000000	1.287366
1307.000000	1.289535
1308.000000	1.285849
1309.000000	1.295120
1310.000000	1.297755
1311.000000	1.294981
1312.000000	1.279781
1313.000000	1.287221
1314.000000	1.296478
1315.000000	1.301757
1316.000000	1.295971
1317.000000	1.304229
1318.000000	1.299991
1319.000000	1.289999
1320.000000	1.294359
1321.000000	1.302200
1322.000000	1.296056
1323.000000	1.302792
1324.000000	1.306485
1325.000000	1.296918
1326.000000	1.294387
1327.000000	1.300782
1328.000000	1.314343
1329.000000	1.305220
1330.000000	1.314880
1331.000000	1.314377
1332.000000	1.312019
1333.000000	1.316838
1334.000000	1.320531
1335.000000	1.317185
1336.000000	1.322856
1337.000000	1.324574
1338.000000	1.337577
1339.000000	1.330269
1340.000000	1.337648
1341.000000	1.347801
1342.000000	1.350010
1343.000000	1.349721
1344.000000	1.349508
1345.000000	1.348419
1346.000000	1.368958
1347.000000	1.360368
1348.000000	1.385659
1349.000000	1.384150
1350.000000	1.388490
1351.000000	1.387804
1352.000000	1.396293
1353.000000	1.392808
1354.000000	1.410564
1355.000000	1.413569
1356.000000	1.413993
1357.000000	1.405120
1358.000000	1.403429
1359.000000	1.410854
1360.000000	1.407042
1361.000000	1.429769
1362.000000	1.449418
1363.000000	1.444614
1364.000000	1.457533
1365.000000	1.449061
1366.000000	1.476137
1367.000000	1.477123
1368.000000	1.487783
1369.000000	1.476698
1370.000000	1.490632
1371.000000	1.494045
1372.000000	1.511930
1373.000000	1.506386
1374.000000	1.495938
1375.000000	1.501733
1376.000000	1.518442
1377.000000	1.524121
1378.000000	1.519296
1379.000000	1.511928
1380.000000	1.528610
1381.000000	1.546445
1382.000000	1.562249
1383.000000	1.572518
1384.000000	1.587214
1385.000000	1.575433
1386.000000	1.574404
1387.000000	1.565771
1388.000000	1.593605
1389.000000	1.563062
1390.000000	1.547705
1391.000000	1.562744
1392.000000	1.554373
1393.000000	1.521944
1394.000000	1.522049
1395.000000	1.534032
1396.000000	1.557437
1397.000000	1.536878
1398.000000	1.501252
1399.000000	1.501138
1400.000000	1.509554
1401.000000	1.525045
1402.000000	1.501082
1403.000000	1.471115
1404.000000	1.467567
1405.000000	1.470710
1406.000000	1.459782
1407.000000	1.437967
1408.000000	1.430971
1409.000000	1.425092
1410.000000	1.422495
1411.000000	1.393892
1412.000000	1.369600
1413.000000	1.362834
1414.000000	1.368091
1415.000000	1.358473
1416.000000	1.337207
1417.000000	1.322744
1418.000000	1.331369
1419.000000	1.312049
1420.000000	1.305707
1421.000000	1.291132
1422.000000	1.280745
1423.000000	1.283203
1424.000000	1.284986
1425.000000	1.260821
1426.000000	1.254489
1427.000000	1.249522
1428.000000	1.264466
1429.000000	1.256766
1430.000000	1.242246
1431.000000	1.232018
1432.000000	1.230422
1433.000000	1.224589
1434.000000	1.227666
1435.000000	1.220342
1436.000000	1.211996
1437.000000	1.211990
1438.000000	1.214788
1439.000000	1.224193
1440.000000	1.214049
1441.000000	1.216993
1442.000000	1.228526
1443.000000	1.231458
1444.000000	1.210628
1445.000000	1.229093
1446.000000	1.233486
1447.000000	1.229887
1448.000000	1.225650
1449.000000	1.231909
1450.000000	1.234924
1451.000000	1.233249
1452.000000	1.243261
1453.000000	1.230754
1454.000000	1.242271
1455.000000	1.244128
1456.000000	1.252052
1457.000000	1.259640
1458.000000	1.253208
1459.000000	1.261378
1460.000000	1.260612
1461.000000	1.267435
1462.000000	1.265915
1463.000000	1.266287
1464.000000	1.274016
1465.000000	1.290745
1466.000000	1.289795
1467.000000	1.286456
1468.000000	1.285657
1469.000000	1.288372
1470.000000	1.297432
1471.000000	1.314210
1472.000000	1.322060
1473.000000	1.318872
1474.000000	1.317644
1475.000000	1.319246
1476.000000	1.322109
1477.000000	1.333017
1478.000000	1.337868
1479.000000	1.338841
1480.000000	1.344320
1481.000000	1.350967
1482.000000	1.357395
1483.000000	1.361128
1484.000000	1.364051
1485.000000	1.371689
1486.000000	1.372652
1487.000000	1.365952
1488.000000	1.380732
1489.000000	1.391020
1490.000000	1.385658
1491.000000	1.390970
1492.000000	1.393744
1493.000000	1.397382
1494.000000	1.403494
1495.000000	1.398028
1496.000000	1.406977
1497.000000	1.412350
1498.000000	1.403395
1499.000000	1.406493
1500.000000	1.418548
1501.000000	1.428248
1502.000000	1.431150
1503.000000	1.437084
1504.000000	1.437308
1505.000000	1.433948
1506.000000	1.445861
1507.000000	1.444925
1508.000000	1.439119
1509.000000	1.451386
1510.000000	1.453887
1511.000000	1.463718
1512.000000	1.470801
1513.000000	1.472528
1514.000000	1.475599
1515.000000	1.480810
1516.000000	1.488563
1517.000000	1.493206
1518.000000	1.497101
1519.000000	1.497895
1520.000000	1.504390
1521.000000	1.516455
1522.000000	1.528906
1523.000000	1.524180
1524.000000	1.528369
1525.000000	1.542165
1526.000000	1.540790
1527.000000	1.543445
1528.000000	1.552655
1529.000000	1.558035
1530.000000	1.560230
1531.000000	1.570251
1532.000000	1.566683
1533.000000	1.567307
1534.000000	1.580571
1535.000000	1.588349
1536.000000	1.589300
1537.000000	1.605422
1538.000000	1.615132
1539.000000	1.615650
1540.000000	1.621380
1541.000000	1.631498
1542.000000	1.636588
1543.000000	1.642440
1544.000000	1.656238
1545.000000	1.667754
1546.000000	1.673648
1547.000000	1.677755
1548.000000	1.689268
1549.000000	1.706842
1550.000000	1.710400
1551.000000	1.708329
1552.000000	1.713806
1553.000000	1.730168
1554.000000	1.734510
1555.000000	1.748880
1556.000000	1.744541
1557.000000	1.742878
1558.000000	1.757207
1559.000000	1.768582
1560.000000	1.773802
1561.000000	1.780443
1562.000000	1.775744
1563.000000	1.786313
1564.000000	1.793553
1565.000000	1.800160
1566.000000	1.804579
1567.000000	1.807935
1568.000000	1.799722
1569.000000	1.803923
1570.000000	1.805823
1571.000000	1.824580
1572.000000	1.831977
1573.000000	1.831619
1574.000000	1.833822
1575.000000	1.847862
1576.000000	1.845628
1577.000000	1.830008
1578.000000	1.850085
1579.000000	1.859844
1580.000000	1.861393
1581.000000	1.860363
1582.000000	1.864352
1583.000000	1.870771
1584.000000	1.880237
1585.000000	1.874981
1586.000000	1.871318
1587.000000	1.879027
1588.000000	1.894194
1589.000000	1.902688
1590.000000	1.886856
1591.000000	1.889423
1592.000000	1.905299
1593.000000	1.900610
1594.000000	1.903608
1595.000000	1.913169
1596.000000	1.910773
1597.000000	1.911047
1598.000000	1.910386
1599.000000	1.907393
1600.000000	1.912259
1601.000000	1.918944
1602.000000	1.923297
1603.000000	1.917035
1604.000000	1.915498
1605.000000	1.923351
1606.000000	1.922409
1607.000000	1.922407
1608.000000	1.920201
1609.000000	1.918714
1610.000000	1.917728
1611.000000	1.924040
1612.000000	1.928143
1613.000000	1.931089
1614.000000	1.923645
1615.000000	1.932336
1616.000000	1.930483
1617.000000	1.936715
1618.000000	1.944226
1619.000000	1.940336
1620.000000	1.938226
1621.000000	1.928991
1622.000000	1.930409
1623.000000	1.930585
1624.000000	1.942781
1625.000000	1.944046
1626.000000	1.943959
1627.000000	1.929033
1628.000000	1.932006
1629.000000	1.942692
1630.000000	1.936654
1631.000000	1.930070
1632.000000	1.931234
1633.000000	1.943318
1634.000000	1.944195
1635.000000	1.938235
1636.000000	1.925295
1637.000000	1.944636
1638.000000	1.938250
1639.000000	1.935269
1640.000000	1.947734
1641.000000	1.951229
1642.000000	1.937161
1643.000000	1.941874
1644.000000	1.949253
1645.000000	1.944156
1646.000000	1.934713
1647.000000	1.932829
1648.000000	1.935379
1649.000000	1.942038
1650.000000	1.940260
1651.000000	1.939971
1652.000000	1.929757
1653.000000	1.946707
1654.000000	1.931256
1655.000000	1.934099
1656.000000	1.950390
1657.000000	1.920286
1658.000000	1.943640
1659.000000	1.942003
1660.000000	1.921477
1661.000000	1.926044
1662.000000	1.934678
1663.000000	1.949676
1664.000000	1.933785
1665.000000	1.932034
1666.000000	1.945506
1667.000000	1.941294
1668.000000	1.928904
1669.000000	1.936491
1670.000000	1.922887
1671.000000	1.934540
1672.000000	1.932126
1673.000000	1.930373
1674.000000	1.942531
1675.000000	1.949331
1676.000000	1.929811
1677.000000	1.941789
1678.000000	1.928872
1679.000000	1.934299
1680.000000	1.931228
1681.000000	1.921965
1682.000000	1.920019
1683.000000	1.903429
1684.000000	1.889928
1685.000000	1.888835
1686.000000	1.875604
1687.000000	1.873194
1688.000000	1.877285
1689.000000	1.862550
1690.000000	1.862387
1691.000000	1.857576
1692.000000	1.856578
1693.000000	1.841433
1694.000000	1.849463
1695.000000	1.840261
1696.000000	1.834112
1697.000000	1.830793
1698.000000	1.824663
1699.000000	1.803994
1700.000000	1.799693
1701.000000	1.804213
1702.000000	1.810041
1703.000000	1.795623
1704.000000	1.793808
1705.000000	1.788506
1706.000000	1.777210
1707.000000	1.770871
1708.000000	1.757176
1709.000000	1.753087
1710.000000	1.751687
1711.000000	1.738074
1712.000000	1.723638
1713.000000	1.717496
1714.000000	1.712409
1715.000000	1.690569
1716.000000	1.684001
1717.000000	1.671136
1718.000000	1.667390
1719.000000	1.647530
1720.000000	1.638306
1721.000000	1.628872
1722.000000	1.609339
1723.000000	1.598137
1724.000000	1.598260
1725.000000	1.604524
1726.000000	1.585473
1727.000000	1.576062
1728.000000	1.570703
1729.000000	1.557379
1730.000000	1.558182
1731.000000	1.551115
1732.000000	1.558762
1733.000000	1.559666
1734.000000	1.567708
1735.000000	1.567259
1736.000000	1.581752
1737.000000	1.588924
1738.000000	1.591374
1739.000000	1.591457
1740.000000	1.597123
1741.000000	1.602628
1742.000000	1.602342
1743.000000	1.606030
1744.000000	1.609220
1745.000000	1.611279
1746.000000	1.608002
1747.000000	1.595564
1748.000000	1.598743
1749.000000	1.591933
1750.000000	1.590405
1751.000000	1.584284
1752.000000	1.573202
1753.000000	1.567030
1754.000000	1.567087
1755.000000	1.560070
1756.000000	1.553434
1757.000000	1.549090
1758.000000	1.538970
1759.000000	1.537709
1760.000000	1.533772
1761.000000	1.519969
1762.000000	1.510854
1763.000000	1.510845
1764.000000	1.510670
1765.000000	1.517996
1766.000000	1.513847
1767.000000	1.510694
1768.000000	1.512950
1769.000000	1.515392
1770.000000	1.524971
1771.000000	1.520739
1772.000000	1.524740
1773.000000	1.527243
1774.000000	1.526711
1775.000000	1.541471
1776.000000	1.534424
1777.000000	1.529878
1778.000000	1.533427
1779.000000	1.529084
1780.000000	1.530351
1781.000000	1.530144
1782.000000	1.524741
1783.000000	1.521495
1784.000000	1.526244
1785.000000	1.527842
1786.000000	1.533024
1787.000000	1.525052
1788.000000	1.516891
1789.000000	1.515696
1790.000000	1.514427
1791.000000	1.513064
1792.000000	1.510886
1793.000000	1.512955
1794.000000	1.514198
1795.000000	1.506823
1796.000000	1.502713
1797.000000	1.504783
1798.000000	1.500874
1799.000000	1.497179
1800.000000	1.505553
1801.000000	1.505417
1802.000000	1.500686
1803.000000	1.507548
1804.000000	1.508861
1805.000000	1.503355
1806.000000	1.506686
1807.000000	1.513360
1808.000000	1.505084
1809.000000	1.496161
1810.000000	1.510102
1811.000000	1.515651
1812.000000	1.508823
1813.000000	1.504786
1814.000000	1.503083
1815.000000	1.507534
1816.000000	1.509030
1817.000000	1.505179
1818.000000	1.489363
1819.000000	1.484799
1820.000000	1.505521
1821.000000	1.537682
1822.000000	1.539790
1823.000000	1.514445
1824.000000	1.494026
1825.000000	1.483377
1826.000000	1.489483
1827.000000	1.495496
1828.000000	1.492763
1829.000000	1.484389
1830.000000	1.496813
1831.000000	1.501534
1832.000000	1.484312
1833.000000	1.458275
1834.000000	1.450823
1835.000000	1.460614
1836.000000	1.473576
1837.000000	1.482691
1838.000000	1.481428
1839.000000	1.471184
1840.000000	1.475488
1841.000000	1.513723
1842.000000	1.506227
1843.000000	1.475491
1844.000000	1.442236
1845.000000	1.410281
1846.000000	1.420749
1847.000000	1.458383
1848.000000	1.476578
1849.000000	1.493063
1850.000000	1.468338
1851.000000	1.427800
1852.000000	1.416881
1853.000000	1.422036
1854.000000	1.433962
1855.000000	1.432738
1856.000000	1.425510
1857.000000	1.411813
1858.000000	1.405105
1859.000000	1.428073
1860.000000	1.423545
1861.000000	1.415637
1862.000000	1.408987
1863.000000	1.386005
1864.000000	1.362725
1865.000000	1.339025
1866.000000	1.315997
1867.000000	1.316848
1868.000000	1.307501
1869.000000	1.330138
1870.000000	1.336556
1871.000000	1.354674
1872.000000	1.355698
1873.000000	1.364664
1874.000000	1.358274
1875.000000	1.335512
1876.000000	1.296183
1877.000000	1.275485
1878.000000	1.255873
1879.000000	1.213323
1880.000000	1.182510
1881.000000	1.154071
1882.000000	1.127204
1883.000000	1.092704
1884.000000	1.077977
1885.000000	1.056784
1886.000000	1.012342
1887.000000	0.960960
1888.000000	0.908228
1889.000000	0.874113
1890.000000	0.864229
1891.000000	0.854672
1892.000000	0.818554
1893.000000	0.787877
1894.000000	0.730655
1895.000000	0.668375
1896.000000	0.627041
1897.000000	0.605761
1898.000000	0.604021
1899.000000	0.602376
1900.000000	0.603852
1901.000000	0.587312
1902.000000	0.553190
1903.000000	0.534012
1904.000000	0.546570
1905.000000	0.549423
1906.000000	0.558376
1907.000000	0.552780
1908.000000	0.513201
1909.000000	0.468702
1910.000000	0.432900
1911.000000	0.424815
1912.000000	0.440271
1913.000000	0.465056
1914.000000	0.482205
1915.000000	0.469953
1916.000000	0.430646
1917.000000	0.409626
1918.000000	0.396065
1919.000000	0.398735
1920.000000	0.431530
1921.000000	0.434299
1922.000000	0.445859
1923.000000	0.445964
1924.000000	0.418257
1925.000000	0.416657
1926.000000	0.431431
1927.000000	0.420720
1928.000000	0.429398
1929.000000	0.438231
1930.000000	0.452976
1931.000000	0.445199
1932.000000	0.437950
1933.000000	0.424913
1934.000000	0.398607
1935.000000	0.414926
1936.000000	0.405141
1937.000000	0.432776
1938.000000	0.431991
1939.000000	0.433654
1940.000000	0.436479
1941.000000	0.438456
1942.000000	0.432945
1943.000000	0.438428
1944.000000	0.432690
1945.000000	0.434010
1946.000000	0.451072
1947.000000	0.440427
1948.000000	0.434843
1949.000000	0.448999
1950.000000	0.436761
1951.000000	0.431100
1952.000000	0.439291
1953.000000	0.440896
1954.000000	0.446941
1955.000000	0.448095
1956.000000	0.459572
1957.000000	0.445368
1958.000000	0.438271
1959.000000	0.445108
1960.000000	0.446772
1961.000000	0.463134
1962.000000	0.447155
1963.000000	0.458526
1964.000000	0.453245
1965.000000	0.449283
1966.000000	0.449838
1967.000000	0.463400
1968.000000	0.451529
1969.000000	0.460637
1970.000000	0.464187
1971.000000	0.457812
1972.000000	0.462696
1973.000000	0.462797
1974.000000	0.455226
1975.000000	0.468808
1976.000000	0.458660
1977.000000	0.471411
1978.000000	0.473757
1979.000000	0.471415
1980.000000	0.477078
1981.000000	0.481356
1982.000000	0.473329
1983.000000	0.478699
1984.000000	0.480796
1985.000000	0.476096
1986.000000	0.483344
1987.000000	0.486595
1988.000000	0.487452
1989.000000	0.499286
1990.000000	0.496331
1991.000000	0.504329
1992.000000	0.501102
1993.000000	0.492503
1994.000000	0.503403
1995.000000	0.492481
1996.000000	0.505540
1997.000000	0.493467
1998.000000	0.491596
1999.000000	0.499394
