PE UV       SUBTECH     SPECTRUM    ASCII       PEDS        4.00        
   -1
CICIMAUCR0235-3.ASC
24/06/17
14:43:29.00
24/06/17
14:43:29.00
Vinicio Soto Monge
C. resplendens. Sex M. Dorsal. 
250,000000
1
Lambda 1050
1050L1511233
PerkinElmer UV WinLab 6.3.2.0749 / 2.02.05 Lambda 900 UV/VIS/NIR, Aug  7 2015 09:38:08

0
0
3350/servo 860,8/2
0
0
UV/VIS
1
1
1
DoubleDePol,CommonBeamDepol,RBeamAtt,SBeamAtt,60mm sphere, WB InGaAs Detector
0
0
0
0
Program
Program
3350/servo 860,8/2
3350/0,2 860,8/0,2
3350/0,2 860,8/0,2
0
15.00
 
 
 
0
 
860,8
319,2
860,8
Front
100
on
S:100 R:100
0
0
0
0
 
0
 
 
 
0
 
 
0
0
0
0
0
 
 
 
 
0
0


0
0
#HDR
-1
-1
#GR
nm
%R
1.0
0.0
2500,000000
-1,000000
2251
8
87,133000
5,483900
#DATA
250.000000	0.000000	0.153362
251.000000	0.000000	0.116669
252.000000	0.000000	0.133467
253.000000	0.000000	0.104639
254.000000	0.000000	0.125549
255.000000	0.000000	0.137848
256.000000	0.000000	0.142947
257.000000	0.000000	0.143844
258.000000	0.000000	0.114742
259.000000	0.000000	0.112678
260.000000	0.000000	0.137924
261.000000	0.000000	0.113548
262.000000	0.000000	0.090095
263.000000	0.000000	0.148137
264.000000	0.000000	0.105965
265.000000	0.000000	0.106193
266.000000	0.000000	0.110218
267.000000	0.000000	0.125622
268.000000	0.000000	0.104469
269.000000	0.000000	0.130783
270.000000	0.000000	0.134903
271.000000	0.000000	0.113079
272.000000	0.000000	0.142919
273.000000	0.000000	0.114285
274.000000	0.000000	0.081793
275.000000	0.000000	0.089514
276.000000	0.000000	0.110819
277.000000	0.000000	0.118073
278.000000	0.000000	0.119610
279.000000	0.000000	0.136695
280.000000	0.000000	0.148533
281.000000	0.000000	0.126847
282.000000	0.000000	0.134771
283.000000	0.000000	0.132089
284.000000	0.000000	0.075733
285.000000	0.000000	0.090251
286.000000	0.000000	0.134753
287.000000	0.000000	0.128343
288.000000	0.000000	0.136933
289.000000	0.000000	0.120525
290.000000	0.000000	0.112176
291.000000	0.000000	0.108126
292.000000	0.000000	0.139153
293.000000	0.000000	0.159264
294.000000	0.000000	0.149583
295.000000	0.000000	0.166300
296.000000	0.000000	0.145356
297.000000	0.000000	0.106545
298.000000	0.000000	0.111699
299.000000	0.000000	0.127592
300.000000	0.000000	0.137514
301.000000	0.000000	0.129167
302.000000	0.000000	0.086422
303.000000	0.000000	0.098073
304.000000	0.000000	0.100748
305.000000	0.000000	0.101639
306.000000	0.000000	0.114118
307.000000	0.000000	0.122478
308.000000	0.000000	0.114088
309.000000	0.000000	0.127229
310.000000	0.000000	0.092663
311.000000	0.000000	0.084889
312.000000	0.000000	0.104040
313.000000	0.000000	0.116036
314.000000	0.000000	0.119081
315.000000	0.000000	0.113796
316.000000	0.000000	0.083078
317.000000	0.000000	0.260939
318.000000	0.000000	0.383069
319.000000	0.000000	0.371636
320.000000	0.000000	0.336479
321.000000	0.000000	0.520180
322.000000	0.000000	0.378718
323.000000	0.000000	0.202867
324.000000	0.000000	0.213320
325.000000	0.000000	0.206639
326.000000	0.000000	0.295355
327.000000	0.000000	0.205460
328.000000	0.000000	0.144285
329.000000	0.000000	0.078087
330.000000	0.000000	0.073742
331.000000	0.000000	0.078862
332.000000	0.000000	0.147333
333.000000	0.000000	0.076991
334.000000	0.000000	0.170901
335.000000	0.000000	0.153881
336.000000	0.000000	0.111648
337.000000	0.000000	0.189750
338.000000	0.000000	0.044220
339.000000	0.000000	0.035723
340.000000	0.000000	0.141584
341.000000	0.000000	0.228091
342.000000	0.000000	0.235875
343.000000	0.000000	0.138498
344.000000	0.000000	0.094173
345.000000	0.000000	0.020276
346.000000	0.000000	0.015106
347.000000	0.000000	0.054200
348.000000	0.000000	0.123609
349.000000	0.000000	0.196849
350.000000	0.000000	0.153042
351.000000	0.000000	0.118378
352.000000	0.000000	0.113289
353.000000	0.000000	0.118543
354.000000	0.000000	0.116378
355.000000	0.000000	0.137334
356.000000	0.000000	0.197112
357.000000	0.000000	0.096338
358.000000	0.000000	0.085005
359.000000	0.000000	0.103695
360.000000	0.000000	0.105518
361.000000	0.000000	0.166073
362.000000	0.000000	0.235434
363.000000	0.000000	0.151031
364.000000	0.000000	0.130451
365.000000	0.000000	0.120740
366.000000	0.000000	0.131147
367.000000	0.000000	0.144972
368.000000	0.000000	0.186350
369.000000	0.000000	0.277613
370.000000	0.000000	0.233314
371.000000	0.000000	0.121737
372.000000	0.000000	0.189550
373.000000	0.000000	0.262321
374.000000	0.000000	0.330247
375.000000	0.000000	0.353384
376.000000	0.000000	0.230025
377.000000	0.000000	0.162351
378.000000	0.000000	0.162483
379.000000	0.000000	0.168842
380.000000	0.000000	0.182239
381.000000	0.000000	0.194614
382.000000	0.000000	0.183896
383.000000	0.000000	0.179461
384.000000	0.000000	0.177166
385.000000	0.000000	0.201246
386.000000	0.000000	0.215363
387.000000	0.000000	0.235733
388.000000	0.000000	0.250157
389.000000	0.000000	0.244595
390.000000	0.000000	0.266095
391.000000	0.000000	0.288246
392.000000	0.000000	0.312969
393.000000	0.000000	0.325782
394.000000	0.000000	0.359970
395.000000	0.000000	0.389471
396.000000	0.000000	0.405826
397.000000	0.000000	0.447251
398.000000	0.000000	0.481202
399.000000	0.000000	0.512242
400.000000	0.000000	0.539288
401.000000	0.000000	0.571229
402.000000	0.000000	0.587348
403.000000	0.000000	0.627411
404.000000	0.000000	0.662259
405.000000	0.000000	0.689302
406.000000	0.000000	0.706557
407.000000	0.000000	0.736136
408.000000	0.000000	0.751926
409.000000	0.000000	0.788804
410.000000	0.000000	0.785269
411.000000	0.000000	0.791474
412.000000	0.000000	0.776186
413.000000	0.000000	0.801251
414.000000	0.000000	0.816294
415.000000	0.000000	0.804032
416.000000	0.000000	0.788727
417.000000	0.000000	0.792114
418.000000	0.000000	0.794112
419.000000	0.000000	0.769503
420.000000	0.000000	0.747365
421.000000	0.000000	0.732396
422.000000	0.000000	0.733416
423.000000	0.000000	0.708315
424.000000	0.000000	0.675668
425.000000	0.000000	0.674272
426.000000	0.000000	0.648546
427.000000	0.000000	0.640569
428.000000	0.000000	0.618044
429.000000	0.000000	0.599993
430.000000	0.000000	0.612697
431.000000	0.000000	0.612670
432.000000	0.000000	0.597244
433.000000	0.000000	0.591294
434.000000	0.000000	0.571709
435.000000	0.000000	0.575933
436.000000	0.000000	0.610376
437.000000	0.000000	0.592007
438.000000	0.000000	0.597348
439.000000	0.000000	0.581204
440.000000	0.000000	0.582931
441.000000	0.000000	0.606241
442.000000	0.000000	0.630879
443.000000	0.000000	0.633758
444.000000	0.000000	0.615338
445.000000	0.000000	0.608758
446.000000	0.000000	0.619731
447.000000	0.000000	0.604056
448.000000	0.000000	0.633875
449.000000	0.000000	0.608297
450.000000	0.000000	0.603538
451.000000	0.000000	0.578521
452.000000	0.000000	0.564138
453.000000	0.000000	0.591837
454.000000	0.000000	0.555662
455.000000	0.000000	0.563103
456.000000	0.000000	0.543803
457.000000	0.000000	0.523999
458.000000	0.000000	0.471398
459.000000	0.000000	0.503793
460.000000	0.000000	0.439158
461.000000	0.000000	0.408596
462.000000	0.000000	0.367838
463.000000	0.000000	0.344973
464.000000	0.000000	0.306056
465.000000	0.000000	0.286840
466.000000	0.000000	0.283262
467.000000	0.000000	0.272036
468.000000	0.000000	0.252424
469.000000	0.000000	0.283901
470.000000	0.000000	0.262802
471.000000	0.000000	0.326279
472.000000	0.000000	0.365731
473.000000	0.000000	0.419530
474.000000	0.000000	0.454311
475.000000	0.000000	0.512030
476.000000	0.000000	0.560403
477.000000	0.000000	0.624202
478.000000	0.000000	0.674320
479.000000	0.000000	0.725100
480.000000	0.000000	0.773845
481.000000	0.000000	0.812353
482.000000	0.000000	0.838742
483.000000	0.000000	0.863568
484.000000	0.000000	0.898978
485.000000	0.000000	0.908769
486.000000	0.000000	0.932787
487.000000	0.000000	0.938257
488.000000	0.000000	0.946968
489.000000	0.000000	0.957104
490.000000	0.000000	0.963392
491.000000	0.000000	0.968233
492.000000	0.000000	0.993284
493.000000	0.000000	0.995268
494.000000	0.000000	1.019431
495.000000	0.000000	1.030039
496.000000	0.000000	1.063396
497.000000	0.000000	1.114276
498.000000	0.000000	1.140449
499.000000	0.000000	1.180980
500.000000	0.000000	1.209182
501.000000	0.000000	1.289821
502.000000	0.000000	1.335380
503.000000	0.000000	1.435158
504.000000	0.000000	1.486268
505.000000	0.000000	1.576896
506.000000	0.000000	1.682211
507.000000	0.000000	1.765718
508.000000	0.000000	1.856811
509.000000	0.000000	1.928135
510.000000	0.000000	2.026221
511.000000	0.000000	2.076248
512.000000	0.000000	2.152604
513.000000	0.000000	2.255456
514.000000	0.000000	2.308486
515.000000	0.000000	2.347970
516.000000	0.000000	2.409397
517.000000	0.000000	2.454160
518.000000	0.000000	2.447530
519.000000	0.000000	2.474043
520.000000	0.000000	2.465230
521.000000	0.000000	2.453278
522.000000	0.000000	2.421862
523.000000	0.000000	2.401747
524.000000	0.000000	2.365610
525.000000	0.000000	2.307766
526.000000	0.000000	2.244114
527.000000	0.000000	2.205246
528.000000	0.000000	2.174689
529.000000	0.000000	2.119888
530.000000	0.000000	2.115315
531.000000	0.000000	2.076078
532.000000	0.000000	2.051618
533.000000	0.000000	2.030681
534.000000	0.000000	2.034412
535.000000	0.000000	2.039238
536.000000	0.000000	2.049550
537.000000	0.000000	2.058811
538.000000	0.000000	2.087900
539.000000	0.000000	2.111426
540.000000	0.000000	2.131171
541.000000	0.000000	2.173742
542.000000	0.000000	2.180429
543.000000	0.000000	2.213224
544.000000	0.000000	2.202847
545.000000	0.000000	2.239485
546.000000	0.000000	2.241107
547.000000	0.000000	2.262188
548.000000	0.000000	2.259001
549.000000	0.000000	2.289288
550.000000	0.000000	2.320523
551.000000	0.000000	2.292895
552.000000	0.000000	2.317054
553.000000	0.000000	2.335301
554.000000	0.000000	2.352923
555.000000	0.000000	2.355430
556.000000	0.000000	2.345491
557.000000	0.000000	2.361998
558.000000	0.000000	2.402912
559.000000	0.000000	2.397279
560.000000	0.000000	2.381302
561.000000	0.000000	2.366657
562.000000	0.000000	2.370285
563.000000	0.000000	2.392425
564.000000	0.000000	2.408806
565.000000	0.000000	2.364929
566.000000	0.000000	2.353768
567.000000	0.000000	2.393296
568.000000	0.000000	2.411048
569.000000	0.000000	2.422319
570.000000	0.000000	2.432151
571.000000	0.000000	2.436769
572.000000	0.000000	2.449629
573.000000	0.000000	2.439191
574.000000	0.000000	2.483195
575.000000	0.000000	2.502875
576.000000	0.000000	2.491131
577.000000	0.000000	2.506885
578.000000	0.000000	2.516633
579.000000	0.000000	2.541012
580.000000	0.000000	2.542039
581.000000	0.000000	2.520971
582.000000	0.000000	2.545713
583.000000	0.000000	2.562310
584.000000	0.000000	2.539501
585.000000	0.000000	2.576569
586.000000	0.000000	2.564370
587.000000	0.000000	2.556871
588.000000	0.000000	2.538092
589.000000	0.000000	2.538699
590.000000	0.000000	2.541716
591.000000	0.000000	2.541423
592.000000	0.000000	2.540089
593.000000	0.000000	2.529063
594.000000	0.000000	2.546103
595.000000	0.000000	2.568988
596.000000	0.000000	2.581797
597.000000	0.000000	2.615574
598.000000	0.000000	2.647617
599.000000	0.000000	2.682403
600.000000	0.000000	2.704998
601.000000	0.000000	2.722462
602.000000	0.000000	2.745315
603.000000	0.000000	2.747983
604.000000	0.000000	2.757388
605.000000	0.000000	2.737967
606.000000	0.000000	2.748255
607.000000	0.000000	2.744222
608.000000	0.000000	2.717286
609.000000	0.000000	2.687494
610.000000	0.000000	2.638555
611.000000	0.000000	2.634287
612.000000	0.000000	2.615631
613.000000	0.000000	2.598558
614.000000	0.000000	2.581489
615.000000	0.000000	2.556471
616.000000	0.000000	2.523908
617.000000	0.000000	2.481054
618.000000	0.000000	2.417871
619.000000	0.000000	2.367225
620.000000	0.000000	2.288590
621.000000	0.000000	2.210077
622.000000	0.000000	2.084651
623.000000	0.000000	1.975302
624.000000	0.000000	1.846257
625.000000	0.000000	1.684214
626.000000	0.000000	1.558120
627.000000	0.000000	1.401202
628.000000	0.000000	1.226700
629.000000	0.000000	1.082205
630.000000	0.000000	0.954909
631.000000	0.000000	0.866218
632.000000	0.000000	0.809131
633.000000	0.000000	0.780186
634.000000	0.000000	0.802399
635.000000	0.000000	0.866741
636.000000	0.000000	0.938938
637.000000	0.000000	1.031878
638.000000	0.000000	1.176607
639.000000	0.000000	1.316582
640.000000	0.000000	1.449999
641.000000	0.000000	1.590931
642.000000	0.000000	1.723928
643.000000	0.000000	1.877100
644.000000	0.000000	2.030633
645.000000	0.000000	2.151418
646.000000	0.000000	2.225238
647.000000	0.000000	2.309329
648.000000	0.000000	2.433098
649.000000	0.000000	2.490676
650.000000	0.000000	2.518742
651.000000	0.000000	2.568650
652.000000	0.000000	2.585245
653.000000	0.000000	2.581109
654.000000	0.000000	2.577362
655.000000	0.000000	2.561000
656.000000	0.000000	2.518772
657.000000	0.000000	2.482466
658.000000	0.000000	2.431201
659.000000	0.000000	2.358710
660.000000	0.000000	2.312111
661.000000	0.000000	2.234583
662.000000	0.000000	2.137028
663.000000	0.000000	2.047450
664.000000	0.000000	1.947144
665.000000	0.000000	1.847228
666.000000	0.000000	1.718775
667.000000	0.000000	1.604491
668.000000	0.000000	1.477620
669.000000	0.000000	1.365825
670.000000	0.000000	1.288172
671.000000	0.000000	1.214070
672.000000	0.000000	1.085168
673.000000	0.000000	1.009688
674.000000	0.000000	0.943642
675.000000	0.000000	0.861527
676.000000	0.000000	0.850297
677.000000	0.000000	0.819330
678.000000	0.000000	0.793687
679.000000	0.000000	0.735333
680.000000	0.000000	0.696042
681.000000	0.000000	0.716359
682.000000	0.000000	0.700787
683.000000	0.000000	0.664903
684.000000	0.000000	0.684267
685.000000	0.000000	0.705734
686.000000	0.000000	0.743324
687.000000	0.000000	0.748565
688.000000	0.000000	0.792379
689.000000	0.000000	0.885515
690.000000	0.000000	0.945226
691.000000	0.000000	0.968084
692.000000	0.000000	1.025469
693.000000	0.000000	1.078071
694.000000	0.000000	1.114460
695.000000	0.000000	1.141191
696.000000	0.000000	1.180723
697.000000	0.000000	1.203557
698.000000	0.000000	1.232880
699.000000	0.000000	1.238544
700.000000	0.000000	1.305048
701.000000	0.000000	1.318142
702.000000	0.000000	1.367284
703.000000	0.000000	1.483010
704.000000	0.000000	1.529393
705.000000	0.000000	1.541927
706.000000	0.000000	1.561659
707.000000	0.000000	1.642060
708.000000	0.000000	1.674649
709.000000	0.000000	1.688969
710.000000	0.000000	1.694481
711.000000	0.000000	1.734695
712.000000	0.000000	1.798453
713.000000	0.000000	1.797043
714.000000	0.000000	1.768856
715.000000	0.000000	1.856817
716.000000	0.000000	1.773848
717.000000	0.000000	1.741964
718.000000	0.000000	1.771930
719.000000	0.000000	1.742495
720.000000	0.000000	1.716839
721.000000	0.000000	1.690605
722.000000	0.000000	1.645657
723.000000	0.000000	1.609331
724.000000	0.000000	1.550398
725.000000	0.000000	1.502737
726.000000	0.000000	1.464738
727.000000	0.000000	1.454491
728.000000	0.000000	1.379337
729.000000	0.000000	1.282816
730.000000	0.000000	1.229647
731.000000	0.000000	1.143473
732.000000	0.000000	1.078132
733.000000	0.000000	1.121412
734.000000	0.000000	1.120823
735.000000	0.000000	1.091715
736.000000	0.000000	1.061083
737.000000	0.000000	1.196572
738.000000	0.000000	1.145476
739.000000	0.000000	1.218888
740.000000	0.000000	1.304563
741.000000	0.000000	1.329571
742.000000	0.000000	1.317410
743.000000	0.000000	1.380650
744.000000	0.000000	1.493812
745.000000	0.000000	1.596625
746.000000	0.000000	1.538674
747.000000	0.000000	1.667025
748.000000	0.000000	1.707517
749.000000	0.000000	1.688679
750.000000	0.000000	1.733861
751.000000	0.000000	1.791481
752.000000	0.000000	1.862325
753.000000	0.000000	1.837136
754.000000	0.000000	1.900219
755.000000	0.000000	1.895553
756.000000	0.000000	1.954654
757.000000	0.000000	1.875558
758.000000	0.000000	1.890889
759.000000	0.000000	1.929415
760.000000	0.000000	1.923767
761.000000	0.000000	1.845194
762.000000	0.000000	1.994761
763.000000	0.000000	2.067246
764.000000	0.000000	2.054820
765.000000	0.000000	2.143927
766.000000	0.000000	2.291510
767.000000	0.000000	2.241959
768.000000	0.000000	2.328048
769.000000	0.000000	2.499531
770.000000	0.000000	2.432237
771.000000	0.000000	2.557318
772.000000	0.000000	2.565800
773.000000	0.000000	2.507806
774.000000	0.000000	2.687688
775.000000	0.000000	2.619499
776.000000	0.000000	2.683025
777.000000	0.000000	2.546766
778.000000	0.000000	2.689661
779.000000	0.000000	2.683382
780.000000	0.000000	2.638449
781.000000	0.000000	2.617956
782.000000	0.000000	2.581012
783.000000	0.000000	2.420011
784.000000	0.000000	2.524464
785.000000	0.000000	2.555367
786.000000	0.000000	2.441400
787.000000	0.000000	2.439406
788.000000	0.000000	2.396841
789.000000	0.000000	2.353525
790.000000	0.000000	2.326375
791.000000	0.000000	2.242314
792.000000	0.000000	2.236823
793.000000	0.000000	2.229519
794.000000	0.000000	2.227807
795.000000	0.000000	2.288993
796.000000	0.000000	2.342826
797.000000	0.000000	2.312634
798.000000	0.000000	2.408552
799.000000	0.000000	2.494575
800.000000	0.000000	2.528736
801.000000	0.000000	2.732184
802.000000	0.000000	2.591094
803.000000	0.000000	3.032490
804.000000	0.000000	3.003182
805.000000	0.000000	3.235078
806.000000	0.000000	3.175461
807.000000	0.000000	3.339833
808.000000	0.000000	3.322251
809.000000	0.000000	3.434668
810.000000	0.000000	3.538579
811.000000	0.000000	3.584678
812.000000	0.000000	3.492036
813.000000	0.000000	3.652200
814.000000	0.000000	3.707171
815.000000	0.000000	3.737432
816.000000	0.000000	3.841352
817.000000	0.000000	3.754666
818.000000	0.000000	3.662597
819.000000	0.000000	3.707054
820.000000	0.000000	3.739159
821.000000	0.000000	3.715942
822.000000	0.000000	3.754380
823.000000	0.000000	3.713737
824.000000	0.000000	3.701742
825.000000	0.000000	3.529014
826.000000	0.000000	3.534254
827.000000	0.000000	3.584853
828.000000	0.000000	3.318261
829.000000	0.000000	3.509611
830.000000	0.000000	3.496105
831.000000	0.000000	3.464384
832.000000	0.000000	3.353746
833.000000	0.000000	3.190242
834.000000	0.000000	3.308652
835.000000	0.000000	3.192158
836.000000	0.000000	3.007778
837.000000	0.000000	3.140363
838.000000	0.000000	2.941870
839.000000	0.000000	2.825507
840.000000	0.000000	2.943270
841.000000	0.000000	3.143061
842.000000	0.000000	2.927255
843.000000	0.000000	2.631989
844.000000	0.000000	2.748254
845.000000	0.000000	2.855661
846.000000	0.000000	2.613132
847.000000	0.000000	2.528831
848.000000	0.000000	2.462602
849.000000	0.000000	2.391126
850.000000	0.000000	2.414958
851.000000	0.000000	2.432072
852.000000	0.000000	2.190230
853.000000	0.000000	2.349906
854.000000	0.000000	2.274110
855.000000	0.000000	1.996888
856.000000	0.000000	1.733866
857.000000	0.000000	1.996807
858.000000	0.000000	1.887528
859.000000	0.000000	1.898715
860.000000	0.000000	1.898399
861.000000	0.000000	1.908497
862.000000	0.000000	1.916587
863.000000	0.000000	1.913331
864.000000	0.000000	1.931850
865.000000	0.000000	1.942700
866.000000	0.000000	1.951149
867.000000	0.000000	1.942551
868.000000	0.000000	1.950418
869.000000	0.000000	1.947592
870.000000	0.000000	1.945830
871.000000	0.000000	1.897800
872.000000	0.000000	1.808739
873.000000	0.000000	1.785417
874.000000	0.000000	1.792174
875.000000	0.000000	1.797617
876.000000	0.000000	1.785045
877.000000	0.000000	1.772671
878.000000	0.000000	1.782895
879.000000	0.000000	1.787330
880.000000	0.000000	1.808973
881.000000	0.000000	1.827616
882.000000	0.000000	1.845485
883.000000	0.000000	1.851717
884.000000	0.000000	1.881380
885.000000	0.000000	1.891280
886.000000	0.000000	1.915770
887.000000	0.000000	1.938338
888.000000	0.000000	1.964389
889.000000	0.000000	1.975643
890.000000	0.000000	1.989499
891.000000	0.000000	1.995177
892.000000	0.000000	2.017319
893.000000	0.000000	2.034937
894.000000	0.000000	2.040326
895.000000	0.000000	2.037936
896.000000	0.000000	2.059330
897.000000	0.000000	2.060587
898.000000	0.000000	2.066941
899.000000	0.000000	2.065671
900.000000	0.000000	2.067993
901.000000	0.000000	2.065963
902.000000	0.000000	2.056839
903.000000	0.000000	2.054577
904.000000	0.000000	2.062439
905.000000	0.000000	2.060589
906.000000	0.000000	2.063784
907.000000	0.000000	2.065601
908.000000	0.000000	2.054174
909.000000	0.000000	2.049906
910.000000	0.000000	2.052867
911.000000	0.000000	2.064278
912.000000	0.000000	2.063927
913.000000	0.000000	2.047217
914.000000	0.000000	2.049501
915.000000	0.000000	2.057206
916.000000	0.000000	2.064246
917.000000	0.000000	2.070625
918.000000	0.000000	2.070557
919.000000	0.000000	2.074846
920.000000	0.000000	2.085983
921.000000	0.000000	2.084744
922.000000	0.000000	2.082125
923.000000	0.000000	2.097264
924.000000	0.000000	2.104977
925.000000	0.000000	2.104127
926.000000	0.000000	2.101813
927.000000	0.000000	2.097859
928.000000	0.000000	2.093904
929.000000	0.000000	2.099528
930.000000	0.000000	2.091455
931.000000	0.000000	2.092914
932.000000	0.000000	2.101930
933.000000	0.000000	2.101642
934.000000	0.000000	2.104426
935.000000	0.000000	2.096752
936.000000	0.000000	2.095722
937.000000	0.000000	2.109073
938.000000	0.000000	2.108105
939.000000	0.000000	2.104710
940.000000	0.000000	2.095043
941.000000	0.000000	2.090640
942.000000	0.000000	2.094215
943.000000	0.000000	2.072532
944.000000	0.000000	2.054515
945.000000	0.000000	2.053602
946.000000	0.000000	2.049205
947.000000	0.000000	2.032206
948.000000	0.000000	2.022061
949.000000	0.000000	2.017712
950.000000	0.000000	1.994804
951.000000	0.000000	1.979789
952.000000	0.000000	1.978134
953.000000	0.000000	1.957929
954.000000	0.000000	1.945732
955.000000	0.000000	1.950146
956.000000	0.000000	1.944772
957.000000	0.000000	1.936724
958.000000	0.000000	1.920845
959.000000	0.000000	1.913993
960.000000	0.000000	1.917081
961.000000	0.000000	1.913260
962.000000	0.000000	1.910174
963.000000	0.000000	1.906696
964.000000	0.000000	1.912747
965.000000	0.000000	1.920990
966.000000	0.000000	1.911388
967.000000	0.000000	1.904244
968.000000	0.000000	1.906684
969.000000	0.000000	1.917850
970.000000	0.000000	1.918850
971.000000	0.000000	1.925350
972.000000	0.000000	1.928883
973.000000	0.000000	1.940268
974.000000	0.000000	1.953622
975.000000	0.000000	1.951464
976.000000	0.000000	1.958800
977.000000	0.000000	1.972105
978.000000	0.000000	1.990368
979.000000	0.000000	1.994781
980.000000	0.000000	1.997391
981.000000	0.000000	2.004634
982.000000	0.000000	2.019949
983.000000	0.000000	2.030137
984.000000	0.000000	2.030386
985.000000	0.000000	2.042919
986.000000	0.000000	2.054137
987.000000	0.000000	2.046881
988.000000	0.000000	2.047223
989.000000	0.000000	2.050047
990.000000	0.000000	2.047806
991.000000	0.000000	2.051692
992.000000	0.000000	2.042536
993.000000	0.000000	2.049612
994.000000	0.000000	2.055772
995.000000	0.000000	2.047982
996.000000	0.000000	2.041805
997.000000	0.000000	2.039815
998.000000	0.000000	2.044680
999.000000	0.000000	2.046080
1000.000000	0.000000	2.042844
1001.000000	0.000000	2.049100
1002.000000	0.000000	2.052910
1003.000000	0.000000	2.053458
1004.000000	0.000000	2.054779
1005.000000	0.000000	2.037659
1006.000000	0.000000	2.033683
1007.000000	0.000000	2.036537
1008.000000	0.000000	2.037567
1009.000000	0.000000	2.040068
1010.000000	0.000000	2.022328
1011.000000	0.000000	2.010568
1012.000000	0.000000	2.023312
1013.000000	0.000000	2.019317
1014.000000	0.000000	2.016078
1015.000000	0.000000	2.019053
1016.000000	0.000000	2.027313
1017.000000	0.000000	2.034905
1018.000000	0.000000	2.038665
1019.000000	0.000000	2.054888
1020.000000	0.000000	2.070875
1021.000000	0.000000	2.078159
1022.000000	0.000000	2.070191
1023.000000	0.000000	2.085853
1024.000000	0.000000	2.101815
1025.000000	0.000000	2.107319
1026.000000	0.000000	2.110730
1027.000000	0.000000	2.114555
1028.000000	0.000000	2.128158
1029.000000	0.000000	2.148258
1030.000000	0.000000	2.154363
1031.000000	0.000000	2.156749
1032.000000	0.000000	2.165424
1033.000000	0.000000	2.176138
1034.000000	0.000000	2.192524
1035.000000	0.000000	2.184003
1036.000000	0.000000	2.192649
1037.000000	0.000000	2.200720
1038.000000	0.000000	2.206874
1039.000000	0.000000	2.214279
1040.000000	0.000000	2.233245
1041.000000	0.000000	2.225954
1042.000000	0.000000	2.245921
1043.000000	0.000000	2.246507
1044.000000	0.000000	2.260416
1045.000000	0.000000	2.268732
1046.000000	0.000000	2.283025
1047.000000	0.000000	2.280126
1048.000000	0.000000	2.296508
1049.000000	0.000000	2.304776
1050.000000	0.000000	2.294723
1051.000000	0.000000	2.306573
1052.000000	0.000000	2.308708
1053.000000	0.000000	2.314668
1054.000000	0.000000	2.326329
1055.000000	0.000000	2.333765
1056.000000	0.000000	2.341592
1057.000000	0.000000	2.349104
1058.000000	0.000000	2.353178
1059.000000	0.000000	2.364092
1060.000000	0.000000	2.371685
1061.000000	0.000000	2.385478
1062.000000	0.000000	2.394135
1063.000000	0.000000	2.402418
1064.000000	0.000000	2.397904
1065.000000	0.000000	2.410807
1066.000000	0.000000	2.421817
1067.000000	0.000000	2.418505
1068.000000	0.000000	2.425626
1069.000000	0.000000	2.447603
1070.000000	0.000000	2.447595
1071.000000	0.000000	2.448191
1072.000000	0.000000	2.454682
1073.000000	0.000000	2.460265
1074.000000	0.000000	2.478505
1075.000000	0.000000	2.481798
1076.000000	0.000000	2.481624
1077.000000	0.000000	2.493119
1078.000000	0.000000	2.493935
1079.000000	0.000000	2.502614
1080.000000	0.000000	2.512203
1081.000000	0.000000	2.503852
1082.000000	0.000000	2.510030
1083.000000	0.000000	2.522363
1084.000000	0.000000	2.518427
1085.000000	0.000000	2.531420
1086.000000	0.000000	2.518517
1087.000000	0.000000	2.534682
1088.000000	0.000000	2.527307
1089.000000	0.000000	2.536627
1090.000000	0.000000	2.551647
1091.000000	0.000000	2.557848
1092.000000	0.000000	2.559224
1093.000000	0.000000	2.571720
1094.000000	0.000000	2.567521
1095.000000	0.000000	2.573736
1096.000000	0.000000	2.581615
1097.000000	0.000000	2.569403
1098.000000	0.000000	2.578043
1099.000000	0.000000	2.569812
1100.000000	0.000000	2.571539
1101.000000	0.000000	2.584690
1102.000000	0.000000	2.580582
1103.000000	0.000000	2.584833
1104.000000	0.000000	2.584698
1105.000000	0.000000	2.581516
1106.000000	0.000000	2.579259
1107.000000	0.000000	2.586887
1108.000000	0.000000	2.596947
1109.000000	0.000000	2.605857
1110.000000	0.000000	2.600261
1111.000000	0.000000	2.609438
1112.000000	0.000000	2.614376
1113.000000	0.000000	2.618814
1114.000000	0.000000	2.615268
1115.000000	0.000000	2.620850
1116.000000	0.000000	2.620363
1117.000000	0.000000	2.628918
1118.000000	0.000000	2.624394
1119.000000	0.000000	2.633631
1120.000000	0.000000	2.612337
1121.000000	0.000000	2.616385
1122.000000	0.000000	2.621106
1123.000000	0.000000	2.611827
1124.000000	0.000000	2.618626
1125.000000	0.000000	2.610910
1126.000000	0.000000	2.614098
1127.000000	0.000000	2.594544
1128.000000	0.000000	2.589016
1129.000000	0.000000	2.570814
1130.000000	0.000000	2.540813
1131.000000	0.000000	2.535801
1132.000000	0.000000	2.498340
1133.000000	0.000000	2.459879
1134.000000	0.000000	2.434957
1135.000000	0.000000	2.408038
1136.000000	0.000000	2.387199
1137.000000	0.000000	2.356361
1138.000000	0.000000	2.339011
1139.000000	0.000000	2.321551
1140.000000	0.000000	2.300679
1141.000000	0.000000	2.279174
1142.000000	0.000000	2.262192
1143.000000	0.000000	2.243417
1144.000000	0.000000	2.225464
1145.000000	0.000000	2.238371
1146.000000	0.000000	2.228517
1147.000000	0.000000	2.231308
1148.000000	0.000000	2.240181
1149.000000	0.000000	2.238320
1150.000000	0.000000	2.241202
1151.000000	0.000000	2.241243
1152.000000	0.000000	2.235124
1153.000000	0.000000	2.226609
1154.000000	0.000000	2.212972
1155.000000	0.000000	2.205573
1156.000000	0.000000	2.174036
1157.000000	0.000000	2.141743
1158.000000	0.000000	2.116448
1159.000000	0.000000	2.094961
1160.000000	0.000000	2.061820
1161.000000	0.000000	2.027423
1162.000000	0.000000	2.009367
1163.000000	0.000000	1.974972
1164.000000	0.000000	1.936689
1165.000000	0.000000	1.906860
1166.000000	0.000000	1.878766
1167.000000	0.000000	1.848051
1168.000000	0.000000	1.827327
1169.000000	0.000000	1.797320
1170.000000	0.000000	1.775150
1171.000000	0.000000	1.736629
1172.000000	0.000000	1.713099
1173.000000	0.000000	1.693845
1174.000000	0.000000	1.666694
1175.000000	0.000000	1.637110
1176.000000	0.000000	1.608517
1177.000000	0.000000	1.567919
1178.000000	0.000000	1.529632
1179.000000	0.000000	1.485302
1180.000000	0.000000	1.445179
1181.000000	0.000000	1.414662
1182.000000	0.000000	1.393857
1183.000000	0.000000	1.371532
1184.000000	0.000000	1.361402
1185.000000	0.000000	1.372418
1186.000000	0.000000	1.389106
1187.000000	0.000000	1.415911
1188.000000	0.000000	1.450760
1189.000000	0.000000	1.489124
1190.000000	0.000000	1.534199
1191.000000	0.000000	1.582508
1192.000000	0.000000	1.630769
1193.000000	0.000000	1.660342
1194.000000	0.000000	1.684034
1195.000000	0.000000	1.700172
1196.000000	0.000000	1.709416
1197.000000	0.000000	1.726229
1198.000000	0.000000	1.744919
1199.000000	0.000000	1.752298
1200.000000	0.000000	1.761026
1201.000000	0.000000	1.772568
1202.000000	0.000000	1.776652
1203.000000	0.000000	1.772270
1204.000000	0.000000	1.773660
1205.000000	0.000000	1.782515
1206.000000	0.000000	1.797124
1207.000000	0.000000	1.802825
1208.000000	0.000000	1.812898
1209.000000	0.000000	1.832286
1210.000000	0.000000	1.841910
1211.000000	0.000000	1.843108
1212.000000	0.000000	1.843254
1213.000000	0.000000	1.850073
1214.000000	0.000000	1.877263
1215.000000	0.000000	1.889948
1216.000000	0.000000	1.888875
1217.000000	0.000000	1.896730
1218.000000	0.000000	1.899463
1219.000000	0.000000	1.907540
1220.000000	0.000000	1.921306
1221.000000	0.000000	1.925200
1222.000000	0.000000	1.937148
1223.000000	0.000000	1.946021
1224.000000	0.000000	1.950776
1225.000000	0.000000	1.959249
1226.000000	0.000000	1.961292
1227.000000	0.000000	1.974270
1228.000000	0.000000	1.990168
1229.000000	0.000000	1.997336
1230.000000	0.000000	2.003001
1231.000000	0.000000	2.011220
1232.000000	0.000000	2.024418
1233.000000	0.000000	2.038498
1234.000000	0.000000	2.048907
1235.000000	0.000000	2.050729
1236.000000	0.000000	2.065049
1237.000000	0.000000	2.077022
1238.000000	0.000000	2.088735
1239.000000	0.000000	2.096514
1240.000000	0.000000	2.103574
1241.000000	0.000000	2.115008
1242.000000	0.000000	2.118791
1243.000000	0.000000	2.123274
1244.000000	0.000000	2.128218
1245.000000	0.000000	2.137294
1246.000000	0.000000	2.151918
1247.000000	0.000000	2.158293
1248.000000	0.000000	2.157206
1249.000000	0.000000	2.169031
1250.000000	0.000000	2.173900
1251.000000	0.000000	2.175061
1252.000000	0.000000	2.187584
1253.000000	0.000000	2.184637
1254.000000	0.000000	2.185664
1255.000000	0.000000	2.203031
1256.000000	0.000000	2.209130
1257.000000	0.000000	2.206556
1258.000000	0.000000	2.210804
1259.000000	0.000000	2.218114
1260.000000	0.000000	2.231405
1261.000000	0.000000	2.237746
1262.000000	0.000000	2.239038
1263.000000	0.000000	2.249089
1264.000000	0.000000	2.256383
1265.000000	0.000000	2.260463
1266.000000	0.000000	2.263459
1267.000000	0.000000	2.267064
1268.000000	0.000000	2.275042
1269.000000	0.000000	2.271971
1270.000000	0.000000	2.273651
1271.000000	0.000000	2.281155
1272.000000	0.000000	2.289763
1273.000000	0.000000	2.294461
1274.000000	0.000000	2.301424
1275.000000	0.000000	2.305266
1276.000000	0.000000	2.301786
1277.000000	0.000000	2.310158
1278.000000	0.000000	2.307018
1279.000000	0.000000	2.318525
1280.000000	0.000000	2.327462
1281.000000	0.000000	2.334155
1282.000000	0.000000	2.346043
1283.000000	0.000000	2.347081
1284.000000	0.000000	2.348173
1285.000000	0.000000	2.346573
1286.000000	0.000000	2.350368
1287.000000	0.000000	2.356404
1288.000000	0.000000	2.359557
1289.000000	0.000000	2.366397
1290.000000	0.000000	2.361374
1291.000000	0.000000	2.361338
1292.000000	0.000000	2.370748
1293.000000	0.000000	2.360610
1294.000000	0.000000	2.369498
1295.000000	0.000000	2.373153
1296.000000	0.000000	2.365716
1297.000000	0.000000	2.361301
1298.000000	0.000000	2.362913
1299.000000	0.000000	2.372570
1300.000000	0.000000	2.370186
1301.000000	0.000000	2.375515
1302.000000	0.000000	2.364801
1303.000000	0.000000	2.363340
1304.000000	0.000000	2.365632
1305.000000	0.000000	2.370118
1306.000000	0.000000	2.357000
1307.000000	0.000000	2.355261
1308.000000	0.000000	2.355982
1309.000000	0.000000	2.364818
1310.000000	0.000000	2.355563
1311.000000	0.000000	2.354915
1312.000000	0.000000	2.349198
1313.000000	0.000000	2.338706
1314.000000	0.000000	2.331930
1315.000000	0.000000	2.344424
1316.000000	0.000000	2.336565
1317.000000	0.000000	2.332446
1318.000000	0.000000	2.317222
1319.000000	0.000000	2.312229
1320.000000	0.000000	2.313986
1321.000000	0.000000	2.319098
1322.000000	0.000000	2.306986
1323.000000	0.000000	2.304359
1324.000000	0.000000	2.284597
1325.000000	0.000000	2.275744
1326.000000	0.000000	2.269209
1327.000000	0.000000	2.262514
1328.000000	0.000000	2.256232
1329.000000	0.000000	2.251857
1330.000000	0.000000	2.238310
1331.000000	0.000000	2.228527
1332.000000	0.000000	2.206510
1333.000000	0.000000	2.197480
1334.000000	0.000000	2.185112
1335.000000	0.000000	2.168943
1336.000000	0.000000	2.151815
1337.000000	0.000000	2.138556
1338.000000	0.000000	2.128698
1339.000000	0.000000	2.119480
1340.000000	0.000000	2.097986
1341.000000	0.000000	2.081417
1342.000000	0.000000	2.064030
1343.000000	0.000000	2.042760
1344.000000	0.000000	2.009296
1345.000000	0.000000	1.990257
1346.000000	0.000000	1.968187
1347.000000	0.000000	1.942343
1348.000000	0.000000	1.909758
1349.000000	0.000000	1.892696
1350.000000	0.000000	1.853228
1351.000000	0.000000	1.824869
1352.000000	0.000000	1.776323
1353.000000	0.000000	1.754558
1354.000000	0.000000	1.722369
1355.000000	0.000000	1.703090
1356.000000	0.000000	1.695049
1357.000000	0.000000	1.698951
1358.000000	0.000000	1.698951
1359.000000	0.000000	1.725483
1360.000000	0.000000	1.697746
1361.000000	0.000000	1.689784
1362.000000	0.000000	1.666062
1363.000000	0.000000	1.660566
1364.000000	0.000000	1.655114
1365.000000	0.000000	1.634866
1366.000000	0.000000	1.615117
1367.000000	0.000000	1.613749
1368.000000	0.000000	1.597342
1369.000000	0.000000	1.584919
1370.000000	0.000000	1.552060
1371.000000	0.000000	1.531632
1372.000000	0.000000	1.531355
1373.000000	0.000000	1.505699
1374.000000	0.000000	1.500088
1375.000000	0.000000	1.498990
1376.000000	0.000000	1.505622
1377.000000	0.000000	1.503783
1378.000000	0.000000	1.510704
1379.000000	0.000000	1.470768
1380.000000	0.000000	1.504481
1381.000000	0.000000	1.490241
1382.000000	0.000000	1.476029
1383.000000	0.000000	1.457575
1384.000000	0.000000	1.425433
1385.000000	0.000000	1.443477
1386.000000	0.000000	1.454553
1387.000000	0.000000	1.460092
1388.000000	0.000000	1.450734
1389.000000	0.000000	1.482064
1390.000000	0.000000	1.484189
1391.000000	0.000000	1.505229
1392.000000	0.000000	1.524507
1393.000000	0.000000	1.535652
1394.000000	0.000000	1.532343
1395.000000	0.000000	1.552981
1396.000000	0.000000	1.564290
1397.000000	0.000000	1.569474
1398.000000	0.000000	1.566487
1399.000000	0.000000	1.559756
1400.000000	0.000000	1.578808
1401.000000	0.000000	1.570219
1402.000000	0.000000	1.557991
1403.000000	0.000000	1.551411
1404.000000	0.000000	1.548476
1405.000000	0.000000	1.540934
1406.000000	0.000000	1.547609
1407.000000	0.000000	1.521101
1408.000000	0.000000	1.506636
1409.000000	0.000000	1.507306
1410.000000	0.000000	1.507901
1411.000000	0.000000	1.512496
1412.000000	0.000000	1.493924
1413.000000	0.000000	1.493359
1414.000000	0.000000	1.492015
1415.000000	0.000000	1.481557
1416.000000	0.000000	1.486679
1417.000000	0.000000	1.487178
1418.000000	0.000000	1.469479
1419.000000	0.000000	1.470953
1420.000000	0.000000	1.460294
1421.000000	0.000000	1.449063
1422.000000	0.000000	1.451150
1423.000000	0.000000	1.450189
1424.000000	0.000000	1.446621
1425.000000	0.000000	1.428137
1426.000000	0.000000	1.440273
1427.000000	0.000000	1.436720
1428.000000	0.000000	1.435671
1429.000000	0.000000	1.422573
1430.000000	0.000000	1.419846
1431.000000	0.000000	1.426353
1432.000000	0.000000	1.426844
1433.000000	0.000000	1.410615
1434.000000	0.000000	1.420167
1435.000000	0.000000	1.411877
1436.000000	0.000000	1.400524
1437.000000	0.000000	1.408643
1438.000000	0.000000	1.400738
1439.000000	0.000000	1.393092
1440.000000	0.000000	1.387210
1441.000000	0.000000	1.386360
1442.000000	0.000000	1.375388
1443.000000	0.000000	1.362447
1444.000000	0.000000	1.363377
1445.000000	0.000000	1.377779
1446.000000	0.000000	1.369019
1447.000000	0.000000	1.351304
1448.000000	0.000000	1.345251
1449.000000	0.000000	1.334354
1450.000000	0.000000	1.332024
1451.000000	0.000000	1.318195
1452.000000	0.000000	1.312437
1453.000000	0.000000	1.304418
1454.000000	0.000000	1.301860
1455.000000	0.000000	1.303231
1456.000000	0.000000	1.293263
1457.000000	0.000000	1.288958
1458.000000	0.000000	1.290523
1459.000000	0.000000	1.282491
1460.000000	0.000000	1.258337
1461.000000	0.000000	1.258863
1462.000000	0.000000	1.258368
1463.000000	0.000000	1.241565
1464.000000	0.000000	1.232196
1465.000000	0.000000	1.225700
1466.000000	0.000000	1.236317
1467.000000	0.000000	1.223382
1468.000000	0.000000	1.221703
1469.000000	0.000000	1.221518
1470.000000	0.000000	1.214975
1471.000000	0.000000	1.201005
1472.000000	0.000000	1.187407
1473.000000	0.000000	1.185335
1474.000000	0.000000	1.182201
1475.000000	0.000000	1.176676
1476.000000	0.000000	1.167335
1477.000000	0.000000	1.149583
1478.000000	0.000000	1.147625
1479.000000	0.000000	1.148836
1480.000000	0.000000	1.142722
1481.000000	0.000000	1.136092
1482.000000	0.000000	1.126600
1483.000000	0.000000	1.125553
1484.000000	0.000000	1.122534
1485.000000	0.000000	1.125692
1486.000000	0.000000	1.124333
1487.000000	0.000000	1.110837
1488.000000	0.000000	1.107912
1489.000000	0.000000	1.109202
1490.000000	0.000000	1.108001
1491.000000	0.000000	1.103008
1492.000000	0.000000	1.098883
1493.000000	0.000000	1.100734
1494.000000	0.000000	1.095533
1495.000000	0.000000	1.095358
1496.000000	0.000000	1.092793
1497.000000	0.000000	1.093949
1498.000000	0.000000	1.089651
1499.000000	0.000000	1.088073
1500.000000	0.000000	1.079512
1501.000000	0.000000	1.077502
1502.000000	0.000000	1.084131
1503.000000	0.000000	1.079005
1504.000000	0.000000	1.084018
1505.000000	0.000000	1.084392
1506.000000	0.000000	1.080250
1507.000000	0.000000	1.085675
1508.000000	0.000000	1.085982
1509.000000	0.000000	1.077298
1510.000000	0.000000	1.080604
1511.000000	0.000000	1.075238
1512.000000	0.000000	1.073065
1513.000000	0.000000	1.080530
1514.000000	0.000000	1.075983
1515.000000	0.000000	1.074697
1516.000000	0.000000	1.075557
1517.000000	0.000000	1.069206
1518.000000	0.000000	1.069020
1519.000000	0.000000	1.072260
1520.000000	0.000000	1.069475
1521.000000	0.000000	1.058897
1522.000000	0.000000	1.063176
1523.000000	0.000000	1.070275
1524.000000	0.000000	1.062038
1525.000000	0.000000	1.050484
1526.000000	0.000000	1.049922
1527.000000	0.000000	1.048416
1528.000000	0.000000	1.051006
1529.000000	0.000000	1.045602
1530.000000	0.000000	1.034300
1531.000000	0.000000	1.026238
1532.000000	0.000000	1.031252
1533.000000	0.000000	1.027462
1534.000000	0.000000	1.022616
1535.000000	0.000000	1.018364
1536.000000	0.000000	1.010707
1537.000000	0.000000	1.001618
1538.000000	0.000000	1.000364
1539.000000	0.000000	0.995267
1540.000000	0.000000	0.979056
1541.000000	0.000000	0.976261
1542.000000	0.000000	0.975715
1543.000000	0.000000	0.973247
1544.000000	0.000000	0.960737
1545.000000	0.000000	0.950837
1546.000000	0.000000	0.945838
1547.000000	0.000000	0.950044
1548.000000	0.000000	0.944694
1549.000000	0.000000	0.930457
1550.000000	0.000000	0.923397
1551.000000	0.000000	0.927003
1552.000000	0.000000	0.919746
1553.000000	0.000000	0.918172
1554.000000	0.000000	0.913773
1555.000000	0.000000	0.912360
1556.000000	0.000000	0.909872
1557.000000	0.000000	0.897411
1558.000000	0.000000	0.898727
1559.000000	0.000000	0.881678
1560.000000	0.000000	0.879777
1561.000000	0.000000	0.875714
1562.000000	0.000000	0.865084
1563.000000	0.000000	0.861697
1564.000000	0.000000	0.857538
1565.000000	0.000000	0.861025
1566.000000	0.000000	0.848028
1567.000000	0.000000	0.844920
1568.000000	0.000000	0.837286
1569.000000	0.000000	0.829972
1570.000000	0.000000	0.824779
1571.000000	0.000000	0.819215
1572.000000	0.000000	0.818580
1573.000000	0.000000	0.819835
1574.000000	0.000000	0.804656
1575.000000	0.000000	0.795598
1576.000000	0.000000	0.798057
1577.000000	0.000000	0.800395
1578.000000	0.000000	0.799836
1579.000000	0.000000	0.799900
1580.000000	0.000000	0.795173
1581.000000	0.000000	0.779797
1582.000000	0.000000	0.773983
1583.000000	0.000000	0.785820
1584.000000	0.000000	0.779852
1585.000000	0.000000	0.782619
1586.000000	0.000000	0.783864
1587.000000	0.000000	0.770000
1588.000000	0.000000	0.770969
1589.000000	0.000000	0.784179
1590.000000	0.000000	0.783662
1591.000000	0.000000	0.794097
1592.000000	0.000000	0.795981
1593.000000	0.000000	0.785539
1594.000000	0.000000	0.779338
1595.000000	0.000000	0.785652
1596.000000	0.000000	0.789516
1597.000000	0.000000	0.779186
1598.000000	0.000000	0.784707
1599.000000	0.000000	0.784416
1600.000000	0.000000	0.796533
1601.000000	0.000000	0.787933
1602.000000	0.000000	0.792248
1603.000000	0.000000	0.799273
1604.000000	0.000000	0.803080
1605.000000	0.000000	0.796005
1606.000000	0.000000	0.799840
1607.000000	0.000000	0.791792
1608.000000	0.000000	0.799813
1609.000000	0.000000	0.808230
1610.000000	0.000000	0.817409
1611.000000	0.000000	0.806778
1612.000000	0.000000	0.813415
1613.000000	0.000000	0.812613
1614.000000	0.000000	0.808896
1615.000000	0.000000	0.819441
1616.000000	0.000000	0.811887
1617.000000	0.000000	0.811162
1618.000000	0.000000	0.814169
1619.000000	0.000000	0.831091
1620.000000	0.000000	0.822831
1621.000000	0.000000	0.822628
1622.000000	0.000000	0.830264
1623.000000	0.000000	0.833255
1624.000000	0.000000	0.842384
1625.000000	0.000000	0.827467
1626.000000	0.000000	0.827286
1627.000000	0.000000	0.830516
1628.000000	0.000000	0.841774
1629.000000	0.000000	0.841525
1630.000000	0.000000	0.849096
1631.000000	0.000000	0.846792
1632.000000	0.000000	0.853747
1633.000000	0.000000	0.853825
1634.000000	0.000000	0.844079
1635.000000	0.000000	0.843092
1636.000000	0.000000	0.842491
1637.000000	0.000000	0.845607
1638.000000	0.000000	0.857766
1639.000000	0.000000	0.843923
1640.000000	0.000000	0.853543
1641.000000	0.000000	0.840961
1642.000000	0.000000	0.854270
1643.000000	0.000000	0.854547
1644.000000	0.000000	0.840481
1645.000000	0.000000	0.859677
1646.000000	0.000000	0.860658
1647.000000	0.000000	0.853010
1648.000000	0.000000	0.860934
1649.000000	0.000000	0.854191
1650.000000	0.000000	0.849818
1651.000000	0.000000	0.847423
1652.000000	0.000000	0.849935
1653.000000	0.000000	0.840336
1654.000000	0.000000	0.839975
1655.000000	0.000000	0.825775
1656.000000	0.000000	0.831577
1657.000000	0.000000	0.824911
1658.000000	0.000000	0.829245
1659.000000	0.000000	0.835598
1660.000000	0.000000	0.806526
1661.000000	0.000000	0.806051
1662.000000	0.000000	0.801976
1663.000000	0.000000	0.802409
1664.000000	0.000000	0.796115
1665.000000	0.000000	0.786176
1666.000000	0.000000	0.780375
1667.000000	0.000000	0.772979
1668.000000	0.000000	0.760341
1669.000000	0.000000	0.747785
1670.000000	0.000000	0.751647
1671.000000	0.000000	0.746766
1672.000000	0.000000	0.732758
1673.000000	0.000000	0.727213
1674.000000	0.000000	0.701013
1675.000000	0.000000	0.696428
1676.000000	0.000000	0.686827
1677.000000	0.000000	0.683157
1678.000000	0.000000	0.681001
1679.000000	0.000000	0.685421
1680.000000	0.000000	0.667151
1681.000000	0.000000	0.670864
1682.000000	0.000000	0.683751
1683.000000	0.000000	0.671290
1684.000000	0.000000	0.665779
1685.000000	0.000000	0.666442
1686.000000	0.000000	0.667276
1687.000000	0.000000	0.672856
1688.000000	0.000000	0.679154
1689.000000	0.000000	0.700051
1690.000000	0.000000	0.717657
1691.000000	0.000000	0.715242
1692.000000	0.000000	0.735196
1693.000000	0.000000	0.741058
1694.000000	0.000000	0.741161
1695.000000	0.000000	0.735870
1696.000000	0.000000	0.731827
1697.000000	0.000000	0.737189
1698.000000	0.000000	0.739134
1699.000000	0.000000	0.739643
1700.000000	0.000000	0.730201
1701.000000	0.000000	0.733058
1702.000000	0.000000	0.730142
1703.000000	0.000000	0.740221
1704.000000	0.000000	0.720939
1705.000000	0.000000	0.726877
1706.000000	0.000000	0.737346
1707.000000	0.000000	0.728943
1708.000000	0.000000	0.713324
1709.000000	0.000000	0.716824
1710.000000	0.000000	0.711210
1711.000000	0.000000	0.696950
1712.000000	0.000000	0.705872
1713.000000	0.000000	0.703551
1714.000000	0.000000	0.693608
1715.000000	0.000000	0.675549
1716.000000	0.000000	0.670410
1717.000000	0.000000	0.665586
1718.000000	0.000000	0.673099
1719.000000	0.000000	0.675764
1720.000000	0.000000	0.675849
1721.000000	0.000000	0.672065
1722.000000	0.000000	0.676794
1723.000000	0.000000	0.677612
1724.000000	0.000000	0.677304
1725.000000	0.000000	0.683355
1726.000000	0.000000	0.697335
1727.000000	0.000000	0.679956
1728.000000	0.000000	0.685388
1729.000000	0.000000	0.687157
1730.000000	0.000000	0.686877
1731.000000	0.000000	0.688065
1732.000000	0.000000	0.681422
1733.000000	0.000000	0.676426
1734.000000	0.000000	0.677378
1735.000000	0.000000	0.681843
1736.000000	0.000000	0.699478
1737.000000	0.000000	0.709118
1738.000000	0.000000	0.717666
1739.000000	0.000000	0.728464
1740.000000	0.000000	0.747979
1741.000000	0.000000	0.752558
1742.000000	0.000000	0.768288
1743.000000	0.000000	0.784241
1744.000000	0.000000	0.794609
1745.000000	0.000000	0.807881
1746.000000	0.000000	0.811726
1747.000000	0.000000	0.817272
1748.000000	0.000000	0.832442
1749.000000	0.000000	0.836719
1750.000000	0.000000	0.836649
1751.000000	0.000000	0.833518
1752.000000	0.000000	0.835737
1753.000000	0.000000	0.847461
1754.000000	0.000000	0.846961
1755.000000	0.000000	0.842647
1756.000000	0.000000	0.834584
1757.000000	0.000000	0.834557
1758.000000	0.000000	0.837888
1759.000000	0.000000	0.842120
1760.000000	0.000000	0.831561
1761.000000	0.000000	0.835306
1762.000000	0.000000	0.838286
1763.000000	0.000000	0.837468
1764.000000	0.000000	0.843512
1765.000000	0.000000	0.840925
1766.000000	0.000000	0.838499
1767.000000	0.000000	0.849121
1768.000000	0.000000	0.851908
1769.000000	0.000000	0.853988
1770.000000	0.000000	0.865654
1771.000000	0.000000	0.878201
1772.000000	0.000000	0.885414
1773.000000	0.000000	0.887132
1774.000000	0.000000	0.886297
1775.000000	0.000000	0.892763
1776.000000	0.000000	0.900980
1777.000000	0.000000	0.912276
1778.000000	0.000000	0.921181
1779.000000	0.000000	0.918260
1780.000000	0.000000	0.920424
1781.000000	0.000000	0.923326
1782.000000	0.000000	0.930302
1783.000000	0.000000	0.930006
1784.000000	0.000000	0.928830
1785.000000	0.000000	0.947620
1786.000000	0.000000	0.952173
1787.000000	0.000000	0.953744
1788.000000	0.000000	0.950945
1789.000000	0.000000	0.951698
1790.000000	0.000000	0.961880
1791.000000	0.000000	0.961660
1792.000000	0.000000	0.968474
1793.000000	0.000000	0.976777
1794.000000	0.000000	0.969467
1795.000000	0.000000	0.971083
1796.000000	0.000000	0.980291
1797.000000	0.000000	0.983882
1798.000000	0.000000	0.990193
1799.000000	0.000000	0.997139
1800.000000	0.000000	1.001533
1801.000000	0.000000	1.002871
1802.000000	0.000000	1.003724
1803.000000	0.000000	1.001937
1804.000000	0.000000	0.999441
1805.000000	0.000000	1.007110
1806.000000	0.000000	1.021006
1807.000000	0.000000	1.026085
1808.000000	0.000000	1.015596
1809.000000	0.000000	1.030605
1810.000000	0.000000	1.042161
1811.000000	0.000000	1.040663
1812.000000	0.000000	1.038018
1813.000000	0.000000	1.034093
1814.000000	0.000000	1.045570
1815.000000	0.000000	1.051374
1816.000000	0.000000	1.050197
1817.000000	0.000000	1.048009
1818.000000	0.000000	1.046192
1819.000000	0.000000	1.050303
1820.000000	0.000000	1.060854
1821.000000	0.000000	1.061235
1822.000000	0.000000	1.049190
1823.000000	0.000000	1.053928
1824.000000	0.000000	1.060291
1825.000000	0.000000	1.063184
1826.000000	0.000000	1.065684
1827.000000	0.000000	1.068213
1828.000000	0.000000	1.072894
1829.000000	0.000000	1.084048
1830.000000	0.000000	1.085784
1831.000000	0.000000	1.087331
1832.000000	0.000000	1.089454
1833.000000	0.000000	1.088736
1834.000000	0.000000	1.089724
1835.000000	0.000000	1.103161
1836.000000	0.000000	1.116201
1837.000000	0.000000	1.120063
1838.000000	0.000000	1.125025
1839.000000	0.000000	1.129524
1840.000000	0.000000	1.130446
1841.000000	0.000000	1.140169
1842.000000	0.000000	1.153378
1843.000000	0.000000	1.151238
1844.000000	0.000000	1.144999
1845.000000	0.000000	1.148456
1846.000000	0.000000	1.163972
1847.000000	0.000000	1.176310
1848.000000	0.000000	1.183453
1849.000000	0.000000	1.192409
1850.000000	0.000000	1.190827
1851.000000	0.000000	1.204127
1852.000000	0.000000	1.199747
1853.000000	0.000000	1.215869
1854.000000	0.000000	1.215891
1855.000000	0.000000	1.226427
1856.000000	0.000000	1.222854
1857.000000	0.000000	1.232075
1858.000000	0.000000	1.241469
1859.000000	0.000000	1.256828
1860.000000	0.000000	1.252840
1861.000000	0.000000	1.272155
1862.000000	0.000000	1.277569
1863.000000	0.000000	1.272830
1864.000000	0.000000	1.281332
1865.000000	0.000000	1.292169
1866.000000	0.000000	1.291150
1867.000000	0.000000	1.304628
1868.000000	0.000000	1.330148
1869.000000	0.000000	1.335775
1870.000000	0.000000	1.344738
1871.000000	0.000000	1.356708
1872.000000	0.000000	1.362460
1873.000000	0.000000	1.347079
1874.000000	0.000000	1.353748
1875.000000	0.000000	1.344725
1876.000000	0.000000	1.325653
1877.000000	0.000000	1.315902
1878.000000	0.000000	1.325374
1879.000000	0.000000	1.311376
1880.000000	0.000000	1.294484
1881.000000	0.000000	1.277837
1882.000000	0.000000	1.249912
1883.000000	0.000000	1.258950
1884.000000	0.000000	1.254981
1885.000000	0.000000	1.242206
1886.000000	0.000000	1.234846
1887.000000	0.000000	1.239217
1888.000000	0.000000	1.246670
1889.000000	0.000000	1.220338
1890.000000	0.000000	1.201144
1891.000000	0.000000	1.192343
1892.000000	0.000000	1.179293
1893.000000	0.000000	1.167116
1894.000000	0.000000	1.163822
1895.000000	0.000000	1.139648
1896.000000	0.000000	1.124237
1897.000000	0.000000	1.119142
1898.000000	0.000000	1.102979
1899.000000	0.000000	1.084694
1900.000000	0.000000	1.091350
1901.000000	0.000000	1.057923
1902.000000	0.000000	1.048695
1903.000000	0.000000	1.034048
1904.000000	0.000000	1.015905
1905.000000	0.000000	0.984411
1906.000000	0.000000	0.991698
1907.000000	0.000000	0.962104
1908.000000	0.000000	0.954736
1909.000000	0.000000	0.931778
1910.000000	0.000000	0.912440
1911.000000	0.000000	0.909774
1912.000000	0.000000	0.883424
1913.000000	0.000000	0.875908
1914.000000	0.000000	0.854486
1915.000000	0.000000	0.847268
1916.000000	0.000000	0.828533
1917.000000	0.000000	0.816733
1918.000000	0.000000	0.802517
1919.000000	0.000000	0.786616
1920.000000	0.000000	0.790435
1921.000000	0.000000	0.781181
1922.000000	0.000000	0.763470
1923.000000	0.000000	0.740609
1924.000000	0.000000	0.738277
1925.000000	0.000000	0.743358
1926.000000	0.000000	0.729388
1927.000000	0.000000	0.722067
1928.000000	0.000000	0.719766
1929.000000	0.000000	0.711967
1930.000000	0.000000	0.693795
1931.000000	0.000000	0.704292
1932.000000	0.000000	0.682224
1933.000000	0.000000	0.675141
1934.000000	0.000000	0.681381
1935.000000	0.000000	0.682179
1936.000000	0.000000	0.681480
1937.000000	0.000000	0.666345
1938.000000	0.000000	0.679795
1939.000000	0.000000	0.686254
1940.000000	0.000000	0.689662
1941.000000	0.000000	0.673683
1942.000000	0.000000	0.671677
1943.000000	0.000000	0.693666
1944.000000	0.000000	0.685808
1945.000000	0.000000	0.678508
1946.000000	0.000000	0.684618
1947.000000	0.000000	0.680082
1948.000000	0.000000	0.691101
1949.000000	0.000000	0.698312
1950.000000	0.000000	0.712964
1951.000000	0.000000	0.714034
1952.000000	0.000000	0.709883
1953.000000	0.000000	0.706014
1954.000000	0.000000	0.726531
1955.000000	0.000000	0.734697
1956.000000	0.000000	0.734148
1957.000000	0.000000	0.740279
1958.000000	0.000000	0.750142
1959.000000	0.000000	0.751837
1960.000000	0.000000	0.757424
1961.000000	0.000000	0.768123
1962.000000	0.000000	0.775480
1963.000000	0.000000	0.780854
1964.000000	0.000000	0.778170
1965.000000	0.000000	0.783829
1966.000000	0.000000	0.788812
1967.000000	0.000000	0.796382
1968.000000	0.000000	0.796438
1969.000000	0.000000	0.810167
1970.000000	0.000000	0.807215
1971.000000	0.000000	0.806805
1972.000000	0.000000	0.817204
1973.000000	0.000000	0.826025
1974.000000	0.000000	0.839154
1975.000000	0.000000	0.846866
1976.000000	0.000000	0.851758
1977.000000	0.000000	0.851110
1978.000000	0.000000	0.866057
1979.000000	0.000000	0.873855
1980.000000	0.000000	0.872963
1981.000000	0.000000	0.889839
1982.000000	0.000000	0.889281
1983.000000	0.000000	0.890955
1984.000000	0.000000	0.899424
1985.000000	0.000000	0.913574
1986.000000	0.000000	0.908123
1987.000000	0.000000	0.913581
1988.000000	0.000000	0.924744
1989.000000	0.000000	0.940681
1990.000000	0.000000	0.947343
1991.000000	0.000000	0.941245
1992.000000	0.000000	0.951834
1993.000000	0.000000	0.947798
1994.000000	0.000000	0.964452
1995.000000	0.000000	0.974963
1996.000000	0.000000	0.977656
1997.000000	0.000000	0.990371
1998.000000	0.000000	0.979198
1999.000000	0.000000	0.983995
