PE UV       SUBTECH     SPECTRUM    ASCII       PEDS        4.00        
   -1
CICIMAUCR0258-3.Sample.ASC
24/07/01
13:32:30.00
24/07/01
13:32:30.00
Vinicio Soto Monge
C. resplendens. Sex M. Dorsal.
250,000000
1
Lambda 1050
1050L1511233
PerkinElmer UV WinLab 6.3.2.0749 / 2.02.05 Lambda 900 UV/VIS/NIR, Aug  7 2015 09:38:08

0
0
3350/servo 860,8/2
0
0
UV/VIS
1
1
1
DoubleDePol,CommonBeamDepol,RBeamAtt,SBeamAtt,60mm sphere, WB InGaAs Detector
0
0
0
0
Program
Program
3350/servo 860,8/2
3350/0,2 860,8/0,2
3350/0,2 860,8/0,2
0
15.00
 
 
 
0
 
860,8
319,2
860,8
Front
100
on
S:100 R:100
0
0
0
0
 
0
 
 
 
0
 
 
0
0
0
0
0
 
 
 
 
0
0


0
0
#HDR
-1
-1
#GR
nm
%R
1.0
0.0
2500,000000
-1,000000
2251
8
89,537900
5,117800
#DATA
250.000000	0.000000	0.257372
251.000000	0.000000	0.239427
252.000000	0.000000	0.239369
253.000000	0.000000	0.262614
254.000000	0.000000	0.240354
255.000000	0.000000	0.276437
256.000000	0.000000	0.267086
257.000000	0.000000	0.263364
258.000000	0.000000	0.240114
259.000000	0.000000	0.246704
260.000000	0.000000	0.242952
261.000000	0.000000	0.243798
262.000000	0.000000	0.242264
263.000000	0.000000	0.220561
264.000000	0.000000	0.211979
265.000000	0.000000	0.246873
266.000000	0.000000	0.237028
267.000000	0.000000	0.233937
268.000000	0.000000	0.225713
269.000000	0.000000	0.227258
270.000000	0.000000	0.211396
271.000000	0.000000	0.227336
272.000000	0.000000	0.235089
273.000000	0.000000	0.215788
274.000000	0.000000	0.207300
275.000000	0.000000	0.203954
276.000000	0.000000	0.182936
277.000000	0.000000	0.223676
278.000000	0.000000	0.220737
279.000000	0.000000	0.210598
280.000000	0.000000	0.190740
281.000000	0.000000	0.196517
282.000000	0.000000	0.187953
283.000000	0.000000	0.180096
284.000000	0.000000	0.185691
285.000000	0.000000	0.176477
286.000000	0.000000	0.182124
287.000000	0.000000	0.203118
288.000000	0.000000	0.191884
289.000000	0.000000	0.179396
290.000000	0.000000	0.154984
291.000000	0.000000	0.166396
292.000000	0.000000	0.168463
293.000000	0.000000	0.170853
294.000000	0.000000	0.175614
295.000000	0.000000	0.169168
296.000000	0.000000	0.151619
297.000000	0.000000	0.148638
298.000000	0.000000	0.157039
299.000000	0.000000	0.141756
300.000000	0.000000	0.134904
301.000000	0.000000	0.139567
302.000000	0.000000	0.133673
303.000000	0.000000	0.133392
304.000000	0.000000	0.136190
305.000000	0.000000	0.126102
306.000000	0.000000	0.109785
307.000000	0.000000	0.127165
308.000000	0.000000	0.123923
309.000000	0.000000	0.129752
310.000000	0.000000	0.120204
311.000000	0.000000	0.110041
312.000000	0.000000	0.128237
313.000000	0.000000	0.119363
314.000000	0.000000	0.102304
315.000000	0.000000	0.115969
316.000000	0.000000	0.621631
317.000000	0.000000	0.921066
318.000000	0.000000	0.445037
319.000000	0.000000	0.554760
320.000000	0.000000	0.528270
321.000000	0.000000	0.602662
322.000000	0.000000	0.580356
323.000000	0.000000	0.449195
324.000000	0.000000	0.487162
325.000000	0.000000	0.428891
326.000000	0.000000	0.247838
327.000000	0.000000	0.247939
328.000000	0.000000	0.462948
329.000000	0.000000	0.300659
330.000000	0.000000	0.101816
331.000000	0.000000	0.338023
332.000000	0.000000	0.413031
333.000000	0.000000	0.331972
334.000000	0.000000	0.184085
335.000000	0.000000	0.037461
336.000000	0.000000	0.246060
337.000000	0.000000	0.271633
338.000000	0.000000	0.115470
339.000000	0.000000	0.167680
340.000000	0.000000	0.163143
341.000000	0.000000	0.156180
342.000000	0.000000	0.148389
343.000000	0.000000	0.227632
344.000000	0.000000	0.298761
345.000000	0.000000	0.178129
346.000000	0.000000	0.129879
347.000000	0.000000	0.211573
348.000000	0.000000	0.240311
349.000000	0.000000	0.176233
350.000000	0.000000	0.157711
351.000000	0.000000	0.141885
352.000000	0.000000	0.103470
353.000000	0.000000	0.125358
354.000000	0.000000	0.126673
355.000000	0.000000	0.126352
356.000000	0.000000	0.149862
357.000000	0.000000	0.181205
358.000000	0.000000	0.186793
359.000000	0.000000	0.136645
360.000000	0.000000	0.082352
361.000000	0.000000	0.104391
362.000000	0.000000	0.075148
363.000000	0.000000	0.072732
364.000000	0.000000	0.123373
365.000000	0.000000	0.079142
366.000000	0.000000	0.025181
367.000000	0.000000	0.017012
368.000000	0.000000	0.086755
369.000000	0.000000	0.110516
370.000000	0.000000	0.052907
371.000000	0.000000	0.037201
372.000000	0.000000	0.090679
373.000000	0.000000	0.243824
374.000000	0.000000	0.199753
375.000000	0.000000	0.086519
376.000000	0.000000	0.086634
377.000000	0.000000	0.085969
378.000000	0.000000	0.085973
379.000000	0.000000	0.080404
380.000000	0.000000	0.083683
381.000000	0.000000	0.069623
382.000000	0.000000	0.062746
383.000000	0.000000	0.069243
384.000000	0.000000	0.063846
385.000000	0.000000	0.057604
386.000000	0.000000	0.060944
387.000000	0.000000	0.034756
388.000000	0.000000	0.020634
389.000000	0.000000	0.025403
390.000000	0.000000	0.018111
391.000000	0.000000	0.015391
392.000000	0.000000	0.021864
393.000000	0.000000	0.011421
394.000000	0.000000	0.044659
395.000000	0.000000	0.054076
396.000000	0.000000	0.056633
397.000000	0.000000	0.070314
398.000000	0.000000	0.088786
399.000000	0.000000	0.098818
400.000000	0.000000	0.116436
401.000000	0.000000	0.150372
402.000000	0.000000	0.168759
403.000000	0.000000	0.195001
404.000000	0.000000	0.232677
405.000000	0.000000	0.251553
406.000000	0.000000	0.278156
407.000000	0.000000	0.326501
408.000000	0.000000	0.355422
409.000000	0.000000	0.382064
410.000000	0.000000	0.417941
411.000000	0.000000	0.467433
412.000000	0.000000	0.517109
413.000000	0.000000	0.535364
414.000000	0.000000	0.581808
415.000000	0.000000	0.620686
416.000000	0.000000	0.664537
417.000000	0.000000	0.690325
418.000000	0.000000	0.720032
419.000000	0.000000	0.757542
420.000000	0.000000	0.803046
421.000000	0.000000	0.814672
422.000000	0.000000	0.846036
423.000000	0.000000	0.873328
424.000000	0.000000	0.892192
425.000000	0.000000	0.909430
426.000000	0.000000	0.924306
427.000000	0.000000	0.962984
428.000000	0.000000	0.973953
429.000000	0.000000	0.991454
430.000000	0.000000	0.992584
431.000000	0.000000	0.982266
432.000000	0.000000	1.004021
433.000000	0.000000	1.026603
434.000000	0.000000	1.000890
435.000000	0.000000	0.997829
436.000000	0.000000	1.013206
437.000000	0.000000	1.030127
438.000000	0.000000	1.003786
439.000000	0.000000	1.021044
440.000000	0.000000	1.018905
441.000000	0.000000	1.019055
442.000000	0.000000	0.998764
443.000000	0.000000	1.002408
444.000000	0.000000	0.988102
445.000000	0.000000	0.984369
446.000000	0.000000	0.984552
447.000000	0.000000	0.991178
448.000000	0.000000	1.005729
449.000000	0.000000	0.973565
450.000000	0.000000	0.957723
451.000000	0.000000	0.962023
452.000000	0.000000	0.957700
453.000000	0.000000	0.973213
454.000000	0.000000	0.916859
455.000000	0.000000	0.929037
456.000000	0.000000	0.907788
457.000000	0.000000	0.900572
458.000000	0.000000	0.892171
459.000000	0.000000	0.891891
460.000000	0.000000	0.839615
461.000000	0.000000	0.820599
462.000000	0.000000	0.787171
463.000000	0.000000	0.753164
464.000000	0.000000	0.732895
465.000000	0.000000	0.687781
466.000000	0.000000	0.645842
467.000000	0.000000	0.606509
468.000000	0.000000	0.545757
469.000000	0.000000	0.516273
470.000000	0.000000	0.483933
471.000000	0.000000	0.481762
472.000000	0.000000	0.474991
473.000000	0.000000	0.490706
474.000000	0.000000	0.507022
475.000000	0.000000	0.601112
476.000000	0.000000	0.646385
477.000000	0.000000	0.732851
478.000000	0.000000	0.805061
479.000000	0.000000	0.885315
480.000000	0.000000	0.945835
481.000000	0.000000	0.970559
482.000000	0.000000	1.021895
483.000000	0.000000	1.031282
484.000000	0.000000	1.021321
485.000000	0.000000	0.976611
486.000000	0.000000	0.942096
487.000000	0.000000	0.859124
488.000000	0.000000	0.758087
489.000000	0.000000	0.650692
490.000000	0.000000	0.526465
491.000000	0.000000	0.409843
492.000000	0.000000	0.284179
493.000000	0.000000	0.177665
494.000000	0.000000	0.128278
495.000000	0.000000	0.224141
496.000000	0.000000	0.338002
497.000000	0.000000	0.516026
498.000000	0.000000	0.674025
499.000000	0.000000	0.816360
500.000000	0.000000	0.914258
501.000000	0.000000	1.040051
502.000000	0.000000	1.155370
503.000000	0.000000	1.252915
504.000000	0.000000	1.315052
505.000000	0.000000	1.338994
506.000000	0.000000	1.387691
507.000000	0.000000	1.372579
508.000000	0.000000	1.342549
509.000000	0.000000	1.285967
510.000000	0.000000	1.204782
511.000000	0.000000	1.140351
512.000000	0.000000	1.021745
513.000000	0.000000	0.881075
514.000000	0.000000	0.749420
515.000000	0.000000	0.591072
516.000000	0.000000	0.425505
517.000000	0.000000	0.270606
518.000000	0.000000	0.217249
519.000000	0.000000	0.338423
520.000000	0.000000	0.504778
521.000000	0.000000	0.711524
522.000000	0.000000	0.897557
523.000000	0.000000	1.068087
524.000000	0.000000	1.212246
525.000000	0.000000	1.344268
526.000000	0.000000	1.455898
527.000000	0.000000	1.574201
528.000000	0.000000	1.619091
529.000000	0.000000	1.640404
530.000000	0.000000	1.658431
531.000000	0.000000	1.640602
532.000000	0.000000	1.588678
533.000000	0.000000	1.530233
534.000000	0.000000	1.454352
535.000000	0.000000	1.382344
536.000000	0.000000	1.313238
537.000000	0.000000	1.247156
538.000000	0.000000	1.207192
539.000000	0.000000	1.193179
540.000000	0.000000	1.227284
541.000000	0.000000	1.282810
542.000000	0.000000	1.367939
543.000000	0.000000	1.461640
544.000000	0.000000	1.580828
545.000000	0.000000	1.675070
546.000000	0.000000	1.780948
547.000000	0.000000	1.885266
548.000000	0.000000	1.965345
549.000000	0.000000	2.075635
550.000000	0.000000	2.137516
551.000000	0.000000	2.193884
552.000000	0.000000	2.282561
553.000000	0.000000	2.346628
554.000000	0.000000	2.411698
555.000000	0.000000	2.479529
556.000000	0.000000	2.550330
557.000000	0.000000	2.591392
558.000000	0.000000	2.642717
559.000000	0.000000	2.643702
560.000000	0.000000	2.662098
561.000000	0.000000	2.715304
562.000000	0.000000	2.733925
563.000000	0.000000	2.750938
564.000000	0.000000	2.779704
565.000000	0.000000	2.806178
566.000000	0.000000	2.834704
567.000000	0.000000	2.851596
568.000000	0.000000	2.891737
569.000000	0.000000	2.907021
570.000000	0.000000	2.961656
571.000000	0.000000	2.975185
572.000000	0.000000	2.982550
573.000000	0.000000	3.001598
574.000000	0.000000	3.032987
575.000000	0.000000	3.054294
576.000000	0.000000	3.046741
577.000000	0.000000	3.104281
578.000000	0.000000	3.131670
579.000000	0.000000	3.129464
580.000000	0.000000	3.143780
581.000000	0.000000	3.180118
582.000000	0.000000	3.192272
583.000000	0.000000	3.207346
584.000000	0.000000	3.267809
585.000000	0.000000	3.326464
586.000000	0.000000	3.343145
587.000000	0.000000	3.357668
588.000000	0.000000	3.406212
589.000000	0.000000	3.417349
590.000000	0.000000	3.405190
591.000000	0.000000	3.445138
592.000000	0.000000	3.425778
593.000000	0.000000	3.406316
594.000000	0.000000	3.411709
595.000000	0.000000	3.373002
596.000000	0.000000	3.338868
597.000000	0.000000	3.287972
598.000000	0.000000	3.235685
599.000000	0.000000	3.188389
600.000000	0.000000	3.157923
601.000000	0.000000	3.122803
602.000000	0.000000	3.100527
603.000000	0.000000	3.094878
604.000000	0.000000	3.060733
605.000000	0.000000	3.064370
606.000000	0.000000	3.093131
607.000000	0.000000	3.122036
608.000000	0.000000	3.179395
609.000000	0.000000	3.264025
610.000000	0.000000	3.346695
611.000000	0.000000	3.404573
612.000000	0.000000	3.456959
613.000000	0.000000	3.542867
614.000000	0.000000	3.611998
615.000000	0.000000	3.667162
616.000000	0.000000	3.714806
617.000000	0.000000	3.735703
618.000000	0.000000	3.760689
619.000000	0.000000	3.715099
620.000000	0.000000	3.665839
621.000000	0.000000	3.626077
622.000000	0.000000	3.531815
623.000000	0.000000	3.445154
624.000000	0.000000	3.348686
625.000000	0.000000	3.268637
626.000000	0.000000	3.217807
627.000000	0.000000	3.150977
628.000000	0.000000	3.052414
629.000000	0.000000	3.019151
630.000000	0.000000	3.030830
631.000000	0.000000	3.072290
632.000000	0.000000	3.157280
633.000000	0.000000	3.226434
634.000000	0.000000	3.334974
635.000000	0.000000	3.475711
636.000000	0.000000	3.591593
637.000000	0.000000	3.706188
638.000000	0.000000	3.808292
639.000000	0.000000	3.889894
640.000000	0.000000	3.950282
641.000000	0.000000	4.012694
642.000000	0.000000	4.070052
643.000000	0.000000	4.079334
644.000000	0.000000	4.083703
645.000000	0.000000	4.115568
646.000000	0.000000	4.101201
647.000000	0.000000	4.099903
648.000000	0.000000	4.129221
649.000000	0.000000	4.133721
650.000000	0.000000	4.130253
651.000000	0.000000	4.115238
652.000000	0.000000	4.072650
653.000000	0.000000	4.016263
654.000000	0.000000	3.978546
655.000000	0.000000	3.921013
656.000000	0.000000	3.806340
657.000000	0.000000	3.645120
658.000000	0.000000	3.482087
659.000000	0.000000	3.305400
660.000000	0.000000	3.080381
661.000000	0.000000	2.803696
662.000000	0.000000	2.517491
663.000000	0.000000	2.214553
664.000000	0.000000	1.894449
665.000000	0.000000	1.603556
666.000000	0.000000	1.296505
667.000000	0.000000	1.057261
668.000000	0.000000	0.978374
669.000000	0.000000	1.059056
670.000000	0.000000	1.255354
671.000000	0.000000	1.496712
672.000000	0.000000	1.782184
673.000000	0.000000	2.051973
674.000000	0.000000	2.303980
675.000000	0.000000	2.512554
676.000000	0.000000	2.666137
677.000000	0.000000	2.818865
678.000000	0.000000	2.987181
679.000000	0.000000	3.093111
680.000000	0.000000	3.160878
681.000000	0.000000	3.176152
682.000000	0.000000	3.147325
683.000000	0.000000	3.115794
684.000000	0.000000	3.044710
685.000000	0.000000	2.923608
686.000000	0.000000	2.818505
687.000000	0.000000	2.684275
688.000000	0.000000	2.538731
689.000000	0.000000	2.310680
690.000000	0.000000	2.133015
691.000000	0.000000	1.949400
692.000000	0.000000	1.715633
693.000000	0.000000	1.507677
694.000000	0.000000	1.291298
695.000000	0.000000	1.113817
696.000000	0.000000	0.894556
697.000000	0.000000	0.726950
698.000000	0.000000	0.568254
699.000000	0.000000	0.453052
700.000000	0.000000	0.410850
701.000000	0.000000	0.375369
702.000000	0.000000	0.402955
703.000000	0.000000	0.445863
704.000000	0.000000	0.540508
705.000000	0.000000	0.599627
706.000000	0.000000	0.624864
707.000000	0.000000	0.668475
708.000000	0.000000	0.627920
709.000000	0.000000	0.608570
710.000000	0.000000	0.628389
711.000000	0.000000	0.647036
712.000000	0.000000	0.617537
713.000000	0.000000	0.613469
714.000000	0.000000	0.600431
715.000000	0.000000	0.534497
716.000000	0.000000	0.493022
717.000000	0.000000	0.388863
718.000000	0.000000	0.424952
719.000000	0.000000	0.480909
720.000000	0.000000	0.474588
721.000000	0.000000	0.488580
722.000000	0.000000	0.480047
723.000000	0.000000	0.458580
724.000000	0.000000	0.394509
725.000000	0.000000	0.422018
726.000000	0.000000	0.358494
727.000000	0.000000	0.352103
728.000000	0.000000	0.353024
729.000000	0.000000	0.243436
730.000000	0.000000	0.218707
731.000000	0.000000	0.256443
732.000000	0.000000	0.259003
733.000000	0.000000	0.240216
734.000000	0.000000	0.261658
735.000000	0.000000	0.434428
736.000000	0.000000	0.520685
737.000000	0.000000	0.663913
738.000000	0.000000	0.765649
739.000000	0.000000	0.880670
740.000000	0.000000	0.964059
741.000000	0.000000	1.056946
742.000000	0.000000	1.123738
743.000000	0.000000	1.319495
744.000000	0.000000	1.391942
745.000000	0.000000	1.424466
746.000000	0.000000	1.647825
747.000000	0.000000	1.597165
748.000000	0.000000	1.592685
749.000000	0.000000	1.782387
750.000000	0.000000	1.729537
751.000000	0.000000	1.789968
752.000000	0.000000	1.800434
753.000000	0.000000	1.887106
754.000000	0.000000	1.852466
755.000000	0.000000	1.949674
756.000000	0.000000	1.905209
757.000000	0.000000	1.894311
758.000000	0.000000	1.859701
759.000000	0.000000	1.882146
760.000000	0.000000	1.921397
761.000000	0.000000	1.886392
762.000000	0.000000	1.900246
763.000000	0.000000	2.047608
764.000000	0.000000	1.939412
765.000000	0.000000	1.983198
766.000000	0.000000	2.010519
767.000000	0.000000	2.071467
768.000000	0.000000	2.075074
769.000000	0.000000	2.082537
770.000000	0.000000	2.218707
771.000000	0.000000	2.189387
772.000000	0.000000	2.239813
773.000000	0.000000	2.280404
774.000000	0.000000	2.277893
775.000000	0.000000	2.361085
776.000000	0.000000	2.261905
777.000000	0.000000	2.312108
778.000000	0.000000	2.390075
779.000000	0.000000	2.591914
780.000000	0.000000	2.497826
781.000000	0.000000	2.561551
782.000000	0.000000	2.713666
783.000000	0.000000	2.667626
784.000000	0.000000	2.750504
785.000000	0.000000	2.760458
786.000000	0.000000	2.759655
787.000000	0.000000	2.812921
788.000000	0.000000	2.897587
789.000000	0.000000	2.914220
790.000000	0.000000	3.035045
791.000000	0.000000	3.015439
792.000000	0.000000	2.937869
793.000000	0.000000	2.891338
794.000000	0.000000	3.019126
795.000000	0.000000	3.052450
796.000000	0.000000	3.183433
797.000000	0.000000	3.199333
798.000000	0.000000	3.189182
799.000000	0.000000	3.404535
800.000000	0.000000	3.282069
801.000000	0.000000	3.457256
802.000000	0.000000	3.669869
803.000000	0.000000	3.640486
804.000000	0.000000	3.773832
805.000000	0.000000	3.699381
806.000000	0.000000	3.850526
807.000000	0.000000	4.073552
808.000000	0.000000	4.166521
809.000000	0.000000	4.316770
810.000000	0.000000	4.248288
811.000000	0.000000	4.429519
812.000000	0.000000	4.531274
813.000000	0.000000	4.634129
814.000000	0.000000	4.717375
815.000000	0.000000	4.714128
816.000000	0.000000	4.638951
817.000000	0.000000	4.832147
818.000000	0.000000	4.942433
819.000000	0.000000	4.900614
820.000000	0.000000	5.049248
821.000000	0.000000	5.175473
822.000000	0.000000	5.250164
823.000000	0.000000	5.159453
824.000000	0.000000	5.120487
825.000000	0.000000	5.250113
826.000000	0.000000	5.204628
827.000000	0.000000	5.101171
828.000000	0.000000	5.150083
829.000000	0.000000	5.155677
830.000000	0.000000	5.152920
831.000000	0.000000	4.998375
832.000000	0.000000	5.001858
833.000000	0.000000	4.973555
834.000000	0.000000	4.798058
835.000000	0.000000	4.713684
836.000000	0.000000	4.627645
837.000000	0.000000	4.522049
838.000000	0.000000	4.649411
839.000000	0.000000	4.301093
840.000000	0.000000	4.423900
841.000000	0.000000	4.320152
842.000000	0.000000	4.325267
843.000000	0.000000	4.380245
844.000000	0.000000	4.322526
845.000000	0.000000	4.044515
846.000000	0.000000	4.432303
847.000000	0.000000	4.699741
848.000000	0.000000	4.465138
849.000000	0.000000	4.389477
850.000000	0.000000	4.601093
851.000000	0.000000	4.222176
852.000000	0.000000	4.588645
853.000000	0.000000	4.611068
854.000000	0.000000	4.569105
855.000000	0.000000	4.328836
856.000000	0.000000	4.479141
857.000000	0.000000	4.258206
858.000000	0.000000	4.350470
859.000000	0.000000	4.311543
860.000000	0.000000	4.274067
861.000000	0.000000	4.231477
862.000000	0.000000	4.194525
863.000000	0.000000	4.158205
864.000000	0.000000	4.126219
865.000000	0.000000	4.094193
866.000000	0.000000	4.066983
867.000000	0.000000	4.029719
868.000000	0.000000	3.995611
869.000000	0.000000	3.922911
870.000000	0.000000	3.872818
871.000000	0.000000	3.807169
872.000000	0.000000	3.781527
873.000000	0.000000	3.780329
874.000000	0.000000	3.767408
875.000000	0.000000	3.767252
876.000000	0.000000	3.769288
877.000000	0.000000	3.768581
878.000000	0.000000	3.762081
879.000000	0.000000	3.755891
880.000000	0.000000	3.748294
881.000000	0.000000	3.729305
882.000000	0.000000	3.722011
883.000000	0.000000	3.714349
884.000000	0.000000	3.695317
885.000000	0.000000	3.687825
886.000000	0.000000	3.682852
887.000000	0.000000	3.658019
888.000000	0.000000	3.637628
889.000000	0.000000	3.624047
890.000000	0.000000	3.609283
891.000000	0.000000	3.605237
892.000000	0.000000	3.590699
893.000000	0.000000	3.583306
894.000000	0.000000	3.570632
895.000000	0.000000	3.563673
896.000000	0.000000	3.559792
897.000000	0.000000	3.554450
898.000000	0.000000	3.551993
899.000000	0.000000	3.551273
900.000000	0.000000	3.559217
901.000000	0.000000	3.565521
902.000000	0.000000	3.568626
903.000000	0.000000	3.584712
904.000000	0.000000	3.595162
905.000000	0.000000	3.604726
906.000000	0.000000	3.622220
907.000000	0.000000	3.645104
908.000000	0.000000	3.660739
909.000000	0.000000	3.676559
910.000000	0.000000	3.691701
911.000000	0.000000	3.699178
912.000000	0.000000	3.712920
913.000000	0.000000	3.722256
914.000000	0.000000	3.714232
915.000000	0.000000	3.702644
916.000000	0.000000	3.700091
917.000000	0.000000	3.687559
918.000000	0.000000	3.660308
919.000000	0.000000	3.640019
920.000000	0.000000	3.618255
921.000000	0.000000	3.589499
922.000000	0.000000	3.558549
923.000000	0.000000	3.536055
924.000000	0.000000	3.521860
925.000000	0.000000	3.505180
926.000000	0.000000	3.493840
927.000000	0.000000	3.461985
928.000000	0.000000	3.451701
929.000000	0.000000	3.453831
930.000000	0.000000	3.440695
931.000000	0.000000	3.432759
932.000000	0.000000	3.427831
933.000000	0.000000	3.431519
934.000000	0.000000	3.434581
935.000000	0.000000	3.429967
936.000000	0.000000	3.436764
937.000000	0.000000	3.441501
938.000000	0.000000	3.450463
939.000000	0.000000	3.455118
940.000000	0.000000	3.448016
941.000000	0.000000	3.457592
942.000000	0.000000	3.479900
943.000000	0.000000	3.491747
944.000000	0.000000	3.492740
945.000000	0.000000	3.505168
946.000000	0.000000	3.533771
947.000000	0.000000	3.544827
948.000000	0.000000	3.547450
949.000000	0.000000	3.566173
950.000000	0.000000	3.571405
951.000000	0.000000	3.559907
952.000000	0.000000	3.559931
953.000000	0.000000	3.562679
954.000000	0.000000	3.557625
955.000000	0.000000	3.561723
956.000000	0.000000	3.551675
957.000000	0.000000	3.537764
958.000000	0.000000	3.540895
959.000000	0.000000	3.530765
960.000000	0.000000	3.523750
961.000000	0.000000	3.518955
962.000000	0.000000	3.524042
963.000000	0.000000	3.538945
964.000000	0.000000	3.538635
965.000000	0.000000	3.536767
966.000000	0.000000	3.548065
967.000000	0.000000	3.568539
968.000000	0.000000	3.589120
969.000000	0.000000	3.609476
970.000000	0.000000	3.623811
971.000000	0.000000	3.659756
972.000000	0.000000	3.690631
973.000000	0.000000	3.715407
974.000000	0.000000	3.733412
975.000000	0.000000	3.764701
976.000000	0.000000	3.784169
977.000000	0.000000	3.796158
978.000000	0.000000	3.816310
979.000000	0.000000	3.840694
980.000000	0.000000	3.844758
981.000000	0.000000	3.849006
982.000000	0.000000	3.869423
983.000000	0.000000	3.891320
984.000000	0.000000	3.876979
985.000000	0.000000	3.868361
986.000000	0.000000	3.873118
987.000000	0.000000	3.869560
988.000000	0.000000	3.852725
989.000000	0.000000	3.844874
990.000000	0.000000	3.835846
991.000000	0.000000	3.824411
992.000000	0.000000	3.824293
993.000000	0.000000	3.795088
994.000000	0.000000	3.768424
995.000000	0.000000	3.756516
996.000000	0.000000	3.736504
997.000000	0.000000	3.716215
998.000000	0.000000	3.689998
999.000000	0.000000	3.659182
1000.000000	0.000000	3.655870
1001.000000	0.000000	3.653642
1002.000000	0.000000	3.626287
1003.000000	0.000000	3.608444
1004.000000	0.000000	3.596987
1005.000000	0.000000	3.608215
1006.000000	0.000000	3.613444
1007.000000	0.000000	3.611099
1008.000000	0.000000	3.609535
1009.000000	0.000000	3.620273
1010.000000	0.000000	3.645996
1011.000000	0.000000	3.663150
1012.000000	0.000000	3.678131
1013.000000	0.000000	3.686598
1014.000000	0.000000	3.694037
1015.000000	0.000000	3.729875
1016.000000	0.000000	3.749836
1017.000000	0.000000	3.767624
1018.000000	0.000000	3.792015
1019.000000	0.000000	3.812862
1020.000000	0.000000	3.828174
1021.000000	0.000000	3.842578
1022.000000	0.000000	3.857023
1023.000000	0.000000	3.877435
1024.000000	0.000000	3.891730
1025.000000	0.000000	3.902121
1026.000000	0.000000	3.910630
1027.000000	0.000000	3.915953
1028.000000	0.000000	3.922226
1029.000000	0.000000	3.925150
1030.000000	0.000000	3.927931
1031.000000	0.000000	3.918873
1032.000000	0.000000	3.913401
1033.000000	0.000000	3.919020
1034.000000	0.000000	3.910313
1035.000000	0.000000	3.902163
1036.000000	0.000000	3.896333
1037.000000	0.000000	3.893799
1038.000000	0.000000	3.886164
1039.000000	0.000000	3.867521
1040.000000	0.000000	3.858583
1041.000000	0.000000	3.841172
1042.000000	0.000000	3.835227
1043.000000	0.000000	3.824967
1044.000000	0.000000	3.814063
1045.000000	0.000000	3.808018
1046.000000	0.000000	3.795119
1047.000000	0.000000	3.782827
1048.000000	0.000000	3.780763
1049.000000	0.000000	3.779226
1050.000000	0.000000	3.773912
1051.000000	0.000000	3.771067
1052.000000	0.000000	3.764122
1053.000000	0.000000	3.756711
1054.000000	0.000000	3.772175
1055.000000	0.000000	3.768846
1056.000000	0.000000	3.765939
1057.000000	0.000000	3.770274
1058.000000	0.000000	3.773897
1059.000000	0.000000	3.785218
1060.000000	0.000000	3.796554
1061.000000	0.000000	3.795377
1062.000000	0.000000	3.807265
1063.000000	0.000000	3.827713
1064.000000	0.000000	3.821176
1065.000000	0.000000	3.821237
1066.000000	0.000000	3.824685
1067.000000	0.000000	3.846616
1068.000000	0.000000	3.844988
1069.000000	0.000000	3.852387
1070.000000	0.000000	3.864270
1071.000000	0.000000	3.859981
1072.000000	0.000000	3.855820
1073.000000	0.000000	3.872036
1074.000000	0.000000	3.867590
1075.000000	0.000000	3.876260
1076.000000	0.000000	3.892356
1077.000000	0.000000	3.888153
1078.000000	0.000000	3.886159
1079.000000	0.000000	3.891198
1080.000000	0.000000	3.890771
1081.000000	0.000000	3.906523
1082.000000	0.000000	3.907398
1083.000000	0.000000	3.910453
1084.000000	0.000000	3.919106
1085.000000	0.000000	3.911936
1086.000000	0.000000	3.906330
1087.000000	0.000000	3.925346
1088.000000	0.000000	3.933930
1089.000000	0.000000	3.930386
1090.000000	0.000000	3.934328
1091.000000	0.000000	3.942613
1092.000000	0.000000	3.946363
1093.000000	0.000000	3.950568
1094.000000	0.000000	3.937289
1095.000000	0.000000	3.955217
1096.000000	0.000000	3.951334
1097.000000	0.000000	3.965125
1098.000000	0.000000	3.954509
1099.000000	0.000000	3.968562
1100.000000	0.000000	3.959882
1101.000000	0.000000	3.975766
1102.000000	0.000000	3.995868
1103.000000	0.000000	3.997654
1104.000000	0.000000	3.992007
1105.000000	0.000000	3.982141
1106.000000	0.000000	4.012408
1107.000000	0.000000	4.010290
1108.000000	0.000000	4.021673
1109.000000	0.000000	4.021590
1110.000000	0.000000	4.011148
1111.000000	0.000000	4.015161
1112.000000	0.000000	4.027136
1113.000000	0.000000	4.035289
1114.000000	0.000000	4.034204
1115.000000	0.000000	4.043012
1116.000000	0.000000	4.040428
1117.000000	0.000000	4.038435
1118.000000	0.000000	4.036258
1119.000000	0.000000	4.054075
1120.000000	0.000000	4.058419
1121.000000	0.000000	4.066600
1122.000000	0.000000	4.050249
1123.000000	0.000000	4.063747
1124.000000	0.000000	4.067944
1125.000000	0.000000	4.068628
1126.000000	0.000000	4.062947
1127.000000	0.000000	4.072390
1128.000000	0.000000	4.055153
1129.000000	0.000000	4.055391
1130.000000	0.000000	4.057478
1131.000000	0.000000	4.043943
1132.000000	0.000000	4.039605
1133.000000	0.000000	4.031334
1134.000000	0.000000	4.032581
1135.000000	0.000000	4.015971
1136.000000	0.000000	4.002911
1137.000000	0.000000	3.985179
1138.000000	0.000000	3.953783
1139.000000	0.000000	3.937791
1140.000000	0.000000	3.924655
1141.000000	0.000000	3.917036
1142.000000	0.000000	3.894340
1143.000000	0.000000	3.880505
1144.000000	0.000000	3.870464
1145.000000	0.000000	3.856479
1146.000000	0.000000	3.841643
1147.000000	0.000000	3.833755
1148.000000	0.000000	3.827901
1149.000000	0.000000	3.833956
1150.000000	0.000000	3.821531
1151.000000	0.000000	3.813666
1152.000000	0.000000	3.810854
1153.000000	0.000000	3.812159
1154.000000	0.000000	3.806518
1155.000000	0.000000	3.793307
1156.000000	0.000000	3.785839
1157.000000	0.000000	3.776242
1158.000000	0.000000	3.765193
1159.000000	0.000000	3.764693
1160.000000	0.000000	3.757710
1161.000000	0.000000	3.749184
1162.000000	0.000000	3.740980
1163.000000	0.000000	3.731367
1164.000000	0.000000	3.721754
1165.000000	0.000000	3.721752
1166.000000	0.000000	3.703446
1167.000000	0.000000	3.697410
1168.000000	0.000000	3.679764
1169.000000	0.000000	3.678804
1170.000000	0.000000	3.670137
1171.000000	0.000000	3.658801
1172.000000	0.000000	3.654437
1173.000000	0.000000	3.652515
1174.000000	0.000000	3.647094
1175.000000	0.000000	3.643304
1176.000000	0.000000	3.633116
1177.000000	0.000000	3.633809
1178.000000	0.000000	3.623791
1179.000000	0.000000	3.621801
1180.000000	0.000000	3.606465
1181.000000	0.000000	3.594737
1182.000000	0.000000	3.585403
1183.000000	0.000000	3.570942
1184.000000	0.000000	3.561075
1185.000000	0.000000	3.553735
1186.000000	0.000000	3.549811
1187.000000	0.000000	3.550344
1188.000000	0.000000	3.556172
1189.000000	0.000000	3.565200
1190.000000	0.000000	3.576590
1191.000000	0.000000	3.587284
1192.000000	0.000000	3.603883
1193.000000	0.000000	3.618219
1194.000000	0.000000	3.627789
1195.000000	0.000000	3.648615
1196.000000	0.000000	3.663839
1197.000000	0.000000	3.670164
1198.000000	0.000000	3.681508
1199.000000	0.000000	3.692719
1200.000000	0.000000	3.699257
1201.000000	0.000000	3.710829
1202.000000	0.000000	3.715990
1203.000000	0.000000	3.716859
1204.000000	0.000000	3.724649
1205.000000	0.000000	3.743504
1206.000000	0.000000	3.756361
1207.000000	0.000000	3.755300
1208.000000	0.000000	3.765129
1209.000000	0.000000	3.770998
1210.000000	0.000000	3.780741
1211.000000	0.000000	3.799935
1212.000000	0.000000	3.808350
1213.000000	0.000000	3.810620
1214.000000	0.000000	3.816086
1215.000000	0.000000	3.825144
1216.000000	0.000000	3.834099
1217.000000	0.000000	3.837099
1218.000000	0.000000	3.844850
1219.000000	0.000000	3.854626
1220.000000	0.000000	3.858349
1221.000000	0.000000	3.864424
1222.000000	0.000000	3.873041
1223.000000	0.000000	3.873560
1224.000000	0.000000	3.871129
1225.000000	0.000000	3.878807
1226.000000	0.000000	3.887781
1227.000000	0.000000	3.903524
1228.000000	0.000000	3.913122
1229.000000	0.000000	3.919780
1230.000000	0.000000	3.928618
1231.000000	0.000000	3.934716
1232.000000	0.000000	3.947156
1233.000000	0.000000	3.954892
1234.000000	0.000000	3.960701
1235.000000	0.000000	3.968607
1236.000000	0.000000	3.978852
1237.000000	0.000000	3.983426
1238.000000	0.000000	3.988156
1239.000000	0.000000	3.995592
1240.000000	0.000000	3.999599
1241.000000	0.000000	4.005395
1242.000000	0.000000	4.014090
1243.000000	0.000000	4.023042
1244.000000	0.000000	4.026873
1245.000000	0.000000	4.028146
1246.000000	0.000000	4.028135
1247.000000	0.000000	4.025705
1248.000000	0.000000	4.032711
1249.000000	0.000000	4.036965
1250.000000	0.000000	4.034501
1251.000000	0.000000	4.045886
1252.000000	0.000000	4.054448
1253.000000	0.000000	4.052123
1254.000000	0.000000	4.051862
1255.000000	0.000000	4.065283
1256.000000	0.000000	4.060146
1257.000000	0.000000	4.066284
1258.000000	0.000000	4.067634
1259.000000	0.000000	4.066780
1260.000000	0.000000	4.065712
1261.000000	0.000000	4.066111
1262.000000	0.000000	4.069725
1263.000000	0.000000	4.067956
1264.000000	0.000000	4.068512
1265.000000	0.000000	4.061007
1266.000000	0.000000	4.067854
1267.000000	0.000000	4.070364
1268.000000	0.000000	4.068151
1269.000000	0.000000	4.073949
1270.000000	0.000000	4.080447
1271.000000	0.000000	4.068168
1272.000000	0.000000	4.071953
1273.000000	0.000000	4.080687
1274.000000	0.000000	4.081307
1275.000000	0.000000	4.088039
1276.000000	0.000000	4.089554
1277.000000	0.000000	4.085100
1278.000000	0.000000	4.084569
1279.000000	0.000000	4.084053
1280.000000	0.000000	4.090184
1281.000000	0.000000	4.095014
1282.000000	0.000000	4.100071
1283.000000	0.000000	4.103781
1284.000000	0.000000	4.101225
1285.000000	0.000000	4.114168
1286.000000	0.000000	4.112110
1287.000000	0.000000	4.109440
1288.000000	0.000000	4.121648
1289.000000	0.000000	4.135718
1290.000000	0.000000	4.128213
1291.000000	0.000000	4.130901
1292.000000	0.000000	4.130164
1293.000000	0.000000	4.130787
1294.000000	0.000000	4.133124
1295.000000	0.000000	4.136733
1296.000000	0.000000	4.147354
1297.000000	0.000000	4.146628
1298.000000	0.000000	4.148465
1299.000000	0.000000	4.141592
1300.000000	0.000000	4.141607
1301.000000	0.000000	4.137848
1302.000000	0.000000	4.139931
1303.000000	0.000000	4.138698
1304.000000	0.000000	4.140119
1305.000000	0.000000	4.140963
1306.000000	0.000000	4.139854
1307.000000	0.000000	4.146317
1308.000000	0.000000	4.137681
1309.000000	0.000000	4.123608
1310.000000	0.000000	4.116806
1311.000000	0.000000	4.107227
1312.000000	0.000000	4.112667
1313.000000	0.000000	4.113698
1314.000000	0.000000	4.095121
1315.000000	0.000000	4.089938
1316.000000	0.000000	4.070854
1317.000000	0.000000	4.080255
1318.000000	0.000000	4.070471
1319.000000	0.000000	4.049563
1320.000000	0.000000	4.032342
1321.000000	0.000000	4.024260
1322.000000	0.000000	4.010411
1323.000000	0.000000	4.008466
1324.000000	0.000000	3.985867
1325.000000	0.000000	3.973708
1326.000000	0.000000	3.956637
1327.000000	0.000000	3.942784
1328.000000	0.000000	3.930583
1329.000000	0.000000	3.905826
1330.000000	0.000000	3.893366
1331.000000	0.000000	3.884032
1332.000000	0.000000	3.847945
1333.000000	0.000000	3.834669
1334.000000	0.000000	3.821627
1335.000000	0.000000	3.803466
1336.000000	0.000000	3.769902
1337.000000	0.000000	3.759412
1338.000000	0.000000	3.749200
1339.000000	0.000000	3.723826
1340.000000	0.000000	3.706737
1341.000000	0.000000	3.682517
1342.000000	0.000000	3.670911
1343.000000	0.000000	3.659465
1344.000000	0.000000	3.638437
1345.000000	0.000000	3.620110
1346.000000	0.000000	3.609749
1347.000000	0.000000	3.582927
1348.000000	0.000000	3.589754
1349.000000	0.000000	3.570215
1350.000000	0.000000	3.562214
1351.000000	0.000000	3.544492
1352.000000	0.000000	3.564584
1353.000000	0.000000	3.528176
1354.000000	0.000000	3.507730
1355.000000	0.000000	3.499341
1356.000000	0.000000	3.466485
1357.000000	0.000000	3.480498
1358.000000	0.000000	3.478189
1359.000000	0.000000	3.478558
1360.000000	0.000000	3.478212
1361.000000	0.000000	3.483478
1362.000000	0.000000	3.474038
1363.000000	0.000000	3.456651
1364.000000	0.000000	3.477535
1365.000000	0.000000	3.455798
1366.000000	0.000000	3.458552
1367.000000	0.000000	3.454021
1368.000000	0.000000	3.452516
1369.000000	0.000000	3.425102
1370.000000	0.000000	3.420587
1371.000000	0.000000	3.402832
1372.000000	0.000000	3.389668
1373.000000	0.000000	3.388983
1374.000000	0.000000	3.361985
1375.000000	0.000000	3.361654
1376.000000	0.000000	3.352920
1377.000000	0.000000	3.354804
1378.000000	0.000000	3.368034
1379.000000	0.000000	3.367047
1380.000000	0.000000	3.328264
1381.000000	0.000000	3.367616
1382.000000	0.000000	3.334744
1383.000000	0.000000	3.309207
1384.000000	0.000000	3.281112
1385.000000	0.000000	3.238257
1386.000000	0.000000	3.205564
1387.000000	0.000000	3.179512
1388.000000	0.000000	3.175750
1389.000000	0.000000	3.121639
1390.000000	0.000000	3.107944
1391.000000	0.000000	3.075963
1392.000000	0.000000	3.063972
1393.000000	0.000000	3.001553
1394.000000	0.000000	2.983183
1395.000000	0.000000	2.956381
1396.000000	0.000000	2.917301
1397.000000	0.000000	2.883150
1398.000000	0.000000	2.842219
1399.000000	0.000000	2.835426
1400.000000	0.000000	2.804210
1401.000000	0.000000	2.771848
1402.000000	0.000000	2.732117
1403.000000	0.000000	2.721846
1404.000000	0.000000	2.678345
1405.000000	0.000000	2.654619
1406.000000	0.000000	2.614526
1407.000000	0.000000	2.594984
1408.000000	0.000000	2.588222
1409.000000	0.000000	2.565108
1410.000000	0.000000	2.527948
1411.000000	0.000000	2.506928
1412.000000	0.000000	2.460990
1413.000000	0.000000	2.430551
1414.000000	0.000000	2.423144
1415.000000	0.000000	2.398955
1416.000000	0.000000	2.367982
1417.000000	0.000000	2.334922
1418.000000	0.000000	2.324808
1419.000000	0.000000	2.318648
1420.000000	0.000000	2.282541
1421.000000	0.000000	2.268541
1422.000000	0.000000	2.265059
1423.000000	0.000000	2.242657
1424.000000	0.000000	2.215838
1425.000000	0.000000	2.205863
1426.000000	0.000000	2.199639
1427.000000	0.000000	2.191663
1428.000000	0.000000	2.179400
1429.000000	0.000000	2.158773
1430.000000	0.000000	2.154984
1431.000000	0.000000	2.150672
1432.000000	0.000000	2.134742
1433.000000	0.000000	2.128554
1434.000000	0.000000	2.125448
1435.000000	0.000000	2.110339
1436.000000	0.000000	2.107903
1437.000000	0.000000	2.102996
1438.000000	0.000000	2.113556
1439.000000	0.000000	2.104670
1440.000000	0.000000	2.102326
1441.000000	0.000000	2.097175
1442.000000	0.000000	2.093422
1443.000000	0.000000	2.090794
1444.000000	0.000000	2.089044
1445.000000	0.000000	2.095494
1446.000000	0.000000	2.087584
1447.000000	0.000000	2.084644
1448.000000	0.000000	2.096426
1449.000000	0.000000	2.092551
1450.000000	0.000000	2.091271
1451.000000	0.000000	2.092333
1452.000000	0.000000	2.102060
1453.000000	0.000000	2.099093
1454.000000	0.000000	2.107878
1455.000000	0.000000	2.113830
1456.000000	0.000000	2.107679
1457.000000	0.000000	2.109432
1458.000000	0.000000	2.106152
1459.000000	0.000000	2.117081
1460.000000	0.000000	2.121688
1461.000000	0.000000	2.109165
1462.000000	0.000000	2.120424
1463.000000	0.000000	2.140341
1464.000000	0.000000	2.136608
1465.000000	0.000000	2.139451
1466.000000	0.000000	2.143163
1467.000000	0.000000	2.138114
1468.000000	0.000000	2.134202
1469.000000	0.000000	2.143586
1470.000000	0.000000	2.151502
1471.000000	0.000000	2.154820
1472.000000	0.000000	2.152929
1473.000000	0.000000	2.160203
1474.000000	0.000000	2.155601
1475.000000	0.000000	2.148236
1476.000000	0.000000	2.151006
1477.000000	0.000000	2.161984
1478.000000	0.000000	2.162850
1479.000000	0.000000	2.146667
1480.000000	0.000000	2.146610
1481.000000	0.000000	2.157290
1482.000000	0.000000	2.159892
1483.000000	0.000000	2.159063
1484.000000	0.000000	2.154503
1485.000000	0.000000	2.148340
1486.000000	0.000000	2.146554
1487.000000	0.000000	2.140735
1488.000000	0.000000	2.149515
1489.000000	0.000000	2.159879
1490.000000	0.000000	2.161541
1491.000000	0.000000	2.153428
1492.000000	0.000000	2.152462
1493.000000	0.000000	2.143613
1494.000000	0.000000	2.140274
1495.000000	0.000000	2.140756
1496.000000	0.000000	2.142388
1497.000000	0.000000	2.141180
1498.000000	0.000000	2.139309
1499.000000	0.000000	2.139765
1500.000000	0.000000	2.142602
1501.000000	0.000000	2.140703
1502.000000	0.000000	2.132584
1503.000000	0.000000	2.131035
1504.000000	0.000000	2.133720
1505.000000	0.000000	2.135352
1506.000000	0.000000	2.138185
1507.000000	0.000000	2.141533
1508.000000	0.000000	2.136652
1509.000000	0.000000	2.135831
1510.000000	0.000000	2.144739
1511.000000	0.000000	2.156705
1512.000000	0.000000	2.151876
1513.000000	0.000000	2.146089
1514.000000	0.000000	2.150800
1515.000000	0.000000	2.158138
1516.000000	0.000000	2.162257
1517.000000	0.000000	2.156402
1518.000000	0.000000	2.161224
1519.000000	0.000000	2.167313
1520.000000	0.000000	2.173005
1521.000000	0.000000	2.176285
1522.000000	0.000000	2.181558
1523.000000	0.000000	2.190629
1524.000000	0.000000	2.198600
1525.000000	0.000000	2.207252
1526.000000	0.000000	2.211546
1527.000000	0.000000	2.219097
1528.000000	0.000000	2.217498
1529.000000	0.000000	2.218648
1530.000000	0.000000	2.227679
1531.000000	0.000000	2.233898
1532.000000	0.000000	2.235915
1533.000000	0.000000	2.243514
1534.000000	0.000000	2.256174
1535.000000	0.000000	2.260373
1536.000000	0.000000	2.268335
1537.000000	0.000000	2.288245
1538.000000	0.000000	2.292703
1539.000000	0.000000	2.290553
1540.000000	0.000000	2.293735
1541.000000	0.000000	2.294843
1542.000000	0.000000	2.305875
1543.000000	0.000000	2.318458
1544.000000	0.000000	2.316320
1545.000000	0.000000	2.320886
1546.000000	0.000000	2.329995
1547.000000	0.000000	2.331705
1548.000000	0.000000	2.323315
1549.000000	0.000000	2.335710
1550.000000	0.000000	2.347475
1551.000000	0.000000	2.348183
1552.000000	0.000000	2.358346
1553.000000	0.000000	2.371939
1554.000000	0.000000	2.382832
1555.000000	0.000000	2.397291
1556.000000	0.000000	2.402939
1557.000000	0.000000	2.405722
1558.000000	0.000000	2.414448
1559.000000	0.000000	2.414865
1560.000000	0.000000	2.428516
1561.000000	0.000000	2.443040
1562.000000	0.000000	2.449801
1563.000000	0.000000	2.449613
1564.000000	0.000000	2.460574
1565.000000	0.000000	2.465426
1566.000000	0.000000	2.467810
1567.000000	0.000000	2.478283
1568.000000	0.000000	2.484162
1569.000000	0.000000	2.484089
1570.000000	0.000000	2.492520
1571.000000	0.000000	2.492004
1572.000000	0.000000	2.497488
1573.000000	0.000000	2.509830
1574.000000	0.000000	2.514484
1575.000000	0.000000	2.513500
1576.000000	0.000000	2.512663
1577.000000	0.000000	2.510282
1578.000000	0.000000	2.510004
1579.000000	0.000000	2.516828
1580.000000	0.000000	2.511466
1581.000000	0.000000	2.517112
1582.000000	0.000000	2.529341
1583.000000	0.000000	2.528779
1584.000000	0.000000	2.526287
1585.000000	0.000000	2.520420
1586.000000	0.000000	2.524176
1587.000000	0.000000	2.539079
1588.000000	0.000000	2.543803
1589.000000	0.000000	2.541888
1590.000000	0.000000	2.538165
1591.000000	0.000000	2.543165
1592.000000	0.000000	2.545087
1593.000000	0.000000	2.548088
1594.000000	0.000000	2.541799
1595.000000	0.000000	2.543617
1596.000000	0.000000	2.546741
1597.000000	0.000000	2.550043
1598.000000	0.000000	2.544870
1599.000000	0.000000	2.535661
1600.000000	0.000000	2.541325
1601.000000	0.000000	2.544271
1602.000000	0.000000	2.547967
1603.000000	0.000000	2.553400
1604.000000	0.000000	2.548890
1605.000000	0.000000	2.551070
1606.000000	0.000000	2.549100
1607.000000	0.000000	2.548797
1608.000000	0.000000	2.551090
1609.000000	0.000000	2.542503
1610.000000	0.000000	2.550824
1611.000000	0.000000	2.555981
1612.000000	0.000000	2.555554
1613.000000	0.000000	2.554839
1614.000000	0.000000	2.542454
1615.000000	0.000000	2.548283
1616.000000	0.000000	2.542322
1617.000000	0.000000	2.547414
1618.000000	0.000000	2.541484
1619.000000	0.000000	2.549776
1620.000000	0.000000	2.544792
1621.000000	0.000000	2.549168
1622.000000	0.000000	2.541963
1623.000000	0.000000	2.544135
1624.000000	0.000000	2.551595
1625.000000	0.000000	2.546109
1626.000000	0.000000	2.554771
1627.000000	0.000000	2.550016
1628.000000	0.000000	2.551429
1629.000000	0.000000	2.554313
1630.000000	0.000000	2.543387
1631.000000	0.000000	2.549573
1632.000000	0.000000	2.556992
1633.000000	0.000000	2.550121
1634.000000	0.000000	2.569536
1635.000000	0.000000	2.560977
1636.000000	0.000000	2.557541
1637.000000	0.000000	2.571655
1638.000000	0.000000	2.574172
1639.000000	0.000000	2.567159
1640.000000	0.000000	2.574977
1641.000000	0.000000	2.591396
1642.000000	0.000000	2.584521
1643.000000	0.000000	2.596041
1644.000000	0.000000	2.584101
1645.000000	0.000000	2.590235
1646.000000	0.000000	2.601398
1647.000000	0.000000	2.599576
1648.000000	0.000000	2.595419
1649.000000	0.000000	2.606894
1650.000000	0.000000	2.606115
1651.000000	0.000000	2.610635
1652.000000	0.000000	2.613400
1653.000000	0.000000	2.619868
1654.000000	0.000000	2.625102
1655.000000	0.000000	2.614762
1656.000000	0.000000	2.615024
1657.000000	0.000000	2.641251
1658.000000	0.000000	2.628173
1659.000000	0.000000	2.640264
1660.000000	0.000000	2.642783
1661.000000	0.000000	2.639686
1662.000000	0.000000	2.641438
1663.000000	0.000000	2.646093
1664.000000	0.000000	2.647113
1665.000000	0.000000	2.650254
1666.000000	0.000000	2.653782
1667.000000	0.000000	2.642584
1668.000000	0.000000	2.666283
1669.000000	0.000000	2.656699
1670.000000	0.000000	2.668779
1671.000000	0.000000	2.669705
1672.000000	0.000000	2.662556
1673.000000	0.000000	2.648101
1674.000000	0.000000	2.647842
1675.000000	0.000000	2.630569
1676.000000	0.000000	2.633779
1677.000000	0.000000	2.632404
1678.000000	0.000000	2.635225
1679.000000	0.000000	2.607028
1680.000000	0.000000	2.607425
1681.000000	0.000000	2.589430
1682.000000	0.000000	2.583806
1683.000000	0.000000	2.573318
1684.000000	0.000000	2.569311
1685.000000	0.000000	2.573040
1686.000000	0.000000	2.555595
1687.000000	0.000000	2.564647
1688.000000	0.000000	2.572261
1689.000000	0.000000	2.558042
1690.000000	0.000000	2.551102
1691.000000	0.000000	2.560415
1692.000000	0.000000	2.555202
1693.000000	0.000000	2.570551
1694.000000	0.000000	2.555447
1695.000000	0.000000	2.561921
1696.000000	0.000000	2.580423
1697.000000	0.000000	2.567866
1698.000000	0.000000	2.573582
1699.000000	0.000000	2.595055
1700.000000	0.000000	2.622299
1701.000000	0.000000	2.625392
1702.000000	0.000000	2.632807
1703.000000	0.000000	2.646507
1704.000000	0.000000	2.659056
1705.000000	0.000000	2.671932
1706.000000	0.000000	2.680295
1707.000000	0.000000	2.698651
1708.000000	0.000000	2.703435
1709.000000	0.000000	2.707519
1710.000000	0.000000	2.706600
1711.000000	0.000000	2.707044
1712.000000	0.000000	2.717418
1713.000000	0.000000	2.713611
1714.000000	0.000000	2.723118
1715.000000	0.000000	2.715966
1716.000000	0.000000	2.722679
1717.000000	0.000000	2.729205
1718.000000	0.000000	2.730063
1719.000000	0.000000	2.728265
1720.000000	0.000000	2.725260
1721.000000	0.000000	2.723561
1722.000000	0.000000	2.726310
1723.000000	0.000000	2.726451
1724.000000	0.000000	2.726055
1725.000000	0.000000	2.717332
1726.000000	0.000000	2.708530
1727.000000	0.000000	2.685185
1728.000000	0.000000	2.689259
1729.000000	0.000000	2.691119
1730.000000	0.000000	2.687923
1731.000000	0.000000	2.668503
1732.000000	0.000000	2.656362
1733.000000	0.000000	2.638133
1734.000000	0.000000	2.625163
1735.000000	0.000000	2.615845
1736.000000	0.000000	2.587304
1737.000000	0.000000	2.585559
1738.000000	0.000000	2.581437
1739.000000	0.000000	2.570404
1740.000000	0.000000	2.559241
1741.000000	0.000000	2.545883
1742.000000	0.000000	2.536048
1743.000000	0.000000	2.541813
1744.000000	0.000000	2.539287
1745.000000	0.000000	2.533432
1746.000000	0.000000	2.535134
1747.000000	0.000000	2.539300
1748.000000	0.000000	2.540861
1749.000000	0.000000	2.530711
1750.000000	0.000000	2.542303
1751.000000	0.000000	2.540301
1752.000000	0.000000	2.538379
1753.000000	0.000000	2.543461
1754.000000	0.000000	2.537509
1755.000000	0.000000	2.527538
1756.000000	0.000000	2.531240
1757.000000	0.000000	2.537412
1758.000000	0.000000	2.530885
1759.000000	0.000000	2.526018
1760.000000	0.000000	2.522936
1761.000000	0.000000	2.523282
1762.000000	0.000000	2.520905
1763.000000	0.000000	2.524538
1764.000000	0.000000	2.516398
1765.000000	0.000000	2.509119
1766.000000	0.000000	2.503491
1767.000000	0.000000	2.496919
1768.000000	0.000000	2.495392
1769.000000	0.000000	2.483748
1770.000000	0.000000	2.482199
1771.000000	0.000000	2.479713
1772.000000	0.000000	2.471148
1773.000000	0.000000	2.481090
1774.000000	0.000000	2.485384
1775.000000	0.000000	2.479314
1776.000000	0.000000	2.477697
1777.000000	0.000000	2.479166
1778.000000	0.000000	2.481210
1779.000000	0.000000	2.487271
1780.000000	0.000000	2.486187
1781.000000	0.000000	2.483586
1782.000000	0.000000	2.487927
1783.000000	0.000000	2.490844
1784.000000	0.000000	2.493609
1785.000000	0.000000	2.491066
1786.000000	0.000000	2.487805
1787.000000	0.000000	2.491516
1788.000000	0.000000	2.503029
1789.000000	0.000000	2.509568
1790.000000	0.000000	2.506026
1791.000000	0.000000	2.507373
1792.000000	0.000000	2.521380
1793.000000	0.000000	2.528591
1794.000000	0.000000	2.528136
1795.000000	0.000000	2.535282
1796.000000	0.000000	2.536839
1797.000000	0.000000	2.531459
1798.000000	0.000000	2.537819
1799.000000	0.000000	2.549768
1800.000000	0.000000	2.557736
1801.000000	0.000000	2.562843
1802.000000	0.000000	2.567884
1803.000000	0.000000	2.566543
1804.000000	0.000000	2.576330
1805.000000	0.000000	2.583112
1806.000000	0.000000	2.578856
1807.000000	0.000000	2.578971
1808.000000	0.000000	2.584280
1809.000000	0.000000	2.587817
1810.000000	0.000000	2.596733
1811.000000	0.000000	2.600993
1812.000000	0.000000	2.599701
1813.000000	0.000000	2.609609
1814.000000	0.000000	2.613249
1815.000000	0.000000	2.612531
1816.000000	0.000000	2.611947
1817.000000	0.000000	2.623408
1818.000000	0.000000	2.639395
1819.000000	0.000000	2.640843
1820.000000	0.000000	2.635833
1821.000000	0.000000	2.642191
1822.000000	0.000000	2.645723
1823.000000	0.000000	2.648215
1824.000000	0.000000	2.649830
1825.000000	0.000000	2.649527
1826.000000	0.000000	2.652292
1827.000000	0.000000	2.667297
1828.000000	0.000000	2.665212
1829.000000	0.000000	2.675698
1830.000000	0.000000	2.680707
1831.000000	0.000000	2.670873
1832.000000	0.000000	2.676558
1833.000000	0.000000	2.677310
1834.000000	0.000000	2.691382
1835.000000	0.000000	2.697066
1836.000000	0.000000	2.712334
1837.000000	0.000000	2.718757
1838.000000	0.000000	2.723566
1839.000000	0.000000	2.723631
1840.000000	0.000000	2.712333
1841.000000	0.000000	2.727107
1842.000000	0.000000	2.714756
1843.000000	0.000000	2.690601
1844.000000	0.000000	2.682358
1845.000000	0.000000	2.697171
1846.000000	0.000000	2.702020
1847.000000	0.000000	2.707811
1848.000000	0.000000	2.703754
1849.000000	0.000000	2.675849
1850.000000	0.000000	2.656870
1851.000000	0.000000	2.668598
1852.000000	0.000000	2.667737
1853.000000	0.000000	2.652379
1854.000000	0.000000	2.654106
1855.000000	0.000000	2.652886
1856.000000	0.000000	2.638601
1857.000000	0.000000	2.634841
1858.000000	0.000000	2.635675
1859.000000	0.000000	2.618028
1860.000000	0.000000	2.595626
1861.000000	0.000000	2.578859
1862.000000	0.000000	2.566088
1863.000000	0.000000	2.554967
1864.000000	0.000000	2.541220
1865.000000	0.000000	2.535747
1866.000000	0.000000	2.527960
1867.000000	0.000000	2.532464
1868.000000	0.000000	2.522438
1869.000000	0.000000	2.529637
1870.000000	0.000000	2.512424
1871.000000	0.000000	2.488035
1872.000000	0.000000	2.456816
1873.000000	0.000000	2.418504
1874.000000	0.000000	2.390402
1875.000000	0.000000	2.359079
1876.000000	0.000000	2.313378
1877.000000	0.000000	2.281264
1878.000000	0.000000	2.245892
1879.000000	0.000000	2.215016
1880.000000	0.000000	2.187787
1881.000000	0.000000	2.167874
1882.000000	0.000000	2.126085
1883.000000	0.000000	2.083898
1884.000000	0.000000	2.056990
1885.000000	0.000000	2.017601
1886.000000	0.000000	1.976061
1887.000000	0.000000	1.919947
1888.000000	0.000000	1.895454
1889.000000	0.000000	1.854739
1890.000000	0.000000	1.814218
1891.000000	0.000000	1.770164
1892.000000	0.000000	1.723257
1893.000000	0.000000	1.668265
1894.000000	0.000000	1.633698
1895.000000	0.000000	1.595057
1896.000000	0.000000	1.572912
1897.000000	0.000000	1.540983
1898.000000	0.000000	1.511967
1899.000000	0.000000	1.488518
1900.000000	0.000000	1.445946
1901.000000	0.000000	1.407280
1902.000000	0.000000	1.378806
1903.000000	0.000000	1.336732
1904.000000	0.000000	1.330163
1905.000000	0.000000	1.305312
1906.000000	0.000000	1.278972
1907.000000	0.000000	1.256616
1908.000000	0.000000	1.222320
1909.000000	0.000000	1.202661
1910.000000	0.000000	1.195363
1911.000000	0.000000	1.181667
1912.000000	0.000000	1.161067
1913.000000	0.000000	1.151585
1914.000000	0.000000	1.135824
1915.000000	0.000000	1.106438
1916.000000	0.000000	1.090754
1917.000000	0.000000	1.082245
1918.000000	0.000000	1.055459
1919.000000	0.000000	1.059856
1920.000000	0.000000	1.031049
1921.000000	0.000000	1.027619
1922.000000	0.000000	1.022904
1923.000000	0.000000	1.026092
1924.000000	0.000000	1.003254
1925.000000	0.000000	0.974661
1926.000000	0.000000	0.993393
1927.000000	0.000000	0.983731
1928.000000	0.000000	0.981088
1929.000000	0.000000	0.962849
1930.000000	0.000000	0.972264
1931.000000	0.000000	0.974690
1932.000000	0.000000	0.952392
1933.000000	0.000000	0.961343
1934.000000	0.000000	0.949502
1935.000000	0.000000	0.947170
1936.000000	0.000000	0.960534
1937.000000	0.000000	0.963312
1938.000000	0.000000	0.951569
1939.000000	0.000000	0.944786
1940.000000	0.000000	0.956503
1941.000000	0.000000	0.951993
1942.000000	0.000000	0.945242
1943.000000	0.000000	0.962964
1944.000000	0.000000	0.967765
1945.000000	0.000000	0.956306
1946.000000	0.000000	0.972948
1947.000000	0.000000	0.965973
1948.000000	0.000000	0.975143
1949.000000	0.000000	0.978408
1950.000000	0.000000	0.995298
1951.000000	0.000000	0.986173
1952.000000	0.000000	0.995424
1953.000000	0.000000	0.998698
1954.000000	0.000000	1.016278
1955.000000	0.000000	1.028926
1956.000000	0.000000	1.017342
1957.000000	0.000000	1.020267
1958.000000	0.000000	1.050229
1959.000000	0.000000	1.040336
1960.000000	0.000000	1.053792
1961.000000	0.000000	1.059548
1962.000000	0.000000	1.070211
1963.000000	0.000000	1.061781
1964.000000	0.000000	1.088812
1965.000000	0.000000	1.080340
1966.000000	0.000000	1.091141
1967.000000	0.000000	1.092620
1968.000000	0.000000	1.106656
1969.000000	0.000000	1.109697
1970.000000	0.000000	1.122322
1971.000000	0.000000	1.130852
1972.000000	0.000000	1.130241
1973.000000	0.000000	1.167528
1974.000000	0.000000	1.177462
1975.000000	0.000000	1.173208
1976.000000	0.000000	1.178012
1977.000000	0.000000	1.186677
1978.000000	0.000000	1.199922
1979.000000	0.000000	1.218602
1980.000000	0.000000	1.213433
1981.000000	0.000000	1.219166
1982.000000	0.000000	1.237798
1983.000000	0.000000	1.250962
1984.000000	0.000000	1.252235
1985.000000	0.000000	1.275806
1986.000000	0.000000	1.279412
1987.000000	0.000000	1.292170
1988.000000	0.000000	1.297792
1989.000000	0.000000	1.304132
1990.000000	0.000000	1.323539
1991.000000	0.000000	1.329505
1992.000000	0.000000	1.333027
1993.000000	0.000000	1.352476
1994.000000	0.000000	1.357559
1995.000000	0.000000	1.364287
1996.000000	0.000000	1.374707
1997.000000	0.000000	1.391154
1998.000000	0.000000	1.398620
1999.000000	0.000000	1.406355
