PE UV       SUBTECH     SPECTRUM    ASCII       PEDS        4.00        
   -1
CICIMAUCR0234-3.ASC
24/06/17
14:16:11.00
24/06/17
14:16:11.00
Vinicio Soto Monge
C. resplendens. Sex M. Dorsal. 
250,000000
1
Lambda 1050
1050L1511233
PerkinElmer UV WinLab 6.3.2.0749 / 2.02.05 Lambda 900 UV/VIS/NIR, Aug  7 2015 09:38:08

0
0
3350/servo 860,8/2
0
0
UV/VIS
1
1
1
DoubleDePol,CommonBeamDepol,RBeamAtt,SBeamAtt,60mm sphere, WB InGaAs Detector
0
0
0
0
Program
Program
3350/servo 860,8/2
3350/0,2 860,8/0,2
3350/0,2 860,8/0,2
0
15.00
 
 
 
0
 
860,8
319,2
860,8
Front
100
on
S:100 R:100
0
0
0
0
 
0
 
 
 
0
 
 
0
0
0
0
0
 
 
 
 
0
0


0
0
#HDR
-1
-1
#GR
nm
%R
1.0
0.0
2500,000000
-1,000000
2251
8
91,076400
5,684200
#DATA
250.000000	0.000000	0.265404
251.000000	0.000000	0.254985
252.000000	0.000000	0.287437
253.000000	0.000000	0.268034
254.000000	0.000000	0.250062
255.000000	0.000000	0.251148
256.000000	0.000000	0.270477
257.000000	0.000000	0.258252
258.000000	0.000000	0.254092
259.000000	0.000000	0.266226
260.000000	0.000000	0.263425
261.000000	0.000000	0.281129
262.000000	0.000000	0.237298
263.000000	0.000000	0.225199
264.000000	0.000000	0.266173
265.000000	0.000000	0.242938
266.000000	0.000000	0.232881
267.000000	0.000000	0.236297
268.000000	0.000000	0.240203
269.000000	0.000000	0.229114
270.000000	0.000000	0.257831
271.000000	0.000000	0.253330
272.000000	0.000000	0.234323
273.000000	0.000000	0.238342
274.000000	0.000000	0.233708
275.000000	0.000000	0.244664
276.000000	0.000000	0.217368
277.000000	0.000000	0.225649
278.000000	0.000000	0.222657
279.000000	0.000000	0.209930
280.000000	0.000000	0.213782
281.000000	0.000000	0.222557
282.000000	0.000000	0.232530
283.000000	0.000000	0.233712
284.000000	0.000000	0.241928
285.000000	0.000000	0.225700
286.000000	0.000000	0.222630
287.000000	0.000000	0.219354
288.000000	0.000000	0.220358
289.000000	0.000000	0.230488
290.000000	0.000000	0.252200
291.000000	0.000000	0.262852
292.000000	0.000000	0.263465
293.000000	0.000000	0.253222
294.000000	0.000000	0.226295
295.000000	0.000000	0.221544
296.000000	0.000000	0.255551
297.000000	0.000000	0.261524
298.000000	0.000000	0.265327
299.000000	0.000000	0.264564
300.000000	0.000000	0.262404
301.000000	0.000000	0.257739
302.000000	0.000000	0.258715
303.000000	0.000000	0.266606
304.000000	0.000000	0.256181
305.000000	0.000000	0.254137
306.000000	0.000000	0.266373
307.000000	0.000000	0.263972
308.000000	0.000000	0.254648
309.000000	0.000000	0.257130
310.000000	0.000000	0.263782
311.000000	0.000000	0.249033
312.000000	0.000000	0.242168
313.000000	0.000000	0.252158
314.000000	0.000000	0.268433
315.000000	0.000000	0.251114
316.000000	0.000000	0.200152
317.000000	0.000000	0.163467
318.000000	0.000000	0.066265
319.000000	0.000000	0.173042
320.000000	0.000000	0.208040
321.000000	0.000000	0.084107
322.000000	0.000000	0.139458
323.000000	0.000000	0.150134
324.000000	0.000000	0.173478
325.000000	0.000000	0.221220
326.000000	0.000000	0.213999
327.000000	0.000000	0.063502
328.000000	0.000000	0.148614
329.000000	0.000000	0.204927
330.000000	0.000000	0.211162
331.000000	0.000000	0.238972
332.000000	0.000000	0.209282
333.000000	0.000000	0.140276
334.000000	0.000000	0.113461
335.000000	0.000000	0.166943
336.000000	0.000000	0.247917
337.000000	0.000000	0.228857
338.000000	0.000000	0.230860
339.000000	0.000000	0.196668
340.000000	0.000000	0.191904
341.000000	0.000000	0.161751
342.000000	0.000000	0.200119
343.000000	0.000000	0.208147
344.000000	0.000000	0.165157
345.000000	0.000000	0.260837
346.000000	0.000000	0.254632
347.000000	0.000000	0.219452
348.000000	0.000000	0.193987
349.000000	0.000000	0.232115
350.000000	0.000000	0.254261
351.000000	0.000000	0.243648
352.000000	0.000000	0.253054
353.000000	0.000000	0.249749
354.000000	0.000000	0.254885
355.000000	0.000000	0.227414
356.000000	0.000000	0.173314
357.000000	0.000000	0.145156
358.000000	0.000000	0.221382
359.000000	0.000000	0.249468
360.000000	0.000000	0.205667
361.000000	0.000000	0.231737
362.000000	0.000000	0.265397
363.000000	0.000000	0.237883
364.000000	0.000000	0.261030
365.000000	0.000000	0.271220
366.000000	0.000000	0.266714
367.000000	0.000000	0.268596
368.000000	0.000000	0.234918
369.000000	0.000000	0.208466
370.000000	0.000000	0.210218
371.000000	0.000000	0.243283
372.000000	0.000000	0.345954
373.000000	0.000000	0.291852
374.000000	0.000000	0.295537
375.000000	0.000000	0.228092
376.000000	0.000000	0.232731
377.000000	0.000000	0.243244
378.000000	0.000000	0.238241
379.000000	0.000000	0.253606
380.000000	0.000000	0.271879
381.000000	0.000000	0.276052
382.000000	0.000000	0.253786
383.000000	0.000000	0.274241
384.000000	0.000000	0.290307
385.000000	0.000000	0.293535
386.000000	0.000000	0.307757
387.000000	0.000000	0.318569
388.000000	0.000000	0.340429
389.000000	0.000000	0.341662
390.000000	0.000000	0.363493
391.000000	0.000000	0.386348
392.000000	0.000000	0.410337
393.000000	0.000000	0.432938
394.000000	0.000000	0.444101
395.000000	0.000000	0.483820
396.000000	0.000000	0.505200
397.000000	0.000000	0.534945
398.000000	0.000000	0.563480
399.000000	0.000000	0.611289
400.000000	0.000000	0.652801
401.000000	0.000000	0.666660
402.000000	0.000000	0.674540
403.000000	0.000000	0.727867
404.000000	0.000000	0.771137
405.000000	0.000000	0.807093
406.000000	0.000000	0.810896
407.000000	0.000000	0.835571
408.000000	0.000000	0.861813
409.000000	0.000000	0.879939
410.000000	0.000000	0.879593
411.000000	0.000000	0.883506
412.000000	0.000000	0.882803
413.000000	0.000000	0.878213
414.000000	0.000000	0.869097
415.000000	0.000000	0.871127
416.000000	0.000000	0.846434
417.000000	0.000000	0.824619
418.000000	0.000000	0.800446
419.000000	0.000000	0.762097
420.000000	0.000000	0.737962
421.000000	0.000000	0.701638
422.000000	0.000000	0.664408
423.000000	0.000000	0.615182
424.000000	0.000000	0.558245
425.000000	0.000000	0.509225
426.000000	0.000000	0.454876
427.000000	0.000000	0.412570
428.000000	0.000000	0.354158
429.000000	0.000000	0.298421
430.000000	0.000000	0.251340
431.000000	0.000000	0.186748
432.000000	0.000000	0.125957
433.000000	0.000000	0.078221
434.000000	0.000000	0.027058
435.000000	0.000000	0.021665
436.000000	0.000000	0.060053
437.000000	0.000000	0.084175
438.000000	0.000000	0.122358
439.000000	0.000000	0.156197
440.000000	0.000000	0.205874
441.000000	0.000000	0.265852
442.000000	0.000000	0.302073
443.000000	0.000000	0.298953
444.000000	0.000000	0.356507
445.000000	0.000000	0.388048
446.000000	0.000000	0.407069
447.000000	0.000000	0.413248
448.000000	0.000000	0.458194
449.000000	0.000000	0.449442
450.000000	0.000000	0.481972
451.000000	0.000000	0.478754
452.000000	0.000000	0.522949
453.000000	0.000000	0.531776
454.000000	0.000000	0.552902
455.000000	0.000000	0.588991
456.000000	0.000000	0.623264
457.000000	0.000000	0.633627
458.000000	0.000000	0.665860
459.000000	0.000000	0.701171
460.000000	0.000000	0.693676
461.000000	0.000000	0.736781
462.000000	0.000000	0.775397
463.000000	0.000000	0.821042
464.000000	0.000000	0.842934
465.000000	0.000000	0.880670
466.000000	0.000000	0.935012
467.000000	0.000000	0.975173
468.000000	0.000000	0.999858
469.000000	0.000000	1.058423
470.000000	0.000000	1.099826
471.000000	0.000000	1.145521
472.000000	0.000000	1.185021
473.000000	0.000000	1.201203
474.000000	0.000000	1.238774
475.000000	0.000000	1.243583
476.000000	0.000000	1.265317
477.000000	0.000000	1.269432
478.000000	0.000000	1.245993
479.000000	0.000000	1.199286
480.000000	0.000000	1.151953
481.000000	0.000000	1.061826
482.000000	0.000000	0.969143
483.000000	0.000000	0.836101
484.000000	0.000000	0.700510
485.000000	0.000000	0.522391
486.000000	0.000000	0.343455
487.000000	0.000000	0.123201
488.000000	0.000000	0.140722
489.000000	0.000000	0.386271
490.000000	0.000000	0.630115
491.000000	0.000000	0.929485
492.000000	0.000000	1.178171
493.000000	0.000000	1.452213
494.000000	0.000000	1.712437
495.000000	0.000000	1.950187
496.000000	0.000000	2.176890
497.000000	0.000000	2.383714
498.000000	0.000000	2.575725
499.000000	0.000000	2.686941
500.000000	0.000000	2.795771
501.000000	0.000000	2.891087
502.000000	0.000000	2.944836
503.000000	0.000000	2.937716
504.000000	0.000000	2.892758
505.000000	0.000000	2.837845
506.000000	0.000000	2.758005
507.000000	0.000000	2.647324
508.000000	0.000000	2.540095
509.000000	0.000000	2.440662
510.000000	0.000000	2.287063
511.000000	0.000000	2.192367
512.000000	0.000000	2.046883
513.000000	0.000000	1.978761
514.000000	0.000000	1.828633
515.000000	0.000000	1.730130
516.000000	0.000000	1.650330
517.000000	0.000000	1.584434
518.000000	0.000000	1.543282
519.000000	0.000000	1.511950
520.000000	0.000000	1.499329
521.000000	0.000000	1.493585
522.000000	0.000000	1.519188
523.000000	0.000000	1.548423
524.000000	0.000000	1.612023
525.000000	0.000000	1.688817
526.000000	0.000000	1.772859
527.000000	0.000000	1.858314
528.000000	0.000000	1.989651
529.000000	0.000000	2.112029
530.000000	0.000000	2.237753
531.000000	0.000000	2.375305
532.000000	0.000000	2.502297
533.000000	0.000000	2.663830
534.000000	0.000000	2.826598
535.000000	0.000000	2.971610
536.000000	0.000000	3.132805
537.000000	0.000000	3.282190
538.000000	0.000000	3.432842
539.000000	0.000000	3.538392
540.000000	0.000000	3.662181
541.000000	0.000000	3.751625
542.000000	0.000000	3.833189
543.000000	0.000000	3.887899
544.000000	0.000000	3.905920
545.000000	0.000000	3.898127
546.000000	0.000000	3.856351
547.000000	0.000000	3.788160
548.000000	0.000000	3.661299
549.000000	0.000000	3.529127
550.000000	0.000000	3.339348
551.000000	0.000000	3.135310
552.000000	0.000000	2.915396
553.000000	0.000000	2.705691
554.000000	0.000000	2.455359
555.000000	0.000000	2.216647
556.000000	0.000000	1.987154
557.000000	0.000000	1.759926
558.000000	0.000000	1.539245
559.000000	0.000000	1.340198
560.000000	0.000000	1.136975
561.000000	0.000000	0.971473
562.000000	0.000000	0.778045
563.000000	0.000000	0.646687
564.000000	0.000000	0.495671
565.000000	0.000000	0.389129
566.000000	0.000000	0.280421
567.000000	0.000000	0.160568
568.000000	0.000000	0.126515
569.000000	0.000000	0.167625
570.000000	0.000000	0.226900
571.000000	0.000000	0.307787
572.000000	0.000000	0.402709
573.000000	0.000000	0.473493
574.000000	0.000000	0.509685
575.000000	0.000000	0.601413
576.000000	0.000000	0.717810
577.000000	0.000000	0.779214
578.000000	0.000000	0.847401
579.000000	0.000000	0.909256
580.000000	0.000000	0.940270
581.000000	0.000000	0.979678
582.000000	0.000000	1.021961
583.000000	0.000000	1.071229
584.000000	0.000000	1.115351
585.000000	0.000000	1.156339
586.000000	0.000000	1.179342
587.000000	0.000000	1.215992
588.000000	0.000000	1.213093
589.000000	0.000000	1.221061
590.000000	0.000000	1.255893
591.000000	0.000000	1.277084
592.000000	0.000000	1.319151
593.000000	0.000000	1.364348
594.000000	0.000000	1.422331
595.000000	0.000000	1.491541
596.000000	0.000000	1.561715
597.000000	0.000000	1.628680
598.000000	0.000000	1.719329
599.000000	0.000000	1.823659
600.000000	0.000000	1.930655
601.000000	0.000000	2.031751
602.000000	0.000000	2.116230
603.000000	0.000000	2.231950
604.000000	0.000000	2.337111
605.000000	0.000000	2.478198
606.000000	0.000000	2.560558
607.000000	0.000000	2.656400
608.000000	0.000000	2.743427
609.000000	0.000000	2.829846
610.000000	0.000000	2.910411
611.000000	0.000000	2.998831
612.000000	0.000000	3.064361
613.000000	0.000000	3.109576
614.000000	0.000000	3.150657
615.000000	0.000000	3.185985
616.000000	0.000000	3.192346
617.000000	0.000000	3.229994
618.000000	0.000000	3.251435
619.000000	0.000000	3.254806
620.000000	0.000000	3.278718
621.000000	0.000000	3.311681
622.000000	0.000000	3.366134
623.000000	0.000000	3.417022
624.000000	0.000000	3.471955
625.000000	0.000000	3.541247
626.000000	0.000000	3.658771
627.000000	0.000000	3.791904
628.000000	0.000000	3.939722
629.000000	0.000000	4.102520
630.000000	0.000000	4.239197
631.000000	0.000000	4.387843
632.000000	0.000000	4.567363
633.000000	0.000000	4.711460
634.000000	0.000000	4.809607
635.000000	0.000000	4.882424
636.000000	0.000000	4.925821
637.000000	0.000000	4.915860
638.000000	0.000000	4.869746
639.000000	0.000000	4.776296
640.000000	0.000000	4.653193
641.000000	0.000000	4.529353
642.000000	0.000000	4.356535
643.000000	0.000000	4.162294
644.000000	0.000000	3.996060
645.000000	0.000000	3.853200
646.000000	0.000000	3.745652
647.000000	0.000000	3.691054
648.000000	0.000000	3.691167
649.000000	0.000000	3.766176
650.000000	0.000000	3.853167
651.000000	0.000000	3.926109
652.000000	0.000000	4.050936
653.000000	0.000000	4.234182
654.000000	0.000000	4.411820
655.000000	0.000000	4.534666
656.000000	0.000000	4.608251
657.000000	0.000000	4.701707
658.000000	0.000000	4.728271
659.000000	0.000000	4.668211
660.000000	0.000000	4.518047
661.000000	0.000000	4.326385
662.000000	0.000000	4.069495
663.000000	0.000000	3.718753
664.000000	0.000000	3.337168
665.000000	0.000000	2.911646
666.000000	0.000000	2.508224
667.000000	0.000000	2.118384
668.000000	0.000000	1.717758
669.000000	0.000000	1.336727
670.000000	0.000000	0.960108
671.000000	0.000000	0.635984
672.000000	0.000000	0.470185
673.000000	0.000000	0.508417
674.000000	0.000000	0.678803
675.000000	0.000000	0.894844
676.000000	0.000000	1.120762
677.000000	0.000000	1.324535
678.000000	0.000000	1.544731
679.000000	0.000000	1.814784
680.000000	0.000000	2.061696
681.000000	0.000000	2.337904
682.000000	0.000000	2.647591
683.000000	0.000000	2.974611
684.000000	0.000000	3.316227
685.000000	0.000000	3.647192
686.000000	0.000000	4.027847
687.000000	0.000000	4.405417
688.000000	0.000000	4.762425
689.000000	0.000000	5.068474
690.000000	0.000000	5.388248
691.000000	0.000000	5.647462
692.000000	0.000000	5.845424
693.000000	0.000000	6.001838
694.000000	0.000000	6.088990
695.000000	0.000000	6.144698
696.000000	0.000000	6.148735
697.000000	0.000000	6.053126
698.000000	0.000000	5.959694
699.000000	0.000000	5.823272
700.000000	0.000000	5.653847
701.000000	0.000000	5.468456
702.000000	0.000000	5.254276
703.000000	0.000000	4.996550
704.000000	0.000000	4.754599
705.000000	0.000000	4.598893
706.000000	0.000000	4.454290
707.000000	0.000000	4.306631
708.000000	0.000000	4.152524
709.000000	0.000000	4.017639
710.000000	0.000000	3.939085
711.000000	0.000000	3.820204
712.000000	0.000000	3.698946
713.000000	0.000000	3.630539
714.000000	0.000000	3.528953
715.000000	0.000000	3.433690
716.000000	0.000000	3.332671
717.000000	0.000000	3.250533
718.000000	0.000000	3.103878
719.000000	0.000000	2.978580
720.000000	0.000000	2.906526
721.000000	0.000000	2.819250
722.000000	0.000000	2.694441
723.000000	0.000000	2.544850
724.000000	0.000000	2.390609
725.000000	0.000000	2.242183
726.000000	0.000000	2.131165
727.000000	0.000000	1.950572
728.000000	0.000000	1.812640
729.000000	0.000000	1.737110
730.000000	0.000000	1.651505
731.000000	0.000000	1.543348
732.000000	0.000000	1.394959
733.000000	0.000000	1.327149
734.000000	0.000000	1.299133
735.000000	0.000000	1.340342
736.000000	0.000000	1.218772
737.000000	0.000000	1.148847
738.000000	0.000000	1.158076
739.000000	0.000000	1.155050
740.000000	0.000000	1.023773
741.000000	0.000000	1.021029
742.000000	0.000000	0.992865
743.000000	0.000000	0.992084
744.000000	0.000000	0.892060
745.000000	0.000000	0.896957
746.000000	0.000000	0.812880
747.000000	0.000000	0.744610
748.000000	0.000000	0.751656
749.000000	0.000000	0.751351
750.000000	0.000000	0.706307
751.000000	0.000000	0.622451
752.000000	0.000000	0.579884
753.000000	0.000000	0.616305
754.000000	0.000000	0.579902
755.000000	0.000000	0.506562
756.000000	0.000000	0.563780
757.000000	0.000000	0.500680
758.000000	0.000000	0.440668
759.000000	0.000000	0.376140
760.000000	0.000000	0.370180
761.000000	0.000000	0.380554
762.000000	0.000000	0.371519
763.000000	0.000000	0.387951
764.000000	0.000000	0.422639
765.000000	0.000000	0.298103
766.000000	0.000000	0.297096
767.000000	0.000000	0.358076
768.000000	0.000000	0.312190
769.000000	0.000000	0.343411
770.000000	0.000000	0.207254
771.000000	0.000000	0.263360
772.000000	0.000000	0.245458
773.000000	0.000000	0.286173
774.000000	0.000000	0.204009
775.000000	0.000000	0.228549
776.000000	0.000000	0.147759
777.000000	0.000000	0.163780
778.000000	0.000000	0.250267
779.000000	0.000000	0.213125
780.000000	0.000000	0.231603
781.000000	0.000000	0.362729
782.000000	0.000000	0.424250
783.000000	0.000000	0.316879
784.000000	0.000000	0.428910
785.000000	0.000000	0.363899
786.000000	0.000000	0.467981
787.000000	0.000000	0.332054
788.000000	0.000000	0.450439
789.000000	0.000000	0.504910
790.000000	0.000000	0.466823
791.000000	0.000000	0.591893
792.000000	0.000000	0.683679
793.000000	0.000000	0.698102
794.000000	0.000000	0.751438
795.000000	0.000000	0.779103
796.000000	0.000000	0.955493
797.000000	0.000000	0.985171
798.000000	0.000000	0.950584
799.000000	0.000000	1.000002
800.000000	0.000000	1.236021
801.000000	0.000000	1.258090
802.000000	0.000000	1.377021
803.000000	0.000000	1.432788
804.000000	0.000000	1.486215
805.000000	0.000000	1.542395
806.000000	0.000000	1.754869
807.000000	0.000000	1.751698
808.000000	0.000000	1.830578
809.000000	0.000000	1.882402
810.000000	0.000000	1.834292
811.000000	0.000000	2.035352
812.000000	0.000000	1.905455
813.000000	0.000000	2.084954
814.000000	0.000000	2.222891
815.000000	0.000000	2.024050
816.000000	0.000000	2.074209
817.000000	0.000000	2.254786
818.000000	0.000000	2.203479
819.000000	0.000000	2.250956
820.000000	0.000000	2.242220
821.000000	0.000000	2.442105
822.000000	0.000000	2.505958
823.000000	0.000000	2.599847
824.000000	0.000000	2.746405
825.000000	0.000000	2.686430
826.000000	0.000000	2.704861
827.000000	0.000000	2.692008
828.000000	0.000000	2.872898
829.000000	0.000000	2.851669
830.000000	0.000000	2.790315
831.000000	0.000000	2.881516
832.000000	0.000000	2.913409
833.000000	0.000000	3.033476
834.000000	0.000000	3.168778
835.000000	0.000000	3.098947
836.000000	0.000000	3.234299
837.000000	0.000000	3.053222
838.000000	0.000000	3.050265
839.000000	0.000000	3.153373
840.000000	0.000000	3.246326
841.000000	0.000000	3.130670
842.000000	0.000000	3.251375
843.000000	0.000000	3.237834
844.000000	0.000000	2.924040
845.000000	0.000000	3.236874
846.000000	0.000000	3.055932
847.000000	0.000000	2.856207
848.000000	0.000000	3.005373
849.000000	0.000000	2.885428
850.000000	0.000000	2.765398
851.000000	0.000000	2.608109
852.000000	0.000000	2.719147
853.000000	0.000000	2.946715
854.000000	0.000000	2.754875
855.000000	0.000000	2.628360
856.000000	0.000000	2.061504
857.000000	0.000000	2.694096
858.000000	0.000000	2.449429
859.000000	0.000000	2.409505
860.000000	0.000000	2.393012
861.000000	0.000000	2.354557
862.000000	0.000000	2.317680
863.000000	0.000000	2.302286
864.000000	0.000000	2.265305
865.000000	0.000000	2.260862
866.000000	0.000000	2.229628
867.000000	0.000000	2.211242
868.000000	0.000000	2.207116
869.000000	0.000000	2.191131
870.000000	0.000000	2.186545
871.000000	0.000000	2.095528
872.000000	0.000000	1.920129
873.000000	0.000000	1.683865
874.000000	0.000000	1.535755
875.000000	0.000000	1.355549
876.000000	0.000000	1.139349
877.000000	0.000000	0.952988
878.000000	0.000000	0.817928
879.000000	0.000000	0.659807
880.000000	0.000000	0.553462
881.000000	0.000000	0.426492
882.000000	0.000000	0.352743
883.000000	0.000000	0.307125
884.000000	0.000000	0.348087
885.000000	0.000000	0.414277
886.000000	0.000000	0.504342
887.000000	0.000000	0.616670
888.000000	0.000000	0.705982
889.000000	0.000000	0.785587
890.000000	0.000000	0.886802
891.000000	0.000000	1.005894
892.000000	0.000000	1.101668
893.000000	0.000000	1.220999
894.000000	0.000000	1.318014
895.000000	0.000000	1.390861
896.000000	0.000000	1.478549
897.000000	0.000000	1.563407
898.000000	0.000000	1.656152
899.000000	0.000000	1.763764
900.000000	0.000000	1.840489
901.000000	0.000000	1.904262
902.000000	0.000000	1.964775
903.000000	0.000000	2.009660
904.000000	0.000000	2.049781
905.000000	0.000000	2.092376
906.000000	0.000000	2.134785
907.000000	0.000000	2.158068
908.000000	0.000000	2.192565
909.000000	0.000000	2.217576
910.000000	0.000000	2.239274
911.000000	0.000000	2.262312
912.000000	0.000000	2.286165
913.000000	0.000000	2.277529
914.000000	0.000000	2.236464
915.000000	0.000000	2.232916
916.000000	0.000000	2.219236
917.000000	0.000000	2.200412
918.000000	0.000000	2.191349
919.000000	0.000000	2.184150
920.000000	0.000000	2.174400
921.000000	0.000000	2.146710
922.000000	0.000000	2.128300
923.000000	0.000000	2.117160
924.000000	0.000000	2.081937
925.000000	0.000000	2.043528
926.000000	0.000000	2.038717
927.000000	0.000000	2.034518
928.000000	0.000000	2.015986
929.000000	0.000000	1.992839
930.000000	0.000000	1.993360
931.000000	0.000000	2.006645
932.000000	0.000000	2.001957
933.000000	0.000000	1.999198
934.000000	0.000000	2.039690
935.000000	0.000000	2.066338
936.000000	0.000000	2.096820
937.000000	0.000000	2.111729
938.000000	0.000000	2.129628
939.000000	0.000000	2.176675
940.000000	0.000000	2.221138
941.000000	0.000000	2.261670
942.000000	0.000000	2.291539
943.000000	0.000000	2.324168
944.000000	0.000000	2.369041
945.000000	0.000000	2.385443
946.000000	0.000000	2.406105
947.000000	0.000000	2.449354
948.000000	0.000000	2.482862
949.000000	0.000000	2.516183
950.000000	0.000000	2.541842
951.000000	0.000000	2.542447
952.000000	0.000000	2.558387
953.000000	0.000000	2.595785
954.000000	0.000000	2.615946
955.000000	0.000000	2.627279
956.000000	0.000000	2.647771
957.000000	0.000000	2.663570
958.000000	0.000000	2.682442
959.000000	0.000000	2.692756
960.000000	0.000000	2.697574
961.000000	0.000000	2.706809
962.000000	0.000000	2.721276
963.000000	0.000000	2.730918
964.000000	0.000000	2.721099
965.000000	0.000000	2.701347
966.000000	0.000000	2.692168
967.000000	0.000000	2.691619
968.000000	0.000000	2.672250
969.000000	0.000000	2.657448
970.000000	0.000000	2.639399
971.000000	0.000000	2.624862
972.000000	0.000000	2.613114
973.000000	0.000000	2.599965
974.000000	0.000000	2.594307
975.000000	0.000000	2.589176
976.000000	0.000000	2.570789
977.000000	0.000000	2.554605
978.000000	0.000000	2.550230
979.000000	0.000000	2.542715
980.000000	0.000000	2.539014
981.000000	0.000000	2.523085
982.000000	0.000000	2.519041
983.000000	0.000000	2.514308
984.000000	0.000000	2.516495
985.000000	0.000000	2.521630
986.000000	0.000000	2.513381
987.000000	0.000000	2.519694
988.000000	0.000000	2.543829
989.000000	0.000000	2.563610
990.000000	0.000000	2.572760
991.000000	0.000000	2.585291
992.000000	0.000000	2.604547
993.000000	0.000000	2.629068
994.000000	0.000000	2.642355
995.000000	0.000000	2.672431
996.000000	0.000000	2.697635
997.000000	0.000000	2.717895
998.000000	0.000000	2.732343
999.000000	0.000000	2.768534
1000.000000	0.000000	2.804378
1001.000000	0.000000	2.823310
1002.000000	0.000000	2.835431
1003.000000	0.000000	2.864151
1004.000000	0.000000	2.901851
1005.000000	0.000000	2.935506
1006.000000	0.000000	2.968198
1007.000000	0.000000	3.010790
1008.000000	0.000000	3.046614
1009.000000	0.000000	3.071377
1010.000000	0.000000	3.121042
1011.000000	0.000000	3.155370
1012.000000	0.000000	3.203597
1013.000000	0.000000	3.230747
1014.000000	0.000000	3.278610
1015.000000	0.000000	3.322166
1016.000000	0.000000	3.348662
1017.000000	0.000000	3.383394
1018.000000	0.000000	3.434861
1019.000000	0.000000	3.475061
1020.000000	0.000000	3.515729
1021.000000	0.000000	3.557264
1022.000000	0.000000	3.598906
1023.000000	0.000000	3.634386
1024.000000	0.000000	3.661585
1025.000000	0.000000	3.674033
1026.000000	0.000000	3.710646
1027.000000	0.000000	3.747426
1028.000000	0.000000	3.752549
1029.000000	0.000000	3.751747
1030.000000	0.000000	3.778084
1031.000000	0.000000	3.785540
1032.000000	0.000000	3.774649
1033.000000	0.000000	3.791620
1034.000000	0.000000	3.794919
1035.000000	0.000000	3.797006
1036.000000	0.000000	3.789811
1037.000000	0.000000	3.792932
1038.000000	0.000000	3.788804
1039.000000	0.000000	3.795127
1040.000000	0.000000	3.781590
1041.000000	0.000000	3.780293
1042.000000	0.000000	3.777301
1043.000000	0.000000	3.765073
1044.000000	0.000000	3.760452
1045.000000	0.000000	3.758159
1046.000000	0.000000	3.748322
1047.000000	0.000000	3.742071
1048.000000	0.000000	3.732494
1049.000000	0.000000	3.747264
1050.000000	0.000000	3.742007
1051.000000	0.000000	3.752682
1052.000000	0.000000	3.753243
1053.000000	0.000000	3.760918
1054.000000	0.000000	3.773576
1055.000000	0.000000	3.767878
1056.000000	0.000000	3.771331
1057.000000	0.000000	3.784545
1058.000000	0.000000	3.804082
1059.000000	0.000000	3.820345
1060.000000	0.000000	3.838891
1061.000000	0.000000	3.854877
1062.000000	0.000000	3.880822
1063.000000	0.000000	3.900238
1064.000000	0.000000	3.908943
1065.000000	0.000000	3.951199
1066.000000	0.000000	3.969824
1067.000000	0.000000	4.013189
1068.000000	0.000000	4.047762
1069.000000	0.000000	4.091494
1070.000000	0.000000	4.121552
1071.000000	0.000000	4.161502
1072.000000	0.000000	4.190903
1073.000000	0.000000	4.221175
1074.000000	0.000000	4.254815
1075.000000	0.000000	4.292573
1076.000000	0.000000	4.321915
1077.000000	0.000000	4.335909
1078.000000	0.000000	4.380122
1079.000000	0.000000	4.405954
1080.000000	0.000000	4.442713
1081.000000	0.000000	4.441317
1082.000000	0.000000	4.453956
1083.000000	0.000000	4.487773
1084.000000	0.000000	4.493219
1085.000000	0.000000	4.505448
1086.000000	0.000000	4.531171
1087.000000	0.000000	4.526284
1088.000000	0.000000	4.546214
1089.000000	0.000000	4.537944
1090.000000	0.000000	4.543801
1091.000000	0.000000	4.549942
1092.000000	0.000000	4.540376
1093.000000	0.000000	4.545434
1094.000000	0.000000	4.532446
1095.000000	0.000000	4.515919
1096.000000	0.000000	4.512124
1097.000000	0.000000	4.513113
1098.000000	0.000000	4.507131
1099.000000	0.000000	4.496449
1100.000000	0.000000	4.490071
1101.000000	0.000000	4.464427
1102.000000	0.000000	4.472929
1103.000000	0.000000	4.459373
1104.000000	0.000000	4.437361
1105.000000	0.000000	4.440133
1106.000000	0.000000	4.425452
1107.000000	0.000000	4.427985
1108.000000	0.000000	4.424890
1109.000000	0.000000	4.399488
1110.000000	0.000000	4.384536
1111.000000	0.000000	4.373324
1112.000000	0.000000	4.373202
1113.000000	0.000000	4.363245
1114.000000	0.000000	4.359846
1115.000000	0.000000	4.349784
1116.000000	0.000000	4.344502
1117.000000	0.000000	4.342627
1118.000000	0.000000	4.326285
1119.000000	0.000000	4.331579
1120.000000	0.000000	4.329378
1121.000000	0.000000	4.342796
1122.000000	0.000000	4.336206
1123.000000	0.000000	4.331338
1124.000000	0.000000	4.332943
1125.000000	0.000000	4.334204
1126.000000	0.000000	4.345861
1127.000000	0.000000	4.360227
1128.000000	0.000000	4.356934
1129.000000	0.000000	4.368193
1130.000000	0.000000	4.376437
1131.000000	0.000000	4.398481
1132.000000	0.000000	4.409291
1133.000000	0.000000	4.429804
1134.000000	0.000000	4.450319
1135.000000	0.000000	4.462076
1136.000000	0.000000	4.458894
1137.000000	0.000000	4.482511
1138.000000	0.000000	4.498934
1139.000000	0.000000	4.508965
1140.000000	0.000000	4.524590
1141.000000	0.000000	4.542210
1142.000000	0.000000	4.560531
1143.000000	0.000000	4.567154
1144.000000	0.000000	4.571124
1145.000000	0.000000	4.568887
1146.000000	0.000000	4.556057
1147.000000	0.000000	4.528274
1148.000000	0.000000	4.502971
1149.000000	0.000000	4.468377
1150.000000	0.000000	4.452707
1151.000000	0.000000	4.427032
1152.000000	0.000000	4.411873
1153.000000	0.000000	4.405007
1154.000000	0.000000	4.402814
1155.000000	0.000000	4.423960
1156.000000	0.000000	4.437988
1157.000000	0.000000	4.455313
1158.000000	0.000000	4.473356
1159.000000	0.000000	4.499165
1160.000000	0.000000	4.529529
1161.000000	0.000000	4.556146
1162.000000	0.000000	4.582385
1163.000000	0.000000	4.610524
1164.000000	0.000000	4.636713
1165.000000	0.000000	4.679906
1166.000000	0.000000	4.711992
1167.000000	0.000000	4.743341
1168.000000	0.000000	4.769849
1169.000000	0.000000	4.808746
1170.000000	0.000000	4.847960
1171.000000	0.000000	4.877776
1172.000000	0.000000	4.912502
1173.000000	0.000000	4.943844
1174.000000	0.000000	4.970699
1175.000000	0.000000	5.007321
1176.000000	0.000000	5.044597
1177.000000	0.000000	5.088363
1178.000000	0.000000	5.137594
1179.000000	0.000000	5.194034
1180.000000	0.000000	5.254273
1181.000000	0.000000	5.316911
1182.000000	0.000000	5.361240
1183.000000	0.000000	5.400269
1184.000000	0.000000	5.409275
1185.000000	0.000000	5.406143
1186.000000	0.000000	5.390104
1187.000000	0.000000	5.363417
1188.000000	0.000000	5.315371
1189.000000	0.000000	5.255537
1190.000000	0.000000	5.193719
1191.000000	0.000000	5.131169
1192.000000	0.000000	5.067555
1193.000000	0.000000	5.025145
1194.000000	0.000000	4.987335
1195.000000	0.000000	4.958698
1196.000000	0.000000	4.945411
1197.000000	0.000000	4.940513
1198.000000	0.000000	4.930721
1199.000000	0.000000	4.928532
1200.000000	0.000000	4.930558
1201.000000	0.000000	4.934727
1202.000000	0.000000	4.936993
1203.000000	0.000000	4.936210
1204.000000	0.000000	4.937041
1205.000000	0.000000	4.933697
1206.000000	0.000000	4.934273
1207.000000	0.000000	4.946030
1208.000000	0.000000	4.941824
1209.000000	0.000000	4.917629
1210.000000	0.000000	4.906416
1211.000000	0.000000	4.905296
1212.000000	0.000000	4.894429
1213.000000	0.000000	4.878273
1214.000000	0.000000	4.863181
1215.000000	0.000000	4.856747
1216.000000	0.000000	4.841011
1217.000000	0.000000	4.821666
1218.000000	0.000000	4.809674
1219.000000	0.000000	4.795228
1220.000000	0.000000	4.770110
1221.000000	0.000000	4.750498
1222.000000	0.000000	4.731312
1223.000000	0.000000	4.702635
1224.000000	0.000000	4.688311
1225.000000	0.000000	4.668994
1226.000000	0.000000	4.637016
1227.000000	0.000000	4.618186
1228.000000	0.000000	4.595666
1229.000000	0.000000	4.570756
1230.000000	0.000000	4.550221
1231.000000	0.000000	4.524818
1232.000000	0.000000	4.501212
1233.000000	0.000000	4.486346
1234.000000	0.000000	4.467776
1235.000000	0.000000	4.448837
1236.000000	0.000000	4.436519
1237.000000	0.000000	4.415922
1238.000000	0.000000	4.394214
1239.000000	0.000000	4.379445
1240.000000	0.000000	4.356607
1241.000000	0.000000	4.345013
1242.000000	0.000000	4.339107
1243.000000	0.000000	4.320695
1244.000000	0.000000	4.318631
1245.000000	0.000000	4.324701
1246.000000	0.000000	4.319634
1247.000000	0.000000	4.311100
1248.000000	0.000000	4.320779
1249.000000	0.000000	4.318751
1250.000000	0.000000	4.318979
1251.000000	0.000000	4.314538
1252.000000	0.000000	4.307539
1253.000000	0.000000	4.314661
1254.000000	0.000000	4.319725
1255.000000	0.000000	4.317941
1256.000000	0.000000	4.311386
1257.000000	0.000000	4.309275
1258.000000	0.000000	4.308180
1259.000000	0.000000	4.297433
1260.000000	0.000000	4.304481
1261.000000	0.000000	4.302816
1262.000000	0.000000	4.293928
1263.000000	0.000000	4.294387
1264.000000	0.000000	4.292235
1265.000000	0.000000	4.281291
1266.000000	0.000000	4.276304
1267.000000	0.000000	4.268225
1268.000000	0.000000	4.260623
1269.000000	0.000000	4.253891
1270.000000	0.000000	4.253754
1271.000000	0.000000	4.248485
1272.000000	0.000000	4.232007
1273.000000	0.000000	4.225123
1274.000000	0.000000	4.223490
1275.000000	0.000000	4.207607
1276.000000	0.000000	4.193417
1277.000000	0.000000	4.182596
1278.000000	0.000000	4.175635
1279.000000	0.000000	4.170499
1280.000000	0.000000	4.160809
1281.000000	0.000000	4.148690
1282.000000	0.000000	4.147128
1283.000000	0.000000	4.129483
1284.000000	0.000000	4.116885
1285.000000	0.000000	4.118223
1286.000000	0.000000	4.093131
1287.000000	0.000000	4.081194
1288.000000	0.000000	4.074602
1289.000000	0.000000	4.063923
1290.000000	0.000000	4.056311
1291.000000	0.000000	4.052843
1292.000000	0.000000	4.047104
1293.000000	0.000000	4.028285
1294.000000	0.000000	4.027485
1295.000000	0.000000	4.022649
1296.000000	0.000000	4.006915
1297.000000	0.000000	3.989467
1298.000000	0.000000	3.979665
1299.000000	0.000000	3.967573
1300.000000	0.000000	3.969607
1301.000000	0.000000	3.945693
1302.000000	0.000000	3.926435
1303.000000	0.000000	3.922313
1304.000000	0.000000	3.914668
1305.000000	0.000000	3.892943
1306.000000	0.000000	3.882189
1307.000000	0.000000	3.873132
1308.000000	0.000000	3.865212
1309.000000	0.000000	3.845094
1310.000000	0.000000	3.848459
1311.000000	0.000000	3.826074
1312.000000	0.000000	3.828704
1313.000000	0.000000	3.814496
1314.000000	0.000000	3.806203
1315.000000	0.000000	3.786548
1316.000000	0.000000	3.769171
1317.000000	0.000000	3.771412
1318.000000	0.000000	3.770301
1319.000000	0.000000	3.753567
1320.000000	0.000000	3.745492
1321.000000	0.000000	3.722099
1322.000000	0.000000	3.730172
1323.000000	0.000000	3.724271
1324.000000	0.000000	3.728369
1325.000000	0.000000	3.730556
1326.000000	0.000000	3.710367
1327.000000	0.000000	3.715731
1328.000000	0.000000	3.705874
1329.000000	0.000000	3.705719
1330.000000	0.000000	3.701283
1331.000000	0.000000	3.713055
1332.000000	0.000000	3.716220
1333.000000	0.000000	3.710847
1334.000000	0.000000	3.725658
1335.000000	0.000000	3.746785
1336.000000	0.000000	3.736677
1337.000000	0.000000	3.730788
1338.000000	0.000000	3.751634
1339.000000	0.000000	3.765433
1340.000000	0.000000	3.789758
1341.000000	0.000000	3.798562
1342.000000	0.000000	3.808263
1343.000000	0.000000	3.837446
1344.000000	0.000000	3.849067
1345.000000	0.000000	3.871035
1346.000000	0.000000	3.869693
1347.000000	0.000000	3.926818
1348.000000	0.000000	3.945716
1349.000000	0.000000	4.001254
1350.000000	0.000000	4.045300
1351.000000	0.000000	4.101473
1352.000000	0.000000	4.154162
1353.000000	0.000000	4.226498
1354.000000	0.000000	4.287016
1355.000000	0.000000	4.321403
1356.000000	0.000000	4.335972
1357.000000	0.000000	4.326556
1358.000000	0.000000	4.309349
1359.000000	0.000000	4.286499
1360.000000	0.000000	4.297773
1361.000000	0.000000	4.312401
1362.000000	0.000000	4.334100
1363.000000	0.000000	4.321537
1364.000000	0.000000	4.335595
1365.000000	0.000000	4.334722
1366.000000	0.000000	4.349500
1367.000000	0.000000	4.381583
1368.000000	0.000000	4.394976
1369.000000	0.000000	4.403388
1370.000000	0.000000	4.444570
1371.000000	0.000000	4.484770
1372.000000	0.000000	4.496942
1373.000000	0.000000	4.499679
1374.000000	0.000000	4.522110
1375.000000	0.000000	4.506976
1376.000000	0.000000	4.493357
1377.000000	0.000000	4.440033
1378.000000	0.000000	4.414104
1379.000000	0.000000	4.384078
1380.000000	0.000000	4.384164
1381.000000	0.000000	4.398401
1382.000000	0.000000	4.401898
1383.000000	0.000000	4.405640
1384.000000	0.000000	4.403693
1385.000000	0.000000	4.337972
1386.000000	0.000000	4.324074
1387.000000	0.000000	4.282325
1388.000000	0.000000	4.229627
1389.000000	0.000000	4.148643
1390.000000	0.000000	4.074149
1391.000000	0.000000	4.011020
1392.000000	0.000000	3.946017
1393.000000	0.000000	3.879052
1394.000000	0.000000	3.822098
1395.000000	0.000000	3.811554
1396.000000	0.000000	3.771953
1397.000000	0.000000	3.694665
1398.000000	0.000000	3.646422
1399.000000	0.000000	3.645791
1400.000000	0.000000	3.657756
1401.000000	0.000000	3.648190
1402.000000	0.000000	3.587588
1403.000000	0.000000	3.606433
1404.000000	0.000000	3.580106
1405.000000	0.000000	3.576880
1406.000000	0.000000	3.555355
1407.000000	0.000000	3.551196
1408.000000	0.000000	3.551263
1409.000000	0.000000	3.536894
1410.000000	0.000000	3.504004
1411.000000	0.000000	3.468284
1412.000000	0.000000	3.432228
1413.000000	0.000000	3.420741
1414.000000	0.000000	3.405601
1415.000000	0.000000	3.384574
1416.000000	0.000000	3.366071
1417.000000	0.000000	3.336647
1418.000000	0.000000	3.335430
1419.000000	0.000000	3.322450
1420.000000	0.000000	3.320636
1421.000000	0.000000	3.301050
1422.000000	0.000000	3.282674
1423.000000	0.000000	3.275979
1424.000000	0.000000	3.268354
1425.000000	0.000000	3.266019
1426.000000	0.000000	3.266746
1427.000000	0.000000	3.248484
1428.000000	0.000000	3.244909
1429.000000	0.000000	3.241138
1430.000000	0.000000	3.215359
1431.000000	0.000000	3.214661
1432.000000	0.000000	3.207876
1433.000000	0.000000	3.211102
1434.000000	0.000000	3.212315
1435.000000	0.000000	3.192361
1436.000000	0.000000	3.197862
1437.000000	0.000000	3.186962
1438.000000	0.000000	3.189001
1439.000000	0.000000	3.182431
1440.000000	0.000000	3.184432
1441.000000	0.000000	3.191258
1442.000000	0.000000	3.192516
1443.000000	0.000000	3.186708
1444.000000	0.000000	3.194231
1445.000000	0.000000	3.195396
1446.000000	0.000000	3.197741
1447.000000	0.000000	3.201377
1448.000000	0.000000	3.199286
1449.000000	0.000000	3.215629
1450.000000	0.000000	3.216000
1451.000000	0.000000	3.217995
1452.000000	0.000000	3.221764
1453.000000	0.000000	3.220377
1454.000000	0.000000	3.226723
1455.000000	0.000000	3.226677
1456.000000	0.000000	3.218139
1457.000000	0.000000	3.222216
1458.000000	0.000000	3.219928
1459.000000	0.000000	3.219123
1460.000000	0.000000	3.227737
1461.000000	0.000000	3.231468
1462.000000	0.000000	3.231121
1463.000000	0.000000	3.231234
1464.000000	0.000000	3.234087
1465.000000	0.000000	3.224052
1466.000000	0.000000	3.223655
1467.000000	0.000000	3.226608
1468.000000	0.000000	3.227183
1469.000000	0.000000	3.221762
1470.000000	0.000000	3.231316
1471.000000	0.000000	3.240951
1472.000000	0.000000	3.224094
1473.000000	0.000000	3.235305
1474.000000	0.000000	3.251418
1475.000000	0.000000	3.245165
1476.000000	0.000000	3.234033
1477.000000	0.000000	3.247206
1478.000000	0.000000	3.261361
1479.000000	0.000000	3.267287
1480.000000	0.000000	3.268789
1481.000000	0.000000	3.276738
1482.000000	0.000000	3.289976
1483.000000	0.000000	3.307330
1484.000000	0.000000	3.320442
1485.000000	0.000000	3.323603
1486.000000	0.000000	3.343809
1487.000000	0.000000	3.358060
1488.000000	0.000000	3.358383
1489.000000	0.000000	3.373472
1490.000000	0.000000	3.380925
1491.000000	0.000000	3.387040
1492.000000	0.000000	3.395141
1493.000000	0.000000	3.413754
1494.000000	0.000000	3.433747
1495.000000	0.000000	3.445359
1496.000000	0.000000	3.445666
1497.000000	0.000000	3.454180
1498.000000	0.000000	3.466953
1499.000000	0.000000	3.481815
1500.000000	0.000000	3.508189
1501.000000	0.000000	3.525396
1502.000000	0.000000	3.531259
1503.000000	0.000000	3.538639
1504.000000	0.000000	3.555565
1505.000000	0.000000	3.575180
1506.000000	0.000000	3.584135
1507.000000	0.000000	3.593826
1508.000000	0.000000	3.604640
1509.000000	0.000000	3.631663
1510.000000	0.000000	3.653093
1511.000000	0.000000	3.658019
1512.000000	0.000000	3.675367
1513.000000	0.000000	3.692095
1514.000000	0.000000	3.699929
1515.000000	0.000000	3.711678
1516.000000	0.000000	3.728653
1517.000000	0.000000	3.738923
1518.000000	0.000000	3.753837
1519.000000	0.000000	3.771809
1520.000000	0.000000	3.778221
1521.000000	0.000000	3.788876
1522.000000	0.000000	3.807887
1523.000000	0.000000	3.823897
1524.000000	0.000000	3.838010
1525.000000	0.000000	3.850683
1526.000000	0.000000	3.852212
1527.000000	0.000000	3.866623
1528.000000	0.000000	3.887534
1529.000000	0.000000	3.890021
1530.000000	0.000000	3.894923
1531.000000	0.000000	3.916633
1532.000000	0.000000	3.941750
1533.000000	0.000000	3.945915
1534.000000	0.000000	3.945664
1535.000000	0.000000	3.955953
1536.000000	0.000000	3.977736
1537.000000	0.000000	3.989932
1538.000000	0.000000	4.012608
1539.000000	0.000000	4.022552
1540.000000	0.000000	4.017386
1541.000000	0.000000	4.032237
1542.000000	0.000000	4.050528
1543.000000	0.000000	4.070236
1544.000000	0.000000	4.089419
1545.000000	0.000000	4.106019
1546.000000	0.000000	4.118944
1547.000000	0.000000	4.121011
1548.000000	0.000000	4.136802
1549.000000	0.000000	4.160112
1550.000000	0.000000	4.176715
1551.000000	0.000000	4.205862
1552.000000	0.000000	4.212626
1553.000000	0.000000	4.214487
1554.000000	0.000000	4.228463
1555.000000	0.000000	4.245584
1556.000000	0.000000	4.265119
1557.000000	0.000000	4.269162
1558.000000	0.000000	4.274940
1559.000000	0.000000	4.283608
1560.000000	0.000000	4.297583
1561.000000	0.000000	4.304933
1562.000000	0.000000	4.304857
1563.000000	0.000000	4.315966
1564.000000	0.000000	4.326189
1565.000000	0.000000	4.331833
1566.000000	0.000000	4.347979
1567.000000	0.000000	4.346870
1568.000000	0.000000	4.345291
1569.000000	0.000000	4.352187
1570.000000	0.000000	4.350922
1571.000000	0.000000	4.346807
1572.000000	0.000000	4.356078
1573.000000	0.000000	4.372645
1574.000000	0.000000	4.374980
1575.000000	0.000000	4.388619
1576.000000	0.000000	4.396006
1577.000000	0.000000	4.409834
1578.000000	0.000000	4.411291
1579.000000	0.000000	4.407088
1580.000000	0.000000	4.406549
1581.000000	0.000000	4.420281
1582.000000	0.000000	4.430327
1583.000000	0.000000	4.429170
1584.000000	0.000000	4.443652
1585.000000	0.000000	4.448494
1586.000000	0.000000	4.439737
1587.000000	0.000000	4.453770
1588.000000	0.000000	4.461286
1589.000000	0.000000	4.463385
1590.000000	0.000000	4.459902
1591.000000	0.000000	4.483310
1592.000000	0.000000	4.487901
1593.000000	0.000000	4.490606
1594.000000	0.000000	4.470987
1595.000000	0.000000	4.482981
1596.000000	0.000000	4.494449
1597.000000	0.000000	4.500962
1598.000000	0.000000	4.493962
1599.000000	0.000000	4.498511
1600.000000	0.000000	4.511006
1601.000000	0.000000	4.505936
1602.000000	0.000000	4.525241
1603.000000	0.000000	4.532792
1604.000000	0.000000	4.531535
1605.000000	0.000000	4.541530
1606.000000	0.000000	4.538276
1607.000000	0.000000	4.544819
1608.000000	0.000000	4.546096
1609.000000	0.000000	4.541971
1610.000000	0.000000	4.554967
1611.000000	0.000000	4.556102
1612.000000	0.000000	4.562602
1613.000000	0.000000	4.557392
1614.000000	0.000000	4.557317
1615.000000	0.000000	4.553446
1616.000000	0.000000	4.555811
1617.000000	0.000000	4.558741
1618.000000	0.000000	4.570096
1619.000000	0.000000	4.578083
1620.000000	0.000000	4.571809
1621.000000	0.000000	4.566418
1622.000000	0.000000	4.567985
1623.000000	0.000000	4.560626
1624.000000	0.000000	4.562257
1625.000000	0.000000	4.579344
1626.000000	0.000000	4.567886
1627.000000	0.000000	4.576392
1628.000000	0.000000	4.573311
1629.000000	0.000000	4.568764
1630.000000	0.000000	4.563232
1631.000000	0.000000	4.572003
1632.000000	0.000000	4.574252
1633.000000	0.000000	4.562059
1634.000000	0.000000	4.576142
1635.000000	0.000000	4.548459
1636.000000	0.000000	4.549885
1637.000000	0.000000	4.552400
1638.000000	0.000000	4.532219
1639.000000	0.000000	4.554709
1640.000000	0.000000	4.540563
1641.000000	0.000000	4.533545
1642.000000	0.000000	4.533414
1643.000000	0.000000	4.529682
1644.000000	0.000000	4.530738
1645.000000	0.000000	4.526548
1646.000000	0.000000	4.511204
1647.000000	0.000000	4.516741
1648.000000	0.000000	4.509607
1649.000000	0.000000	4.521442
1650.000000	0.000000	4.498961
1651.000000	0.000000	4.501549
1652.000000	0.000000	4.483867
1653.000000	0.000000	4.495987
1654.000000	0.000000	4.496557
1655.000000	0.000000	4.487742
1656.000000	0.000000	4.478240
1657.000000	0.000000	4.492256
1658.000000	0.000000	4.466797
1659.000000	0.000000	4.467956
1660.000000	0.000000	4.465766
1661.000000	0.000000	4.456540
1662.000000	0.000000	4.454824
1663.000000	0.000000	4.444608
1664.000000	0.000000	4.440668
1665.000000	0.000000	4.439830
1666.000000	0.000000	4.440273
1667.000000	0.000000	4.440318
1668.000000	0.000000	4.433487
1669.000000	0.000000	4.443215
1670.000000	0.000000	4.445135
1671.000000	0.000000	4.448370
1672.000000	0.000000	4.475335
1673.000000	0.000000	4.487133
1674.000000	0.000000	4.514210
1675.000000	0.000000	4.563873
1676.000000	0.000000	4.583490
1677.000000	0.000000	4.625864
1678.000000	0.000000	4.683479
1679.000000	0.000000	4.733809
1680.000000	0.000000	4.775231
1681.000000	0.000000	4.782996
1682.000000	0.000000	4.797278
1683.000000	0.000000	4.787910
1684.000000	0.000000	4.759891
1685.000000	0.000000	4.718835
1686.000000	0.000000	4.705289
1687.000000	0.000000	4.696495
1688.000000	0.000000	4.668589
1689.000000	0.000000	4.682922
1690.000000	0.000000	4.707805
1691.000000	0.000000	4.715721
1692.000000	0.000000	4.736803
1693.000000	0.000000	4.739272
1694.000000	0.000000	4.754854
1695.000000	0.000000	4.740470
1696.000000	0.000000	4.720995
1697.000000	0.000000	4.693999
1698.000000	0.000000	4.667763
1699.000000	0.000000	4.643394
1700.000000	0.000000	4.614968
1701.000000	0.000000	4.599452
1702.000000	0.000000	4.588300
1703.000000	0.000000	4.567793
1704.000000	0.000000	4.554623
1705.000000	0.000000	4.531717
1706.000000	0.000000	4.531501
1707.000000	0.000000	4.513650
1708.000000	0.000000	4.488011
1709.000000	0.000000	4.471523
1710.000000	0.000000	4.441513
1711.000000	0.000000	4.430737
1712.000000	0.000000	4.415753
1713.000000	0.000000	4.379202
1714.000000	0.000000	4.358740
1715.000000	0.000000	4.328915
1716.000000	0.000000	4.295443
1717.000000	0.000000	4.267625
1718.000000	0.000000	4.246445
1719.000000	0.000000	4.215227
1720.000000	0.000000	4.185165
1721.000000	0.000000	4.161852
1722.000000	0.000000	4.135413
1723.000000	0.000000	4.134896
1724.000000	0.000000	4.132021
1725.000000	0.000000	4.138475
1726.000000	0.000000	4.143059
1727.000000	0.000000	4.158213
1728.000000	0.000000	4.159978
1729.000000	0.000000	4.194710
1730.000000	0.000000	4.205144
1731.000000	0.000000	4.222822
1732.000000	0.000000	4.244283
1733.000000	0.000000	4.251952
1734.000000	0.000000	4.259062
1735.000000	0.000000	4.272624
1736.000000	0.000000	4.270614
1737.000000	0.000000	4.268190
1738.000000	0.000000	4.258552
1739.000000	0.000000	4.233567
1740.000000	0.000000	4.221724
1741.000000	0.000000	4.201061
1742.000000	0.000000	4.192372
1743.000000	0.000000	4.167141
1744.000000	0.000000	4.163559
1745.000000	0.000000	4.158392
1746.000000	0.000000	4.143337
1747.000000	0.000000	4.130129
1748.000000	0.000000	4.117893
1749.000000	0.000000	4.108591
1750.000000	0.000000	4.103104
1751.000000	0.000000	4.090246
1752.000000	0.000000	4.086026
1753.000000	0.000000	4.080820
1754.000000	0.000000	4.074358
1755.000000	0.000000	4.081339
1756.000000	0.000000	4.078601
1757.000000	0.000000	4.076800
1758.000000	0.000000	4.079453
1759.000000	0.000000	4.088359
1760.000000	0.000000	4.093921
1761.000000	0.000000	4.093234
1762.000000	0.000000	4.103454
1763.000000	0.000000	4.095663
1764.000000	0.000000	4.082852
1765.000000	0.000000	4.068642
1766.000000	0.000000	4.067757
1767.000000	0.000000	4.073944
1768.000000	0.000000	4.065470
1769.000000	0.000000	4.056321
1770.000000	0.000000	4.049930
1771.000000	0.000000	4.033405
1772.000000	0.000000	4.026665
1773.000000	0.000000	4.027209
1774.000000	0.000000	4.018368
1775.000000	0.000000	4.012110
1776.000000	0.000000	4.005480
1777.000000	0.000000	3.995152
1778.000000	0.000000	3.992410
1779.000000	0.000000	3.983207
1780.000000	0.000000	3.968219
1781.000000	0.000000	3.967867
1782.000000	0.000000	3.964637
1783.000000	0.000000	3.967590
1784.000000	0.000000	3.957014
1785.000000	0.000000	3.943702
1786.000000	0.000000	3.935905
1787.000000	0.000000	3.921843
1788.000000	0.000000	3.903212
1789.000000	0.000000	3.894157
1790.000000	0.000000	3.901952
1791.000000	0.000000	3.902933
1792.000000	0.000000	3.895260
1793.000000	0.000000	3.889173
1794.000000	0.000000	3.887748
1795.000000	0.000000	3.884343
1796.000000	0.000000	3.876747
1797.000000	0.000000	3.871790
1798.000000	0.000000	3.864600
1799.000000	0.000000	3.856478
1800.000000	0.000000	3.865068
1801.000000	0.000000	3.873324
1802.000000	0.000000	3.869359
1803.000000	0.000000	3.853664
1804.000000	0.000000	3.841346
1805.000000	0.000000	3.849460
1806.000000	0.000000	3.853423
1807.000000	0.000000	3.845894
1808.000000	0.000000	3.837120
1809.000000	0.000000	3.821757
1810.000000	0.000000	3.818876
1811.000000	0.000000	3.828170
1812.000000	0.000000	3.828835
1813.000000	0.000000	3.832456
1814.000000	0.000000	3.833013
1815.000000	0.000000	3.837668
1816.000000	0.000000	3.822898
1817.000000	0.000000	3.804217
1818.000000	0.000000	3.795759
1819.000000	0.000000	3.797999
1820.000000	0.000000	3.819390
1821.000000	0.000000	3.843510
1822.000000	0.000000	3.828052
1823.000000	0.000000	3.789535
1824.000000	0.000000	3.754824
1825.000000	0.000000	3.741681
1826.000000	0.000000	3.739195
1827.000000	0.000000	3.737482
1828.000000	0.000000	3.739467
1829.000000	0.000000	3.726086
1830.000000	0.000000	3.723245
1831.000000	0.000000	3.707202
1832.000000	0.000000	3.674037
1833.000000	0.000000	3.649258
1834.000000	0.000000	3.627996
1835.000000	0.000000	3.625324
1836.000000	0.000000	3.641362
1837.000000	0.000000	3.644885
1838.000000	0.000000	3.630672
1839.000000	0.000000	3.630621
1840.000000	0.000000	3.635316
1841.000000	0.000000	3.654101
1842.000000	0.000000	3.646900
1843.000000	0.000000	3.602250
1844.000000	0.000000	3.567159
1845.000000	0.000000	3.517122
1846.000000	0.000000	3.524890
1847.000000	0.000000	3.551743
1848.000000	0.000000	3.554882
1849.000000	0.000000	3.540622
1850.000000	0.000000	3.499259
1851.000000	0.000000	3.456693
1852.000000	0.000000	3.435083
1853.000000	0.000000	3.426211
1854.000000	0.000000	3.411725
1855.000000	0.000000	3.368866
1856.000000	0.000000	3.356677
1857.000000	0.000000	3.320880
1858.000000	0.000000	3.309761
1859.000000	0.000000	3.318261
1860.000000	0.000000	3.280936
1861.000000	0.000000	3.265622
1862.000000	0.000000	3.237693
1863.000000	0.000000	3.196472
1864.000000	0.000000	3.160918
1865.000000	0.000000	3.129000
1866.000000	0.000000	3.106376
1867.000000	0.000000	3.084655
1868.000000	0.000000	3.074113
1869.000000	0.000000	3.069758
1870.000000	0.000000	3.077995
1871.000000	0.000000	3.076562
1872.000000	0.000000	3.066180
1873.000000	0.000000	3.057753
1874.000000	0.000000	3.046042
1875.000000	0.000000	3.056008
1876.000000	0.000000	3.044179
1877.000000	0.000000	3.033948
1878.000000	0.000000	3.018576
1879.000000	0.000000	2.994557
1880.000000	0.000000	2.975488
1881.000000	0.000000	2.953210
1882.000000	0.000000	2.925605
1883.000000	0.000000	2.909135
1884.000000	0.000000	2.846137
1885.000000	0.000000	2.784013
1886.000000	0.000000	2.731131
1887.000000	0.000000	2.660480
1888.000000	0.000000	2.582704
1889.000000	0.000000	2.507996
1890.000000	0.000000	2.428845
1891.000000	0.000000	2.352454
1892.000000	0.000000	2.286365
1893.000000	0.000000	2.220158
1894.000000	0.000000	2.142129
1895.000000	0.000000	2.060590
1896.000000	0.000000	2.005342
1897.000000	0.000000	1.962930
1898.000000	0.000000	1.915150
1899.000000	0.000000	1.877842
1900.000000	0.000000	1.823720
1901.000000	0.000000	1.770537
1902.000000	0.000000	1.741058
1903.000000	0.000000	1.707908
1904.000000	0.000000	1.668705
1905.000000	0.000000	1.638489
1906.000000	0.000000	1.617738
1907.000000	0.000000	1.586200
1908.000000	0.000000	1.545497
1909.000000	0.000000	1.507544
1910.000000	0.000000	1.489061
1911.000000	0.000000	1.475256
1912.000000	0.000000	1.455190
1913.000000	0.000000	1.447170
1914.000000	0.000000	1.429988
1915.000000	0.000000	1.398563
1916.000000	0.000000	1.383003
1917.000000	0.000000	1.365897
1918.000000	0.000000	1.347726
1919.000000	0.000000	1.337206
1920.000000	0.000000	1.335682
1921.000000	0.000000	1.338813
1922.000000	0.000000	1.314186
1923.000000	0.000000	1.313643
1924.000000	0.000000	1.295289
1925.000000	0.000000	1.288105
1926.000000	0.000000	1.286003
1927.000000	0.000000	1.283534
1928.000000	0.000000	1.280053
1929.000000	0.000000	1.292300
1930.000000	0.000000	1.274369
1931.000000	0.000000	1.265450
1932.000000	0.000000	1.267464
1933.000000	0.000000	1.260305
1934.000000	0.000000	1.273869
1935.000000	0.000000	1.263293
1936.000000	0.000000	1.262862
1937.000000	0.000000	1.263781
1938.000000	0.000000	1.264976
1939.000000	0.000000	1.273228
1940.000000	0.000000	1.266942
1941.000000	0.000000	1.286154
1942.000000	0.000000	1.272463
1943.000000	0.000000	1.274570
1944.000000	0.000000	1.288961
1945.000000	0.000000	1.296351
1946.000000	0.000000	1.291510
1947.000000	0.000000	1.300892
1948.000000	0.000000	1.287791
1949.000000	0.000000	1.284051
1950.000000	0.000000	1.297388
1951.000000	0.000000	1.293370
1952.000000	0.000000	1.312000
1953.000000	0.000000	1.317388
1954.000000	0.000000	1.318301
1955.000000	0.000000	1.331978
1956.000000	0.000000	1.321915
1957.000000	0.000000	1.327741
1958.000000	0.000000	1.338853
1959.000000	0.000000	1.325034
1960.000000	0.000000	1.361018
1961.000000	0.000000	1.374403
1962.000000	0.000000	1.377556
1963.000000	0.000000	1.375199
1964.000000	0.000000	1.368658
1965.000000	0.000000	1.374571
1966.000000	0.000000	1.388166
1967.000000	0.000000	1.388711
1968.000000	0.000000	1.402431
1969.000000	0.000000	1.408819
1970.000000	0.000000	1.417501
1971.000000	0.000000	1.424045
1972.000000	0.000000	1.433135
1973.000000	0.000000	1.416709
1974.000000	0.000000	1.424802
1975.000000	0.000000	1.438821
1976.000000	0.000000	1.443370
1977.000000	0.000000	1.466047
1978.000000	0.000000	1.470226
1979.000000	0.000000	1.469989
1980.000000	0.000000	1.490263
1981.000000	0.000000	1.489859
1982.000000	0.000000	1.499336
1983.000000	0.000000	1.513292
1984.000000	0.000000	1.532238
1985.000000	0.000000	1.530217
1986.000000	0.000000	1.548635
1987.000000	0.000000	1.556374
1988.000000	0.000000	1.553502
1989.000000	0.000000	1.554589
1990.000000	0.000000	1.566948
1991.000000	0.000000	1.573393
1992.000000	0.000000	1.580555
1993.000000	0.000000	1.605345
1994.000000	0.000000	1.603486
1995.000000	0.000000	1.595579
1996.000000	0.000000	1.616098
1997.000000	0.000000	1.618878
1998.000000	0.000000	1.619035
1999.000000	0.000000	1.641611
