PE UV       SUBTECH     SPECTRUM    ASCII       PEDS        4.00        
   -1
CICIMAUCR0233-3.Sample.ASC
24/06/13
17:34:49.00
24/06/13
17:34:49.00
Vinicio Soto Monge
C. resplendens. Sex F. Dorsal.
250,000000
1
Lambda 1050
1050L1511233
PerkinElmer UV WinLab 6.3.2.0749 / 2.02.05 Lambda 900 UV/VIS/NIR, Aug  7 2015 09:38:08

0
0
3350/servo 860,8/2
0
0
UV/VIS
1
1
1
DoubleDePol,CommonBeamDepol,RBeamAtt,SBeamAtt,60mm sphere, WB InGaAs Detector
0
0
0
0
Program
Program
3350/servo 860,8/2
3350/0,2 860,8/0,2
3350/0,2 860,8/0,2
0
15.00
 
 
 
0
 
860,8
319,2
860,8
Front
100
on
S:100 R:100
0
0
0
0
 
0
 
 
 
0
 
 
0
0
0
0
0
 
 
 
 
0
0


0
0
#HDR
-1
-1
#GR
nm
%R
1.0
0.0
2500,000000
-1,000000
2251
8
88,468100
5,541400
#DATA
250.000000	0.000000	0.081204
251.000000	0.000000	0.048155
252.000000	0.000000	0.057791
253.000000	0.000000	0.045865
254.000000	0.000000	0.033911
255.000000	0.000000	0.048863
256.000000	0.000000	0.060657
257.000000	0.000000	0.075416
258.000000	0.000000	0.077052
259.000000	0.000000	0.088288
260.000000	0.000000	0.066294
261.000000	0.000000	0.063250
262.000000	0.000000	0.043753
263.000000	0.000000	0.040012
264.000000	0.000000	0.040450
265.000000	0.000000	0.080508
266.000000	0.000000	0.078448
267.000000	0.000000	0.048452
268.000000	0.000000	0.056091
269.000000	0.000000	0.048633
270.000000	0.000000	0.054267
271.000000	0.000000	0.046794
272.000000	0.000000	0.057644
273.000000	0.000000	0.024645
274.000000	0.000000	0.053644
275.000000	0.000000	0.059053
276.000000	0.000000	0.048217
277.000000	0.000000	0.031323
278.000000	0.000000	0.037957
279.000000	0.000000	0.049994
280.000000	0.000000	0.034258
281.000000	0.000000	0.051142
282.000000	0.000000	0.066275
283.000000	0.000000	0.052889
284.000000	0.000000	0.043034
285.000000	0.000000	0.030507
286.000000	0.000000	0.047507
287.000000	0.000000	0.063815
288.000000	0.000000	0.034741
289.000000	0.000000	0.017009
290.000000	0.000000	0.031268
291.000000	0.000000	0.044073
292.000000	0.000000	0.028172
293.000000	0.000000	0.042438
294.000000	0.000000	0.040745
295.000000	0.000000	0.043454
296.000000	0.000000	0.016551
297.000000	0.000000	0.054038
298.000000	0.000000	0.071450
299.000000	0.000000	0.014392
300.000000	0.000000	0.040221
301.000000	0.000000	0.063509
302.000000	0.000000	0.031872
303.000000	0.000000	0.016369
304.000000	0.000000	0.010456
305.000000	0.000000	0.026165
306.000000	0.000000	0.029907
307.000000	0.000000	0.027415
308.000000	0.000000	0.005762
309.000000	0.000000	0.024899
310.000000	0.000000	0.026067
311.000000	0.000000	0.037692
312.000000	0.000000	0.036420
313.000000	0.000000	0.019701
314.000000	0.000000	0.025815
315.000000	0.000000	0.031805
316.000000	0.000000	0.262910
317.000000	0.000000	0.609633
318.000000	0.000000	0.349503
319.000000	0.000000	0.309331
320.000000	0.000000	0.348991
321.000000	0.000000	0.390666
322.000000	0.000000	0.334800
323.000000	0.000000	0.179547
324.000000	0.000000	0.489004
325.000000	0.000000	0.210440
326.000000	0.000000	0.247711
327.000000	0.000000	0.109675
328.000000	0.000000	0.145911
329.000000	0.000000	0.038266
330.000000	0.000000	0.028274
331.000000	0.000000	0.094160
332.000000	0.000000	0.207975
333.000000	0.000000	0.071133
334.000000	0.000000	0.124297
335.000000	0.000000	0.074803
336.000000	0.000000	0.059562
337.000000	0.000000	0.073611
338.000000	0.000000	0.105672
339.000000	0.000000	0.072638
340.000000	0.000000	0.207135
341.000000	0.000000	0.040880
342.000000	0.000000	0.126007
343.000000	0.000000	0.111135
344.000000	0.000000	0.046081
345.000000	0.000000	0.034603
346.000000	0.000000	0.135891
347.000000	0.000000	0.090948
348.000000	0.000000	0.063902
349.000000	0.000000	0.117965
350.000000	0.000000	0.121738
351.000000	0.000000	0.071603
352.000000	0.000000	0.021490
353.000000	0.000000	0.142300
354.000000	0.000000	0.189743
355.000000	0.000000	0.092055
356.000000	0.000000	0.088222
357.000000	0.000000	0.108856
358.000000	0.000000	0.126724
359.000000	0.000000	0.078167
360.000000	0.000000	0.088067
361.000000	0.000000	0.086009
362.000000	0.000000	0.084211
363.000000	0.000000	0.090699
364.000000	0.000000	0.088655
365.000000	0.000000	0.122826
366.000000	0.000000	0.070709
367.000000	0.000000	0.050083
368.000000	0.000000	0.053471
369.000000	0.000000	0.013651
370.000000	0.000000	0.060754
371.000000	0.000000	0.088165
372.000000	0.000000	0.080519
373.000000	0.000000	0.100115
374.000000	0.000000	0.089455
375.000000	0.000000	0.054506
376.000000	0.000000	0.059151
377.000000	0.000000	0.066738
378.000000	0.000000	0.077326
379.000000	0.000000	0.068768
380.000000	0.000000	0.067258
381.000000	0.000000	0.086433
382.000000	0.000000	0.110066
383.000000	0.000000	0.111181
384.000000	0.000000	0.116113
385.000000	0.000000	0.145446
386.000000	0.000000	0.162361
387.000000	0.000000	0.156160
388.000000	0.000000	0.181854
389.000000	0.000000	0.209835
390.000000	0.000000	0.231722
391.000000	0.000000	0.264539
392.000000	0.000000	0.306309
393.000000	0.000000	0.321936
394.000000	0.000000	0.349947
395.000000	0.000000	0.382815
396.000000	0.000000	0.401752
397.000000	0.000000	0.408964
398.000000	0.000000	0.429612
399.000000	0.000000	0.468897
400.000000	0.000000	0.489730
401.000000	0.000000	0.499116
402.000000	0.000000	0.518254
403.000000	0.000000	0.533790
404.000000	0.000000	0.535048
405.000000	0.000000	0.545305
406.000000	0.000000	0.563689
407.000000	0.000000	0.573855
408.000000	0.000000	0.573755
409.000000	0.000000	0.570061
410.000000	0.000000	0.550796
411.000000	0.000000	0.542414
412.000000	0.000000	0.565978
413.000000	0.000000	0.550725
414.000000	0.000000	0.547865
415.000000	0.000000	0.540017
416.000000	0.000000	0.516908
417.000000	0.000000	0.514687
418.000000	0.000000	0.528841
419.000000	0.000000	0.510058
420.000000	0.000000	0.504487
421.000000	0.000000	0.509813
422.000000	0.000000	0.495454
423.000000	0.000000	0.468521
424.000000	0.000000	0.465491
425.000000	0.000000	0.460196
426.000000	0.000000	0.466349
427.000000	0.000000	0.458100
428.000000	0.000000	0.442615
429.000000	0.000000	0.432504
430.000000	0.000000	0.424555
431.000000	0.000000	0.390783
432.000000	0.000000	0.387278
433.000000	0.000000	0.344282
434.000000	0.000000	0.344823
435.000000	0.000000	0.361445
436.000000	0.000000	0.293462
437.000000	0.000000	0.273008
438.000000	0.000000	0.279285
439.000000	0.000000	0.276921
440.000000	0.000000	0.274773
441.000000	0.000000	0.281044
442.000000	0.000000	0.298505
443.000000	0.000000	0.302336
444.000000	0.000000	0.318575
445.000000	0.000000	0.352607
446.000000	0.000000	0.408164
447.000000	0.000000	0.437064
448.000000	0.000000	0.491630
449.000000	0.000000	0.508200
450.000000	0.000000	0.548281
451.000000	0.000000	0.583957
452.000000	0.000000	0.624505
453.000000	0.000000	0.672111
454.000000	0.000000	0.680211
455.000000	0.000000	0.676376
456.000000	0.000000	0.675477
457.000000	0.000000	0.681460
458.000000	0.000000	0.669910
459.000000	0.000000	0.639968
460.000000	0.000000	0.620021
461.000000	0.000000	0.571083
462.000000	0.000000	0.499925
463.000000	0.000000	0.465423
464.000000	0.000000	0.384191
465.000000	0.000000	0.338532
466.000000	0.000000	0.247596
467.000000	0.000000	0.203332
468.000000	0.000000	0.136801
469.000000	0.000000	0.061862
470.000000	0.000000	0.026865
471.000000	0.000000	0.035134
472.000000	0.000000	0.079657
473.000000	0.000000	0.129079
474.000000	0.000000	0.164754
475.000000	0.000000	0.186450
476.000000	0.000000	0.218446
477.000000	0.000000	0.252224
478.000000	0.000000	0.243914
479.000000	0.000000	0.270270
480.000000	0.000000	0.282295
481.000000	0.000000	0.287429
482.000000	0.000000	0.288693
483.000000	0.000000	0.302618
484.000000	0.000000	0.307551
485.000000	0.000000	0.319509
486.000000	0.000000	0.320297
487.000000	0.000000	0.363653
488.000000	0.000000	0.372060
489.000000	0.000000	0.405638
490.000000	0.000000	0.427958
491.000000	0.000000	0.460464
492.000000	0.000000	0.499282
493.000000	0.000000	0.532212
494.000000	0.000000	0.524779
495.000000	0.000000	0.559460
496.000000	0.000000	0.584617
497.000000	0.000000	0.603272
498.000000	0.000000	0.604676
499.000000	0.000000	0.597491
500.000000	0.000000	0.594485
501.000000	0.000000	0.532337
502.000000	0.000000	0.514567
503.000000	0.000000	0.483963
504.000000	0.000000	0.413675
505.000000	0.000000	0.342736
506.000000	0.000000	0.282712
507.000000	0.000000	0.242491
508.000000	0.000000	0.155330
509.000000	0.000000	0.157918
510.000000	0.000000	0.204743
511.000000	0.000000	0.281650
512.000000	0.000000	0.398667
513.000000	0.000000	0.493759
514.000000	0.000000	0.570090
515.000000	0.000000	0.664893
516.000000	0.000000	0.743749
517.000000	0.000000	0.836833
518.000000	0.000000	0.938919
519.000000	0.000000	0.993252
520.000000	0.000000	1.054178
521.000000	0.000000	1.123498
522.000000	0.000000	1.159931
523.000000	0.000000	1.181210
524.000000	0.000000	1.212547
525.000000	0.000000	1.235403
526.000000	0.000000	1.240811
527.000000	0.000000	1.232125
528.000000	0.000000	1.233069
529.000000	0.000000	1.265251
530.000000	0.000000	1.258764
531.000000	0.000000	1.266227
532.000000	0.000000	1.265595
533.000000	0.000000	1.299947
534.000000	0.000000	1.326839
535.000000	0.000000	1.363990
536.000000	0.000000	1.396222
537.000000	0.000000	1.419594
538.000000	0.000000	1.457536
539.000000	0.000000	1.498104
540.000000	0.000000	1.515753
541.000000	0.000000	1.526799
542.000000	0.000000	1.537133
543.000000	0.000000	1.555249
544.000000	0.000000	1.562908
545.000000	0.000000	1.569441
546.000000	0.000000	1.571540
547.000000	0.000000	1.561271
548.000000	0.000000	1.558392
549.000000	0.000000	1.568424
550.000000	0.000000	1.583447
551.000000	0.000000	1.591882
552.000000	0.000000	1.594917
553.000000	0.000000	1.607288
554.000000	0.000000	1.644442
555.000000	0.000000	1.685275
556.000000	0.000000	1.671234
557.000000	0.000000	1.706469
558.000000	0.000000	1.710233
559.000000	0.000000	1.714796
560.000000	0.000000	1.704918
561.000000	0.000000	1.716975
562.000000	0.000000	1.724090
563.000000	0.000000	1.702794
564.000000	0.000000	1.652498
565.000000	0.000000	1.653223
566.000000	0.000000	1.651994
567.000000	0.000000	1.655119
568.000000	0.000000	1.619458
569.000000	0.000000	1.627435
570.000000	0.000000	1.635145
571.000000	0.000000	1.653070
572.000000	0.000000	1.664605
573.000000	0.000000	1.698526
574.000000	0.000000	1.731389
575.000000	0.000000	1.735580
576.000000	0.000000	1.750127
577.000000	0.000000	1.769259
578.000000	0.000000	1.780037
579.000000	0.000000	1.793734
580.000000	0.000000	1.787011
581.000000	0.000000	1.778703
582.000000	0.000000	1.773742
583.000000	0.000000	1.778097
584.000000	0.000000	1.775847
585.000000	0.000000	1.760846
586.000000	0.000000	1.756145
587.000000	0.000000	1.762990
588.000000	0.000000	1.735127
589.000000	0.000000	1.724191
590.000000	0.000000	1.718608
591.000000	0.000000	1.729084
592.000000	0.000000	1.751429
593.000000	0.000000	1.797104
594.000000	0.000000	1.782317
595.000000	0.000000	1.805080
596.000000	0.000000	1.792498
597.000000	0.000000	1.807674
598.000000	0.000000	1.850042
599.000000	0.000000	1.866838
600.000000	0.000000	1.864911
601.000000	0.000000	1.854637
602.000000	0.000000	1.872730
603.000000	0.000000	1.879342
604.000000	0.000000	1.848429
605.000000	0.000000	1.840816
606.000000	0.000000	1.828966
607.000000	0.000000	1.810570
608.000000	0.000000	1.790143
609.000000	0.000000	1.741926
610.000000	0.000000	1.713549
611.000000	0.000000	1.702550
612.000000	0.000000	1.650484
613.000000	0.000000	1.651033
614.000000	0.000000	1.655631
615.000000	0.000000	1.613252
616.000000	0.000000	1.587723
617.000000	0.000000	1.552663
618.000000	0.000000	1.518742
619.000000	0.000000	1.485880
620.000000	0.000000	1.461589
621.000000	0.000000	1.461198
622.000000	0.000000	1.456636
623.000000	0.000000	1.419772
624.000000	0.000000	1.409217
625.000000	0.000000	1.399998
626.000000	0.000000	1.370192
627.000000	0.000000	1.383594
628.000000	0.000000	1.366812
629.000000	0.000000	1.342960
630.000000	0.000000	1.356894
631.000000	0.000000	1.340381
632.000000	0.000000	1.305707
633.000000	0.000000	1.248132
634.000000	0.000000	1.200746
635.000000	0.000000	1.163105
636.000000	0.000000	1.122380
637.000000	0.000000	1.081258
638.000000	0.000000	1.018087
639.000000	0.000000	0.962477
640.000000	0.000000	0.898330
641.000000	0.000000	0.817015
642.000000	0.000000	0.758207
643.000000	0.000000	0.703915
644.000000	0.000000	0.662411
645.000000	0.000000	0.608301
646.000000	0.000000	0.532913
647.000000	0.000000	0.463419
648.000000	0.000000	0.431945
649.000000	0.000000	0.424260
650.000000	0.000000	0.442520
651.000000	0.000000	0.494702
652.000000	0.000000	0.547677
653.000000	0.000000	0.628627
654.000000	0.000000	0.735957
655.000000	0.000000	0.845992
656.000000	0.000000	0.960889
657.000000	0.000000	1.062011
658.000000	0.000000	1.164106
659.000000	0.000000	1.292571
660.000000	0.000000	1.391351
661.000000	0.000000	1.433647
662.000000	0.000000	1.485755
663.000000	0.000000	1.562157
664.000000	0.000000	1.601179
665.000000	0.000000	1.630813
666.000000	0.000000	1.614131
667.000000	0.000000	1.599284
668.000000	0.000000	1.571056
669.000000	0.000000	1.517164
670.000000	0.000000	1.508938
671.000000	0.000000	1.482305
672.000000	0.000000	1.404551
673.000000	0.000000	1.335967
674.000000	0.000000	1.274542
675.000000	0.000000	1.238703
676.000000	0.000000	1.137953
677.000000	0.000000	1.070874
678.000000	0.000000	0.970333
679.000000	0.000000	0.881019
680.000000	0.000000	0.854957
681.000000	0.000000	0.791275
682.000000	0.000000	0.738246
683.000000	0.000000	0.680599
684.000000	0.000000	0.619157
685.000000	0.000000	0.582574
686.000000	0.000000	0.585480
687.000000	0.000000	0.508260
688.000000	0.000000	0.445740
689.000000	0.000000	0.410165
690.000000	0.000000	0.379393
691.000000	0.000000	0.354020
692.000000	0.000000	0.307812
693.000000	0.000000	0.247681
694.000000	0.000000	0.208768
695.000000	0.000000	0.210087
696.000000	0.000000	0.188000
697.000000	0.000000	0.177743
698.000000	0.000000	0.200678
699.000000	0.000000	0.240503
700.000000	0.000000	0.315808
701.000000	0.000000	0.336824
702.000000	0.000000	0.324071
703.000000	0.000000	0.319909
704.000000	0.000000	0.416096
705.000000	0.000000	0.398223
706.000000	0.000000	0.411151
707.000000	0.000000	0.467326
708.000000	0.000000	0.512233
709.000000	0.000000	0.510705
710.000000	0.000000	0.558572
711.000000	0.000000	0.553375
712.000000	0.000000	0.561305
713.000000	0.000000	0.563015
714.000000	0.000000	0.534558
715.000000	0.000000	0.588831
716.000000	0.000000	0.606241
717.000000	0.000000	0.564533
718.000000	0.000000	0.487002
719.000000	0.000000	0.495784
720.000000	0.000000	0.510417
721.000000	0.000000	0.476985
722.000000	0.000000	0.502794
723.000000	0.000000	0.466431
724.000000	0.000000	0.475113
725.000000	0.000000	0.450572
726.000000	0.000000	0.521717
727.000000	0.000000	0.499315
728.000000	0.000000	0.517620
729.000000	0.000000	0.547562
730.000000	0.000000	0.607059
731.000000	0.000000	0.620038
732.000000	0.000000	0.693358
733.000000	0.000000	0.718022
734.000000	0.000000	0.834826
735.000000	0.000000	0.816733
736.000000	0.000000	0.815474
737.000000	0.000000	0.878995
738.000000	0.000000	0.895459
739.000000	0.000000	0.914602
740.000000	0.000000	0.931426
741.000000	0.000000	0.916710
742.000000	0.000000	0.891103
743.000000	0.000000	0.909209
744.000000	0.000000	0.920011
745.000000	0.000000	0.868880
746.000000	0.000000	0.855334
747.000000	0.000000	0.886383
748.000000	0.000000	0.806859
749.000000	0.000000	0.785252
750.000000	0.000000	0.657524
751.000000	0.000000	0.554848
752.000000	0.000000	0.468667
753.000000	0.000000	0.367697
754.000000	0.000000	0.326713
755.000000	0.000000	0.144478
756.000000	0.000000	0.021163
757.000000	0.000000	0.045753
758.000000	0.000000	0.056751
759.000000	0.000000	0.136460
760.000000	0.000000	0.311938
761.000000	0.000000	0.456505
762.000000	0.000000	0.555171
763.000000	0.000000	0.722244
764.000000	0.000000	0.763630
765.000000	0.000000	0.828192
766.000000	0.000000	0.862187
767.000000	0.000000	1.065228
768.000000	0.000000	1.159918
769.000000	0.000000	1.355289
770.000000	0.000000	1.481068
771.000000	0.000000	1.495832
772.000000	0.000000	1.544382
773.000000	0.000000	1.691761
774.000000	0.000000	1.754176
775.000000	0.000000	1.877155
776.000000	0.000000	1.930760
777.000000	0.000000	1.815988
778.000000	0.000000	2.079485
779.000000	0.000000	2.100107
780.000000	0.000000	2.141792
781.000000	0.000000	2.304447
782.000000	0.000000	2.244795
783.000000	0.000000	2.369167
784.000000	0.000000	2.413489
785.000000	0.000000	2.308478
786.000000	0.000000	2.501433
787.000000	0.000000	2.437888
788.000000	0.000000	2.411564
789.000000	0.000000	2.403447
790.000000	0.000000	2.305042
791.000000	0.000000	2.368450
792.000000	0.000000	2.341699
793.000000	0.000000	2.549756
794.000000	0.000000	2.411603
795.000000	0.000000	2.334658
796.000000	0.000000	2.425588
797.000000	0.000000	2.289002
798.000000	0.000000	2.302677
799.000000	0.000000	2.244291
800.000000	0.000000	2.323713
801.000000	0.000000	2.200561
802.000000	0.000000	2.407638
803.000000	0.000000	2.247416
804.000000	0.000000	2.209227
805.000000	0.000000	2.340449
806.000000	0.000000	2.332077
807.000000	0.000000	2.402881
808.000000	0.000000	2.390191
809.000000	0.000000	2.575047
810.000000	0.000000	2.430521
811.000000	0.000000	2.475150
812.000000	0.000000	2.491977
813.000000	0.000000	2.478596
814.000000	0.000000	2.605716
815.000000	0.000000	2.613244
816.000000	0.000000	2.813346
817.000000	0.000000	2.646650
818.000000	0.000000	2.796021
819.000000	0.000000	2.629436
820.000000	0.000000	2.962146
821.000000	0.000000	2.976861
822.000000	0.000000	2.864227
823.000000	0.000000	2.911635
824.000000	0.000000	2.698326
825.000000	0.000000	2.967354
826.000000	0.000000	2.813445
827.000000	0.000000	2.866806
828.000000	0.000000	3.006960
829.000000	0.000000	2.900723
830.000000	0.000000	2.808661
831.000000	0.000000	2.942556
832.000000	0.000000	2.791924
833.000000	0.000000	2.907009
834.000000	0.000000	2.966273
835.000000	0.000000	2.708993
836.000000	0.000000	2.778785
837.000000	0.000000	2.867597
838.000000	0.000000	2.765809
839.000000	0.000000	2.858441
840.000000	0.000000	2.763344
841.000000	0.000000	2.725940
842.000000	0.000000	2.798893
843.000000	0.000000	2.894311
844.000000	0.000000	3.080514
845.000000	0.000000	2.808917
846.000000	0.000000	3.121601
847.000000	0.000000	3.168692
848.000000	0.000000	3.175131
849.000000	0.000000	3.035343
850.000000	0.000000	2.823836
851.000000	0.000000	3.116371
852.000000	0.000000	2.949647
853.000000	0.000000	3.336659
854.000000	0.000000	3.165325
855.000000	0.000000	3.192783
856.000000	0.000000	2.874727
857.000000	0.000000	2.744165
858.000000	0.000000	2.935280
859.000000	0.000000	2.914094
860.000000	0.000000	2.893098
861.000000	0.000000	2.888897
862.000000	0.000000	2.867814
863.000000	0.000000	2.853586
864.000000	0.000000	2.838682
865.000000	0.000000	2.828381
866.000000	0.000000	2.815769
867.000000	0.000000	2.797447
868.000000	0.000000	2.771339
869.000000	0.000000	2.746278
870.000000	0.000000	2.692816
871.000000	0.000000	2.684371
872.000000	0.000000	2.733942
873.000000	0.000000	2.804849
874.000000	0.000000	2.887817
875.000000	0.000000	2.953373
876.000000	0.000000	2.993822
877.000000	0.000000	3.020132
878.000000	0.000000	3.055677
879.000000	0.000000	3.059331
880.000000	0.000000	3.088211
881.000000	0.000000	3.108479
882.000000	0.000000	3.122922
883.000000	0.000000	3.125084
884.000000	0.000000	3.142766
885.000000	0.000000	3.129872
886.000000	0.000000	3.139175
887.000000	0.000000	3.138729
888.000000	0.000000	3.130988
889.000000	0.000000	3.110595
890.000000	0.000000	3.081204
891.000000	0.000000	3.041763
892.000000	0.000000	3.015711
893.000000	0.000000	2.988774
894.000000	0.000000	2.959991
895.000000	0.000000	2.929439
896.000000	0.000000	2.883174
897.000000	0.000000	2.849612
898.000000	0.000000	2.826530
899.000000	0.000000	2.797659
900.000000	0.000000	2.756090
901.000000	0.000000	2.721352
902.000000	0.000000	2.687662
903.000000	0.000000	2.656012
904.000000	0.000000	2.636611
905.000000	0.000000	2.599661
906.000000	0.000000	2.584113
907.000000	0.000000	2.563491
908.000000	0.000000	2.530651
909.000000	0.000000	2.506213
910.000000	0.000000	2.480670
911.000000	0.000000	2.459783
912.000000	0.000000	2.443874
913.000000	0.000000	2.420976
914.000000	0.000000	2.398184
915.000000	0.000000	2.375545
916.000000	0.000000	2.352144
917.000000	0.000000	2.330975
918.000000	0.000000	2.307061
919.000000	0.000000	2.281610
920.000000	0.000000	2.262326
921.000000	0.000000	2.235937
922.000000	0.000000	2.211521
923.000000	0.000000	2.187820
924.000000	0.000000	2.162004
925.000000	0.000000	2.135102
926.000000	0.000000	2.102114
927.000000	0.000000	2.071735
928.000000	0.000000	2.043002
929.000000	0.000000	2.013176
930.000000	0.000000	1.983932
931.000000	0.000000	1.952147
932.000000	0.000000	1.925060
933.000000	0.000000	1.892179
934.000000	0.000000	1.859956
935.000000	0.000000	1.823461
936.000000	0.000000	1.792751
937.000000	0.000000	1.766272
938.000000	0.000000	1.732863
939.000000	0.000000	1.708277
940.000000	0.000000	1.685614
941.000000	0.000000	1.651035
942.000000	0.000000	1.635169
943.000000	0.000000	1.619404
944.000000	0.000000	1.593957
945.000000	0.000000	1.578402
946.000000	0.000000	1.559257
947.000000	0.000000	1.541853
948.000000	0.000000	1.511135
949.000000	0.000000	1.491019
950.000000	0.000000	1.485686
951.000000	0.000000	1.466093
952.000000	0.000000	1.447972
953.000000	0.000000	1.437371
954.000000	0.000000	1.426709
955.000000	0.000000	1.413216
956.000000	0.000000	1.397735
957.000000	0.000000	1.386003
958.000000	0.000000	1.382139
959.000000	0.000000	1.375029
960.000000	0.000000	1.373129
961.000000	0.000000	1.367798
962.000000	0.000000	1.358654
963.000000	0.000000	1.355888
964.000000	0.000000	1.339608
965.000000	0.000000	1.338117
966.000000	0.000000	1.342486
967.000000	0.000000	1.336567
968.000000	0.000000	1.337440
969.000000	0.000000	1.331129
970.000000	0.000000	1.330233
971.000000	0.000000	1.328656
972.000000	0.000000	1.329294
973.000000	0.000000	1.329794
974.000000	0.000000	1.320220
975.000000	0.000000	1.319777
976.000000	0.000000	1.327723
977.000000	0.000000	1.324839
978.000000	0.000000	1.324788
979.000000	0.000000	1.324499
980.000000	0.000000	1.322060
981.000000	0.000000	1.324447
982.000000	0.000000	1.323668
983.000000	0.000000	1.325655
984.000000	0.000000	1.322857
985.000000	0.000000	1.323348
986.000000	0.000000	1.334860
987.000000	0.000000	1.335865
988.000000	0.000000	1.332193
989.000000	0.000000	1.326333
990.000000	0.000000	1.326779
991.000000	0.000000	1.326407
992.000000	0.000000	1.332998
993.000000	0.000000	1.338202
994.000000	0.000000	1.345288
995.000000	0.000000	1.346004
996.000000	0.000000	1.337142
997.000000	0.000000	1.337199
998.000000	0.000000	1.339537
999.000000	0.000000	1.338342
1000.000000	0.000000	1.344355
1001.000000	0.000000	1.347252
1002.000000	0.000000	1.349212
1003.000000	0.000000	1.349546
1004.000000	0.000000	1.355386
1005.000000	0.000000	1.358755
1006.000000	0.000000	1.364678
1007.000000	0.000000	1.354709
1008.000000	0.000000	1.360157
1009.000000	0.000000	1.359346
1010.000000	0.000000	1.370416
1011.000000	0.000000	1.377085
1012.000000	0.000000	1.382925
1013.000000	0.000000	1.390007
1014.000000	0.000000	1.398589
1015.000000	0.000000	1.411652
1016.000000	0.000000	1.408602
1017.000000	0.000000	1.427826
1018.000000	0.000000	1.419434
1019.000000	0.000000	1.431131
1020.000000	0.000000	1.455323
1021.000000	0.000000	1.451803
1022.000000	0.000000	1.463236
1023.000000	0.000000	1.477848
1024.000000	0.000000	1.483666
1025.000000	0.000000	1.488314
1026.000000	0.000000	1.495770
1027.000000	0.000000	1.502624
1028.000000	0.000000	1.508409
1029.000000	0.000000	1.525148
1030.000000	0.000000	1.525607
1031.000000	0.000000	1.544314
1032.000000	0.000000	1.547256
1033.000000	0.000000	1.550617
1034.000000	0.000000	1.569216
1035.000000	0.000000	1.570099
1036.000000	0.000000	1.582517
1037.000000	0.000000	1.579695
1038.000000	0.000000	1.593851
1039.000000	0.000000	1.597533
1040.000000	0.000000	1.615488
1041.000000	0.000000	1.631150
1042.000000	0.000000	1.627648
1043.000000	0.000000	1.623036
1044.000000	0.000000	1.637253
1045.000000	0.000000	1.649781
1046.000000	0.000000	1.652547
1047.000000	0.000000	1.648619
1048.000000	0.000000	1.670154
1049.000000	0.000000	1.661320
1050.000000	0.000000	1.666168
1051.000000	0.000000	1.670988
1052.000000	0.000000	1.692140
1053.000000	0.000000	1.687411
1054.000000	0.000000	1.692098
1055.000000	0.000000	1.700379
1056.000000	0.000000	1.713997
1057.000000	0.000000	1.723171
1058.000000	0.000000	1.725264
1059.000000	0.000000	1.718021
1060.000000	0.000000	1.738939
1061.000000	0.000000	1.736021
1062.000000	0.000000	1.732066
1063.000000	0.000000	1.747719
1064.000000	0.000000	1.755210
1065.000000	0.000000	1.745651
1066.000000	0.000000	1.750993
1067.000000	0.000000	1.777683
1068.000000	0.000000	1.762693
1069.000000	0.000000	1.763292
1070.000000	0.000000	1.770286
1071.000000	0.000000	1.782198
1072.000000	0.000000	1.791803
1073.000000	0.000000	1.791307
1074.000000	0.000000	1.800890
1075.000000	0.000000	1.799317
1076.000000	0.000000	1.794068
1077.000000	0.000000	1.809434
1078.000000	0.000000	1.802015
1079.000000	0.000000	1.815391
1080.000000	0.000000	1.815059
1081.000000	0.000000	1.840274
1082.000000	0.000000	1.833109
1083.000000	0.000000	1.839179
1084.000000	0.000000	1.834436
1085.000000	0.000000	1.844938
1086.000000	0.000000	1.851282
1087.000000	0.000000	1.865034
1088.000000	0.000000	1.856489
1089.000000	0.000000	1.859990
1090.000000	0.000000	1.862920
1091.000000	0.000000	1.883757
1092.000000	0.000000	1.873385
1093.000000	0.000000	1.866016
1094.000000	0.000000	1.867437
1095.000000	0.000000	1.878481
1096.000000	0.000000	1.880684
1097.000000	0.000000	1.876036
1098.000000	0.000000	1.888859
1099.000000	0.000000	1.881702
1100.000000	0.000000	1.895995
1101.000000	0.000000	1.878747
1102.000000	0.000000	1.898892
1103.000000	0.000000	1.899982
1104.000000	0.000000	1.899277
1105.000000	0.000000	1.906713
1106.000000	0.000000	1.901730
1107.000000	0.000000	1.904255
1108.000000	0.000000	1.909033
1109.000000	0.000000	1.898883
1110.000000	0.000000	1.893116
1111.000000	0.000000	1.902022
1112.000000	0.000000	1.908983
1113.000000	0.000000	1.907268
1114.000000	0.000000	1.903304
1115.000000	0.000000	1.906200
1116.000000	0.000000	1.908651
1117.000000	0.000000	1.909165
1118.000000	0.000000	1.911597
1119.000000	0.000000	1.905818
1120.000000	0.000000	1.893071
1121.000000	0.000000	1.885736
1122.000000	0.000000	1.898492
1123.000000	0.000000	1.912293
1124.000000	0.000000	1.889710
1125.000000	0.000000	1.889230
1126.000000	0.000000	1.886107
1127.000000	0.000000	1.878234
1128.000000	0.000000	1.853872
1129.000000	0.000000	1.852500
1130.000000	0.000000	1.826164
1131.000000	0.000000	1.800412
1132.000000	0.000000	1.795039
1133.000000	0.000000	1.787118
1134.000000	0.000000	1.751426
1135.000000	0.000000	1.746174
1136.000000	0.000000	1.708749
1137.000000	0.000000	1.703759
1138.000000	0.000000	1.682912
1139.000000	0.000000	1.654372
1140.000000	0.000000	1.651953
1141.000000	0.000000	1.629689
1142.000000	0.000000	1.605762
1143.000000	0.000000	1.586145
1144.000000	0.000000	1.580327
1145.000000	0.000000	1.568638
1146.000000	0.000000	1.569188
1147.000000	0.000000	1.563110
1148.000000	0.000000	1.539524
1149.000000	0.000000	1.543042
1150.000000	0.000000	1.530393
1151.000000	0.000000	1.515478
1152.000000	0.000000	1.512655
1153.000000	0.000000	1.507982
1154.000000	0.000000	1.503382
1155.000000	0.000000	1.478945
1156.000000	0.000000	1.470355
1157.000000	0.000000	1.465335
1158.000000	0.000000	1.449600
1159.000000	0.000000	1.442227
1160.000000	0.000000	1.429173
1161.000000	0.000000	1.410724
1162.000000	0.000000	1.405830
1163.000000	0.000000	1.396179
1164.000000	0.000000	1.381727
1165.000000	0.000000	1.357941
1166.000000	0.000000	1.351132
1167.000000	0.000000	1.351860
1168.000000	0.000000	1.338805
1169.000000	0.000000	1.333766
1170.000000	0.000000	1.327667
1171.000000	0.000000	1.325978
1172.000000	0.000000	1.316677
1173.000000	0.000000	1.309433
1174.000000	0.000000	1.305794
1175.000000	0.000000	1.300725
1176.000000	0.000000	1.302426
1177.000000	0.000000	1.293857
1178.000000	0.000000	1.282710
1179.000000	0.000000	1.274704
1180.000000	0.000000	1.263253
1181.000000	0.000000	1.247945
1182.000000	0.000000	1.242331
1183.000000	0.000000	1.247633
1184.000000	0.000000	1.246885
1185.000000	0.000000	1.243355
1186.000000	0.000000	1.249512
1187.000000	0.000000	1.253649
1188.000000	0.000000	1.256236
1189.000000	0.000000	1.265881
1190.000000	0.000000	1.277672
1191.000000	0.000000	1.298375
1192.000000	0.000000	1.307599
1193.000000	0.000000	1.304954
1194.000000	0.000000	1.315343
1195.000000	0.000000	1.326637
1196.000000	0.000000	1.331346
1197.000000	0.000000	1.324542
1198.000000	0.000000	1.330032
1199.000000	0.000000	1.339211
1200.000000	0.000000	1.333988
1201.000000	0.000000	1.340079
1202.000000	0.000000	1.351121
1203.000000	0.000000	1.343430
1204.000000	0.000000	1.350467
1205.000000	0.000000	1.354385
1206.000000	0.000000	1.351355
1207.000000	0.000000	1.361940
1208.000000	0.000000	1.356086
1209.000000	0.000000	1.361336
1210.000000	0.000000	1.379815
1211.000000	0.000000	1.380596
1212.000000	0.000000	1.370710
1213.000000	0.000000	1.372703
1214.000000	0.000000	1.386009
1215.000000	0.000000	1.397546
1216.000000	0.000000	1.398518
1217.000000	0.000000	1.394729
1218.000000	0.000000	1.400669
1219.000000	0.000000	1.412228
1220.000000	0.000000	1.411669
1221.000000	0.000000	1.420927
1222.000000	0.000000	1.429680
1223.000000	0.000000	1.438075
1224.000000	0.000000	1.444208
1225.000000	0.000000	1.454178
1226.000000	0.000000	1.461415
1227.000000	0.000000	1.457545
1228.000000	0.000000	1.462787
1229.000000	0.000000	1.475599
1230.000000	0.000000	1.484221
1231.000000	0.000000	1.493543
1232.000000	0.000000	1.499378
1233.000000	0.000000	1.498890
1234.000000	0.000000	1.510632
1235.000000	0.000000	1.525973
1236.000000	0.000000	1.527375
1237.000000	0.000000	1.530328
1238.000000	0.000000	1.534621
1239.000000	0.000000	1.537770
1240.000000	0.000000	1.545813
1241.000000	0.000000	1.538293
1242.000000	0.000000	1.539939
1243.000000	0.000000	1.555206
1244.000000	0.000000	1.568808
1245.000000	0.000000	1.570696
1246.000000	0.000000	1.567373
1247.000000	0.000000	1.569323
1248.000000	0.000000	1.576784
1249.000000	0.000000	1.577961
1250.000000	0.000000	1.593839
1251.000000	0.000000	1.596181
1252.000000	0.000000	1.597423
1253.000000	0.000000	1.604213
1254.000000	0.000000	1.600457
1255.000000	0.000000	1.598871
1256.000000	0.000000	1.605237
1257.000000	0.000000	1.617600
1258.000000	0.000000	1.623809
1259.000000	0.000000	1.620573
1260.000000	0.000000	1.619887
1261.000000	0.000000	1.633039
1262.000000	0.000000	1.639599
1263.000000	0.000000	1.638176
1264.000000	0.000000	1.636748
1265.000000	0.000000	1.631614
1266.000000	0.000000	1.624469
1267.000000	0.000000	1.632542
1268.000000	0.000000	1.640701
1269.000000	0.000000	1.634919
1270.000000	0.000000	1.633205
1271.000000	0.000000	1.641558
1272.000000	0.000000	1.645085
1273.000000	0.000000	1.657521
1274.000000	0.000000	1.652538
1275.000000	0.000000	1.653063
1276.000000	0.000000	1.653188
1277.000000	0.000000	1.647046
1278.000000	0.000000	1.646782
1279.000000	0.000000	1.661349
1280.000000	0.000000	1.655604
1281.000000	0.000000	1.663276
1282.000000	0.000000	1.667827
1283.000000	0.000000	1.659573
1284.000000	0.000000	1.666688
1285.000000	0.000000	1.669266
1286.000000	0.000000	1.671784
1287.000000	0.000000	1.674494
1288.000000	0.000000	1.670848
1289.000000	0.000000	1.673943
1290.000000	0.000000	1.670923
1291.000000	0.000000	1.679502
1292.000000	0.000000	1.672162
1293.000000	0.000000	1.670791
1294.000000	0.000000	1.670635
1295.000000	0.000000	1.684124
1296.000000	0.000000	1.668295
1297.000000	0.000000	1.661919
1298.000000	0.000000	1.662735
1299.000000	0.000000	1.656585
1300.000000	0.000000	1.654884
1301.000000	0.000000	1.653194
1302.000000	0.000000	1.659765
1303.000000	0.000000	1.653752
1304.000000	0.000000	1.645456
1305.000000	0.000000	1.645866
1306.000000	0.000000	1.640990
1307.000000	0.000000	1.647428
1308.000000	0.000000	1.643668
1309.000000	0.000000	1.632480
1310.000000	0.000000	1.625002
1311.000000	0.000000	1.631437
1312.000000	0.000000	1.614546
1313.000000	0.000000	1.610506
1314.000000	0.000000	1.603372
1315.000000	0.000000	1.591622
1316.000000	0.000000	1.573740
1317.000000	0.000000	1.575851
1318.000000	0.000000	1.574662
1319.000000	0.000000	1.569941
1320.000000	0.000000	1.563341
1321.000000	0.000000	1.543913
1322.000000	0.000000	1.544833
1323.000000	0.000000	1.536125
1324.000000	0.000000	1.532067
1325.000000	0.000000	1.522670
1326.000000	0.000000	1.509047
1327.000000	0.000000	1.503286
1328.000000	0.000000	1.503130
1329.000000	0.000000	1.490481
1330.000000	0.000000	1.472667
1331.000000	0.000000	1.453508
1332.000000	0.000000	1.454700
1333.000000	0.000000	1.431733
1334.000000	0.000000	1.427641
1335.000000	0.000000	1.415971
1336.000000	0.000000	1.425960
1337.000000	0.000000	1.404033
1338.000000	0.000000	1.403805
1339.000000	0.000000	1.366053
1340.000000	0.000000	1.364212
1341.000000	0.000000	1.349392
1342.000000	0.000000	1.334699
1343.000000	0.000000	1.336136
1344.000000	0.000000	1.324716
1345.000000	0.000000	1.324813
1346.000000	0.000000	1.306383
1347.000000	0.000000	1.300497
1348.000000	0.000000	1.286626
1349.000000	0.000000	1.272525
1350.000000	0.000000	1.263936
1351.000000	0.000000	1.269586
1352.000000	0.000000	1.240474
1353.000000	0.000000	1.234209
1354.000000	0.000000	1.251016
1355.000000	0.000000	1.215950
1356.000000	0.000000	1.210085
1357.000000	0.000000	1.232497
1358.000000	0.000000	1.213273
1359.000000	0.000000	1.214700
1360.000000	0.000000	1.216513
1361.000000	0.000000	1.207518
1362.000000	0.000000	1.198392
1363.000000	0.000000	1.190620
1364.000000	0.000000	1.205459
1365.000000	0.000000	1.171708
1366.000000	0.000000	1.187645
1367.000000	0.000000	1.189388
1368.000000	0.000000	1.162560
1369.000000	0.000000	1.167989
1370.000000	0.000000	1.163874
1371.000000	0.000000	1.139606
1372.000000	0.000000	1.145252
1373.000000	0.000000	1.133828
1374.000000	0.000000	1.134623
1375.000000	0.000000	1.136210
1376.000000	0.000000	1.129641
1377.000000	0.000000	1.127382
1378.000000	0.000000	1.157424
1379.000000	0.000000	1.151013
1380.000000	0.000000	1.153115
1381.000000	0.000000	1.129247
1382.000000	0.000000	1.132008
1383.000000	0.000000	1.120945
1384.000000	0.000000	1.100899
1385.000000	0.000000	1.119114
1386.000000	0.000000	1.115515
1387.000000	0.000000	1.108100
1388.000000	0.000000	1.102982
1389.000000	0.000000	1.100903
1390.000000	0.000000	1.133766
1391.000000	0.000000	1.113201
1392.000000	0.000000	1.112507
1393.000000	0.000000	1.131759
1394.000000	0.000000	1.133398
1395.000000	0.000000	1.126942
1396.000000	0.000000	1.106406
1397.000000	0.000000	1.131173
1398.000000	0.000000	1.141413
1399.000000	0.000000	1.141846
1400.000000	0.000000	1.134836
1401.000000	0.000000	1.119157
1402.000000	0.000000	1.133900
1403.000000	0.000000	1.146919
1404.000000	0.000000	1.159192
1405.000000	0.000000	1.131112
1406.000000	0.000000	1.130445
1407.000000	0.000000	1.144641
1408.000000	0.000000	1.137970
1409.000000	0.000000	1.133634
1410.000000	0.000000	1.130959
1411.000000	0.000000	1.126898
1412.000000	0.000000	1.137335
1413.000000	0.000000	1.129205
1414.000000	0.000000	1.120952
1415.000000	0.000000	1.132019
1416.000000	0.000000	1.138809
1417.000000	0.000000	1.141108
1418.000000	0.000000	1.132339
1419.000000	0.000000	1.107838
1420.000000	0.000000	1.110943
1421.000000	0.000000	1.105987
1422.000000	0.000000	1.104144
1423.000000	0.000000	1.093768
1424.000000	0.000000	1.098089
1425.000000	0.000000	1.098827
1426.000000	0.000000	1.088516
1427.000000	0.000000	1.100824
1428.000000	0.000000	1.085599
1429.000000	0.000000	1.082255
1430.000000	0.000000	1.078277
1431.000000	0.000000	1.069051
1432.000000	0.000000	1.063132
1433.000000	0.000000	1.064687
1434.000000	0.000000	1.055218
1435.000000	0.000000	1.047851
1436.000000	0.000000	1.045281
1437.000000	0.000000	1.059561
1438.000000	0.000000	1.047054
1439.000000	0.000000	1.057875
1440.000000	0.000000	1.050362
1441.000000	0.000000	1.045934
1442.000000	0.000000	1.038067
1443.000000	0.000000	1.031164
1444.000000	0.000000	1.035015
1445.000000	0.000000	1.036534
1446.000000	0.000000	1.027618
1447.000000	0.000000	1.034143
1448.000000	0.000000	1.029379
1449.000000	0.000000	1.036014
1450.000000	0.000000	1.035732
1451.000000	0.000000	1.032451
1452.000000	0.000000	1.039387
1453.000000	0.000000	1.041530
1454.000000	0.000000	1.037356
1455.000000	0.000000	1.033611
1456.000000	0.000000	1.034278
1457.000000	0.000000	1.032216
1458.000000	0.000000	1.038852
1459.000000	0.000000	1.041927
1460.000000	0.000000	1.040665
1461.000000	0.000000	1.053271
1462.000000	0.000000	1.045685
1463.000000	0.000000	1.042113
1464.000000	0.000000	1.038447
1465.000000	0.000000	1.048346
1466.000000	0.000000	1.065274
1467.000000	0.000000	1.070601
1468.000000	0.000000	1.074592
1469.000000	0.000000	1.065742
1470.000000	0.000000	1.066257
1471.000000	0.000000	1.073601
1472.000000	0.000000	1.079384
1473.000000	0.000000	1.071298
1474.000000	0.000000	1.087495
1475.000000	0.000000	1.098738
1476.000000	0.000000	1.095186
1477.000000	0.000000	1.102319
1478.000000	0.000000	1.107091
1479.000000	0.000000	1.106718
1480.000000	0.000000	1.101194
1481.000000	0.000000	1.108644
1482.000000	0.000000	1.126434
1483.000000	0.000000	1.121873
1484.000000	0.000000	1.121367
1485.000000	0.000000	1.119692
1486.000000	0.000000	1.124642
1487.000000	0.000000	1.130439
1488.000000	0.000000	1.132932
1489.000000	0.000000	1.137228
1490.000000	0.000000	1.148163
1491.000000	0.000000	1.145912
1492.000000	0.000000	1.139145
1493.000000	0.000000	1.144022
1494.000000	0.000000	1.143797
1495.000000	0.000000	1.140179
1496.000000	0.000000	1.145489
1497.000000	0.000000	1.149948
1498.000000	0.000000	1.143686
1499.000000	0.000000	1.146135
1500.000000	0.000000	1.154449
1501.000000	0.000000	1.157632
1502.000000	0.000000	1.155864
1503.000000	0.000000	1.149659
1504.000000	0.000000	1.153958
1505.000000	0.000000	1.166022
1506.000000	0.000000	1.161654
1507.000000	0.000000	1.156339
1508.000000	0.000000	1.148259
1509.000000	0.000000	1.144986
1510.000000	0.000000	1.154564
1511.000000	0.000000	1.163389
1512.000000	0.000000	1.157062
1513.000000	0.000000	1.150584
1514.000000	0.000000	1.151466
1515.000000	0.000000	1.153377
1516.000000	0.000000	1.156410
1517.000000	0.000000	1.151645
1518.000000	0.000000	1.142165
1519.000000	0.000000	1.144206
1520.000000	0.000000	1.150712
1521.000000	0.000000	1.147675
1522.000000	0.000000	1.149327
1523.000000	0.000000	1.152909
1524.000000	0.000000	1.152054
1525.000000	0.000000	1.144919
1526.000000	0.000000	1.136227
1527.000000	0.000000	1.138898
1528.000000	0.000000	1.148947
1529.000000	0.000000	1.149281
1530.000000	0.000000	1.140082
1531.000000	0.000000	1.137341
1532.000000	0.000000	1.134739
1533.000000	0.000000	1.122276
1534.000000	0.000000	1.127892
1535.000000	0.000000	1.138339
1536.000000	0.000000	1.145069
1537.000000	0.000000	1.142885
1538.000000	0.000000	1.140983
1539.000000	0.000000	1.148882
1540.000000	0.000000	1.148035
1541.000000	0.000000	1.141343
1542.000000	0.000000	1.141215
1543.000000	0.000000	1.137166
1544.000000	0.000000	1.138668
1545.000000	0.000000	1.145274
1546.000000	0.000000	1.136731
1547.000000	0.000000	1.144723
1548.000000	0.000000	1.145401
1549.000000	0.000000	1.124281
1550.000000	0.000000	1.124273
1551.000000	0.000000	1.136524
1552.000000	0.000000	1.129614
1553.000000	0.000000	1.145094
1554.000000	0.000000	1.146314
1555.000000	0.000000	1.135601
1556.000000	0.000000	1.139349
1557.000000	0.000000	1.149665
1558.000000	0.000000	1.144700
1559.000000	0.000000	1.148134
1560.000000	0.000000	1.149324
1561.000000	0.000000	1.156802
1562.000000	0.000000	1.141492
1563.000000	0.000000	1.146575
1564.000000	0.000000	1.156500
1565.000000	0.000000	1.151733
1566.000000	0.000000	1.152261
1567.000000	0.000000	1.154558
1568.000000	0.000000	1.150988
1569.000000	0.000000	1.159072
1570.000000	0.000000	1.161983
1571.000000	0.000000	1.166540
1572.000000	0.000000	1.157634
1573.000000	0.000000	1.168463
1574.000000	0.000000	1.164703
1575.000000	0.000000	1.165616
1576.000000	0.000000	1.167530
1577.000000	0.000000	1.167982
1578.000000	0.000000	1.166376
1579.000000	0.000000	1.169532
1580.000000	0.000000	1.171059
1581.000000	0.000000	1.172745
1582.000000	0.000000	1.168762
1583.000000	0.000000	1.176937
1584.000000	0.000000	1.170777
1585.000000	0.000000	1.173605
1586.000000	0.000000	1.177401
1587.000000	0.000000	1.173152
1588.000000	0.000000	1.169641
1589.000000	0.000000	1.162950
1590.000000	0.000000	1.167656
1591.000000	0.000000	1.177251
1592.000000	0.000000	1.175334
1593.000000	0.000000	1.162911
1594.000000	0.000000	1.164204
1595.000000	0.000000	1.172747
1596.000000	0.000000	1.164797
1597.000000	0.000000	1.171046
1598.000000	0.000000	1.164342
1599.000000	0.000000	1.158661
1600.000000	0.000000	1.168713
1601.000000	0.000000	1.162800
1602.000000	0.000000	1.156646
1603.000000	0.000000	1.168906
1604.000000	0.000000	1.159931
1605.000000	0.000000	1.154780
1606.000000	0.000000	1.161315
1607.000000	0.000000	1.166495
1608.000000	0.000000	1.154951
1609.000000	0.000000	1.156488
1610.000000	0.000000	1.161470
1611.000000	0.000000	1.157782
1612.000000	0.000000	1.143817
1613.000000	0.000000	1.148093
1614.000000	0.000000	1.151805
1615.000000	0.000000	1.159280
1616.000000	0.000000	1.159831
1617.000000	0.000000	1.147166
1618.000000	0.000000	1.152840
1619.000000	0.000000	1.134423
1620.000000	0.000000	1.144868
1621.000000	0.000000	1.148128
1622.000000	0.000000	1.149110
1623.000000	0.000000	1.150545
1624.000000	0.000000	1.120948
1625.000000	0.000000	1.151595
1626.000000	0.000000	1.139629
1627.000000	0.000000	1.142676
1628.000000	0.000000	1.157772
1629.000000	0.000000	1.152227
1630.000000	0.000000	1.151926
1631.000000	0.000000	1.143210
1632.000000	0.000000	1.149070
1633.000000	0.000000	1.143141
1634.000000	0.000000	1.137818
1635.000000	0.000000	1.159676
1636.000000	0.000000	1.147806
1637.000000	0.000000	1.133450
1638.000000	0.000000	1.137010
1639.000000	0.000000	1.148910
1640.000000	0.000000	1.145342
1641.000000	0.000000	1.143566
1642.000000	0.000000	1.162553
1643.000000	0.000000	1.151217
1644.000000	0.000000	1.156670
1645.000000	0.000000	1.139282
1646.000000	0.000000	1.148847
1647.000000	0.000000	1.146310
1648.000000	0.000000	1.157245
1649.000000	0.000000	1.139391
1650.000000	0.000000	1.160923
1651.000000	0.000000	1.156163
1652.000000	0.000000	1.153274
1653.000000	0.000000	1.151524
1654.000000	0.000000	1.155161
1655.000000	0.000000	1.152795
1656.000000	0.000000	1.145130
1657.000000	0.000000	1.161789
1658.000000	0.000000	1.151351
1659.000000	0.000000	1.167239
1660.000000	0.000000	1.154317
1661.000000	0.000000	1.166704
1662.000000	0.000000	1.170866
1663.000000	0.000000	1.165402
1664.000000	0.000000	1.176841
1665.000000	0.000000	1.172660
1666.000000	0.000000	1.174088
1667.000000	0.000000	1.178390
1668.000000	0.000000	1.180848
1669.000000	0.000000	1.180912
1670.000000	0.000000	1.181518
1671.000000	0.000000	1.174240
1672.000000	0.000000	1.195056
1673.000000	0.000000	1.198570
1674.000000	0.000000	1.182201
1675.000000	0.000000	1.180571
1676.000000	0.000000	1.194520
1677.000000	0.000000	1.189542
1678.000000	0.000000	1.178882
1679.000000	0.000000	1.178785
1680.000000	0.000000	1.175912
1681.000000	0.000000	1.153388
1682.000000	0.000000	1.162335
1683.000000	0.000000	1.160482
1684.000000	0.000000	1.186265
1685.000000	0.000000	1.179723
1686.000000	0.000000	1.169071
1687.000000	0.000000	1.173885
1688.000000	0.000000	1.179553
1689.000000	0.000000	1.168284
1690.000000	0.000000	1.151741
1691.000000	0.000000	1.149260
1692.000000	0.000000	1.151456
1693.000000	0.000000	1.148544
1694.000000	0.000000	1.140428
1695.000000	0.000000	1.144719
1696.000000	0.000000	1.134580
1697.000000	0.000000	1.151676
1698.000000	0.000000	1.144803
1699.000000	0.000000	1.148629
1700.000000	0.000000	1.147933
1701.000000	0.000000	1.146641
1702.000000	0.000000	1.141087
1703.000000	0.000000	1.153839
1704.000000	0.000000	1.147582
1705.000000	0.000000	1.137625
1706.000000	0.000000	1.150506
1707.000000	0.000000	1.158826
1708.000000	0.000000	1.163934
1709.000000	0.000000	1.162102
1710.000000	0.000000	1.153089
1711.000000	0.000000	1.144778
1712.000000	0.000000	1.154117
1713.000000	0.000000	1.169800
1714.000000	0.000000	1.178785
1715.000000	0.000000	1.178491
1716.000000	0.000000	1.177938
1717.000000	0.000000	1.175594
1718.000000	0.000000	1.181154
1719.000000	0.000000	1.191731
1720.000000	0.000000	1.196934
1721.000000	0.000000	1.190407
1722.000000	0.000000	1.176946
1723.000000	0.000000	1.186462
1724.000000	0.000000	1.179366
1725.000000	0.000000	1.167987
1726.000000	0.000000	1.177212
1727.000000	0.000000	1.169743
1728.000000	0.000000	1.164492
1729.000000	0.000000	1.151433
1730.000000	0.000000	1.147963
1731.000000	0.000000	1.138973
1732.000000	0.000000	1.139348
1733.000000	0.000000	1.142291
1734.000000	0.000000	1.139287
1735.000000	0.000000	1.130154
1736.000000	0.000000	1.128854
1737.000000	0.000000	1.131658
1738.000000	0.000000	1.139108
1739.000000	0.000000	1.131584
1740.000000	0.000000	1.125210
1741.000000	0.000000	1.118213
1742.000000	0.000000	1.128141
1743.000000	0.000000	1.127461
1744.000000	0.000000	1.127206
1745.000000	0.000000	1.124727
1746.000000	0.000000	1.119649
1747.000000	0.000000	1.114978
1748.000000	0.000000	1.126824
1749.000000	0.000000	1.125766
1750.000000	0.000000	1.118502
1751.000000	0.000000	1.108568
1752.000000	0.000000	1.119596
1753.000000	0.000000	1.116644
1754.000000	0.000000	1.123870
1755.000000	0.000000	1.122082
1756.000000	0.000000	1.115042
1757.000000	0.000000	1.116087
1758.000000	0.000000	1.109234
1759.000000	0.000000	1.104667
1760.000000	0.000000	1.102959
1761.000000	0.000000	1.097706
1762.000000	0.000000	1.104950
1763.000000	0.000000	1.110623
1764.000000	0.000000	1.104799
1765.000000	0.000000	1.110498
1766.000000	0.000000	1.103940
1767.000000	0.000000	1.096706
1768.000000	0.000000	1.104859
1769.000000	0.000000	1.105511
1770.000000	0.000000	1.094410
1771.000000	0.000000	1.092680
1772.000000	0.000000	1.089927
1773.000000	0.000000	1.097215
1774.000000	0.000000	1.100994
1775.000000	0.000000	1.098680
1776.000000	0.000000	1.105700
1777.000000	0.000000	1.103311
1778.000000	0.000000	1.094987
1779.000000	0.000000	1.092280
1780.000000	0.000000	1.098988
1781.000000	0.000000	1.093449
1782.000000	0.000000	1.095500
1783.000000	0.000000	1.101286
1784.000000	0.000000	1.101051
1785.000000	0.000000	1.100196
1786.000000	0.000000	1.107052
1787.000000	0.000000	1.110673
1788.000000	0.000000	1.108414
1789.000000	0.000000	1.104397
1790.000000	0.000000	1.103743
1791.000000	0.000000	1.111417
1792.000000	0.000000	1.107896
1793.000000	0.000000	1.100541
1794.000000	0.000000	1.105404
1795.000000	0.000000	1.113532
1796.000000	0.000000	1.112540
1797.000000	0.000000	1.110387
1798.000000	0.000000	1.114976
1799.000000	0.000000	1.115591
1800.000000	0.000000	1.111203
1801.000000	0.000000	1.111588
1802.000000	0.000000	1.111381
1803.000000	0.000000	1.113409
1804.000000	0.000000	1.117605
1805.000000	0.000000	1.116433
1806.000000	0.000000	1.119846
1807.000000	0.000000	1.116274
1808.000000	0.000000	1.116000
1809.000000	0.000000	1.125399
1810.000000	0.000000	1.120309
1811.000000	0.000000	1.116492
1812.000000	0.000000	1.126882
1813.000000	0.000000	1.134716
1814.000000	0.000000	1.130869
1815.000000	0.000000	1.120618
1816.000000	0.000000	1.122450
1817.000000	0.000000	1.133545
1818.000000	0.000000	1.142317
1819.000000	0.000000	1.138282
1820.000000	0.000000	1.128474
1821.000000	0.000000	1.111242
1822.000000	0.000000	1.109018
1823.000000	0.000000	1.129874
1824.000000	0.000000	1.148060
1825.000000	0.000000	1.150207
1826.000000	0.000000	1.128822
1827.000000	0.000000	1.130814
1828.000000	0.000000	1.149349
1829.000000	0.000000	1.134844
1830.000000	0.000000	1.117841
1831.000000	0.000000	1.114103
1832.000000	0.000000	1.138173
1833.000000	0.000000	1.149878
1834.000000	0.000000	1.147180
1835.000000	0.000000	1.149267
1836.000000	0.000000	1.135289
1837.000000	0.000000	1.128393
1838.000000	0.000000	1.124657
1839.000000	0.000000	1.125335
1840.000000	0.000000	1.111515
1841.000000	0.000000	1.091768
1842.000000	0.000000	1.098250
1843.000000	0.000000	1.118297
1844.000000	0.000000	1.127567
1845.000000	0.000000	1.134501
1846.000000	0.000000	1.139515
1847.000000	0.000000	1.106462
1848.000000	0.000000	1.082918
1849.000000	0.000000	1.095589
1850.000000	0.000000	1.101390
1851.000000	0.000000	1.109453
1852.000000	0.000000	1.122122
1853.000000	0.000000	1.120761
1854.000000	0.000000	1.104590
1855.000000	0.000000	1.100396
1856.000000	0.000000	1.106380
1857.000000	0.000000	1.108820
1858.000000	0.000000	1.091465
1859.000000	0.000000	1.086562
1860.000000	0.000000	1.078350
1861.000000	0.000000	1.061679
1862.000000	0.000000	1.067243
1863.000000	0.000000	1.092500
1864.000000	0.000000	1.108008
1865.000000	0.000000	1.125848
1866.000000	0.000000	1.120012
1867.000000	0.000000	1.103439
1868.000000	0.000000	1.098198
1869.000000	0.000000	1.071791
1870.000000	0.000000	1.053507
1871.000000	0.000000	1.038893
1872.000000	0.000000	1.027908
1873.000000	0.000000	1.014809
1874.000000	0.000000	0.999446
1875.000000	0.000000	0.997706
1876.000000	0.000000	1.009366
1877.000000	0.000000	1.006732
1878.000000	0.000000	0.995574
1879.000000	0.000000	0.988707
1880.000000	0.000000	0.986250
1881.000000	0.000000	0.975936
1882.000000	0.000000	0.962499
1883.000000	0.000000	0.954123
1884.000000	0.000000	0.932227
1885.000000	0.000000	0.924239
1886.000000	0.000000	0.886948
1887.000000	0.000000	0.874114
1888.000000	0.000000	0.858328
1889.000000	0.000000	0.837155
1890.000000	0.000000	0.820945
1891.000000	0.000000	0.793992
1892.000000	0.000000	0.776634
1893.000000	0.000000	0.749080
1894.000000	0.000000	0.730857
1895.000000	0.000000	0.722838
1896.000000	0.000000	0.718328
1897.000000	0.000000	0.694533
1898.000000	0.000000	0.664333
1899.000000	0.000000	0.646029
1900.000000	0.000000	0.620302
1901.000000	0.000000	0.614388
1902.000000	0.000000	0.587589
1903.000000	0.000000	0.567724
1904.000000	0.000000	0.566119
1905.000000	0.000000	0.527537
1906.000000	0.000000	0.520073
1907.000000	0.000000	0.499589
1908.000000	0.000000	0.505190
1909.000000	0.000000	0.497181
1910.000000	0.000000	0.476587
1911.000000	0.000000	0.475953
1912.000000	0.000000	0.441939
1913.000000	0.000000	0.427084
1914.000000	0.000000	0.419297
1915.000000	0.000000	0.425228
1916.000000	0.000000	0.397190
1917.000000	0.000000	0.395022
1918.000000	0.000000	0.398848
1919.000000	0.000000	0.393004
1920.000000	0.000000	0.386845
1921.000000	0.000000	0.369109
1922.000000	0.000000	0.356623
1923.000000	0.000000	0.367172
1924.000000	0.000000	0.344774
1925.000000	0.000000	0.346283
1926.000000	0.000000	0.355208
1927.000000	0.000000	0.342030
1928.000000	0.000000	0.348305
1929.000000	0.000000	0.354436
1930.000000	0.000000	0.334438
1931.000000	0.000000	0.335360
1932.000000	0.000000	0.321876
1933.000000	0.000000	0.349907
1934.000000	0.000000	0.342731
1935.000000	0.000000	0.339825
1936.000000	0.000000	0.335441
1937.000000	0.000000	0.337357
1938.000000	0.000000	0.336068
1939.000000	0.000000	0.334672
1940.000000	0.000000	0.346888
1941.000000	0.000000	0.355282
1942.000000	0.000000	0.350977
1943.000000	0.000000	0.338224
1944.000000	0.000000	0.354514
1945.000000	0.000000	0.349306
1946.000000	0.000000	0.354364
1947.000000	0.000000	0.374661
1948.000000	0.000000	0.376892
1949.000000	0.000000	0.381769
1950.000000	0.000000	0.368501
1951.000000	0.000000	0.388733
1952.000000	0.000000	0.394382
1953.000000	0.000000	0.402509
1954.000000	0.000000	0.409325
1955.000000	0.000000	0.404558
1956.000000	0.000000	0.420530
1957.000000	0.000000	0.424644
1958.000000	0.000000	0.416983
1959.000000	0.000000	0.435122
1960.000000	0.000000	0.424576
1961.000000	0.000000	0.431943
1962.000000	0.000000	0.456581
1963.000000	0.000000	0.458666
1964.000000	0.000000	0.453455
1965.000000	0.000000	0.457450
1966.000000	0.000000	0.462246
1967.000000	0.000000	0.478144
1968.000000	0.000000	0.486455
1969.000000	0.000000	0.487460
1970.000000	0.000000	0.494341
1971.000000	0.000000	0.500464
1972.000000	0.000000	0.484185
1973.000000	0.000000	0.490289
1974.000000	0.000000	0.509096
1975.000000	0.000000	0.519570
1976.000000	0.000000	0.526849
1977.000000	0.000000	0.523753
1978.000000	0.000000	0.537492
1979.000000	0.000000	0.538408
1980.000000	0.000000	0.537563
1981.000000	0.000000	0.541745
1982.000000	0.000000	0.538003
1983.000000	0.000000	0.561004
1984.000000	0.000000	0.565374
1985.000000	0.000000	0.562236
1986.000000	0.000000	0.569193
1987.000000	0.000000	0.580907
1988.000000	0.000000	0.587696
1989.000000	0.000000	0.570167
1990.000000	0.000000	0.580178
1991.000000	0.000000	0.599389
1992.000000	0.000000	0.597656
1993.000000	0.000000	0.611935
1994.000000	0.000000	0.604500
1995.000000	0.000000	0.626580
1996.000000	0.000000	0.625182
1997.000000	0.000000	0.614406
1998.000000	0.000000	0.623258
1999.000000	0.000000	0.626536
