PE UV       SUBTECH     SPECTRUM    ASCII       PEDS        4.00        
   -1
CICIMAUCR0201-3.Sample.ASC
24/05/31
16:20:21.00
24/05/31
16:20:21.00
Vinicio Soto Monge
C. cupreomarginata. Sex F. Dorsal
250,000000
1
Lambda 1050
1050L1511233
PerkinElmer UV WinLab 6.3.2.0749 / 2.02.05 Lambda 900 UV/VIS/NIR, Aug  7 2015 09:38:08

0
0
3350/servo 860,8/2
0
0
UV/VIS
1
1
1
DoubleDePol,CommonBeamDepol,RBeamAtt,SBeamAtt,60mm sphere, WB InGaAs Detector
0
0
0
0
Program
Program
3350/servo 860,8/2
3350/0,2 860,8/0,2
3350/0,2 860,8/0,2
0
15.00
 
 
 
0
 
860,8
319,2
860,8
Front
100
on
S:100 R:100
0
0
0
0
 
0
 
 
 
0
 
 
0
0
0
0
0
 
 
 
 
0
0


0
0
#HDR
-1
-1
#GR
nm
%R
1.0
0.0
2500,000000
-1,000000
2251
8
69,649100
5,880400
#DATA
250.000000	0.000000	0.085438
251.000000	0.000000	0.111979
252.000000	0.000000	0.100406
253.000000	0.000000	0.072007
254.000000	0.000000	0.087807
255.000000	0.000000	0.061677
256.000000	0.000000	0.073040
257.000000	0.000000	0.087087
258.000000	0.000000	0.101502
259.000000	0.000000	0.066904
260.000000	0.000000	0.056487
261.000000	0.000000	0.077981
262.000000	0.000000	0.048069
263.000000	0.000000	0.047351
264.000000	0.000000	0.052320
265.000000	0.000000	0.045646
266.000000	0.000000	0.062952
267.000000	0.000000	0.055360
268.000000	0.000000	0.056733
269.000000	0.000000	0.093874
270.000000	0.000000	0.076730
271.000000	0.000000	0.040266
272.000000	0.000000	0.046565
273.000000	0.000000	0.069073
274.000000	0.000000	0.082748
275.000000	0.000000	0.077726
276.000000	0.000000	0.066673
277.000000	0.000000	0.066606
278.000000	0.000000	0.069099
279.000000	0.000000	0.038388
280.000000	0.000000	0.056811
281.000000	0.000000	0.047610
282.000000	0.000000	0.060570
283.000000	0.000000	0.071276
284.000000	0.000000	0.095437
285.000000	0.000000	0.085442
286.000000	0.000000	0.054371
287.000000	0.000000	0.059517
288.000000	0.000000	0.068160
289.000000	0.000000	0.068534
290.000000	0.000000	0.079928
291.000000	0.000000	0.096527
292.000000	0.000000	0.052995
293.000000	0.000000	0.066304
294.000000	0.000000	0.086022
295.000000	0.000000	0.074697
296.000000	0.000000	0.067786
297.000000	0.000000	0.057352
298.000000	0.000000	0.057844
299.000000	0.000000	0.069085
300.000000	0.000000	0.081361
301.000000	0.000000	0.074146
302.000000	0.000000	0.072605
303.000000	0.000000	0.063846
304.000000	0.000000	0.055565
305.000000	0.000000	0.065750
306.000000	0.000000	0.088051
307.000000	0.000000	0.084793
308.000000	0.000000	0.050657
309.000000	0.000000	0.042399
310.000000	0.000000	0.044750
311.000000	0.000000	0.080475
312.000000	0.000000	0.075136
313.000000	0.000000	0.063150
314.000000	0.000000	0.047685
315.000000	0.000000	0.015149
316.000000	0.000000	0.046401
317.000000	0.000000	0.186614
318.000000	0.000000	0.510971
319.000000	0.000000	0.140259
320.000000	0.000000	0.108689
321.000000	0.000000	0.269234
322.000000	0.000000	0.283287
323.000000	0.000000	0.383901
324.000000	0.000000	0.383089
325.000000	0.000000	0.092780
326.000000	0.000000	0.098887
327.000000	0.000000	0.145131
328.000000	0.000000	0.154233
329.000000	0.000000	0.221158
330.000000	0.000000	0.334648
331.000000	0.000000	0.125264
332.000000	0.000000	0.211886
333.000000	0.000000	0.209507
334.000000	0.000000	0.130861
335.000000	0.000000	0.116957
336.000000	0.000000	0.128916
337.000000	0.000000	0.066277
338.000000	0.000000	0.125068
339.000000	0.000000	0.185884
340.000000	0.000000	0.183414
341.000000	0.000000	0.197820
342.000000	0.000000	0.135291
343.000000	0.000000	0.059619
344.000000	0.000000	0.004389
345.000000	0.000000	0.120761
346.000000	0.000000	0.194849
347.000000	0.000000	0.102806
348.000000	0.000000	0.063924
349.000000	0.000000	0.126352
350.000000	0.000000	0.049166
351.000000	0.000000	0.117166
352.000000	0.000000	0.079620
353.000000	0.000000	0.176581
354.000000	0.000000	0.153022
355.000000	0.000000	0.133072
356.000000	0.000000	0.134768
357.000000	0.000000	0.079747
358.000000	0.000000	0.090713
359.000000	0.000000	0.135865
360.000000	0.000000	0.132460
361.000000	0.000000	0.123312
362.000000	0.000000	0.116337
363.000000	0.000000	0.157090
364.000000	0.000000	0.124404
365.000000	0.000000	0.087247
366.000000	0.000000	0.195163
367.000000	0.000000	0.111828
368.000000	0.000000	0.096731
369.000000	0.000000	0.122073
370.000000	0.000000	0.207690
371.000000	0.000000	0.131513
372.000000	0.000000	0.127228
373.000000	0.000000	0.085286
374.000000	0.000000	0.090054
375.000000	0.000000	0.166117
376.000000	0.000000	0.107956
377.000000	0.000000	0.033372
378.000000	0.000000	0.034952
379.000000	0.000000	0.054141
380.000000	0.000000	0.043782
381.000000	0.000000	0.043135
382.000000	0.000000	0.045530
383.000000	0.000000	0.058233
384.000000	0.000000	0.046352
385.000000	0.000000	0.043579
386.000000	0.000000	0.041236
387.000000	0.000000	0.034010
388.000000	0.000000	0.036512
389.000000	0.000000	0.040232
390.000000	0.000000	0.023386
391.000000	0.000000	0.024721
392.000000	0.000000	0.015500
393.000000	0.000000	0.019253
394.000000	0.000000	0.025899
395.000000	0.000000	0.016005
396.000000	0.000000	0.026820
397.000000	0.000000	0.019353
398.000000	0.000000	0.032094
399.000000	0.000000	0.051794
400.000000	0.000000	0.054280
401.000000	0.000000	0.062708
402.000000	0.000000	0.074839
403.000000	0.000000	0.090127
404.000000	0.000000	0.104530
405.000000	0.000000	0.108700
406.000000	0.000000	0.107631
407.000000	0.000000	0.122658
408.000000	0.000000	0.137404
409.000000	0.000000	0.158441
410.000000	0.000000	0.147782
411.000000	0.000000	0.164374
412.000000	0.000000	0.170760
413.000000	0.000000	0.178190
414.000000	0.000000	0.179952
415.000000	0.000000	0.194755
416.000000	0.000000	0.204180
417.000000	0.000000	0.213163
418.000000	0.000000	0.203654
419.000000	0.000000	0.219425
420.000000	0.000000	0.216745
421.000000	0.000000	0.212209
422.000000	0.000000	0.198869
423.000000	0.000000	0.214752
424.000000	0.000000	0.212408
425.000000	0.000000	0.215203
426.000000	0.000000	0.206550
427.000000	0.000000	0.197887
428.000000	0.000000	0.195786
429.000000	0.000000	0.195180
430.000000	0.000000	0.181832
431.000000	0.000000	0.194401
432.000000	0.000000	0.194698
433.000000	0.000000	0.203704
434.000000	0.000000	0.167547
435.000000	0.000000	0.172880
436.000000	0.000000	0.168648
437.000000	0.000000	0.176487
438.000000	0.000000	0.184579
439.000000	0.000000	0.172451
440.000000	0.000000	0.158610
441.000000	0.000000	0.150634
442.000000	0.000000	0.147782
443.000000	0.000000	0.149148
444.000000	0.000000	0.146307
445.000000	0.000000	0.134726
446.000000	0.000000	0.125417
447.000000	0.000000	0.110748
448.000000	0.000000	0.117067
449.000000	0.000000	0.127770
450.000000	0.000000	0.115034
451.000000	0.000000	0.114237
452.000000	0.000000	0.120690
453.000000	0.000000	0.112164
454.000000	0.000000	0.128598
455.000000	0.000000	0.124005
456.000000	0.000000	0.112147
457.000000	0.000000	0.125030
458.000000	0.000000	0.129816
459.000000	0.000000	0.128445
460.000000	0.000000	0.129153
461.000000	0.000000	0.123006
462.000000	0.000000	0.110075
463.000000	0.000000	0.137563
464.000000	0.000000	0.129307
465.000000	0.000000	0.125816
466.000000	0.000000	0.141013
467.000000	0.000000	0.139889
468.000000	0.000000	0.144215
469.000000	0.000000	0.157222
470.000000	0.000000	0.180251
471.000000	0.000000	0.218918
472.000000	0.000000	0.230384
473.000000	0.000000	0.251237
474.000000	0.000000	0.249677
475.000000	0.000000	0.262045
476.000000	0.000000	0.275527
477.000000	0.000000	0.307022
478.000000	0.000000	0.339047
479.000000	0.000000	0.348784
480.000000	0.000000	0.351805
481.000000	0.000000	0.355721
482.000000	0.000000	0.338485
483.000000	0.000000	0.344380
484.000000	0.000000	0.340794
485.000000	0.000000	0.329534
486.000000	0.000000	0.304362
487.000000	0.000000	0.294283
488.000000	0.000000	0.263773
489.000000	0.000000	0.224614
490.000000	0.000000	0.208320
491.000000	0.000000	0.183903
492.000000	0.000000	0.186195
493.000000	0.000000	0.216784
494.000000	0.000000	0.272850
495.000000	0.000000	0.314880
496.000000	0.000000	0.367968
497.000000	0.000000	0.462437
498.000000	0.000000	0.507762
499.000000	0.000000	0.545479
500.000000	0.000000	0.592392
501.000000	0.000000	0.668575
502.000000	0.000000	0.724700
503.000000	0.000000	0.773707
504.000000	0.000000	0.791669
505.000000	0.000000	0.817544
506.000000	0.000000	0.837213
507.000000	0.000000	0.819123
508.000000	0.000000	0.823725
509.000000	0.000000	0.854374
510.000000	0.000000	0.838834
511.000000	0.000000	0.834671
512.000000	0.000000	0.819562
513.000000	0.000000	0.810210
514.000000	0.000000	0.784955
515.000000	0.000000	0.750141
516.000000	0.000000	0.750819
517.000000	0.000000	0.722019
518.000000	0.000000	0.737354
519.000000	0.000000	0.743382
520.000000	0.000000	0.741443
521.000000	0.000000	0.728301
522.000000	0.000000	0.712215
523.000000	0.000000	0.720025
524.000000	0.000000	0.713477
525.000000	0.000000	0.725348
526.000000	0.000000	0.737432
527.000000	0.000000	0.747406
528.000000	0.000000	0.767235
529.000000	0.000000	0.752597
530.000000	0.000000	0.759726
531.000000	0.000000	0.763677
532.000000	0.000000	0.799643
533.000000	0.000000	0.794271
534.000000	0.000000	0.825505
535.000000	0.000000	0.846181
536.000000	0.000000	0.863991
537.000000	0.000000	0.889472
538.000000	0.000000	0.878112
539.000000	0.000000	0.865462
540.000000	0.000000	0.873609
541.000000	0.000000	0.887450
542.000000	0.000000	0.899542
543.000000	0.000000	0.877616
544.000000	0.000000	0.855819
545.000000	0.000000	0.851370
546.000000	0.000000	0.817317
547.000000	0.000000	0.790335
548.000000	0.000000	0.756741
549.000000	0.000000	0.699864
550.000000	0.000000	0.677622
551.000000	0.000000	0.644543
552.000000	0.000000	0.631337
553.000000	0.000000	0.606016
554.000000	0.000000	0.572144
555.000000	0.000000	0.541138
556.000000	0.000000	0.524212
557.000000	0.000000	0.494968
558.000000	0.000000	0.452077
559.000000	0.000000	0.439394
560.000000	0.000000	0.415556
561.000000	0.000000	0.407125
562.000000	0.000000	0.423821
563.000000	0.000000	0.430199
564.000000	0.000000	0.471840
565.000000	0.000000	0.480732
566.000000	0.000000	0.509435
567.000000	0.000000	0.511274
568.000000	0.000000	0.525471
569.000000	0.000000	0.521742
570.000000	0.000000	0.539683
571.000000	0.000000	0.552105
572.000000	0.000000	0.544591
573.000000	0.000000	0.508618
574.000000	0.000000	0.484102
575.000000	0.000000	0.464086
576.000000	0.000000	0.444687
577.000000	0.000000	0.409143
578.000000	0.000000	0.385961
579.000000	0.000000	0.359353
580.000000	0.000000	0.338055
581.000000	0.000000	0.318333
582.000000	0.000000	0.325731
583.000000	0.000000	0.324356
584.000000	0.000000	0.315500
585.000000	0.000000	0.325064
586.000000	0.000000	0.346313
587.000000	0.000000	0.374479
588.000000	0.000000	0.393388
589.000000	0.000000	0.448749
590.000000	0.000000	0.496594
591.000000	0.000000	0.580715
592.000000	0.000000	0.638163
593.000000	0.000000	0.705733
594.000000	0.000000	0.778117
595.000000	0.000000	0.826564
596.000000	0.000000	0.877740
597.000000	0.000000	0.896626
598.000000	0.000000	0.904788
599.000000	0.000000	0.928689
600.000000	0.000000	0.916420
601.000000	0.000000	0.887463
602.000000	0.000000	0.882889
603.000000	0.000000	0.851482
604.000000	0.000000	0.838837
605.000000	0.000000	0.819519
606.000000	0.000000	0.780194
607.000000	0.000000	0.743185
608.000000	0.000000	0.739725
609.000000	0.000000	0.734471
610.000000	0.000000	0.746539
611.000000	0.000000	0.764707
612.000000	0.000000	0.755186
613.000000	0.000000	0.741835
614.000000	0.000000	0.757841
615.000000	0.000000	0.795161
616.000000	0.000000	0.834053
617.000000	0.000000	0.846325
618.000000	0.000000	0.854026
619.000000	0.000000	0.908761
620.000000	0.000000	0.971060
621.000000	0.000000	0.989102
622.000000	0.000000	1.010272
623.000000	0.000000	1.018628
624.000000	0.000000	0.995646
625.000000	0.000000	0.969609
626.000000	0.000000	0.889047
627.000000	0.000000	0.792586
628.000000	0.000000	0.712253
629.000000	0.000000	0.628702
630.000000	0.000000	0.536269
631.000000	0.000000	0.443980
632.000000	0.000000	0.331678
633.000000	0.000000	0.241380
634.000000	0.000000	0.200950
635.000000	0.000000	0.171621
636.000000	0.000000	0.175084
637.000000	0.000000	0.233877
638.000000	0.000000	0.285736
639.000000	0.000000	0.353266
640.000000	0.000000	0.412153
641.000000	0.000000	0.446933
642.000000	0.000000	0.474157
643.000000	0.000000	0.506500
644.000000	0.000000	0.515771
645.000000	0.000000	0.515341
646.000000	0.000000	0.506282
647.000000	0.000000	0.472311
648.000000	0.000000	0.459909
649.000000	0.000000	0.479439
650.000000	0.000000	0.461020
651.000000	0.000000	0.429213
652.000000	0.000000	0.403105
653.000000	0.000000	0.384461
654.000000	0.000000	0.365467
655.000000	0.000000	0.370430
656.000000	0.000000	0.365700
657.000000	0.000000	0.327078
658.000000	0.000000	0.301516
659.000000	0.000000	0.299794
660.000000	0.000000	0.268589
661.000000	0.000000	0.253124
662.000000	0.000000	0.278501
663.000000	0.000000	0.297679
664.000000	0.000000	0.275036
665.000000	0.000000	0.281752
666.000000	0.000000	0.284034
667.000000	0.000000	0.285594
668.000000	0.000000	0.303901
669.000000	0.000000	0.284556
670.000000	0.000000	0.279809
671.000000	0.000000	0.305083
672.000000	0.000000	0.329777
673.000000	0.000000	0.337171
674.000000	0.000000	0.379174
675.000000	0.000000	0.401534
676.000000	0.000000	0.393005
677.000000	0.000000	0.388227
678.000000	0.000000	0.425553
679.000000	0.000000	0.429764
680.000000	0.000000	0.416457
681.000000	0.000000	0.404903
682.000000	0.000000	0.401923
683.000000	0.000000	0.404480
684.000000	0.000000	0.402944
685.000000	0.000000	0.400765
686.000000	0.000000	0.368413
687.000000	0.000000	0.366792
688.000000	0.000000	0.364615
689.000000	0.000000	0.409929
690.000000	0.000000	0.410769
691.000000	0.000000	0.414593
692.000000	0.000000	0.406586
693.000000	0.000000	0.417086
694.000000	0.000000	0.390974
695.000000	0.000000	0.357762
696.000000	0.000000	0.395220
697.000000	0.000000	0.368425
698.000000	0.000000	0.395480
699.000000	0.000000	0.407635
700.000000	0.000000	0.394676
701.000000	0.000000	0.393850
702.000000	0.000000	0.427106
703.000000	0.000000	0.410827
704.000000	0.000000	0.413758
705.000000	0.000000	0.416553
706.000000	0.000000	0.416574
707.000000	0.000000	0.437007
708.000000	0.000000	0.436972
709.000000	0.000000	0.466968
710.000000	0.000000	0.440921
711.000000	0.000000	0.461471
712.000000	0.000000	0.426375
713.000000	0.000000	0.410743
714.000000	0.000000	0.405203
715.000000	0.000000	0.429379
716.000000	0.000000	0.452054
717.000000	0.000000	0.472523
718.000000	0.000000	0.455985
719.000000	0.000000	0.424639
720.000000	0.000000	0.439412
721.000000	0.000000	0.423600
722.000000	0.000000	0.486543
723.000000	0.000000	0.504803
724.000000	0.000000	0.468788
725.000000	0.000000	0.575564
726.000000	0.000000	0.515961
727.000000	0.000000	0.485645
728.000000	0.000000	0.550393
729.000000	0.000000	0.509505
730.000000	0.000000	0.469370
731.000000	0.000000	0.508338
732.000000	0.000000	0.544181
733.000000	0.000000	0.462701
734.000000	0.000000	0.473187
735.000000	0.000000	0.533124
736.000000	0.000000	0.565109
737.000000	0.000000	0.547953
738.000000	0.000000	0.498856
739.000000	0.000000	0.483853
740.000000	0.000000	0.504311
741.000000	0.000000	0.481947
742.000000	0.000000	0.499313
743.000000	0.000000	0.586389
744.000000	0.000000	0.526997
745.000000	0.000000	0.620605
746.000000	0.000000	0.559265
747.000000	0.000000	0.609799
748.000000	0.000000	0.563365
749.000000	0.000000	0.548457
750.000000	0.000000	0.544916
751.000000	0.000000	0.546797
752.000000	0.000000	0.515003
753.000000	0.000000	0.570613
754.000000	0.000000	0.586589
755.000000	0.000000	0.553612
756.000000	0.000000	0.497291
757.000000	0.000000	0.527440
758.000000	0.000000	0.573332
759.000000	0.000000	0.561041
760.000000	0.000000	0.631728
761.000000	0.000000	0.653680
762.000000	0.000000	0.705036
763.000000	0.000000	0.703736
764.000000	0.000000	0.746745
765.000000	0.000000	0.614495
766.000000	0.000000	0.786876
767.000000	0.000000	0.705241
768.000000	0.000000	0.729881
769.000000	0.000000	0.721960
770.000000	0.000000	0.608961
771.000000	0.000000	0.650480
772.000000	0.000000	0.648843
773.000000	0.000000	0.635991
774.000000	0.000000	0.580235
775.000000	0.000000	0.775644
776.000000	0.000000	0.751014
777.000000	0.000000	0.643924
778.000000	0.000000	0.699573
779.000000	0.000000	0.746291
780.000000	0.000000	0.797404
781.000000	0.000000	0.895400
782.000000	0.000000	0.774543
783.000000	0.000000	0.827718
784.000000	0.000000	0.817103
785.000000	0.000000	0.775103
786.000000	0.000000	0.717495
787.000000	0.000000	0.684771
788.000000	0.000000	0.722394
789.000000	0.000000	0.802084
790.000000	0.000000	0.719561
791.000000	0.000000	0.749144
792.000000	0.000000	0.776855
793.000000	0.000000	0.697396
794.000000	0.000000	0.591419
795.000000	0.000000	0.693514
796.000000	0.000000	0.689348
797.000000	0.000000	0.680789
798.000000	0.000000	0.760687
799.000000	0.000000	0.697639
800.000000	0.000000	0.751119
801.000000	0.000000	0.899179
802.000000	0.000000	0.726814
803.000000	0.000000	0.778718
804.000000	0.000000	0.820603
805.000000	0.000000	0.814988
806.000000	0.000000	0.789209
807.000000	0.000000	0.735899
808.000000	0.000000	0.775910
809.000000	0.000000	0.844923
810.000000	0.000000	0.690935
811.000000	0.000000	0.657114
812.000000	0.000000	0.807227
813.000000	0.000000	0.736333
814.000000	0.000000	0.871101
815.000000	0.000000	0.776436
816.000000	0.000000	0.774103
817.000000	0.000000	0.858421
818.000000	0.000000	1.021779
819.000000	0.000000	0.773973
820.000000	0.000000	0.969987
821.000000	0.000000	1.028449
822.000000	0.000000	0.914686
823.000000	0.000000	0.939436
824.000000	0.000000	1.040362
825.000000	0.000000	1.011446
826.000000	0.000000	0.914241
827.000000	0.000000	0.928376
828.000000	0.000000	1.174828
829.000000	0.000000	1.108841
830.000000	0.000000	1.134742
831.000000	0.000000	1.074513
832.000000	0.000000	1.286767
833.000000	0.000000	1.139067
834.000000	0.000000	1.192595
835.000000	0.000000	1.322517
836.000000	0.000000	1.304280
837.000000	0.000000	1.379344
838.000000	0.000000	1.173230
839.000000	0.000000	1.323771
840.000000	0.000000	1.347721
841.000000	0.000000	1.329868
842.000000	0.000000	1.243531
843.000000	0.000000	1.215202
844.000000	0.000000	1.135909
845.000000	0.000000	1.274239
846.000000	0.000000	1.338714
847.000000	0.000000	1.419998
848.000000	0.000000	1.241403
849.000000	0.000000	1.041381
850.000000	0.000000	1.143329
851.000000	0.000000	1.255241
852.000000	0.000000	1.330393
853.000000	0.000000	1.574415
854.000000	0.000000	1.200085
855.000000	0.000000	1.561256
856.000000	0.000000	1.469392
857.000000	0.000000	1.528351
858.000000	0.000000	1.518397
859.000000	0.000000	1.500745
860.000000	0.000000	1.513363
861.000000	0.000000	1.511791
862.000000	0.000000	1.525359
863.000000	0.000000	1.525688
864.000000	0.000000	1.523454
865.000000	0.000000	1.538115
866.000000	0.000000	1.543571
867.000000	0.000000	1.540014
868.000000	0.000000	1.534832
869.000000	0.000000	1.529609
870.000000	0.000000	1.545760
871.000000	0.000000	1.552217
872.000000	0.000000	1.577420
873.000000	0.000000	1.562969
874.000000	0.000000	1.505290
875.000000	0.000000	1.444787
876.000000	0.000000	1.432528
877.000000	0.000000	1.408022
878.000000	0.000000	1.359911
879.000000	0.000000	1.315320
880.000000	0.000000	1.298450
881.000000	0.000000	1.287104
882.000000	0.000000	1.274364
883.000000	0.000000	1.264476
884.000000	0.000000	1.256055
885.000000	0.000000	1.227078
886.000000	0.000000	1.216819
887.000000	0.000000	1.204899
888.000000	0.000000	1.188141
889.000000	0.000000	1.185439
890.000000	0.000000	1.183838
891.000000	0.000000	1.183361
892.000000	0.000000	1.180631
893.000000	0.000000	1.183159
894.000000	0.000000	1.186040
895.000000	0.000000	1.192724
896.000000	0.000000	1.204256
897.000000	0.000000	1.198572
898.000000	0.000000	1.192956
899.000000	0.000000	1.199474
900.000000	0.000000	1.213310
901.000000	0.000000	1.218543
902.000000	0.000000	1.229447
903.000000	0.000000	1.228854
904.000000	0.000000	1.218356
905.000000	0.000000	1.226142
906.000000	0.000000	1.234313
907.000000	0.000000	1.225738
908.000000	0.000000	1.233821
909.000000	0.000000	1.247334
910.000000	0.000000	1.255690
911.000000	0.000000	1.258805
912.000000	0.000000	1.261183
913.000000	0.000000	1.261876
914.000000	0.000000	1.271104
915.000000	0.000000	1.266504
916.000000	0.000000	1.256675
917.000000	0.000000	1.257736
918.000000	0.000000	1.255818
919.000000	0.000000	1.257854
920.000000	0.000000	1.260796
921.000000	0.000000	1.252850
922.000000	0.000000	1.254862
923.000000	0.000000	1.274758
924.000000	0.000000	1.279904
925.000000	0.000000	1.264386
926.000000	0.000000	1.270240
927.000000	0.000000	1.288345
928.000000	0.000000	1.307322
929.000000	0.000000	1.313345
930.000000	0.000000	1.317827
931.000000	0.000000	1.333834
932.000000	0.000000	1.347948
933.000000	0.000000	1.345672
934.000000	0.000000	1.353278
935.000000	0.000000	1.359308
936.000000	0.000000	1.364367
937.000000	0.000000	1.385854
938.000000	0.000000	1.398487
939.000000	0.000000	1.396764
940.000000	0.000000	1.400308
941.000000	0.000000	1.397458
942.000000	0.000000	1.401699
943.000000	0.000000	1.408967
944.000000	0.000000	1.418281
945.000000	0.000000	1.421902
946.000000	0.000000	1.425865
947.000000	0.000000	1.425569
948.000000	0.000000	1.435105
949.000000	0.000000	1.454484
950.000000	0.000000	1.464012
951.000000	0.000000	1.464927
952.000000	0.000000	1.471640
953.000000	0.000000	1.477433
954.000000	0.000000	1.485198
955.000000	0.000000	1.495166
956.000000	0.000000	1.488225
957.000000	0.000000	1.496791
958.000000	0.000000	1.502270
959.000000	0.000000	1.500797
960.000000	0.000000	1.504036
961.000000	0.000000	1.494496
962.000000	0.000000	1.498779
963.000000	0.000000	1.504329
964.000000	0.000000	1.501720
965.000000	0.000000	1.498508
966.000000	0.000000	1.501577
967.000000	0.000000	1.502745
968.000000	0.000000	1.500589
969.000000	0.000000	1.498274
970.000000	0.000000	1.496008
971.000000	0.000000	1.491993
972.000000	0.000000	1.496765
973.000000	0.000000	1.501631
974.000000	0.000000	1.504639
975.000000	0.000000	1.508152
976.000000	0.000000	1.517539
977.000000	0.000000	1.519555
978.000000	0.000000	1.519709
979.000000	0.000000	1.522921
980.000000	0.000000	1.525948
981.000000	0.000000	1.523674
982.000000	0.000000	1.532560
983.000000	0.000000	1.531876
984.000000	0.000000	1.536870
985.000000	0.000000	1.540926
986.000000	0.000000	1.545778
987.000000	0.000000	1.553116
988.000000	0.000000	1.550596
989.000000	0.000000	1.550943
990.000000	0.000000	1.558001
991.000000	0.000000	1.553705
992.000000	0.000000	1.555747
993.000000	0.000000	1.559065
994.000000	0.000000	1.579172
995.000000	0.000000	1.584146
996.000000	0.000000	1.588955
997.000000	0.000000	1.596512
998.000000	0.000000	1.615900
999.000000	0.000000	1.619305
1000.000000	0.000000	1.620749
1001.000000	0.000000	1.627919
1002.000000	0.000000	1.644521
1003.000000	0.000000	1.656843
1004.000000	0.000000	1.649888
1005.000000	0.000000	1.644451
1006.000000	0.000000	1.653008
1007.000000	0.000000	1.672787
1008.000000	0.000000	1.686238
1009.000000	0.000000	1.687378
1010.000000	0.000000	1.683182
1011.000000	0.000000	1.675428
1012.000000	0.000000	1.695704
1013.000000	0.000000	1.715727
1014.000000	0.000000	1.709210
1015.000000	0.000000	1.703525
1016.000000	0.000000	1.711991
1017.000000	0.000000	1.713181
1018.000000	0.000000	1.733903
1019.000000	0.000000	1.734337
1020.000000	0.000000	1.728365
1021.000000	0.000000	1.718870
1022.000000	0.000000	1.718265
1023.000000	0.000000	1.727633
1024.000000	0.000000	1.727388
1025.000000	0.000000	1.736181
1026.000000	0.000000	1.730629
1027.000000	0.000000	1.722940
1028.000000	0.000000	1.722516
1029.000000	0.000000	1.730760
1030.000000	0.000000	1.731305
1031.000000	0.000000	1.747144
1032.000000	0.000000	1.738616
1033.000000	0.000000	1.745362
1034.000000	0.000000	1.743655
1035.000000	0.000000	1.740089
1036.000000	0.000000	1.743924
1037.000000	0.000000	1.739563
1038.000000	0.000000	1.747896
1039.000000	0.000000	1.743236
1040.000000	0.000000	1.751505
1041.000000	0.000000	1.760350
1042.000000	0.000000	1.760997
1043.000000	0.000000	1.755771
1044.000000	0.000000	1.750609
1045.000000	0.000000	1.771232
1046.000000	0.000000	1.771022
1047.000000	0.000000	1.765065
1048.000000	0.000000	1.780649
1049.000000	0.000000	1.774025
1050.000000	0.000000	1.781961
1051.000000	0.000000	1.787684
1052.000000	0.000000	1.788839
1053.000000	0.000000	1.787042
1054.000000	0.000000	1.791804
1055.000000	0.000000	1.798089
1056.000000	0.000000	1.798246
1057.000000	0.000000	1.800115
1058.000000	0.000000	1.800059
1059.000000	0.000000	1.789715
1060.000000	0.000000	1.810078
1061.000000	0.000000	1.808334
1062.000000	0.000000	1.810498
1063.000000	0.000000	1.813505
1064.000000	0.000000	1.821034
1065.000000	0.000000	1.814261
1066.000000	0.000000	1.826059
1067.000000	0.000000	1.822620
1068.000000	0.000000	1.819994
1069.000000	0.000000	1.839769
1070.000000	0.000000	1.850789
1071.000000	0.000000	1.839641
1072.000000	0.000000	1.858718
1073.000000	0.000000	1.848758
1074.000000	0.000000	1.861206
1075.000000	0.000000	1.852542
1076.000000	0.000000	1.856739
1077.000000	0.000000	1.868753
1078.000000	0.000000	1.873951
1079.000000	0.000000	1.870062
1080.000000	0.000000	1.877335
1081.000000	0.000000	1.880664
1082.000000	0.000000	1.880412
1083.000000	0.000000	1.884819
1084.000000	0.000000	1.885424
1085.000000	0.000000	1.888675
1086.000000	0.000000	1.895292
1087.000000	0.000000	1.882708
1088.000000	0.000000	1.880827
1089.000000	0.000000	1.904143
1090.000000	0.000000	1.906336
1091.000000	0.000000	1.891056
1092.000000	0.000000	1.909954
1093.000000	0.000000	1.898681
1094.000000	0.000000	1.906795
1095.000000	0.000000	1.909674
1096.000000	0.000000	1.905819
1097.000000	0.000000	1.914172
1098.000000	0.000000	1.894611
1099.000000	0.000000	1.911731
1100.000000	0.000000	1.908035
1101.000000	0.000000	1.909757
1102.000000	0.000000	1.921245
1103.000000	0.000000	1.924945
1104.000000	0.000000	1.921146
1105.000000	0.000000	1.930925
1106.000000	0.000000	1.933631
1107.000000	0.000000	1.925391
1108.000000	0.000000	1.927802
1109.000000	0.000000	1.931447
1110.000000	0.000000	1.935045
1111.000000	0.000000	1.938117
1112.000000	0.000000	1.943703
1113.000000	0.000000	1.929851
1114.000000	0.000000	1.933280
1115.000000	0.000000	1.937135
1116.000000	0.000000	1.929859
1117.000000	0.000000	1.937579
1118.000000	0.000000	1.948746
1119.000000	0.000000	1.934032
1120.000000	0.000000	1.931679
1121.000000	0.000000	1.941526
1122.000000	0.000000	1.943434
1123.000000	0.000000	1.946066
1124.000000	0.000000	1.943492
1125.000000	0.000000	1.958151
1126.000000	0.000000	1.944998
1127.000000	0.000000	1.938109
1128.000000	0.000000	1.945313
1129.000000	0.000000	1.936033
1130.000000	0.000000	1.950744
1131.000000	0.000000	1.959272
1132.000000	0.000000	1.962110
1133.000000	0.000000	1.966076
1134.000000	0.000000	1.964272
1135.000000	0.000000	1.965029
1136.000000	0.000000	1.980354
1137.000000	0.000000	2.000684
1138.000000	0.000000	2.018384
1139.000000	0.000000	2.021042
1140.000000	0.000000	2.037196
1141.000000	0.000000	2.061112
1142.000000	0.000000	2.077162
1143.000000	0.000000	2.091422
1144.000000	0.000000	2.091847
1145.000000	0.000000	2.112771
1146.000000	0.000000	2.142371
1147.000000	0.000000	2.150562
1148.000000	0.000000	2.141594
1149.000000	0.000000	2.141295
1150.000000	0.000000	2.151242
1151.000000	0.000000	2.152518
1152.000000	0.000000	2.135346
1153.000000	0.000000	2.126587
1154.000000	0.000000	2.133651
1155.000000	0.000000	2.135856
1156.000000	0.000000	2.134793
1157.000000	0.000000	2.128440
1158.000000	0.000000	2.130921
1159.000000	0.000000	2.136380
1160.000000	0.000000	2.152231
1161.000000	0.000000	2.165192
1162.000000	0.000000	2.171321
1163.000000	0.000000	2.176509
1164.000000	0.000000	2.187686
1165.000000	0.000000	2.187984
1166.000000	0.000000	2.205397
1167.000000	0.000000	2.216875
1168.000000	0.000000	2.213744
1169.000000	0.000000	2.222844
1170.000000	0.000000	2.238305
1171.000000	0.000000	2.239648
1172.000000	0.000000	2.252921
1173.000000	0.000000	2.256861
1174.000000	0.000000	2.278408
1175.000000	0.000000	2.281497
1176.000000	0.000000	2.284280
1177.000000	0.000000	2.293108
1178.000000	0.000000	2.294378
1179.000000	0.000000	2.310836
1180.000000	0.000000	2.323545
1181.000000	0.000000	2.343877
1182.000000	0.000000	2.373262
1183.000000	0.000000	2.404542
1184.000000	0.000000	2.424982
1185.000000	0.000000	2.437662
1186.000000	0.000000	2.459293
1187.000000	0.000000	2.475436
1188.000000	0.000000	2.482069
1189.000000	0.000000	2.486776
1190.000000	0.000000	2.470158
1191.000000	0.000000	2.469904
1192.000000	0.000000	2.456522
1193.000000	0.000000	2.431149
1194.000000	0.000000	2.416293
1195.000000	0.000000	2.404974
1196.000000	0.000000	2.390099
1197.000000	0.000000	2.386751
1198.000000	0.000000	2.390145
1199.000000	0.000000	2.390097
1200.000000	0.000000	2.386121
1201.000000	0.000000	2.377953
1202.000000	0.000000	2.389109
1203.000000	0.000000	2.405932
1204.000000	0.000000	2.405749
1205.000000	0.000000	2.402511
1206.000000	0.000000	2.407450
1207.000000	0.000000	2.419198
1208.000000	0.000000	2.419449
1209.000000	0.000000	2.418963
1210.000000	0.000000	2.414948
1211.000000	0.000000	2.407295
1212.000000	0.000000	2.410236
1213.000000	0.000000	2.406693
1214.000000	0.000000	2.389532
1215.000000	0.000000	2.385618
1216.000000	0.000000	2.393282
1217.000000	0.000000	2.382137
1218.000000	0.000000	2.371661
1219.000000	0.000000	2.369396
1220.000000	0.000000	2.355118
1221.000000	0.000000	2.346093
1222.000000	0.000000	2.340340
1223.000000	0.000000	2.329758
1224.000000	0.000000	2.320788
1225.000000	0.000000	2.304405
1226.000000	0.000000	2.296710
1227.000000	0.000000	2.289351
1228.000000	0.000000	2.271473
1229.000000	0.000000	2.263474
1230.000000	0.000000	2.261436
1231.000000	0.000000	2.255024
1232.000000	0.000000	2.244275
1233.000000	0.000000	2.238705
1234.000000	0.000000	2.233226
1235.000000	0.000000	2.219895
1236.000000	0.000000	2.206186
1237.000000	0.000000	2.199791
1238.000000	0.000000	2.202296
1239.000000	0.000000	2.206528
1240.000000	0.000000	2.195763
1241.000000	0.000000	2.189071
1242.000000	0.000000	2.182656
1243.000000	0.000000	2.179134
1244.000000	0.000000	2.179741
1245.000000	0.000000	2.176927
1246.000000	0.000000	2.173843
1247.000000	0.000000	2.169092
1248.000000	0.000000	2.162486
1249.000000	0.000000	2.165906
1250.000000	0.000000	2.168552
1251.000000	0.000000	2.165053
1252.000000	0.000000	2.161874
1253.000000	0.000000	2.154179
1254.000000	0.000000	2.156579
1255.000000	0.000000	2.156598
1256.000000	0.000000	2.158387
1257.000000	0.000000	2.152344
1258.000000	0.000000	2.142584
1259.000000	0.000000	2.137818
1260.000000	0.000000	2.137227
1261.000000	0.000000	2.137229
1262.000000	0.000000	2.141536
1263.000000	0.000000	2.142621
1264.000000	0.000000	2.142396
1265.000000	0.000000	2.135136
1266.000000	0.000000	2.123914
1267.000000	0.000000	2.123154
1268.000000	0.000000	2.121557
1269.000000	0.000000	2.128997
1270.000000	0.000000	2.125451
1271.000000	0.000000	2.118266
1272.000000	0.000000	2.121947
1273.000000	0.000000	2.119469
1274.000000	0.000000	2.122163
1275.000000	0.000000	2.121967
1276.000000	0.000000	2.118519
1277.000000	0.000000	2.117427
1278.000000	0.000000	2.119640
1279.000000	0.000000	2.118339
1280.000000	0.000000	2.117357
1281.000000	0.000000	2.115684
1282.000000	0.000000	2.111103
1283.000000	0.000000	2.107589
1284.000000	0.000000	2.114271
1285.000000	0.000000	2.120177
1286.000000	0.000000	2.123653
1287.000000	0.000000	2.118426
1288.000000	0.000000	2.116943
1289.000000	0.000000	2.106357
1290.000000	0.000000	2.108555
1291.000000	0.000000	2.110292
1292.000000	0.000000	2.108162
1293.000000	0.000000	2.106636
1294.000000	0.000000	2.110060
1295.000000	0.000000	2.108296
1296.000000	0.000000	2.110552
1297.000000	0.000000	2.112849
1298.000000	0.000000	2.119201
1299.000000	0.000000	2.113076
1300.000000	0.000000	2.110401
1301.000000	0.000000	2.125435
1302.000000	0.000000	2.118014
1303.000000	0.000000	2.114371
1304.000000	0.000000	2.113670
1305.000000	0.000000	2.119954
1306.000000	0.000000	2.110605
1307.000000	0.000000	2.109050
1308.000000	0.000000	2.107266
1309.000000	0.000000	2.115078
1310.000000	0.000000	2.117924
1311.000000	0.000000	2.116231
1312.000000	0.000000	2.114511
1313.000000	0.000000	2.112700
1314.000000	0.000000	2.117062
1315.000000	0.000000	2.117548
1316.000000	0.000000	2.110897
1317.000000	0.000000	2.120441
1318.000000	0.000000	2.137649
1319.000000	0.000000	2.136521
1320.000000	0.000000	2.126732
1321.000000	0.000000	2.131180
1322.000000	0.000000	2.127432
1323.000000	0.000000	2.135374
1324.000000	0.000000	2.141076
1325.000000	0.000000	2.144552
1326.000000	0.000000	2.142893
1327.000000	0.000000	2.140012
1328.000000	0.000000	2.140320
1329.000000	0.000000	2.156070
1330.000000	0.000000	2.150764
1331.000000	0.000000	2.147135
1332.000000	0.000000	2.169200
1333.000000	0.000000	2.148877
1334.000000	0.000000	2.152107
1335.000000	0.000000	2.161192
1336.000000	0.000000	2.157790
1337.000000	0.000000	2.160644
1338.000000	0.000000	2.163909
1339.000000	0.000000	2.170541
1340.000000	0.000000	2.175582
1341.000000	0.000000	2.162892
1342.000000	0.000000	2.164131
1343.000000	0.000000	2.174938
1344.000000	0.000000	2.174269
1345.000000	0.000000	2.176531
1346.000000	0.000000	2.175691
1347.000000	0.000000	2.151334
1348.000000	0.000000	2.150189
1349.000000	0.000000	2.156057
1350.000000	0.000000	2.174190
1351.000000	0.000000	2.169400
1352.000000	0.000000	2.173311
1353.000000	0.000000	2.220594
1354.000000	0.000000	2.231065
1355.000000	0.000000	2.246184
1356.000000	0.000000	2.262245
1357.000000	0.000000	2.287032
1358.000000	0.000000	2.291310
1359.000000	0.000000	2.286105
1360.000000	0.000000	2.300111
1361.000000	0.000000	2.290602
1362.000000	0.000000	2.287389
1363.000000	0.000000	2.293457
1364.000000	0.000000	2.290063
1365.000000	0.000000	2.275522
1366.000000	0.000000	2.298639
1367.000000	0.000000	2.302364
1368.000000	0.000000	2.308463
1369.000000	0.000000	2.296812
1370.000000	0.000000	2.314200
1371.000000	0.000000	2.313077
1372.000000	0.000000	2.292476
1373.000000	0.000000	2.324856
1374.000000	0.000000	2.336486
1375.000000	0.000000	2.351375
1376.000000	0.000000	2.357894
1377.000000	0.000000	2.348786
1378.000000	0.000000	2.363701
1379.000000	0.000000	2.353277
1380.000000	0.000000	2.381130
1381.000000	0.000000	2.333042
1382.000000	0.000000	2.329168
1383.000000	0.000000	2.321146
1384.000000	0.000000	2.319040
1385.000000	0.000000	2.344623
1386.000000	0.000000	2.349640
1387.000000	0.000000	2.368683
1388.000000	0.000000	2.339378
1389.000000	0.000000	2.338680
1390.000000	0.000000	2.373396
1391.000000	0.000000	2.347056
1392.000000	0.000000	2.338921
1393.000000	0.000000	2.347034
1394.000000	0.000000	2.351529
1395.000000	0.000000	2.321628
1396.000000	0.000000	2.297699
1397.000000	0.000000	2.296950
1398.000000	0.000000	2.304734
1399.000000	0.000000	2.284224
1400.000000	0.000000	2.248386
1401.000000	0.000000	2.209671
1402.000000	0.000000	2.232426
1403.000000	0.000000	2.209127
1404.000000	0.000000	2.214144
1405.000000	0.000000	2.209145
1406.000000	0.000000	2.186951
1407.000000	0.000000	2.190487
1408.000000	0.000000	2.182572
1409.000000	0.000000	2.176933
1410.000000	0.000000	2.164215
1411.000000	0.000000	2.152584
1412.000000	0.000000	2.163920
1413.000000	0.000000	2.165376
1414.000000	0.000000	2.142972
1415.000000	0.000000	2.130127
1416.000000	0.000000	2.131925
1417.000000	0.000000	2.142161
1418.000000	0.000000	2.128777
1419.000000	0.000000	2.115315
1420.000000	0.000000	2.096122
1421.000000	0.000000	2.095209
1422.000000	0.000000	2.100479
1423.000000	0.000000	2.087310
1424.000000	0.000000	2.078671
1425.000000	0.000000	2.067274
1426.000000	0.000000	2.074598
1427.000000	0.000000	2.064611
1428.000000	0.000000	2.059173
1429.000000	0.000000	2.069672
1430.000000	0.000000	2.069757
1431.000000	0.000000	2.068427
1432.000000	0.000000	2.059284
1433.000000	0.000000	2.060891
1434.000000	0.000000	2.056777
1435.000000	0.000000	2.052076
1436.000000	0.000000	2.059363
1437.000000	0.000000	2.063720
1438.000000	0.000000	2.047015
1439.000000	0.000000	2.052789
1440.000000	0.000000	2.055077
1441.000000	0.000000	2.051125
1442.000000	0.000000	2.041712
1443.000000	0.000000	2.037420
1444.000000	0.000000	2.036490
1445.000000	0.000000	2.036662
1446.000000	0.000000	2.021230
1447.000000	0.000000	2.019375
1448.000000	0.000000	2.009151
1449.000000	0.000000	2.012366
1450.000000	0.000000	2.016443
1451.000000	0.000000	2.008780
1452.000000	0.000000	1.991213
1453.000000	0.000000	1.989171
1454.000000	0.000000	1.978149
1455.000000	0.000000	1.977410
1456.000000	0.000000	1.965392
1457.000000	0.000000	1.962476
1458.000000	0.000000	1.960683
1459.000000	0.000000	1.961366
1460.000000	0.000000	1.959630
1461.000000	0.000000	1.954666
1462.000000	0.000000	1.951779
1463.000000	0.000000	1.942920
1464.000000	0.000000	1.937714
1465.000000	0.000000	1.941006
1466.000000	0.000000	1.944414
1467.000000	0.000000	1.923342
1468.000000	0.000000	1.919064
1469.000000	0.000000	1.924166
1470.000000	0.000000	1.922271
1471.000000	0.000000	1.924143
1472.000000	0.000000	1.910464
1473.000000	0.000000	1.899444
1474.000000	0.000000	1.905775
1475.000000	0.000000	1.911531
1476.000000	0.000000	1.903059
1477.000000	0.000000	1.894336
1478.000000	0.000000	1.889032
1479.000000	0.000000	1.897993
1480.000000	0.000000	1.901313
1481.000000	0.000000	1.897526
1482.000000	0.000000	1.897265
1483.000000	0.000000	1.897404
1484.000000	0.000000	1.899846
1485.000000	0.000000	1.896885
1486.000000	0.000000	1.892076
1487.000000	0.000000	1.879724
1488.000000	0.000000	1.888071
1489.000000	0.000000	1.890811
1490.000000	0.000000	1.882220
1491.000000	0.000000	1.881058
1492.000000	0.000000	1.886929
1493.000000	0.000000	1.888058
1494.000000	0.000000	1.884720
1495.000000	0.000000	1.893355
1496.000000	0.000000	1.902609
1497.000000	0.000000	1.902505
1498.000000	0.000000	1.897867
1499.000000	0.000000	1.900798
1500.000000	0.000000	1.914206
1501.000000	0.000000	1.916855
1502.000000	0.000000	1.915352
1503.000000	0.000000	1.923595
1504.000000	0.000000	1.936556
1505.000000	0.000000	1.937026
1506.000000	0.000000	1.930449
1507.000000	0.000000	1.937834
1508.000000	0.000000	1.949327
1509.000000	0.000000	1.960239
1510.000000	0.000000	1.960963
1511.000000	0.000000	1.960523
1512.000000	0.000000	1.976833
1513.000000	0.000000	1.978490
1514.000000	0.000000	1.982238
1515.000000	0.000000	1.988113
1516.000000	0.000000	1.993375
1517.000000	0.000000	2.005955
1518.000000	0.000000	2.002685
1519.000000	0.000000	2.000633
1520.000000	0.000000	2.013706
1521.000000	0.000000	2.019526
1522.000000	0.000000	2.025044
1523.000000	0.000000	2.023491
1524.000000	0.000000	2.022497
1525.000000	0.000000	2.028972
1526.000000	0.000000	2.025352
1527.000000	0.000000	2.032854
1528.000000	0.000000	2.038371
1529.000000	0.000000	2.033675
1530.000000	0.000000	2.029209
1531.000000	0.000000	2.048018
1532.000000	0.000000	2.050775
1533.000000	0.000000	2.049639
1534.000000	0.000000	2.058792
1535.000000	0.000000	2.053542
1536.000000	0.000000	2.047878
1537.000000	0.000000	2.051403
1538.000000	0.000000	2.058650
1539.000000	0.000000	2.061663
1540.000000	0.000000	2.067034
1541.000000	0.000000	2.062796
1542.000000	0.000000	2.061553
1543.000000	0.000000	2.067328
1544.000000	0.000000	2.062504
1545.000000	0.000000	2.060734
1546.000000	0.000000	2.061953
1547.000000	0.000000	2.066754
1548.000000	0.000000	2.067916
1549.000000	0.000000	2.075998
1550.000000	0.000000	2.082704
1551.000000	0.000000	2.078597
1552.000000	0.000000	2.089635
1553.000000	0.000000	2.089962
1554.000000	0.000000	2.082764
1555.000000	0.000000	2.087698
1556.000000	0.000000	2.092349
1557.000000	0.000000	2.088974
1558.000000	0.000000	2.101601
1559.000000	0.000000	2.098982
1560.000000	0.000000	2.091070
1561.000000	0.000000	2.099564
1562.000000	0.000000	2.099561
1563.000000	0.000000	2.100523
1564.000000	0.000000	2.105258
1565.000000	0.000000	2.103629
1566.000000	0.000000	2.110929
1567.000000	0.000000	2.108358
1568.000000	0.000000	2.099261
1569.000000	0.000000	2.108293
1570.000000	0.000000	2.106481
1571.000000	0.000000	2.103076
1572.000000	0.000000	2.106906
1573.000000	0.000000	2.103288
1574.000000	0.000000	2.110302
1575.000000	0.000000	2.105338
1576.000000	0.000000	2.112795
1577.000000	0.000000	2.101656
1578.000000	0.000000	2.104567
1579.000000	0.000000	2.097661
1580.000000	0.000000	2.098362
1581.000000	0.000000	2.098422
1582.000000	0.000000	2.104304
1583.000000	0.000000	2.100188
1584.000000	0.000000	2.114141
1585.000000	0.000000	2.116186
1586.000000	0.000000	2.127451
1587.000000	0.000000	2.129146
1588.000000	0.000000	2.126944
1589.000000	0.000000	2.128516
1590.000000	0.000000	2.127206
1591.000000	0.000000	2.129194
1592.000000	0.000000	2.129006
1593.000000	0.000000	2.130954
1594.000000	0.000000	2.133867
1595.000000	0.000000	2.138080
1596.000000	0.000000	2.141157
1597.000000	0.000000	2.150214
1598.000000	0.000000	2.149411
1599.000000	0.000000	2.149377
1600.000000	0.000000	2.155335
1601.000000	0.000000	2.146843
1602.000000	0.000000	2.163919
1603.000000	0.000000	2.152261
1604.000000	0.000000	2.159668
1605.000000	0.000000	2.164281
1606.000000	0.000000	2.172030
1607.000000	0.000000	2.157889
1608.000000	0.000000	2.155420
1609.000000	0.000000	2.155408
1610.000000	0.000000	2.145689
1611.000000	0.000000	2.144933
1612.000000	0.000000	2.152235
1613.000000	0.000000	2.148603
1614.000000	0.000000	2.151345
1615.000000	0.000000	2.144434
1616.000000	0.000000	2.138606
1617.000000	0.000000	2.148093
1618.000000	0.000000	2.145636
1619.000000	0.000000	2.133208
1620.000000	0.000000	2.133616
1621.000000	0.000000	2.131006
1622.000000	0.000000	2.114684
1623.000000	0.000000	2.123307
1624.000000	0.000000	2.124032
1625.000000	0.000000	2.119963
1626.000000	0.000000	2.109064
1627.000000	0.000000	2.103658
1628.000000	0.000000	2.098250
1629.000000	0.000000	2.099758
1630.000000	0.000000	2.109017
1631.000000	0.000000	2.103408
1632.000000	0.000000	2.103786
1633.000000	0.000000	2.099292
1634.000000	0.000000	2.099822
1635.000000	0.000000	2.091709
1636.000000	0.000000	2.081203
1637.000000	0.000000	2.087242
1638.000000	0.000000	2.069236
1639.000000	0.000000	2.069548
1640.000000	0.000000	2.048487
1641.000000	0.000000	2.065867
1642.000000	0.000000	2.057749
1643.000000	0.000000	2.053535
1644.000000	0.000000	2.048718
1645.000000	0.000000	2.047776
1646.000000	0.000000	2.030439
1647.000000	0.000000	2.037120
1648.000000	0.000000	2.027902
1649.000000	0.000000	2.019920
1650.000000	0.000000	2.019569
1651.000000	0.000000	2.018416
1652.000000	0.000000	1.995905
1653.000000	0.000000	2.011310
1654.000000	0.000000	1.995134
1655.000000	0.000000	1.988093
1656.000000	0.000000	1.987899
1657.000000	0.000000	1.973007
1658.000000	0.000000	1.964394
1659.000000	0.000000	1.942371
1660.000000	0.000000	1.940924
1661.000000	0.000000	1.925029
1662.000000	0.000000	1.921636
1663.000000	0.000000	1.908270
1664.000000	0.000000	1.889148
1665.000000	0.000000	1.880008
1666.000000	0.000000	1.854008
1667.000000	0.000000	1.841960
1668.000000	0.000000	1.837468
1669.000000	0.000000	1.813921
1670.000000	0.000000	1.806232
1671.000000	0.000000	1.797999
1672.000000	0.000000	1.778939
1673.000000	0.000000	1.766419
1674.000000	0.000000	1.758280
1675.000000	0.000000	1.745383
1676.000000	0.000000	1.726698
1677.000000	0.000000	1.701946
1678.000000	0.000000	1.685746
1679.000000	0.000000	1.683192
1680.000000	0.000000	1.695553
1681.000000	0.000000	1.678467
1682.000000	0.000000	1.700127
1683.000000	0.000000	1.699854
1684.000000	0.000000	1.696158
1685.000000	0.000000	1.707768
1686.000000	0.000000	1.699630
1687.000000	0.000000	1.695592
1688.000000	0.000000	1.692122
1689.000000	0.000000	1.702918
1690.000000	0.000000	1.695640
1691.000000	0.000000	1.713545
1692.000000	0.000000	1.711636
1693.000000	0.000000	1.732309
1694.000000	0.000000	1.749761
1695.000000	0.000000	1.762126
1696.000000	0.000000	1.781952
1697.000000	0.000000	1.784802
1698.000000	0.000000	1.795720
1699.000000	0.000000	1.803418
1700.000000	0.000000	1.811206
1701.000000	0.000000	1.824259
1702.000000	0.000000	1.818362
1703.000000	0.000000	1.819071
1704.000000	0.000000	1.818569
1705.000000	0.000000	1.820927
1706.000000	0.000000	1.806039
1707.000000	0.000000	1.797004
1708.000000	0.000000	1.787385
1709.000000	0.000000	1.794886
1710.000000	0.000000	1.783747
1711.000000	0.000000	1.773259
1712.000000	0.000000	1.762165
1713.000000	0.000000	1.761369
1714.000000	0.000000	1.739556
1715.000000	0.000000	1.737027
1716.000000	0.000000	1.729609
1717.000000	0.000000	1.726559
1718.000000	0.000000	1.727612
1719.000000	0.000000	1.723757
1720.000000	0.000000	1.707293
1721.000000	0.000000	1.699814
1722.000000	0.000000	1.692806
1723.000000	0.000000	1.696479
1724.000000	0.000000	1.700529
1725.000000	0.000000	1.699109
1726.000000	0.000000	1.709956
1727.000000	0.000000	1.712217
1728.000000	0.000000	1.722557
1729.000000	0.000000	1.718780
1730.000000	0.000000	1.736329
1731.000000	0.000000	1.751146
1732.000000	0.000000	1.755973
1733.000000	0.000000	1.756516
1734.000000	0.000000	1.760842
1735.000000	0.000000	1.769230
1736.000000	0.000000	1.765880
1737.000000	0.000000	1.760791
1738.000000	0.000000	1.755614
1739.000000	0.000000	1.746747
1740.000000	0.000000	1.735547
1741.000000	0.000000	1.736653
1742.000000	0.000000	1.727783
1743.000000	0.000000	1.730554
1744.000000	0.000000	1.724120
1745.000000	0.000000	1.713014
1746.000000	0.000000	1.711853
1747.000000	0.000000	1.705421
1748.000000	0.000000	1.711583
1749.000000	0.000000	1.721902
1750.000000	0.000000	1.717778
1751.000000	0.000000	1.709948
1752.000000	0.000000	1.710979
1753.000000	0.000000	1.717332
1754.000000	0.000000	1.716110
1755.000000	0.000000	1.727286
1756.000000	0.000000	1.722669
1757.000000	0.000000	1.713130
1758.000000	0.000000	1.716946
1759.000000	0.000000	1.725004
1760.000000	0.000000	1.728620
1761.000000	0.000000	1.726594
1762.000000	0.000000	1.737252
1763.000000	0.000000	1.742073
1764.000000	0.000000	1.739293
1765.000000	0.000000	1.743913
1766.000000	0.000000	1.744962
1767.000000	0.000000	1.747904
1768.000000	0.000000	1.741164
1769.000000	0.000000	1.738698
1770.000000	0.000000	1.729232
1771.000000	0.000000	1.728802
1772.000000	0.000000	1.729012
1773.000000	0.000000	1.720251
1774.000000	0.000000	1.713454
1775.000000	0.000000	1.713665
1776.000000	0.000000	1.708164
1777.000000	0.000000	1.701040
1778.000000	0.000000	1.700716
1779.000000	0.000000	1.698747
1780.000000	0.000000	1.699143
1781.000000	0.000000	1.697362
1782.000000	0.000000	1.688503
1783.000000	0.000000	1.683936
1784.000000	0.000000	1.682347
1785.000000	0.000000	1.677521
1786.000000	0.000000	1.678344
1787.000000	0.000000	1.675665
1788.000000	0.000000	1.671798
1789.000000	0.000000	1.670058
1790.000000	0.000000	1.674726
1791.000000	0.000000	1.674941
1792.000000	0.000000	1.671357
1793.000000	0.000000	1.669495
1794.000000	0.000000	1.663498
1795.000000	0.000000	1.661544
1796.000000	0.000000	1.662317
1797.000000	0.000000	1.664980
1798.000000	0.000000	1.670874
1799.000000	0.000000	1.674976
1800.000000	0.000000	1.666023
1801.000000	0.000000	1.664047
1802.000000	0.000000	1.662498
1803.000000	0.000000	1.658799
1804.000000	0.000000	1.659265
1805.000000	0.000000	1.664507
1806.000000	0.000000	1.672720
1807.000000	0.000000	1.670051
1808.000000	0.000000	1.671958
1809.000000	0.000000	1.672148
1810.000000	0.000000	1.668104
1811.000000	0.000000	1.669597
1812.000000	0.000000	1.669260
1813.000000	0.000000	1.658763
1814.000000	0.000000	1.657946
1815.000000	0.000000	1.652778
1816.000000	0.000000	1.660692
1817.000000	0.000000	1.670497
1818.000000	0.000000	1.669357
1819.000000	0.000000	1.671155
1820.000000	0.000000	1.672929
1821.000000	0.000000	1.661430
1822.000000	0.000000	1.651783
1823.000000	0.000000	1.652724
1824.000000	0.000000	1.657514
1825.000000	0.000000	1.658113
1826.000000	0.000000	1.658326
1827.000000	0.000000	1.664122
1828.000000	0.000000	1.660160
1829.000000	0.000000	1.653365
1830.000000	0.000000	1.646223
1831.000000	0.000000	1.650049
1832.000000	0.000000	1.652027
1833.000000	0.000000	1.660079
1834.000000	0.000000	1.665504
1835.000000	0.000000	1.675991
1836.000000	0.000000	1.677356
1837.000000	0.000000	1.683372
1838.000000	0.000000	1.678506
1839.000000	0.000000	1.671393
1840.000000	0.000000	1.666735
1841.000000	0.000000	1.653176
1842.000000	0.000000	1.637861
1843.000000	0.000000	1.645019
1844.000000	0.000000	1.654467
1845.000000	0.000000	1.656070
1846.000000	0.000000	1.667700
1847.000000	0.000000	1.662414
1848.000000	0.000000	1.645879
1849.000000	0.000000	1.630732
1850.000000	0.000000	1.621286
1851.000000	0.000000	1.626393
1852.000000	0.000000	1.630274
1853.000000	0.000000	1.634560
1854.000000	0.000000	1.617071
1855.000000	0.000000	1.614761
1856.000000	0.000000	1.617219
1857.000000	0.000000	1.613604
1858.000000	0.000000	1.606864
1859.000000	0.000000	1.585437
1860.000000	0.000000	1.574476
1861.000000	0.000000	1.565021
1862.000000	0.000000	1.562471
1863.000000	0.000000	1.564555
1864.000000	0.000000	1.568955
1865.000000	0.000000	1.569929
1866.000000	0.000000	1.571926
1867.000000	0.000000	1.568948
1868.000000	0.000000	1.579180
1869.000000	0.000000	1.560175
1870.000000	0.000000	1.556590
1871.000000	0.000000	1.541649
1872.000000	0.000000	1.533556
1873.000000	0.000000	1.505865
1874.000000	0.000000	1.477249
1875.000000	0.000000	1.460814
1876.000000	0.000000	1.449373
1877.000000	0.000000	1.426715
1878.000000	0.000000	1.402431
1879.000000	0.000000	1.386825
1880.000000	0.000000	1.391357
1881.000000	0.000000	1.371779
1882.000000	0.000000	1.362199
1883.000000	0.000000	1.342429
1884.000000	0.000000	1.320152
1885.000000	0.000000	1.308391
1886.000000	0.000000	1.291095
1887.000000	0.000000	1.275005
1888.000000	0.000000	1.259150
1889.000000	0.000000	1.252606
1890.000000	0.000000	1.231308
1891.000000	0.000000	1.196181
1892.000000	0.000000	1.158490
1893.000000	0.000000	1.151417
1894.000000	0.000000	1.128388
1895.000000	0.000000	1.111692
1896.000000	0.000000	1.093178
1897.000000	0.000000	1.079024
1898.000000	0.000000	1.082981
1899.000000	0.000000	1.064229
1900.000000	0.000000	1.041192
1901.000000	0.000000	1.011341
1902.000000	0.000000	0.983931
1903.000000	0.000000	0.982334
1904.000000	0.000000	0.948426
1905.000000	0.000000	0.924733
1906.000000	0.000000	0.890114
1907.000000	0.000000	0.874314
1908.000000	0.000000	0.869861
1909.000000	0.000000	0.855719
1910.000000	0.000000	0.837986
1911.000000	0.000000	0.844340
1912.000000	0.000000	0.842269
1913.000000	0.000000	0.822462
1914.000000	0.000000	0.790754
1915.000000	0.000000	0.796061
1916.000000	0.000000	0.766798
1917.000000	0.000000	0.772304
1918.000000	0.000000	0.766118
1919.000000	0.000000	0.769952
1920.000000	0.000000	0.746037
1921.000000	0.000000	0.737275
1922.000000	0.000000	0.727225
1923.000000	0.000000	0.713013
1924.000000	0.000000	0.710324
1925.000000	0.000000	0.711196
1926.000000	0.000000	0.715627
1927.000000	0.000000	0.694720
1928.000000	0.000000	0.697312
1929.000000	0.000000	0.697785
1930.000000	0.000000	0.679400
1931.000000	0.000000	0.673903
1932.000000	0.000000	0.659801
1933.000000	0.000000	0.670664
1934.000000	0.000000	0.666695
1935.000000	0.000000	0.659703
1936.000000	0.000000	0.669726
1937.000000	0.000000	0.663613
1938.000000	0.000000	0.676176
1939.000000	0.000000	0.676305
1940.000000	0.000000	0.666336
1941.000000	0.000000	0.678397
1942.000000	0.000000	0.667578
1943.000000	0.000000	0.654730
1944.000000	0.000000	0.668567
1945.000000	0.000000	0.670346
1946.000000	0.000000	0.687028
1947.000000	0.000000	0.704729
1948.000000	0.000000	0.707274
1949.000000	0.000000	0.696234
1950.000000	0.000000	0.710718
1951.000000	0.000000	0.738426
1952.000000	0.000000	0.717360
1953.000000	0.000000	0.731566
1954.000000	0.000000	0.729085
1955.000000	0.000000	0.734764
1956.000000	0.000000	0.742569
1957.000000	0.000000	0.754169
1958.000000	0.000000	0.766411
1959.000000	0.000000	0.763006
1960.000000	0.000000	0.762868
1961.000000	0.000000	0.766221
1962.000000	0.000000	0.775153
1963.000000	0.000000	0.781341
1964.000000	0.000000	0.801089
1965.000000	0.000000	0.797233
1966.000000	0.000000	0.797108
1967.000000	0.000000	0.805333
1968.000000	0.000000	0.822946
1969.000000	0.000000	0.826104
1970.000000	0.000000	0.819739
1971.000000	0.000000	0.841077
1972.000000	0.000000	0.839593
1973.000000	0.000000	0.853568
1974.000000	0.000000	0.863310
1975.000000	0.000000	0.884172
1976.000000	0.000000	0.891558
1977.000000	0.000000	0.900614
1978.000000	0.000000	0.904855
1979.000000	0.000000	0.908228
1980.000000	0.000000	0.916975
1981.000000	0.000000	0.924641
1982.000000	0.000000	0.933792
1983.000000	0.000000	0.944403
1984.000000	0.000000	0.960920
1985.000000	0.000000	0.978023
1986.000000	0.000000	0.974136
1987.000000	0.000000	0.978184
1988.000000	0.000000	0.997698
1989.000000	0.000000	1.004589
1990.000000	0.000000	1.003478
1991.000000	0.000000	1.017513
1992.000000	0.000000	1.024848
1993.000000	0.000000	1.036226
1994.000000	0.000000	1.048957
1995.000000	0.000000	1.048644
1996.000000	0.000000	1.063261
1997.000000	0.000000	1.061447
1998.000000	0.000000	1.073507
1999.000000	0.000000	1.076807
