PE UV       SUBTECH     SPECTRUM    ASCII       PEDS        4.00        
   -1
CICIMAUCR0002-3.Sample.ASC
24/05/03
15:09:39.00
24/05/03
15:09:39.00
Vinicio Soto Monge
C. kalinini
250,000000
1
Lambda 1050
1050L1511233
PerkinElmer UV WinLab 6.3.2.0749 / 2.02.05 Lambda 900 UV/VIS/NIR, Aug  7 2015 09:38:08

0
0
3350/servo 860,8/2
0
0
UV/VIS
1
1
1
DoubleDePol,CommonBeamDepol,RBeamAtt,SBeamAtt,60mm sphere, WB InGaAs Detector
0
0
0
0
Program
Program
3350/servo 860,8/2
3350/0,2 860,8/0,2
3350/0,2 860,8/0,2
0
15.00
 
 
 
0
 
860,8
319,2
860,8
Front
100
on
S:100 R:100
0
0
0
0
 
0
 
 
 
0
 
 
0
0
0
0
0
 
 
 
 
0
0


0
0
#HDR
-1
-1
#GR
nm
%R
1.0
0.0
2500,000000
-1,000000
2251
8
99,074100
5,519500
#DATA
250.000000	0.235555
251.000000	0.185445
252.000000	0.218132
253.000000	0.185458
254.000000	0.211393
255.000000	0.211846
256.000000	0.207954
257.000000	0.216080
258.000000	0.184124
259.000000	0.200430
260.000000	0.176735
261.000000	0.188994
262.000000	0.206469
263.000000	0.184483
264.000000	0.192423
265.000000	0.193556
266.000000	0.180216
267.000000	0.195367
268.000000	0.184362
269.000000	0.209184
270.000000	0.185461
271.000000	0.169794
272.000000	0.218447
273.000000	0.193132
274.000000	0.177431
275.000000	0.181409
276.000000	0.175562
277.000000	0.186442
278.000000	0.190791
279.000000	0.161444
280.000000	0.190995
281.000000	0.172027
282.000000	0.163948
283.000000	0.187653
284.000000	0.189692
285.000000	0.173642
286.000000	0.192583
287.000000	0.152691
288.000000	0.186290
289.000000	0.181844
290.000000	0.186198
291.000000	0.186557
292.000000	0.195137
293.000000	0.167722
294.000000	0.164901
295.000000	0.204453
296.000000	0.162411
297.000000	0.175174
298.000000	0.192993
299.000000	0.190739
300.000000	0.158001
301.000000	0.189097
302.000000	0.145806
303.000000	0.142204
304.000000	0.147101
305.000000	0.168426
306.000000	0.163122
307.000000	0.162603
308.000000	0.198500
309.000000	0.137493
310.000000	0.172606
311.000000	0.187066
312.000000	0.170354
313.000000	0.148831
314.000000	0.184172
315.000000	0.151754
316.000000	0.174810
317.000000	0.235398
318.000000	0.236347
319.000000	0.734748
320.000000	0.501822
321.000000	0.103380
322.000000	0.504971
323.000000	0.714634
324.000000	0.187196
325.000000	0.160126
326.000000	0.227709
327.000000	0.243156
328.000000	0.158050
329.000000	0.186761
330.000000	0.339108
331.000000	0.168612
332.000000	0.140293
333.000000	0.135464
334.000000	0.092845
335.000000	0.260248
336.000000	0.269695
337.000000	0.237058
338.000000	0.126131
339.000000	0.153778
340.000000	0.285907
341.000000	0.197838
342.000000	0.221323
343.000000	0.191292
344.000000	0.145959
345.000000	0.178148
346.000000	0.137192
347.000000	0.112210
348.000000	0.194778
349.000000	0.208907
350.000000	0.240139
351.000000	0.180928
352.000000	0.154993
353.000000	0.130599
354.000000	0.150633
355.000000	0.135038
356.000000	0.095262
357.000000	0.134339
358.000000	0.181505
359.000000	0.153206
360.000000	0.179518
361.000000	0.197770
362.000000	0.135769
363.000000	0.174250
364.000000	0.160141
365.000000	0.244128
366.000000	0.166754
367.000000	0.163556
368.000000	0.224851
369.000000	0.193350
370.000000	0.213219
371.000000	0.176297
372.000000	0.180335
373.000000	0.306367
374.000000	0.287225
375.000000	0.243564
376.000000	0.198605
377.000000	0.167509
378.000000	0.170612
379.000000	0.173449
380.000000	0.174152
381.000000	0.177401
382.000000	0.181385
383.000000	0.189635
384.000000	0.204280
385.000000	0.206295
386.000000	0.240308
387.000000	0.260354
388.000000	0.251009
389.000000	0.266780
390.000000	0.283192
391.000000	0.300954
392.000000	0.337513
393.000000	0.356978
394.000000	0.374737
395.000000	0.399465
396.000000	0.434545
397.000000	0.471358
398.000000	0.502121
399.000000	0.532849
400.000000	0.567961
401.000000	0.594960
402.000000	0.631074
403.000000	0.660298
404.000000	0.698462
405.000000	0.738884
406.000000	0.774299
407.000000	0.799422
408.000000	0.823137
409.000000	0.862647
410.000000	0.885199
411.000000	0.906845
412.000000	0.927457
413.000000	0.928857
414.000000	0.946705
415.000000	0.961137
416.000000	0.951867
417.000000	0.953599
418.000000	0.951396
419.000000	0.961204
420.000000	0.958386
421.000000	0.937448
422.000000	0.902666
423.000000	0.888366
424.000000	0.873039
425.000000	0.856862
426.000000	0.825082
427.000000	0.792150
428.000000	0.753575
429.000000	0.723302
430.000000	0.711706
431.000000	0.665673
432.000000	0.618508
433.000000	0.593154
434.000000	0.556604
435.000000	0.513846
436.000000	0.473167
437.000000	0.441833
438.000000	0.410567
439.000000	0.384319
440.000000	0.362348
441.000000	0.325109
442.000000	0.286923
443.000000	0.258360
444.000000	0.210314
445.000000	0.181515
446.000000	0.165760
447.000000	0.146976
448.000000	0.129182
449.000000	0.112782
450.000000	0.098240
451.000000	0.060932
452.000000	0.029813
453.000000	0.022806
454.000000	0.058039
455.000000	0.073811
456.000000	0.110136
457.000000	0.132372
458.000000	0.179135
459.000000	0.214570
460.000000	0.252625
461.000000	0.295566
462.000000	0.325515
463.000000	0.357600
464.000000	0.385443
465.000000	0.439402
466.000000	0.488797
467.000000	0.505277
468.000000	0.523081
469.000000	0.556091
470.000000	0.571447
471.000000	0.573896
472.000000	0.571353
473.000000	0.557223
474.000000	0.528242
475.000000	0.498046
476.000000	0.470018
477.000000	0.406927
478.000000	0.333350
479.000000	0.248047
480.000000	0.159279
481.000000	0.100030
482.000000	0.119602
483.000000	0.225614
484.000000	0.364660
485.000000	0.509975
486.000000	0.658748
487.000000	0.822229
488.000000	0.989017
489.000000	1.149976
490.000000	1.310690
491.000000	1.471048
492.000000	1.641252
493.000000	1.793591
494.000000	1.955294
495.000000	2.068104
496.000000	2.166352
497.000000	2.264610
498.000000	2.332178
499.000000	2.412372
500.000000	2.458716
501.000000	2.499936
502.000000	2.505639
503.000000	2.490075
504.000000	2.462199
505.000000	2.429888
506.000000	2.403472
507.000000	2.354046
508.000000	2.306516
509.000000	2.243039
510.000000	2.187057
511.000000	2.130115
512.000000	2.067465
513.000000	2.026141
514.000000	1.979284
515.000000	1.951242
516.000000	1.919543
517.000000	1.901604
518.000000	1.840095
519.000000	1.795706
520.000000	1.766026
521.000000	1.742807
522.000000	1.702135
523.000000	1.661570
524.000000	1.621973
525.000000	1.591512
526.000000	1.560350
527.000000	1.547403
528.000000	1.507482
529.000000	1.488265
530.000000	1.479447
531.000000	1.465874
532.000000	1.450106
533.000000	1.418421
534.000000	1.372602
535.000000	1.339477
536.000000	1.322575
537.000000	1.278199
538.000000	1.237663
539.000000	1.182157
540.000000	1.114278
541.000000	1.046178
542.000000	1.004273
543.000000	0.904684
544.000000	0.831303
545.000000	0.761335
546.000000	0.692139
547.000000	0.613126
548.000000	0.544071
549.000000	0.473327
550.000000	0.398057
551.000000	0.336846
552.000000	0.256722
553.000000	0.205255
554.000000	0.190330
555.000000	0.187500
556.000000	0.187657
557.000000	0.202738
558.000000	0.218781
559.000000	0.300104
560.000000	0.351472
561.000000	0.414933
562.000000	0.466463
563.000000	0.506560
564.000000	0.552736
565.000000	0.641942
566.000000	0.683380
567.000000	0.726207
568.000000	0.807395
569.000000	0.898966
570.000000	0.962843
571.000000	1.009147
572.000000	1.058242
573.000000	1.138766
574.000000	1.181488
575.000000	1.240970
576.000000	1.283751
577.000000	1.357537
578.000000	1.404763
579.000000	1.477926
580.000000	1.593697
581.000000	1.618876
582.000000	1.716149
583.000000	1.748874
584.000000	1.817477
585.000000	1.819027
586.000000	1.871985
587.000000	1.912158
588.000000	1.938102
589.000000	1.985833
590.000000	2.014087
591.000000	2.080596
592.000000	2.084688
593.000000	2.095541
594.000000	2.083737
595.000000	2.069085
596.000000	2.017767
597.000000	1.984425
598.000000	1.931817
599.000000	1.855497
600.000000	1.757637
601.000000	1.645470
602.000000	1.555984
603.000000	1.434854
604.000000	1.315746
605.000000	1.199312
606.000000	1.077369
607.000000	0.966150
608.000000	0.839355
609.000000	0.670703
610.000000	0.547219
611.000000	0.497333
612.000000	0.329909
613.000000	0.258266
614.000000	0.203203
615.000000	0.074135
616.000000	0.067013
617.000000	0.074844
618.000000	0.075693
619.000000	0.154801
620.000000	0.201499
621.000000	0.242178
622.000000	0.257205
623.000000	0.281547
624.000000	0.280160
625.000000	0.293715
626.000000	0.305535
627.000000	0.339068
628.000000	0.365660
629.000000	0.404932
630.000000	0.405353
631.000000	0.452793
632.000000	0.511226
633.000000	0.497796
634.000000	0.551042
635.000000	0.579622
636.000000	0.567376
637.000000	0.573089
638.000000	0.545876
639.000000	0.614266
640.000000	0.670593
641.000000	0.706619
642.000000	0.776692
643.000000	0.840761
644.000000	0.983481
645.000000	1.067391
646.000000	1.186426
647.000000	1.296005
648.000000	1.481460
649.000000	1.631303
650.000000	1.758885
651.000000	1.897991
652.000000	2.027304
653.000000	2.138549
654.000000	2.185436
655.000000	2.264160
656.000000	2.307117
657.000000	2.305050
658.000000	2.301390
659.000000	2.237379
660.000000	2.173285
661.000000	2.138765
662.000000	2.069443
663.000000	1.955588
664.000000	1.903366
665.000000	1.791946
666.000000	1.734174
667.000000	1.671248
668.000000	1.632805
669.000000	1.621073
670.000000	1.606076
671.000000	1.599487
672.000000	1.578788
673.000000	1.554803
674.000000	1.633557
675.000000	1.594754
676.000000	1.627558
677.000000	1.646332
678.000000	1.638055
679.000000	1.663018
680.000000	1.651446
681.000000	1.657724
682.000000	1.623473
683.000000	1.602356
684.000000	1.574669
685.000000	1.534473
686.000000	1.540124
687.000000	1.454551
688.000000	1.371900
689.000000	1.308601
690.000000	1.297314
691.000000	1.261744
692.000000	1.170452
693.000000	1.134505
694.000000	1.101271
695.000000	1.098830
696.000000	1.083388
697.000000	1.035046
698.000000	1.018832
699.000000	0.985398
700.000000	1.006747
701.000000	1.000002
702.000000	0.919785
703.000000	0.922004
704.000000	0.892159
705.000000	0.831819
706.000000	0.812237
707.000000	0.771383
708.000000	0.699177
709.000000	0.634293
710.000000	0.553558
711.000000	0.518232
712.000000	0.453044
713.000000	0.412400
714.000000	0.448634
715.000000	0.417352
716.000000	0.443161
717.000000	0.462392
718.000000	0.411284
719.000000	0.446526
720.000000	0.493665
721.000000	0.435489
722.000000	0.468577
723.000000	0.491252
724.000000	0.457970
725.000000	0.493582
726.000000	0.478173
727.000000	0.470096
728.000000	0.476066
729.000000	0.456806
730.000000	0.467931
731.000000	0.482962
732.000000	0.448104
733.000000	0.426911
734.000000	0.426313
735.000000	0.391354
736.000000	0.362742
737.000000	0.310061
738.000000	0.291375
739.000000	0.292275
740.000000	0.282394
741.000000	0.296949
742.000000	0.309057
743.000000	0.338869
744.000000	0.343530
745.000000	0.323658
746.000000	0.385428
747.000000	0.391453
748.000000	0.394315
749.000000	0.378922
750.000000	0.350860
751.000000	0.340627
752.000000	0.374728
753.000000	0.323185
754.000000	0.242113
755.000000	0.287549
756.000000	0.313002
757.000000	0.361451
758.000000	0.456060
759.000000	0.457882
760.000000	0.476314
761.000000	0.534210
762.000000	0.570387
763.000000	0.606853
764.000000	0.655426
765.000000	0.703015
766.000000	0.757587
767.000000	0.842179
768.000000	0.874238
769.000000	0.914474
770.000000	0.968988
771.000000	1.025894
772.000000	1.093790
773.000000	1.146014
774.000000	1.154018
775.000000	1.114470
776.000000	1.139608
777.000000	1.230651
778.000000	1.363553
779.000000	1.342621
780.000000	1.333106
781.000000	1.360386
782.000000	1.408900
783.000000	1.393496
784.000000	1.425946
785.000000	1.591925
786.000000	1.627276
787.000000	1.626501
788.000000	1.544663
789.000000	1.598986
790.000000	1.714796
791.000000	1.649725
792.000000	1.571042
793.000000	1.618838
794.000000	1.622549
795.000000	1.552790
796.000000	1.511811
797.000000	1.542321
798.000000	1.582260
799.000000	1.599773
800.000000	1.525357
801.000000	1.539910
802.000000	1.433752
803.000000	1.419487
804.000000	1.357852
805.000000	1.366066
806.000000	1.308297
807.000000	1.356423
808.000000	1.371569
809.000000	1.221078
810.000000	1.249786
811.000000	1.196278
812.000000	1.138686
813.000000	1.051482
814.000000	1.026201
815.000000	0.842575
816.000000	0.696452
817.000000	0.752037
818.000000	0.654221
819.000000	0.609101
820.000000	0.516377
821.000000	0.255286
822.000000	0.263492
823.000000	0.286866
824.000000	0.099335
825.000000	0.242390
826.000000	0.152056
827.000000	0.227385
828.000000	0.211689
829.000000	0.380022
830.000000	0.289949
831.000000	0.435551
832.000000	0.563694
833.000000	0.509918
834.000000	0.666968
835.000000	0.584542
836.000000	0.553959
837.000000	0.773889
838.000000	0.906108
839.000000	0.964088
840.000000	0.893155
841.000000	0.685648
842.000000	0.755828
843.000000	0.986594
844.000000	1.223884
845.000000	1.281023
846.000000	1.087782
847.000000	1.013036
848.000000	0.871634
849.000000	1.124769
850.000000	1.367537
851.000000	1.163597
852.000000	1.011975
853.000000	1.014941
854.000000	1.196792
855.000000	1.179895
856.000000	1.144661
857.000000	1.490279
858.000000	1.267804
859.000000	1.141827
860.000000	1.172886
861.000000	1.174223
862.000000	1.197050
863.000000	1.236772
864.000000	1.265052
865.000000	1.288312
866.000000	1.316548
867.000000	1.337148
868.000000	1.364206
869.000000	1.370311
870.000000	1.386453
871.000000	1.426867
872.000000	1.500071
873.000000	1.659445
874.000000	1.795597
875.000000	1.859146
876.000000	1.911521
877.000000	1.961995
878.000000	2.007713
879.000000	2.056922
880.000000	2.097558
881.000000	2.141864
882.000000	2.194352
883.000000	2.266045
884.000000	2.311238
885.000000	2.359000
886.000000	2.412736
887.000000	2.480853
888.000000	2.521327
889.000000	2.589242
890.000000	2.638874
891.000000	2.682567
892.000000	2.736835
893.000000	2.803057
894.000000	2.867653
895.000000	2.923969
896.000000	2.994048
897.000000	3.052952
898.000000	3.115367
899.000000	3.178700
900.000000	3.221842
901.000000	3.292563
902.000000	3.367542
903.000000	3.425502
904.000000	3.483031
905.000000	3.530332
906.000000	3.586872
907.000000	3.638876
908.000000	3.685866
909.000000	3.748680
910.000000	3.784169
911.000000	3.827722
912.000000	3.867740
913.000000	3.876701
914.000000	3.921587
915.000000	3.951849
916.000000	3.985928
917.000000	4.000437
918.000000	4.042795
919.000000	4.076989
920.000000	4.096751
921.000000	4.116158
922.000000	4.147218
923.000000	4.167237
924.000000	4.185898
925.000000	4.208046
926.000000	4.234308
927.000000	4.243534
928.000000	4.282016
929.000000	4.278112
930.000000	4.283289
931.000000	4.303829
932.000000	4.329005
933.000000	4.333877
934.000000	4.343181
935.000000	4.350339
936.000000	4.363221
937.000000	4.393215
938.000000	4.403069
939.000000	4.423205
940.000000	4.439404
941.000000	4.462840
942.000000	4.474694
943.000000	4.495727
944.000000	4.492634
945.000000	4.515034
946.000000	4.520340
947.000000	4.527957
948.000000	4.539142
949.000000	4.567095
950.000000	4.564211
951.000000	4.571023
952.000000	4.583700
953.000000	4.591693
954.000000	4.607623
955.000000	4.620148
956.000000	4.630361
957.000000	4.649280
958.000000	4.661735
959.000000	4.677458
960.000000	4.693629
961.000000	4.709314
962.000000	4.725600
963.000000	4.740234
964.000000	4.754918
965.000000	4.774407
966.000000	4.794684
967.000000	4.816083
968.000000	4.830139
969.000000	4.836209
970.000000	4.859459
971.000000	4.873372
972.000000	4.887789
973.000000	4.905479
974.000000	4.929500
975.000000	4.944076
976.000000	4.966670
977.000000	4.991381
978.000000	5.015144
979.000000	5.030311
980.000000	5.062773
981.000000	5.083577
982.000000	5.094793
983.000000	5.121466
984.000000	5.146478
985.000000	5.180559
986.000000	5.209132
987.000000	5.242316
988.000000	5.267512
989.000000	5.285664
990.000000	5.319046
991.000000	5.348481
992.000000	5.382360
993.000000	5.412380
994.000000	5.438031
995.000000	5.472934
996.000000	5.509796
997.000000	5.542500
998.000000	5.565751
999.000000	5.598304
1000.000000	5.638295
1001.000000	5.681284
1002.000000	5.711561
1003.000000	5.738381
1004.000000	5.771761
1005.000000	5.809921
1006.000000	5.850799
1007.000000	5.887681
1008.000000	5.916979
1009.000000	5.952339
1010.000000	5.995147
1011.000000	6.031239
1012.000000	6.075716
1013.000000	6.108549
1014.000000	6.151806
1015.000000	6.203534
1016.000000	6.239675
1017.000000	6.260005
1018.000000	6.290810
1019.000000	6.325607
1020.000000	6.357679
1021.000000	6.408274
1022.000000	6.437766
1023.000000	6.468927
1024.000000	6.513285
1025.000000	6.543459
1026.000000	6.578840
1027.000000	6.619739
1028.000000	6.648220
1029.000000	6.666181
1030.000000	6.699917
1031.000000	6.748630
1032.000000	6.783660
1033.000000	6.817327
1034.000000	6.860484
1035.000000	6.891120
1036.000000	6.923680
1037.000000	6.965146
1038.000000	7.006694
1039.000000	7.035391
1040.000000	7.063141
1041.000000	7.106613
1042.000000	7.145659
1043.000000	7.177678
1044.000000	7.217004
1045.000000	7.256945
1046.000000	7.285525
1047.000000	7.308943
1048.000000	7.346445
1049.000000	7.383260
1050.000000	7.411174
1051.000000	7.432110
1052.000000	7.471094
1053.000000	7.503424
1054.000000	7.537651
1055.000000	7.564030
1056.000000	7.585551
1057.000000	7.612821
1058.000000	7.648521
1059.000000	7.670574
1060.000000	7.701060
1061.000000	7.735275
1062.000000	7.764254
1063.000000	7.798658
1064.000000	7.822758
1065.000000	7.843020
1066.000000	7.878424
1067.000000	7.905990
1068.000000	7.935379
1069.000000	7.961347
1070.000000	7.985479
1071.000000	8.010857
1072.000000	8.038973
1073.000000	8.073211
1074.000000	8.107332
1075.000000	8.126718
1076.000000	8.147811
1077.000000	8.174875
1078.000000	8.198112
1079.000000	8.228437
1080.000000	8.245283
1081.000000	8.267269
1082.000000	8.293942
1083.000000	8.318050
1084.000000	8.343452
1085.000000	8.368298
1086.000000	8.381743
1087.000000	8.394276
1088.000000	8.424514
1089.000000	8.442310
1090.000000	8.456544
1091.000000	8.476322
1092.000000	8.497570
1093.000000	8.516669
1094.000000	8.517783
1095.000000	8.539012
1096.000000	8.560584
1097.000000	8.592687
1098.000000	8.598566
1099.000000	8.599114
1100.000000	8.624110
1101.000000	8.651312
1102.000000	8.658628
1103.000000	8.665470
1104.000000	8.683306
1105.000000	8.688049
1106.000000	8.699223
1107.000000	8.726834
1108.000000	8.735107
1109.000000	8.765032
1110.000000	8.773666
1111.000000	8.780517
1112.000000	8.798419
1113.000000	8.811706
1114.000000	8.830974
1115.000000	8.841683
1116.000000	8.850742
1117.000000	8.873933
1118.000000	8.891899
1119.000000	8.890850
1120.000000	8.892073
1121.000000	8.911632
1122.000000	8.931678
1123.000000	8.952064
1124.000000	8.963378
1125.000000	8.973677
1126.000000	8.993877
1127.000000	9.006434
1128.000000	9.019170
1129.000000	9.027371
1130.000000	9.037955
1131.000000	9.058304
1132.000000	9.080610
1133.000000	9.120159
1134.000000	9.169376
1135.000000	9.193551
1136.000000	9.249890
1137.000000	9.311227
1138.000000	9.365309
1139.000000	9.432903
1140.000000	9.509430
1141.000000	9.588844
1142.000000	9.652200
1143.000000	9.724406
1144.000000	9.800375
1145.000000	9.862042
1146.000000	9.937757
1147.000000	10.000837
1148.000000	10.032218
1149.000000	10.051271
1150.000000	10.062800
1151.000000	10.041636
1152.000000	10.027679
1153.000000	10.002544
1154.000000	10.003291
1155.000000	9.988569
1156.000000	9.969361
1157.000000	9.967572
1158.000000	9.999244
1159.000000	10.036658
1160.000000	10.064724
1161.000000	10.100383
1162.000000	10.120579
1163.000000	10.185790
1164.000000	10.205708
1165.000000	10.265541
1166.000000	10.303771
1167.000000	10.339513
1168.000000	10.395219
1169.000000	10.423879
1170.000000	10.453959
1171.000000	10.491174
1172.000000	10.532431
1173.000000	10.559225
1174.000000	10.616450
1175.000000	10.660411
1176.000000	10.679079
1177.000000	10.705786
1178.000000	10.735012
1179.000000	10.732256
1180.000000	10.761789
1181.000000	10.819680
1182.000000	10.866311
1183.000000	10.927468
1184.000000	10.997441
1185.000000	11.056467
1186.000000	11.107147
1187.000000	11.164958
1188.000000	11.219727
1189.000000	11.242528
1190.000000	11.262868
1191.000000	11.247778
1192.000000	11.231196
1193.000000	11.193351
1194.000000	11.151525
1195.000000	11.115491
1196.000000	11.074614
1197.000000	11.041539
1198.000000	11.036421
1199.000000	11.026458
1200.000000	11.032790
1201.000000	11.038149
1202.000000	11.040995
1203.000000	11.051588
1204.000000	11.084011
1205.000000	11.114970
1206.000000	11.121928
1207.000000	11.137095
1208.000000	11.161585
1209.000000	11.195253
1210.000000	11.205530
1211.000000	11.238275
1212.000000	11.249179
1213.000000	11.250384
1214.000000	11.245949
1215.000000	11.236904
1216.000000	11.241055
1217.000000	11.231322
1218.000000	11.229791
1219.000000	11.224855
1220.000000	11.218042
1221.000000	11.203168
1222.000000	11.192829
1223.000000	11.189083
1224.000000	11.167533
1225.000000	11.150960
1226.000000	11.131897
1227.000000	11.103203
1228.000000	11.080111
1229.000000	11.064641
1230.000000	11.046048
1231.000000	11.018081
1232.000000	10.993132
1233.000000	10.970579
1234.000000	10.947248
1235.000000	10.922383
1236.000000	10.898765
1237.000000	10.875619
1238.000000	10.864425
1239.000000	10.848278
1240.000000	10.830210
1241.000000	10.809865
1242.000000	10.788275
1243.000000	10.772730
1244.000000	10.750908
1245.000000	10.740613
1246.000000	10.740619
1247.000000	10.728503
1248.000000	10.714012
1249.000000	10.723046
1250.000000	10.700554
1251.000000	10.685037
1252.000000	10.686404
1253.000000	10.682278
1254.000000	10.671668
1255.000000	10.676543
1256.000000	10.659736
1257.000000	10.656878
1258.000000	10.658144
1259.000000	10.638729
1260.000000	10.636351
1261.000000	10.631101
1262.000000	10.628798
1263.000000	10.631796
1264.000000	10.627713
1265.000000	10.617505
1266.000000	10.618955
1267.000000	10.613709
1268.000000	10.602187
1269.000000	10.592668
1270.000000	10.587139
1271.000000	10.586208
1272.000000	10.579029
1273.000000	10.576248
1274.000000	10.569252
1275.000000	10.567606
1276.000000	10.570797
1277.000000	10.567581
1278.000000	10.564630
1279.000000	10.564798
1280.000000	10.565761
1281.000000	10.565096
1282.000000	10.571329
1283.000000	10.571091
1284.000000	10.573891
1285.000000	10.585730
1286.000000	10.586875
1287.000000	10.578928
1288.000000	10.574632
1289.000000	10.576507
1290.000000	10.573237
1291.000000	10.573358
1292.000000	10.574852
1293.000000	10.574130
1294.000000	10.570069
1295.000000	10.567741
1296.000000	10.572917
1297.000000	10.577412
1298.000000	10.574628
1299.000000	10.568508
1300.000000	10.568343
1301.000000	10.564291
1302.000000	10.557798
1303.000000	10.553169
1304.000000	10.553826
1305.000000	10.554867
1306.000000	10.557352
1307.000000	10.553192
1308.000000	10.553313
1309.000000	10.560249
1310.000000	10.553642
1311.000000	10.546600
1312.000000	10.554101
1313.000000	10.553429
1314.000000	10.554753
1315.000000	10.563416
1316.000000	10.572363
1317.000000	10.577483
1318.000000	10.577386
1319.000000	10.583406
1320.000000	10.590809
1321.000000	10.604793
1322.000000	10.608706
1323.000000	10.606711
1324.000000	10.613655
1325.000000	10.622582
1326.000000	10.634342
1327.000000	10.643237
1328.000000	10.651897
1329.000000	10.668067
1330.000000	10.674276
1331.000000	10.681560
1332.000000	10.691616
1333.000000	10.705602
1334.000000	10.719104
1335.000000	10.723086
1336.000000	10.736649
1337.000000	10.749627
1338.000000	10.759658
1339.000000	10.762463
1340.000000	10.777493
1341.000000	10.795607
1342.000000	10.805421
1343.000000	10.809697
1344.000000	10.825101
1345.000000	10.837325
1346.000000	10.854742
1347.000000	10.867473
1348.000000	10.880873
1349.000000	10.874762
1350.000000	10.888150
1351.000000	10.903401
1352.000000	10.926511
1353.000000	10.967453
1354.000000	11.048183
1355.000000	11.094399
1356.000000	11.165740
1357.000000	11.246800
1358.000000	11.299305
1359.000000	11.329810
1360.000000	11.327038
1361.000000	11.346587
1362.000000	11.342002
1363.000000	11.316214
1364.000000	11.322976
1365.000000	11.315893
1366.000000	11.305608
1367.000000	11.319350
1368.000000	11.313994
1369.000000	11.300154
1370.000000	11.317252
1371.000000	11.326212
1372.000000	11.322994
1373.000000	11.340856
1374.000000	11.346608
1375.000000	11.371573
1376.000000	11.399919
1377.000000	11.416444
1378.000000	11.403013
1379.000000	11.419592
1380.000000	11.384077
1381.000000	11.394862
1382.000000	11.307922
1383.000000	11.247747
1384.000000	11.198413
1385.000000	11.166053
1386.000000	11.147546
1387.000000	11.127007
1388.000000	11.117518
1389.000000	11.070617
1390.000000	11.051793
1391.000000	11.046853
1392.000000	11.023702
1393.000000	10.968702
1394.000000	10.953964
1395.000000	10.950130
1396.000000	10.896903
1397.000000	10.809922
1398.000000	10.769596
1399.000000	10.748860
1400.000000	10.716607
1401.000000	10.640217
1402.000000	10.542109
1403.000000	10.530691
1404.000000	10.481712
1405.000000	10.430787
1406.000000	10.365387
1407.000000	10.321256
1408.000000	10.291058
1409.000000	10.235265
1410.000000	10.184692
1411.000000	10.138016
1412.000000	10.077562
1413.000000	10.050331
1414.000000	10.011159
1415.000000	9.946770
1416.000000	9.909781
1417.000000	9.851029
1418.000000	9.811890
1419.000000	9.768137
1420.000000	9.737961
1421.000000	9.680921
1422.000000	9.652536
1423.000000	9.629172
1424.000000	9.591244
1425.000000	9.540397
1426.000000	9.519400
1427.000000	9.476453
1428.000000	9.471054
1429.000000	9.443578
1430.000000	9.421334
1431.000000	9.376828
1432.000000	9.364823
1433.000000	9.337681
1434.000000	9.324416
1435.000000	9.297965
1436.000000	9.273652
1437.000000	9.249025
1438.000000	9.225513
1439.000000	9.144975
1440.000000	9.133041
1441.000000	9.090165
1442.000000	9.079074
1443.000000	9.049538
1444.000000	9.036875
1445.000000	9.011099
1446.000000	9.000386
1447.000000	8.987125
1448.000000	8.973815
1449.000000	8.942568
1450.000000	8.925479
1451.000000	8.904917
1452.000000	8.865781
1453.000000	8.860267
1454.000000	8.833422
1455.000000	8.802669
1456.000000	8.781315
1457.000000	8.766928
1458.000000	8.734255
1459.000000	8.711999
1460.000000	8.694634
1461.000000	8.663083
1462.000000	8.655343
1463.000000	8.623319
1464.000000	8.606180
1465.000000	8.576802
1466.000000	8.555364
1467.000000	8.541125
1468.000000	8.511770
1469.000000	8.500404
1470.000000	8.473644
1471.000000	8.459329
1472.000000	8.436452
1473.000000	8.415019
1474.000000	8.390742
1475.000000	8.369728
1476.000000	8.347016
1477.000000	8.337401
1478.000000	8.319988
1479.000000	8.314155
1480.000000	8.301936
1481.000000	8.284061
1482.000000	8.283214
1483.000000	8.272736
1484.000000	8.268918
1485.000000	8.267170
1486.000000	8.259402
1487.000000	8.267909
1488.000000	8.253832
1489.000000	8.262564
1490.000000	8.245731
1491.000000	8.248778
1492.000000	8.242636
1493.000000	8.239784
1494.000000	8.248102
1495.000000	8.255180
1496.000000	8.250566
1497.000000	8.261225
1498.000000	8.275811
1499.000000	8.291440
1500.000000	8.299248
1501.000000	8.305746
1502.000000	8.312373
1503.000000	8.334993
1504.000000	8.359084
1505.000000	8.383861
1506.000000	8.396670
1507.000000	8.411089
1508.000000	8.439857
1509.000000	8.470933
1510.000000	8.481405
1511.000000	8.510164
1512.000000	8.529983
1513.000000	8.545511
1514.000000	8.576854
1515.000000	8.592608
1516.000000	8.612328
1517.000000	8.624211
1518.000000	8.641029
1519.000000	8.664876
1520.000000	8.679728
1521.000000	8.697123
1522.000000	8.717109
1523.000000	8.730698
1524.000000	8.746230
1525.000000	8.768120
1526.000000	8.774390
1527.000000	8.801304
1528.000000	8.817333
1529.000000	8.818934
1530.000000	8.825894
1531.000000	8.831840
1532.000000	8.853134
1533.000000	8.870246
1534.000000	8.879227
1535.000000	8.879460
1536.000000	8.882046
1537.000000	8.888276
1538.000000	8.898927
1539.000000	8.903767
1540.000000	8.892593
1541.000000	8.902638
1542.000000	8.908685
1543.000000	8.910106
1544.000000	8.922168
1545.000000	8.933705
1546.000000	8.938910
1547.000000	8.945868
1548.000000	8.960918
1549.000000	8.972781
1550.000000	8.991484
1551.000000	9.003213
1552.000000	9.020004
1553.000000	9.024320
1554.000000	9.027068
1555.000000	9.039320
1556.000000	9.045494
1557.000000	9.035070
1558.000000	9.033346
1559.000000	9.032214
1560.000000	9.035767
1561.000000	9.030835
1562.000000	9.020550
1563.000000	9.013120
1564.000000	9.001381
1565.000000	8.994538
1566.000000	8.982707
1567.000000	8.973789
1568.000000	8.964796
1569.000000	8.959062
1570.000000	8.956087
1571.000000	8.941689
1572.000000	8.933377
1573.000000	8.924081
1574.000000	8.910607
1575.000000	8.909683
1576.000000	8.910111
1577.000000	8.909664
1578.000000	8.910936
1579.000000	8.911870
1580.000000	8.913828
1581.000000	8.918204
1582.000000	8.926767
1583.000000	8.936139
1584.000000	8.938623
1585.000000	8.949492
1586.000000	8.956438
1587.000000	8.958265
1588.000000	8.970899
1589.000000	8.985354
1590.000000	8.996392
1591.000000	9.011643
1592.000000	9.030786
1593.000000	9.048647
1594.000000	9.059003
1595.000000	9.073686
1596.000000	9.092563
1597.000000	9.111593
1598.000000	9.133265
1599.000000	9.150269
1600.000000	9.164600
1601.000000	9.186416
1602.000000	9.218798
1603.000000	9.232729
1604.000000	9.259708
1605.000000	9.276471
1606.000000	9.289695
1607.000000	9.316857
1608.000000	9.340744
1609.000000	9.359283
1610.000000	9.380230
1611.000000	9.411069
1612.000000	9.430638
1613.000000	9.441917
1614.000000	9.466048
1615.000000	9.488332
1616.000000	9.496781
1617.000000	9.510732
1618.000000	9.530094
1619.000000	9.541853
1620.000000	9.560193
1621.000000	9.590813
1622.000000	9.596536
1623.000000	9.605380
1624.000000	9.620078
1625.000000	9.649494
1626.000000	9.668337
1627.000000	9.679241
1628.000000	9.691979
1629.000000	9.695931
1630.000000	9.720700
1631.000000	9.730830
1632.000000	9.752502
1633.000000	9.767198
1634.000000	9.774561
1635.000000	9.783240
1636.000000	9.791151
1637.000000	9.796149
1638.000000	9.813431
1639.000000	9.819900
1640.000000	9.817975
1641.000000	9.822637
1642.000000	9.834287
1643.000000	9.834919
1644.000000	9.836230
1645.000000	9.839158
1646.000000	9.841808
1647.000000	9.838980
1648.000000	9.840345
1649.000000	9.848033
1650.000000	9.849778
1651.000000	9.847930
1652.000000	9.849369
1653.000000	9.822994
1654.000000	9.818978
1655.000000	9.808555
1656.000000	9.797646
1657.000000	9.779814
1658.000000	9.765305
1659.000000	9.736692
1660.000000	9.714300
1661.000000	9.687823
1662.000000	9.660636
1663.000000	9.629106
1664.000000	9.594670
1665.000000	9.556247
1666.000000	9.522292
1667.000000	9.469706
1668.000000	9.430015
1669.000000	9.392495
1670.000000	9.342444
1671.000000	9.277883
1672.000000	9.226888
1673.000000	9.157013
1674.000000	9.102549
1675.000000	9.022772
1676.000000	8.947566
1677.000000	8.872018
1678.000000	8.768422
1679.000000	8.660726
1680.000000	8.538952
1681.000000	8.426654
1682.000000	8.330373
1683.000000	8.267874
1684.000000	8.205079
1685.000000	8.174991
1686.000000	8.152861
1687.000000	8.136136
1688.000000	8.102435
1689.000000	8.082034
1690.000000	8.079739
1691.000000	8.045441
1692.000000	8.008780
1693.000000	7.997265
1694.000000	7.997456
1695.000000	8.014002
1696.000000	8.028532
1697.000000	8.053600
1698.000000	8.099420
1699.000000	8.126451
1700.000000	8.167868
1701.000000	8.219440
1702.000000	8.246277
1703.000000	8.269742
1704.000000	8.283834
1705.000000	8.292032
1706.000000	8.299211
1707.000000	8.313095
1708.000000	8.293720
1709.000000	8.295688
1710.000000	8.275603
1711.000000	8.271119
1712.000000	8.240532
1713.000000	8.219147
1714.000000	8.178697
1715.000000	8.138409
1716.000000	8.110347
1717.000000	8.057928
1718.000000	8.024367
1719.000000	7.981360
1720.000000	7.947481
1721.000000	7.924819
1722.000000	7.909087
1723.000000	7.890715
1724.000000	7.880790
1725.000000	7.877892
1726.000000	7.874568
1727.000000	7.850651
1728.000000	7.845169
1729.000000	7.839353
1730.000000	7.833344
1731.000000	7.822993
1732.000000	7.824664
1733.000000	7.826372
1734.000000	7.850231
1735.000000	7.888187
1736.000000	7.909905
1737.000000	7.955780
1738.000000	8.004021
1739.000000	8.067502
1740.000000	8.124468
1741.000000	8.176561
1742.000000	8.234782
1743.000000	8.284436
1744.000000	8.336926
1745.000000	8.373084
1746.000000	8.424682
1747.000000	8.444987
1748.000000	8.473534
1749.000000	8.504180
1750.000000	8.513667
1751.000000	8.522846
1752.000000	8.526460
1753.000000	8.540650
1754.000000	8.540341
1755.000000	8.529347
1756.000000	8.530658
1757.000000	8.523109
1758.000000	8.509423
1759.000000	8.506007
1760.000000	8.499403
1761.000000	8.500206
1762.000000	8.494770
1763.000000	8.501537
1764.000000	8.515734
1765.000000	8.529033
1766.000000	8.552418
1767.000000	8.579097
1768.000000	8.584716
1769.000000	8.619816
1770.000000	8.651547
1771.000000	8.675687
1772.000000	8.700316
1773.000000	8.726790
1774.000000	8.744689
1775.000000	8.768495
1776.000000	8.784790
1777.000000	8.808358
1778.000000	8.820331
1779.000000	8.836360
1780.000000	8.860438
1781.000000	8.870390
1782.000000	8.870978
1783.000000	8.890672
1784.000000	8.888663
1785.000000	8.903586
1786.000000	8.914505
1787.000000	8.922410
1788.000000	8.917209
1789.000000	8.916470
1790.000000	8.925719
1791.000000	8.932377
1792.000000	8.937279
1793.000000	8.948229
1794.000000	8.947545
1795.000000	8.957379
1796.000000	8.961856
1797.000000	8.970024
1798.000000	8.968067
1799.000000	8.982362
1800.000000	8.991115
1801.000000	8.989094
1802.000000	9.001707
1803.000000	9.003712
1804.000000	9.009843
1805.000000	9.016676
1806.000000	9.024375
1807.000000	9.029889
1808.000000	9.037753
1809.000000	9.037151
1810.000000	9.042047
1811.000000	9.054591
1812.000000	9.048454
1813.000000	9.035561
1814.000000	9.033393
1815.000000	9.035594
1816.000000	9.043348
1817.000000	9.043746
1818.000000	9.042280
1819.000000	9.054271
1820.000000	9.065463
1821.000000	9.063861
1822.000000	9.054370
1823.000000	9.051902
1824.000000	9.043426
1825.000000	9.034261
1826.000000	9.028898
1827.000000	9.018482
1828.000000	9.022034
1829.000000	9.031298
1830.000000	9.034519
1831.000000	9.035043
1832.000000	9.037048
1833.000000	9.046019
1834.000000	9.055913
1835.000000	9.074962
1836.000000	9.088746
1837.000000	9.087559
1838.000000	9.095196
1839.000000	9.114612
1840.000000	9.116142
1841.000000	9.114492
1842.000000	9.120542
1843.000000	9.119188
1844.000000	9.115870
1845.000000	9.130875
1846.000000	9.150596
1847.000000	9.165580
1848.000000	9.165705
1849.000000	9.147085
1850.000000	9.135091
1851.000000	9.145448
1852.000000	9.151157
1853.000000	9.150094
1854.000000	9.151227
1855.000000	9.143535
1856.000000	9.136165
1857.000000	9.132801
1858.000000	9.123972
1859.000000	9.115146
1860.000000	9.105885
1861.000000	9.084388
1862.000000	9.052252
1863.000000	9.027615
1864.000000	9.020437
1865.000000	9.004838
1866.000000	8.979032
1867.000000	8.974526
1868.000000	8.953520
1869.000000	8.929137
1870.000000	8.889352
1871.000000	8.860374
1872.000000	8.828168
1873.000000	8.773309
1874.000000	8.715552
1875.000000	8.667971
1876.000000	8.604265
1877.000000	8.546797
1878.000000	8.469025
1879.000000	8.397985
1880.000000	8.335036
1881.000000	8.234116
1882.000000	8.133514
1883.000000	8.048484
1884.000000	7.959099
1885.000000	7.862007
1886.000000	7.788207
1887.000000	7.702362
1888.000000	7.606079
1889.000000	7.509081
1890.000000	7.413949
1891.000000	7.308020
1892.000000	7.205788
1893.000000	7.095811
1894.000000	6.998446
1895.000000	6.896829
1896.000000	6.798757
1897.000000	6.688830
1898.000000	6.574383
1899.000000	6.469895
1900.000000	6.358300
1901.000000	6.241777
1902.000000	6.149708
1903.000000	6.041398
1904.000000	5.944069
1905.000000	5.816684
1906.000000	5.716724
1907.000000	5.618451
1908.000000	5.532638
1909.000000	5.452891
1910.000000	5.377774
1911.000000	5.287121
1912.000000	5.189984
1913.000000	5.099347
1914.000000	5.022854
1915.000000	4.955085
1916.000000	4.892501
1917.000000	4.824197
1918.000000	4.771143
1919.000000	4.687381
1920.000000	4.613131
1921.000000	4.561137
1922.000000	4.518988
1923.000000	4.464886
1924.000000	4.432559
1925.000000	4.385667
1926.000000	4.341202
1927.000000	4.296765
1928.000000	4.268920
1929.000000	4.233518
1930.000000	4.208402
1931.000000	4.188142
1932.000000	4.156316
1933.000000	4.139954
1934.000000	4.114792
1935.000000	4.107906
1936.000000	4.104597
1937.000000	4.087940
1938.000000	4.078600
1939.000000	4.072012
1940.000000	4.076419
1941.000000	4.101221
1942.000000	4.100008
1943.000000	4.103582
1944.000000	4.126755
1945.000000	4.142105
1946.000000	4.169366
1947.000000	4.165491
1948.000000	4.183162
1949.000000	4.205571
1950.000000	4.225167
1951.000000	4.244347
1952.000000	4.275453
1953.000000	4.296582
1954.000000	4.307961
1955.000000	4.349556
1956.000000	4.378274
1957.000000	4.398947
1958.000000	4.430125
1959.000000	4.448538
1960.000000	4.467566
1961.000000	4.495713
1962.000000	4.513679
1963.000000	4.539439
1964.000000	4.576501
1965.000000	4.592702
1966.000000	4.616385
1967.000000	4.624215
1968.000000	4.670916
1969.000000	4.690734
1970.000000	4.700366
1971.000000	4.746982
1972.000000	4.761840
1973.000000	4.786877
1974.000000	4.806461
1975.000000	4.837784
1976.000000	4.858159
1977.000000	4.877565
1978.000000	4.902231
1979.000000	4.935013
1980.000000	4.962473
1981.000000	4.995232
1982.000000	5.027015
1983.000000	5.031976
1984.000000	5.073339
1985.000000	5.097431
1986.000000	5.105447
1987.000000	5.144842
1988.000000	5.173569
1989.000000	5.186891
1990.000000	5.214944
1991.000000	5.249393
1992.000000	5.258161
1993.000000	5.288742
1994.000000	5.283518
1995.000000	5.321801
1996.000000	5.333405
1997.000000	5.344627
1998.000000	5.346006
1999.000000	5.386248
2000.000000	5.382821
2001.000000	5.393365
2002.000000	5.393216
2003.000000	5.417853
2004.000000	5.409016
2005.000000	5.412120
2006.000000	5.410371
2007.000000	5.412091
2008.000000	5.410765
2009.000000	5.414520
2010.000000	5.413076
2011.000000	5.395783
2012.000000	5.391819
2013.000000	5.383662
2014.000000	5.356663
2015.000000	5.353145
2016.000000	5.351004
2017.000000	5.331340
2018.000000	5.310901
2019.000000	5.291108
2020.000000	5.259896
2021.000000	5.245080
2022.000000	5.214388
2023.000000	5.193744
2024.000000	5.165844
2025.000000	5.142635
2026.000000	5.110855
2027.000000	5.090798
2028.000000	5.046505
2029.000000	5.003470
2030.000000	4.969247
2031.000000	4.946082
2032.000000	4.905557
2033.000000	4.854422
2034.000000	4.823266
2035.000000	4.778752
2036.000000	4.727550
2037.000000	4.676913
2038.000000	4.621154
2039.000000	4.561993
2040.000000	4.512723
2041.000000	4.461827
2042.000000	4.405204
2043.000000	4.351173
2044.000000	4.286307
2045.000000	4.228047
2046.000000	4.177570
2047.000000	4.127470
2048.000000	4.076651
2049.000000	4.032945
2050.000000	3.995178
2051.000000	3.960386
2052.000000	3.932139
2053.000000	3.905568
2054.000000	3.886670
2055.000000	3.877597
2056.000000	3.874362
2057.000000	3.874377
2058.000000	3.871268
2059.000000	3.873585
2060.000000	3.878587
2061.000000	3.887396
2062.000000	3.919322
2063.000000	3.944646
2064.000000	3.971225
2065.000000	3.990625
2066.000000	3.998207
2067.000000	4.021228
2068.000000	4.053763
2069.000000	4.083046
2070.000000	4.110858
2071.000000	4.139050
2072.000000	4.154914
2073.000000	4.174314
2074.000000	4.202280
2075.000000	4.225755
2076.000000	4.246091
2077.000000	4.268724
2078.000000	4.284987
2079.000000	4.298560
2080.000000	4.309095
2081.000000	4.326430
2082.000000	4.343685
2083.000000	4.345903
2084.000000	4.362694
2085.000000	4.379932
2086.000000	4.386961
2087.000000	4.394388
2088.000000	4.399594
2089.000000	4.412085
2090.000000	4.417666
2091.000000	4.409442
2092.000000	4.418751
2093.000000	4.428804
2094.000000	4.424430
2095.000000	4.432593
2096.000000	4.444224
2097.000000	4.448966
2098.000000	4.453045
2099.000000	4.471300
2100.000000	4.480226
2101.000000	4.487692
2102.000000	4.498667
2103.000000	4.506745
2104.000000	4.517525
2105.000000	4.532712
2106.000000	4.546621
2107.000000	4.552732
2108.000000	4.561329
2109.000000	4.572673
2110.000000	4.586144
2111.000000	4.595330
2112.000000	4.605849
2113.000000	4.614827
2114.000000	4.628670
2115.000000	4.646455
2116.000000	4.652206
2117.000000	4.654469
2118.000000	4.662891
2119.000000	4.664940
2120.000000	4.675071
2121.000000	4.675427
2122.000000	4.668971
2123.000000	4.664428
2124.000000	4.672487
2125.000000	4.674521
2126.000000	4.666915
2127.000000	4.656309
2128.000000	4.650946
2129.000000	4.650050
2130.000000	4.638249
2131.000000	4.611029
2132.000000	4.600125
2133.000000	4.588135
2134.000000	4.582708
2135.000000	4.562360
2136.000000	4.539860
2137.000000	4.526305
2138.000000	4.499950
2139.000000	4.474880
2140.000000	4.468962
2141.000000	4.441840
2142.000000	4.411744
2143.000000	4.396231
2144.000000	4.375816
2145.000000	4.349869
2146.000000	4.311575
2147.000000	4.287037
2148.000000	4.246106
2149.000000	4.227991
2150.000000	4.202140
2151.000000	4.172899
2152.000000	4.156827
2153.000000	4.127335
2154.000000	4.094798
2155.000000	4.065189
2156.000000	4.044199
2157.000000	4.027204
2158.000000	4.001623
2159.000000	3.979399
2160.000000	3.962129
2161.000000	3.936447
2162.000000	3.924103
2163.000000	3.918032
2164.000000	3.906125
2165.000000	3.896321
2166.000000	3.883454
2167.000000	3.869918
2168.000000	3.856762
2169.000000	3.848447
2170.000000	3.843219
2171.000000	3.840340
2172.000000	3.840289
2173.000000	3.835059
2174.000000	3.836894
2175.000000	3.840171
2176.000000	3.834357
2177.000000	3.835772
2178.000000	3.829845
2179.000000	3.838220
2180.000000	3.847719
2181.000000	3.851155
2182.000000	3.865503
2183.000000	3.854918
2184.000000	3.857786
2185.000000	3.891013
2186.000000	3.896300
2187.000000	3.890622
2188.000000	3.897666
2189.000000	3.905140
2190.000000	3.919776
2191.000000	3.925133
2192.000000	3.927720
2193.000000	3.924664
2194.000000	3.939497
2195.000000	3.948019
2196.000000	3.950320
2197.000000	3.963145
2198.000000	3.960909
2199.000000	3.966610
2200.000000	3.983164
2201.000000	4.002889
2202.000000	4.007476
2203.000000	4.001893
2204.000000	4.028923
2205.000000	4.033383
2206.000000	4.065444
2207.000000	4.072435
2208.000000	4.074189
2209.000000	4.095962
2210.000000	4.118209
2211.000000	4.130580
2212.000000	4.150014
2213.000000	4.178439
2214.000000	4.197634
2215.000000	4.216717
2216.000000	4.238376
2217.000000	4.262495
2218.000000	4.283188
2219.000000	4.294599
2220.000000	4.321241
2221.000000	4.342119
2222.000000	4.364341
2223.000000	4.392670
2224.000000	4.408427
2225.000000	4.422302
2226.000000	4.423308
2227.000000	4.429342
2228.000000	4.443491
2229.000000	4.473169
2230.000000	4.460959
2231.000000	4.445850
2232.000000	4.452404
2233.000000	4.443494
2234.000000	4.425270
2235.000000	4.416696
2236.000000	4.382479
2237.000000	4.383677
2238.000000	4.352101
2239.000000	4.325084
2240.000000	4.293658
2241.000000	4.261347
2242.000000	4.211474
2243.000000	4.168157
2244.000000	4.103712
2245.000000	4.062132
2246.000000	3.994936
2247.000000	3.921588
2248.000000	3.846613
2249.000000	3.774659
2250.000000	3.699493
2251.000000	3.604717
2252.000000	3.504223
2253.000000	3.412193
2254.000000	3.310959
2255.000000	3.217070
2256.000000	3.105491
2257.000000	2.992846
2258.000000	2.887398
2259.000000	2.779893
2260.000000	2.681840
2261.000000	2.605220
2262.000000	2.515962
2263.000000	2.416310
2264.000000	2.336741
2265.000000	2.277780
2266.000000	2.229371
2267.000000	2.182814
2268.000000	2.133889
2269.000000	2.108987
2270.000000	2.073731
2271.000000	2.075970
2272.000000	2.073453
2273.000000	2.066538
2274.000000	2.068606
2275.000000	2.083125
2276.000000	2.084220
2277.000000	2.095063
2278.000000	2.112306
2279.000000	2.137526
2280.000000	2.158384
2281.000000	2.189073
2282.000000	2.197400
2283.000000	2.222369
2284.000000	2.246189
2285.000000	2.260867
2286.000000	2.270975
2287.000000	2.277189
2288.000000	2.283647
2289.000000	2.296697
2290.000000	2.277713
2291.000000	2.281869
2292.000000	2.265218
2293.000000	2.250233
2294.000000	2.214315
2295.000000	2.189318
2296.000000	2.159212
2297.000000	2.128020
2298.000000	2.092714
2299.000000	2.060215
2300.000000	2.017054
2301.000000	1.991676
2302.000000	1.952982
2303.000000	1.932207
2304.000000	1.917389
2305.000000	1.897445
2306.000000	1.897863
2307.000000	1.902013
2308.000000	1.902516
2309.000000	1.915605
2310.000000	1.940506
2311.000000	1.973229
2312.000000	2.007217
2313.000000	2.043518
2314.000000	2.098664
2315.000000	2.142812
2316.000000	2.182571
2317.000000	2.237963
2318.000000	2.292345
2319.000000	2.341414
2320.000000	2.385650
2321.000000	2.431000
2322.000000	2.482135
2323.000000	2.525522
2324.000000	2.565114
2325.000000	2.608418
2326.000000	2.644425
2327.000000	2.672591
2328.000000	2.705863
2329.000000	2.733423
2330.000000	2.751831
2331.000000	2.785853
2332.000000	2.813876
2333.000000	2.828721
2334.000000	2.836738
2335.000000	2.847694
2336.000000	2.860309
2337.000000	2.863895
2338.000000	2.879752
2339.000000	2.887760
2340.000000	2.875548
2341.000000	2.864449
2342.000000	2.861070
2343.000000	2.859829
2344.000000	2.842044
2345.000000	2.825310
2346.000000	2.816943
2347.000000	2.808369
2348.000000	2.794234
2349.000000	2.779941
2350.000000	2.773482
2351.000000	2.767564
2352.000000	2.765035
2353.000000	2.771726
2354.000000	2.778136
2355.000000	2.796386
2356.000000	2.812371
2357.000000	2.825679
2358.000000	2.843615
2359.000000	2.866970
2360.000000	2.898430
2361.000000	2.925793
2362.000000	2.962006
2363.000000	2.993668
2364.000000	3.015992
2365.000000	3.044166
2366.000000	3.062460
2367.000000	3.084196
2368.000000	3.109165
2369.000000	3.137209
2370.000000	3.155758
2371.000000	3.170680
2372.000000	3.193137
2373.000000	3.210732
2374.000000	3.233108
2375.000000	3.248239
2376.000000	3.254462
2377.000000	3.268947
2378.000000	3.285308
2379.000000	3.293492
2380.000000	3.290667
2381.000000	3.305096
2382.000000	3.313046
2383.000000	3.318263
2384.000000	3.330262
2385.000000	3.325638
2386.000000	3.319763
2387.000000	3.322146
2388.000000	3.328381
2389.000000	3.318022
2390.000000	3.318568
2391.000000	3.310523
2392.000000	3.300719
2393.000000	3.296905
2394.000000	3.292618
2395.000000	3.285682
2396.000000	3.280789
2397.000000	3.256673
2398.000000	3.229389
2399.000000	3.224859
2400.000000	3.221120
2401.000000	3.216511
2402.000000	3.199688
2403.000000	3.194244
2404.000000	3.193057
2405.000000	3.168727
2406.000000	3.161127
2407.000000	3.160297
2408.000000	3.152228
2409.000000	3.139099
2410.000000	3.126663
2411.000000	3.108641
2412.000000	3.100186
2413.000000	3.089968
2414.000000	3.086526
2415.000000	3.075454
2416.000000	3.046772
2417.000000	3.046110
2418.000000	3.045882
2419.000000	3.021048
2420.000000	3.001949
2421.000000	2.997311
2422.000000	2.981247
2423.000000	2.961293
2424.000000	2.934994
2425.000000	2.923421
2426.000000	2.914111
2427.000000	2.881906
2428.000000	2.850487
2429.000000	2.843843
2430.000000	2.818700
2431.000000	2.794866
2432.000000	2.768412
2433.000000	2.741277
2434.000000	2.711737
2435.000000	2.674829
2436.000000	2.655494
2437.000000	2.612121
2438.000000	2.576137
2439.000000	2.533811
2440.000000	2.514338
2441.000000	2.484397
2442.000000	2.449951
2443.000000	2.408795
2444.000000	2.377794
2445.000000	2.324072
2446.000000	2.289780
2447.000000	2.261683
2448.000000	2.211381
2449.000000	2.194659
2450.000000	2.164449
2451.000000	2.121564
2452.000000	2.072431
2453.000000	2.039620
2454.000000	2.000468
2455.000000	1.981043
2456.000000	1.933599
2457.000000	1.913024
2458.000000	1.867826
2459.000000	1.872082
2460.000000	1.850928
2461.000000	1.821241
2462.000000	1.802486
2463.000000	1.779382
2464.000000	1.763562
2465.000000	1.746278
2466.000000	1.741213
2467.000000	1.716042
2468.000000	1.742911
2469.000000	1.722697
2470.000000	1.704300
2471.000000	1.688073
2472.000000	1.671484
2473.000000	1.684983
2474.000000	1.681883
2475.000000	1.659390
2476.000000	1.666272
2477.000000	1.637355
2478.000000	1.670723
2479.000000	1.693585
2480.000000	1.680124
2481.000000	1.654525
2482.000000	1.675189
2483.000000	1.693816
2484.000000	1.639936
2485.000000	1.677132
2486.000000	1.688359
2487.000000	1.622434
2488.000000	1.634621
2489.000000	1.644369
2490.000000	1.615295
2491.000000	1.685327
2492.000000	1.724084
2493.000000	1.609423
2494.000000	1.697492
2495.000000	1.756687
2496.000000	1.707811
2497.000000	1.722115
2498.000000	1.744713
2499.000000	1.745182
2500.000000	1.781559
