PE UV       SUBTECH     SPECTRUM    ASCII       PEDS        4.00        
   -1
CICIMAUCR0141-3.Sample.ASC
24/04/04
11:43:11.00
24/04/04
11:43:11.00
Vinicio Soto Monge
C. kalinini
250,000000
1
Lambda 1050
1050L1511233
PerkinElmer UV WinLab 6.3.2.0749 / 2.02.05 Lambda 900 UV/VIS/NIR, Aug  7 2015 09:38:08

0
0
3350/servo 860,8/2
0
0
UV/VIS
1
1
1
DoubleDePol,CommonBeamDepol,RBeamAtt,SBeamAtt,60mm sphere, WB InGaAs Detector
0
0
0
0
Program
Program
3350/servo 860,8/2
3350/0,2 860,8/0,2
3350/0,2 860,8/0,2
0
15.00
 
 
 
0
 
860,8
319,2
860,8
Front
100
on
S:100 R:100
0
0
0
0
 
0
 
 
 
0
 
 
0
0
0
0
0
 
 
 
 
0
0


0
0
#HDR
-1
-1
#GR
nm
%R
1.0
0.0
2500,000000
-1,000000
2251
8
77,545500
5,529700
#DATA
250.000000	0.000000	0.131020
251.000000	0.000000	0.106131
252.000000	0.000000	0.132874
253.000000	0.000000	0.114719
254.000000	0.000000	0.080268
255.000000	0.000000	0.073924
256.000000	0.000000	0.097743
257.000000	0.000000	0.126163
258.000000	0.000000	0.112936
259.000000	0.000000	0.092779
260.000000	0.000000	0.111246
261.000000	0.000000	0.097552
262.000000	0.000000	0.111385
263.000000	0.000000	0.110883
264.000000	0.000000	0.119769
265.000000	0.000000	0.129828
266.000000	0.000000	0.085841
267.000000	0.000000	0.100761
268.000000	0.000000	0.096549
269.000000	0.000000	0.088562
270.000000	0.000000	0.104706
271.000000	0.000000	0.095396
272.000000	0.000000	0.052337
273.000000	0.000000	0.124325
274.000000	0.000000	0.094492
275.000000	0.000000	0.078484
276.000000	0.000000	0.090520
277.000000	0.000000	0.072691
278.000000	0.000000	0.064686
279.000000	0.000000	0.079113
280.000000	0.000000	0.076998
281.000000	0.000000	0.079840
282.000000	0.000000	0.067037
283.000000	0.000000	0.080762
284.000000	0.000000	0.081519
285.000000	0.000000	0.099092
286.000000	0.000000	0.099200
287.000000	0.000000	0.104831
288.000000	0.000000	0.090552
289.000000	0.000000	0.134948
290.000000	0.000000	0.105001
291.000000	0.000000	0.047304
292.000000	0.000000	0.097084
293.000000	0.000000	0.096135
294.000000	0.000000	0.077194
295.000000	0.000000	0.089413
296.000000	0.000000	0.064127
297.000000	0.000000	0.060800
298.000000	0.000000	0.119318
299.000000	0.000000	0.084673
300.000000	0.000000	0.104387
301.000000	0.000000	0.122768
302.000000	0.000000	0.079267
303.000000	0.000000	0.116583
304.000000	0.000000	0.069200
305.000000	0.000000	0.075849
306.000000	0.000000	0.084439
307.000000	0.000000	0.117839
308.000000	0.000000	0.080336
309.000000	0.000000	0.120285
310.000000	0.000000	0.069540
311.000000	0.000000	0.030352
312.000000	0.000000	0.097544
313.000000	0.000000	0.072140
314.000000	0.000000	0.075171
315.000000	0.000000	0.057653
316.000000	0.000000	0.082098
317.000000	0.000000	0.188755
318.000000	0.000000	0.051720
319.000000	0.000000	0.044465
320.000000	0.000000	0.087865
321.000000	0.000000	0.169812
322.000000	0.000000	0.120155
323.000000	0.000000	0.130478
324.000000	0.000000	0.103169
325.000000	0.000000	0.096994
326.000000	0.000000	0.205106
327.000000	0.000000	0.103054
328.000000	0.000000	0.172558
329.000000	0.000000	0.030362
330.000000	0.000000	0.065198
331.000000	0.000000	0.112972
332.000000	0.000000	0.117868
333.000000	0.000000	0.063975
334.000000	0.000000	0.039507
335.000000	0.000000	0.099320
336.000000	0.000000	0.061823
337.000000	0.000000	0.184909
338.000000	0.000000	0.122959
339.000000	0.000000	0.086670
340.000000	0.000000	0.061018
341.000000	0.000000	0.111351
342.000000	0.000000	0.110765
343.000000	0.000000	0.090520
344.000000	0.000000	0.029657
345.000000	0.000000	0.033633
346.000000	0.000000	0.104263
347.000000	0.000000	0.119475
348.000000	0.000000	0.092433
349.000000	0.000000	0.088991
350.000000	0.000000	0.155030
351.000000	0.000000	0.078230
352.000000	0.000000	0.134344
353.000000	0.000000	0.182672
354.000000	0.000000	0.121381
355.000000	0.000000	0.125061
356.000000	0.000000	0.078409
357.000000	0.000000	0.083143
358.000000	0.000000	0.118517
359.000000	0.000000	0.126016
360.000000	0.000000	0.138486
361.000000	0.000000	0.152871
362.000000	0.000000	0.096856
363.000000	0.000000	0.105988
364.000000	0.000000	0.122833
365.000000	0.000000	0.107180
366.000000	0.000000	0.114266
367.000000	0.000000	0.101496
368.000000	0.000000	0.137618
369.000000	0.000000	0.163410
370.000000	0.000000	0.110680
371.000000	0.000000	0.184311
372.000000	0.000000	0.192787
373.000000	0.000000	0.213633
374.000000	0.000000	0.204934
375.000000	0.000000	0.189569
376.000000	0.000000	0.083316
377.000000	0.000000	0.164814
378.000000	0.000000	0.162379
379.000000	0.000000	0.168858
380.000000	0.000000	0.170419
381.000000	0.000000	0.179793
382.000000	0.000000	0.188566
383.000000	0.000000	0.187179
384.000000	0.000000	0.188411
385.000000	0.000000	0.196821
386.000000	0.000000	0.197761
387.000000	0.000000	0.205626
388.000000	0.000000	0.228301
389.000000	0.000000	0.229592
390.000000	0.000000	0.228678
391.000000	0.000000	0.224073
392.000000	0.000000	0.241905
393.000000	0.000000	0.260455
394.000000	0.000000	0.272234
395.000000	0.000000	0.281142
396.000000	0.000000	0.291576
397.000000	0.000000	0.305014
398.000000	0.000000	0.327185
399.000000	0.000000	0.351403
400.000000	0.000000	0.366128
401.000000	0.000000	0.380883
402.000000	0.000000	0.404369
403.000000	0.000000	0.422355
404.000000	0.000000	0.449450
405.000000	0.000000	0.473419
406.000000	0.000000	0.505272
407.000000	0.000000	0.548825
408.000000	0.000000	0.584779
409.000000	0.000000	0.601932
410.000000	0.000000	0.632850
411.000000	0.000000	0.677895
412.000000	0.000000	0.725109
413.000000	0.000000	0.764933
414.000000	0.000000	0.804352
415.000000	0.000000	0.857296
416.000000	0.000000	0.914037
417.000000	0.000000	0.972780
418.000000	0.000000	1.023368
419.000000	0.000000	1.068670
420.000000	0.000000	1.124152
421.000000	0.000000	1.185287
422.000000	0.000000	1.248922
423.000000	0.000000	1.302337
424.000000	0.000000	1.351815
425.000000	0.000000	1.415191
426.000000	0.000000	1.469286
427.000000	0.000000	1.522408
428.000000	0.000000	1.573200
429.000000	0.000000	1.617957
430.000000	0.000000	1.674965
431.000000	0.000000	1.716776
432.000000	0.000000	1.749925
433.000000	0.000000	1.787332
434.000000	0.000000	1.821910
435.000000	0.000000	1.851655
436.000000	0.000000	1.874154
437.000000	0.000000	1.889845
438.000000	0.000000	1.897102
439.000000	0.000000	1.912044
440.000000	0.000000	1.932938
441.000000	0.000000	1.931709
442.000000	0.000000	1.931304
443.000000	0.000000	1.946618
444.000000	0.000000	1.938793
445.000000	0.000000	1.904704
446.000000	0.000000	1.903649
447.000000	0.000000	1.908543
448.000000	0.000000	1.885954
449.000000	0.000000	1.862091
450.000000	0.000000	1.837396
451.000000	0.000000	1.812756
452.000000	0.000000	1.804396
453.000000	0.000000	1.783023
454.000000	0.000000	1.744154
455.000000	0.000000	1.720430
456.000000	0.000000	1.687391
457.000000	0.000000	1.649231
458.000000	0.000000	1.629223
459.000000	0.000000	1.605797
460.000000	0.000000	1.585580
461.000000	0.000000	1.566042
462.000000	0.000000	1.529789
463.000000	0.000000	1.489811
464.000000	0.000000	1.460072
465.000000	0.000000	1.423284
466.000000	0.000000	1.383714
467.000000	0.000000	1.356217
468.000000	0.000000	1.337366
469.000000	0.000000	1.306115
470.000000	0.000000	1.280685
471.000000	0.000000	1.250985
472.000000	0.000000	1.220510
473.000000	0.000000	1.200169
474.000000	0.000000	1.171720
475.000000	0.000000	1.150205
476.000000	0.000000	1.122076
477.000000	0.000000	1.087965
478.000000	0.000000	1.061544
479.000000	0.000000	1.033045
480.000000	0.000000	1.005364
481.000000	0.000000	0.982784
482.000000	0.000000	0.950515
483.000000	0.000000	0.908475
484.000000	0.000000	0.860410
485.000000	0.000000	0.822328
486.000000	0.000000	0.778413
487.000000	0.000000	0.732585
488.000000	0.000000	0.687982
489.000000	0.000000	0.648761
490.000000	0.000000	0.619006
491.000000	0.000000	0.587684
492.000000	0.000000	0.566848
493.000000	0.000000	0.564182
494.000000	0.000000	0.566846
495.000000	0.000000	0.596376
496.000000	0.000000	0.643705
497.000000	0.000000	0.708595
498.000000	0.000000	0.805176
499.000000	0.000000	0.908538
500.000000	0.000000	1.033181
501.000000	0.000000	1.161697
502.000000	0.000000	1.299675
503.000000	0.000000	1.443579
504.000000	0.000000	1.596329
505.000000	0.000000	1.732995
506.000000	0.000000	1.869888
507.000000	0.000000	2.014191
508.000000	0.000000	2.149394
509.000000	0.000000	2.284364
510.000000	0.000000	2.416454
511.000000	0.000000	2.548557
512.000000	0.000000	2.657658
513.000000	0.000000	2.780529
514.000000	0.000000	2.888485
515.000000	0.000000	2.959354
516.000000	0.000000	3.052186
517.000000	0.000000	3.138378
518.000000	0.000000	3.220809
519.000000	0.000000	3.309640
520.000000	0.000000	3.392394
521.000000	0.000000	3.459091
522.000000	0.000000	3.544649
523.000000	0.000000	3.597427
524.000000	0.000000	3.656503
525.000000	0.000000	3.710204
526.000000	0.000000	3.761264
527.000000	0.000000	3.804856
528.000000	0.000000	3.844667
529.000000	0.000000	3.878762
530.000000	0.000000	3.928641
531.000000	0.000000	3.996042
532.000000	0.000000	4.045618
533.000000	0.000000	4.078988
534.000000	0.000000	4.127521
535.000000	0.000000	4.179528
536.000000	0.000000	4.219589
537.000000	0.000000	4.297662
538.000000	0.000000	4.373273
539.000000	0.000000	4.406292
540.000000	0.000000	4.438740
541.000000	0.000000	4.471953
542.000000	0.000000	4.493795
543.000000	0.000000	4.510671
544.000000	0.000000	4.534801
545.000000	0.000000	4.557942
546.000000	0.000000	4.601082
547.000000	0.000000	4.623544
548.000000	0.000000	4.611232
549.000000	0.000000	4.579646
550.000000	0.000000	4.558102
551.000000	0.000000	4.507369
552.000000	0.000000	4.434888
553.000000	0.000000	4.402672
554.000000	0.000000	4.360394
555.000000	0.000000	4.295307
556.000000	0.000000	4.233703
557.000000	0.000000	4.142225
558.000000	0.000000	4.038830
559.000000	0.000000	3.912180
560.000000	0.000000	3.817810
561.000000	0.000000	3.771814
562.000000	0.000000	3.679818
563.000000	0.000000	3.614308
564.000000	0.000000	3.570899
565.000000	0.000000	3.498475
566.000000	0.000000	3.401560
567.000000	0.000000	3.324531
568.000000	0.000000	3.204076
569.000000	0.000000	3.086263
570.000000	0.000000	2.979545
571.000000	0.000000	2.910875
572.000000	0.000000	2.864256
573.000000	0.000000	2.807282
574.000000	0.000000	2.782118
575.000000	0.000000	2.739923
576.000000	0.000000	2.708722
577.000000	0.000000	2.676217
578.000000	0.000000	2.608418
579.000000	0.000000	2.555090
580.000000	0.000000	2.482893
581.000000	0.000000	2.418181
582.000000	0.000000	2.384813
583.000000	0.000000	2.361631
584.000000	0.000000	2.373186
585.000000	0.000000	2.354173
586.000000	0.000000	2.357046
587.000000	0.000000	2.331739
588.000000	0.000000	2.313554
589.000000	0.000000	2.264457
590.000000	0.000000	2.197335
591.000000	0.000000	2.100805
592.000000	0.000000	2.007337
593.000000	0.000000	1.926801
594.000000	0.000000	1.863751
595.000000	0.000000	1.841719
596.000000	0.000000	1.769204
597.000000	0.000000	1.741474
598.000000	0.000000	1.675394
599.000000	0.000000	1.643718
600.000000	0.000000	1.607030
601.000000	0.000000	1.571463
602.000000	0.000000	1.554205
603.000000	0.000000	1.471364
604.000000	0.000000	1.399772
605.000000	0.000000	1.361835
606.000000	0.000000	1.297213
607.000000	0.000000	1.256805
608.000000	0.000000	1.224375
609.000000	0.000000	1.220267
610.000000	0.000000	1.235543
611.000000	0.000000	1.229977
612.000000	0.000000	1.242335
613.000000	0.000000	1.208683
614.000000	0.000000	1.214461
615.000000	0.000000	1.198269
616.000000	0.000000	1.224044
617.000000	0.000000	1.165169
618.000000	0.000000	1.133104
619.000000	0.000000	1.058186
620.000000	0.000000	1.024032
621.000000	0.000000	0.965882
622.000000	0.000000	0.923929
623.000000	0.000000	0.896195
624.000000	0.000000	0.847884
625.000000	0.000000	0.832354
626.000000	0.000000	0.851022
627.000000	0.000000	0.881698
628.000000	0.000000	0.932540
629.000000	0.000000	1.006010
630.000000	0.000000	1.086426
631.000000	0.000000	1.182796
632.000000	0.000000	1.260571
633.000000	0.000000	1.353366
634.000000	0.000000	1.441823
635.000000	0.000000	1.494504
636.000000	0.000000	1.616064
637.000000	0.000000	1.689567
638.000000	0.000000	1.722431
639.000000	0.000000	1.761437
640.000000	0.000000	1.853692
641.000000	0.000000	1.873999
642.000000	0.000000	1.933684
643.000000	0.000000	1.983848
644.000000	0.000000	2.056868
645.000000	0.000000	2.110992
646.000000	0.000000	2.145452
647.000000	0.000000	2.217857
648.000000	0.000000	2.294403
649.000000	0.000000	2.360250
650.000000	0.000000	2.424299
651.000000	0.000000	2.466743
652.000000	0.000000	2.497777
653.000000	0.000000	2.526846
654.000000	0.000000	2.525732
655.000000	0.000000	2.528405
656.000000	0.000000	2.505899
657.000000	0.000000	2.492538
658.000000	0.000000	2.467106
659.000000	0.000000	2.439769
660.000000	0.000000	2.383343
661.000000	0.000000	2.309953
662.000000	0.000000	2.303934
663.000000	0.000000	2.304344
664.000000	0.000000	2.283503
665.000000	0.000000	2.317776
666.000000	0.000000	2.379938
667.000000	0.000000	2.480500
668.000000	0.000000	2.579397
669.000000	0.000000	2.695119
670.000000	0.000000	2.817979
671.000000	0.000000	2.960283
672.000000	0.000000	3.106838
673.000000	0.000000	3.249935
674.000000	0.000000	3.352226
675.000000	0.000000	3.487083
676.000000	0.000000	3.616523
677.000000	0.000000	3.662867
678.000000	0.000000	3.744375
679.000000	0.000000	3.801515
680.000000	0.000000	3.849942
681.000000	0.000000	3.910874
682.000000	0.000000	3.962909
683.000000	0.000000	3.996035
684.000000	0.000000	4.010236
685.000000	0.000000	4.079939
686.000000	0.000000	4.096865
687.000000	0.000000	4.156371
688.000000	0.000000	4.187533
689.000000	0.000000	4.240037
690.000000	0.000000	4.309812
691.000000	0.000000	4.371584
692.000000	0.000000	4.431408
693.000000	0.000000	4.449121
694.000000	0.000000	4.488835
695.000000	0.000000	4.536110
696.000000	0.000000	4.552490
697.000000	0.000000	4.543565
698.000000	0.000000	4.513715
699.000000	0.000000	4.485635
700.000000	0.000000	4.458565
701.000000	0.000000	4.413251
702.000000	0.000000	4.324816
703.000000	0.000000	4.234979
704.000000	0.000000	4.181408
705.000000	0.000000	4.092456
706.000000	0.000000	3.979752
707.000000	0.000000	3.909730
708.000000	0.000000	3.847003
709.000000	0.000000	3.773927
710.000000	0.000000	3.770851
711.000000	0.000000	3.723324
712.000000	0.000000	3.763160
713.000000	0.000000	3.755294
714.000000	0.000000	3.784723
715.000000	0.000000	3.816100
716.000000	0.000000	3.813028
717.000000	0.000000	3.828907
718.000000	0.000000	3.874452
719.000000	0.000000	3.903140
720.000000	0.000000	3.938932
721.000000	0.000000	4.003711
722.000000	0.000000	4.031073
723.000000	0.000000	4.032842
724.000000	0.000000	4.085252
725.000000	0.000000	4.114898
726.000000	0.000000	4.057871
727.000000	0.000000	4.064760
728.000000	0.000000	4.093823
729.000000	0.000000	4.154696
730.000000	0.000000	4.171480
731.000000	0.000000	4.129487
732.000000	0.000000	4.114083
733.000000	0.000000	4.103427
734.000000	0.000000	4.116559
735.000000	0.000000	4.126381
736.000000	0.000000	4.144446
737.000000	0.000000	4.151071
738.000000	0.000000	4.170088
739.000000	0.000000	4.168007
740.000000	0.000000	4.177732
741.000000	0.000000	4.139234
742.000000	0.000000	4.056892
743.000000	0.000000	4.042035
744.000000	0.000000	4.067469
745.000000	0.000000	4.075458
746.000000	0.000000	3.987517
747.000000	0.000000	3.914779
748.000000	0.000000	3.892360
749.000000	0.000000	3.863438
750.000000	0.000000	3.802876
751.000000	0.000000	3.749711
752.000000	0.000000	3.721789
753.000000	0.000000	3.689704
754.000000	0.000000	3.623684
755.000000	0.000000	3.594814
756.000000	0.000000	3.627789
757.000000	0.000000	3.593893
758.000000	0.000000	3.545135
759.000000	0.000000	3.499292
760.000000	0.000000	3.484389
761.000000	0.000000	3.496203
762.000000	0.000000	3.435132
763.000000	0.000000	3.419369
764.000000	0.000000	3.452732
765.000000	0.000000	3.431639
766.000000	0.000000	3.404132
767.000000	0.000000	3.391185
768.000000	0.000000	3.353229
769.000000	0.000000	3.276341
770.000000	0.000000	3.235303
771.000000	0.000000	3.196064
772.000000	0.000000	3.156444
773.000000	0.000000	3.116754
774.000000	0.000000	3.040210
775.000000	0.000000	3.020501
776.000000	0.000000	3.052058
777.000000	0.000000	2.967084
778.000000	0.000000	2.921922
779.000000	0.000000	2.882626
780.000000	0.000000	2.826315
781.000000	0.000000	2.765600
782.000000	0.000000	2.756006
783.000000	0.000000	2.773800
784.000000	0.000000	2.708852
785.000000	0.000000	2.658616
786.000000	0.000000	2.637219
787.000000	0.000000	2.601033
788.000000	0.000000	2.627225
789.000000	0.000000	2.625019
790.000000	0.000000	2.643555
791.000000	0.000000	2.627667
792.000000	0.000000	2.630273
793.000000	0.000000	2.646182
794.000000	0.000000	2.622530
795.000000	0.000000	2.597270
796.000000	0.000000	2.595405
797.000000	0.000000	2.612560
798.000000	0.000000	2.591999
799.000000	0.000000	2.539671
800.000000	0.000000	2.526505
801.000000	0.000000	2.616520
802.000000	0.000000	2.715936
803.000000	0.000000	2.672891
804.000000	0.000000	2.622521
805.000000	0.000000	2.633042
806.000000	0.000000	2.616432
807.000000	0.000000	2.504709
808.000000	0.000000	2.551486
809.000000	0.000000	2.594229
810.000000	0.000000	2.595094
811.000000	0.000000	2.623407
812.000000	0.000000	2.558942
813.000000	0.000000	2.594919
814.000000	0.000000	2.567223
815.000000	0.000000	2.633131
816.000000	0.000000	2.524662
817.000000	0.000000	2.546440
818.000000	0.000000	2.521715
819.000000	0.000000	2.544441
820.000000	0.000000	2.472612
821.000000	0.000000	2.544140
822.000000	0.000000	2.581422
823.000000	0.000000	2.473439
824.000000	0.000000	2.306800
825.000000	0.000000	2.315387
826.000000	0.000000	2.336302
827.000000	0.000000	2.180512
828.000000	0.000000	2.136005
829.000000	0.000000	2.048444
830.000000	0.000000	1.960442
831.000000	0.000000	1.938164
832.000000	0.000000	1.887838
833.000000	0.000000	1.742231
834.000000	0.000000	1.681755
835.000000	0.000000	1.818203
836.000000	0.000000	1.648698
837.000000	0.000000	1.556659
838.000000	0.000000	1.589441
839.000000	0.000000	1.547841
840.000000	0.000000	1.407995
841.000000	0.000000	1.350452
842.000000	0.000000	1.674124
843.000000	0.000000	1.478072
844.000000	0.000000	1.386151
845.000000	0.000000	1.300252
846.000000	0.000000	1.374653
847.000000	0.000000	1.208367
848.000000	0.000000	1.206237
849.000000	0.000000	1.256241
850.000000	0.000000	1.209266
851.000000	0.000000	1.025039
852.000000	0.000000	1.302430
853.000000	0.000000	1.065037
854.000000	0.000000	1.029571
855.000000	0.000000	0.760692
856.000000	0.000000	0.977927
857.000000	0.000000	1.251938
858.000000	0.000000	0.990928
859.000000	0.000000	0.781197
860.000000	0.000000	0.862451
861.000000	0.000000	0.961494
862.000000	0.000000	1.049124
863.000000	0.000000	1.123869
864.000000	0.000000	1.192502
865.000000	0.000000	1.252990
866.000000	0.000000	1.317878
867.000000	0.000000	1.379479
868.000000	0.000000	1.447495
869.000000	0.000000	1.493998
870.000000	0.000000	1.537905
871.000000	0.000000	1.598230
872.000000	0.000000	1.643681
873.000000	0.000000	1.684546
874.000000	0.000000	1.727617
875.000000	0.000000	1.745618
876.000000	0.000000	1.786565
877.000000	0.000000	1.794432
878.000000	0.000000	1.829555
879.000000	0.000000	1.848972
880.000000	0.000000	1.874169
881.000000	0.000000	1.877706
882.000000	0.000000	1.870692
883.000000	0.000000	1.894148
884.000000	0.000000	1.910452
885.000000	0.000000	1.945614
886.000000	0.000000	1.958486
887.000000	0.000000	1.962432
888.000000	0.000000	1.980496
889.000000	0.000000	2.001537
890.000000	0.000000	1.992989
891.000000	0.000000	2.026447
892.000000	0.000000	2.046116
893.000000	0.000000	2.082211
894.000000	0.000000	2.114269
895.000000	0.000000	2.133143
896.000000	0.000000	2.138803
897.000000	0.000000	2.170230
898.000000	0.000000	2.172189
899.000000	0.000000	2.202171
900.000000	0.000000	2.229233
901.000000	0.000000	2.254694
902.000000	0.000000	2.257704
903.000000	0.000000	2.273200
904.000000	0.000000	2.305424
905.000000	0.000000	2.311414
906.000000	0.000000	2.333555
907.000000	0.000000	2.348260
908.000000	0.000000	2.376460
909.000000	0.000000	2.395836
910.000000	0.000000	2.400877
911.000000	0.000000	2.430387
912.000000	0.000000	2.459691
913.000000	0.000000	2.459402
914.000000	0.000000	2.465999
915.000000	0.000000	2.488885
916.000000	0.000000	2.495643
917.000000	0.000000	2.481203
918.000000	0.000000	2.484598
919.000000	0.000000	2.487476
920.000000	0.000000	2.484644
921.000000	0.000000	2.473974
922.000000	0.000000	2.474557
923.000000	0.000000	2.460206
924.000000	0.000000	2.447472
925.000000	0.000000	2.417760
926.000000	0.000000	2.411252
927.000000	0.000000	2.386149
928.000000	0.000000	2.369520
929.000000	0.000000	2.371467
930.000000	0.000000	2.337992
931.000000	0.000000	2.318166
932.000000	0.000000	2.300535
933.000000	0.000000	2.274625
934.000000	0.000000	2.269215
935.000000	0.000000	2.265930
936.000000	0.000000	2.250920
937.000000	0.000000	2.232369
938.000000	0.000000	2.226820
939.000000	0.000000	2.217957
940.000000	0.000000	2.197863
941.000000	0.000000	2.194739
942.000000	0.000000	2.197824
943.000000	0.000000	2.172713
944.000000	0.000000	2.173120
945.000000	0.000000	2.186522
946.000000	0.000000	2.200592
947.000000	0.000000	2.216006
948.000000	0.000000	2.217053
949.000000	0.000000	2.221242
950.000000	0.000000	2.231192
951.000000	0.000000	2.224843
952.000000	0.000000	2.237554
953.000000	0.000000	2.258034
954.000000	0.000000	2.255583
955.000000	0.000000	2.266280
956.000000	0.000000	2.273286
957.000000	0.000000	2.276712
958.000000	0.000000	2.282393
959.000000	0.000000	2.282516
960.000000	0.000000	2.285967
961.000000	0.000000	2.293971
962.000000	0.000000	2.288271
963.000000	0.000000	2.301177
964.000000	0.000000	2.297351
965.000000	0.000000	2.290550
966.000000	0.000000	2.293203
967.000000	0.000000	2.277647
968.000000	0.000000	2.288838
969.000000	0.000000	2.278454
970.000000	0.000000	2.270121
971.000000	0.000000	2.262866
972.000000	0.000000	2.246635
973.000000	0.000000	2.237960
974.000000	0.000000	2.219619
975.000000	0.000000	2.217562
976.000000	0.000000	2.208388
977.000000	0.000000	2.193267
978.000000	0.000000	2.178618
979.000000	0.000000	2.175660
980.000000	0.000000	2.166916
981.000000	0.000000	2.139479
982.000000	0.000000	2.137028
983.000000	0.000000	2.142014
984.000000	0.000000	2.133785
985.000000	0.000000	2.129081
986.000000	0.000000	2.131222
987.000000	0.000000	2.119716
988.000000	0.000000	2.120891
989.000000	0.000000	2.116360
990.000000	0.000000	2.107654
991.000000	0.000000	2.101938
992.000000	0.000000	2.103288
993.000000	0.000000	2.094948
994.000000	0.000000	2.088218
995.000000	0.000000	2.080154
996.000000	0.000000	2.088446
997.000000	0.000000	2.084200
998.000000	0.000000	2.077035
999.000000	0.000000	2.074446
1000.000000	0.000000	2.067988
1001.000000	0.000000	2.078189
1002.000000	0.000000	2.074778
1003.000000	0.000000	2.072214
1004.000000	0.000000	2.072162
1005.000000	0.000000	2.079165
1006.000000	0.000000	2.077572
1007.000000	0.000000	2.070755
1008.000000	0.000000	2.069315
1009.000000	0.000000	2.069527
1010.000000	0.000000	2.065552
1011.000000	0.000000	2.053699
1012.000000	0.000000	2.052613
1013.000000	0.000000	2.042955
1014.000000	0.000000	2.035023
1015.000000	0.000000	2.029973
1016.000000	0.000000	2.015200
1017.000000	0.000000	2.015942
1018.000000	0.000000	2.013672
1019.000000	0.000000	2.003124
1020.000000	0.000000	1.994920
1021.000000	0.000000	1.991189
1022.000000	0.000000	1.985951
1023.000000	0.000000	1.975631
1024.000000	0.000000	1.969191
1025.000000	0.000000	1.963314
1026.000000	0.000000	1.950518
1027.000000	0.000000	1.943786
1028.000000	0.000000	1.942773
1029.000000	0.000000	1.927933
1030.000000	0.000000	1.917244
1031.000000	0.000000	1.923952
1032.000000	0.000000	1.915616
1033.000000	0.000000	1.897706
1034.000000	0.000000	1.896837
1035.000000	0.000000	1.897308
1036.000000	0.000000	1.895516
1037.000000	0.000000	1.897083
1038.000000	0.000000	1.889470
1039.000000	0.000000	1.882577
1040.000000	0.000000	1.879479
1041.000000	0.000000	1.885904
1042.000000	0.000000	1.879162
1043.000000	0.000000	1.871452
1044.000000	0.000000	1.879063
1045.000000	0.000000	1.870672
1046.000000	0.000000	1.864896
1047.000000	0.000000	1.858676
1048.000000	0.000000	1.854996
1049.000000	0.000000	1.855319
1050.000000	0.000000	1.852425
1051.000000	0.000000	1.840894
1052.000000	0.000000	1.844867
1053.000000	0.000000	1.839462
1054.000000	0.000000	1.838403
1055.000000	0.000000	1.840345
1056.000000	0.000000	1.822850
1057.000000	0.000000	1.816925
1058.000000	0.000000	1.819580
1059.000000	0.000000	1.806329
1060.000000	0.000000	1.795992
1061.000000	0.000000	1.799648
1062.000000	0.000000	1.798231
1063.000000	0.000000	1.800278
1064.000000	0.000000	1.785227
1065.000000	0.000000	1.779602
1066.000000	0.000000	1.778477
1067.000000	0.000000	1.783246
1068.000000	0.000000	1.782911
1069.000000	0.000000	1.781957
1070.000000	0.000000	1.795143
1071.000000	0.000000	1.796577
1072.000000	0.000000	1.798990
1073.000000	0.000000	1.806041
1074.000000	0.000000	1.805413
1075.000000	0.000000	1.800370
1076.000000	0.000000	1.803546
1077.000000	0.000000	1.806044
1078.000000	0.000000	1.810597
1079.000000	0.000000	1.817779
1080.000000	0.000000	1.818609
1081.000000	0.000000	1.820690
1082.000000	0.000000	1.835263
1083.000000	0.000000	1.845952
1084.000000	0.000000	1.853595
1085.000000	0.000000	1.853624
1086.000000	0.000000	1.853833
1087.000000	0.000000	1.864617
1088.000000	0.000000	1.861742
1089.000000	0.000000	1.868334
1090.000000	0.000000	1.874931
1091.000000	0.000000	1.885688
1092.000000	0.000000	1.885548
1093.000000	0.000000	1.880976
1094.000000	0.000000	1.879705
1095.000000	0.000000	1.871937
1096.000000	0.000000	1.868933
1097.000000	0.000000	1.869028
1098.000000	0.000000	1.869423
1099.000000	0.000000	1.867096
1100.000000	0.000000	1.864264
1101.000000	0.000000	1.866109
1102.000000	0.000000	1.853685
1103.000000	0.000000	1.863123
1104.000000	0.000000	1.863171
1105.000000	0.000000	1.858690
1106.000000	0.000000	1.854376
1107.000000	0.000000	1.850079
1108.000000	0.000000	1.841081
1109.000000	0.000000	1.836698
1110.000000	0.000000	1.844579
1111.000000	0.000000	1.837604
1112.000000	0.000000	1.843635
1113.000000	0.000000	1.842654
1114.000000	0.000000	1.852830
1115.000000	0.000000	1.840509
1116.000000	0.000000	1.834898
1117.000000	0.000000	1.839195
1118.000000	0.000000	1.842041
1119.000000	0.000000	1.853700
1120.000000	0.000000	1.858018
1121.000000	0.000000	1.860654
1122.000000	0.000000	1.864961
1123.000000	0.000000	1.872431
1124.000000	0.000000	1.864219
1125.000000	0.000000	1.884828
1126.000000	0.000000	1.891740
1127.000000	0.000000	1.903242
1128.000000	0.000000	1.913675
1129.000000	0.000000	1.904970
1130.000000	0.000000	1.918320
1131.000000	0.000000	1.929044
1132.000000	0.000000	1.918546
1133.000000	0.000000	1.928358
1134.000000	0.000000	1.930946
1135.000000	0.000000	1.939193
1136.000000	0.000000	1.961530
1137.000000	0.000000	1.957125
1138.000000	0.000000	1.951446
1139.000000	0.000000	1.954600
1140.000000	0.000000	1.959926
1141.000000	0.000000	1.955813
1142.000000	0.000000	1.947378
1143.000000	0.000000	1.940963
1144.000000	0.000000	1.954707
1145.000000	0.000000	1.949915
1146.000000	0.000000	1.943545
1147.000000	0.000000	1.944243
1148.000000	0.000000	1.929779
1149.000000	0.000000	1.940911
1150.000000	0.000000	1.921945
1151.000000	0.000000	1.906107
1152.000000	0.000000	1.898160
1153.000000	0.000000	1.903091
1154.000000	0.000000	1.901153
1155.000000	0.000000	1.879894
1156.000000	0.000000	1.861305
1157.000000	0.000000	1.861094
1158.000000	0.000000	1.855967
1159.000000	0.000000	1.847979
1160.000000	0.000000	1.846520
1161.000000	0.000000	1.836861
1162.000000	0.000000	1.830885
1163.000000	0.000000	1.818249
1164.000000	0.000000	1.801471
1165.000000	0.000000	1.813719
1166.000000	0.000000	1.800235
1167.000000	0.000000	1.803358
1168.000000	0.000000	1.805640
1169.000000	0.000000	1.793509
1170.000000	0.000000	1.785155
1171.000000	0.000000	1.799286
1172.000000	0.000000	1.790220
1173.000000	0.000000	1.793323
1174.000000	0.000000	1.800320
1175.000000	0.000000	1.800801
1176.000000	0.000000	1.789029
1177.000000	0.000000	1.793736
1178.000000	0.000000	1.789767
1179.000000	0.000000	1.799151
1180.000000	0.000000	1.794583
1181.000000	0.000000	1.792560
1182.000000	0.000000	1.808283
1183.000000	0.000000	1.809591
1184.000000	0.000000	1.819628
1185.000000	0.000000	1.822197
1186.000000	0.000000	1.834780
1187.000000	0.000000	1.834554
1188.000000	0.000000	1.847562
1189.000000	0.000000	1.845558
1190.000000	0.000000	1.848158
1191.000000	0.000000	1.853699
1192.000000	0.000000	1.867741
1193.000000	0.000000	1.874142
1194.000000	0.000000	1.879421
1195.000000	0.000000	1.883939
1196.000000	0.000000	1.888009
1197.000000	0.000000	1.875384
1198.000000	0.000000	1.884151
1199.000000	0.000000	1.887421
1200.000000	0.000000	1.885135
1201.000000	0.000000	1.892621
1202.000000	0.000000	1.882526
1203.000000	0.000000	1.883502
1204.000000	0.000000	1.885648
1205.000000	0.000000	1.883035
1206.000000	0.000000	1.881438
1207.000000	0.000000	1.889665
1208.000000	0.000000	1.901063
1209.000000	0.000000	1.891391
1210.000000	0.000000	1.886917
1211.000000	0.000000	1.870594
1212.000000	0.000000	1.877424
1213.000000	0.000000	1.867106
1214.000000	0.000000	1.872884
1215.000000	0.000000	1.870477
1216.000000	0.000000	1.871721
1217.000000	0.000000	1.872897
1218.000000	0.000000	1.873885
1219.000000	0.000000	1.870155
1220.000000	0.000000	1.875626
1221.000000	0.000000	1.874143
1222.000000	0.000000	1.872684
1223.000000	0.000000	1.870148
1224.000000	0.000000	1.874493
1225.000000	0.000000	1.880711
1226.000000	0.000000	1.879495
1227.000000	0.000000	1.877151
1228.000000	0.000000	1.876800
1229.000000	0.000000	1.887826
1230.000000	0.000000	1.889423
1231.000000	0.000000	1.892038
1232.000000	0.000000	1.896244
1233.000000	0.000000	1.894374
1234.000000	0.000000	1.896551
1235.000000	0.000000	1.892354
1236.000000	0.000000	1.905141
1237.000000	0.000000	1.907093
1238.000000	0.000000	1.918167
1239.000000	0.000000	1.920681
1240.000000	0.000000	1.926943
1241.000000	0.000000	1.937247
1242.000000	0.000000	1.946690
1243.000000	0.000000	1.955971
1244.000000	0.000000	1.950927
1245.000000	0.000000	1.965269
1246.000000	0.000000	1.966390
1247.000000	0.000000	1.978268
1248.000000	0.000000	1.983158
1249.000000	0.000000	1.993284
1250.000000	0.000000	1.998554
1251.000000	0.000000	1.998531
1252.000000	0.000000	2.010765
1253.000000	0.000000	2.009355
1254.000000	0.000000	2.008867
1255.000000	0.000000	2.009536
1256.000000	0.000000	2.018534
1257.000000	0.000000	2.022324
1258.000000	0.000000	2.019695
1259.000000	0.000000	2.021361
1260.000000	0.000000	2.013944
1261.000000	0.000000	2.012390
1262.000000	0.000000	2.015646
1263.000000	0.000000	2.014233
1264.000000	0.000000	2.017297
1265.000000	0.000000	2.017567
1266.000000	0.000000	2.009433
1267.000000	0.000000	2.010894
1268.000000	0.000000	2.008952
1269.000000	0.000000	2.004015
1270.000000	0.000000	1.997017
1271.000000	0.000000	1.990343
1272.000000	0.000000	1.983160
1273.000000	0.000000	1.979120
1274.000000	0.000000	1.976518
1275.000000	0.000000	1.971077
1276.000000	0.000000	1.969156
1277.000000	0.000000	1.957688
1278.000000	0.000000	1.946338
1279.000000	0.000000	1.947323
1280.000000	0.000000	1.952829
1281.000000	0.000000	1.954444
1282.000000	0.000000	1.953721
1283.000000	0.000000	1.954360
1284.000000	0.000000	1.949323
1285.000000	0.000000	1.941026
1286.000000	0.000000	1.938913
1287.000000	0.000000	1.934880
1288.000000	0.000000	1.940406
1289.000000	0.000000	1.942612
1290.000000	0.000000	1.938335
1291.000000	0.000000	1.938490
1292.000000	0.000000	1.932332
1293.000000	0.000000	1.930262
1294.000000	0.000000	1.936367
1295.000000	0.000000	1.937606
1296.000000	0.000000	1.934489
1297.000000	0.000000	1.937063
1298.000000	0.000000	1.932230
1299.000000	0.000000	1.935681
1300.000000	0.000000	1.940812
1301.000000	0.000000	1.936551
1302.000000	0.000000	1.941965
1303.000000	0.000000	1.950987
1304.000000	0.000000	1.954520
1305.000000	0.000000	1.956493
1306.000000	0.000000	1.951239
1307.000000	0.000000	1.955968
1308.000000	0.000000	1.956268
1309.000000	0.000000	1.952888
1310.000000	0.000000	1.951146
1311.000000	0.000000	1.946014
1312.000000	0.000000	1.951151
1313.000000	0.000000	1.955537
1314.000000	0.000000	1.961443
1315.000000	0.000000	1.963468
1316.000000	0.000000	1.959871
1317.000000	0.000000	1.955819
1318.000000	0.000000	1.962972
1319.000000	0.000000	1.961983
1320.000000	0.000000	1.958359
1321.000000	0.000000	1.968060
1322.000000	0.000000	1.963594
1323.000000	0.000000	1.954252
1324.000000	0.000000	1.958230
1325.000000	0.000000	1.957348
1326.000000	0.000000	1.957980
1327.000000	0.000000	1.953305
1328.000000	0.000000	1.950456
1329.000000	0.000000	1.944845
1330.000000	0.000000	1.932281
1331.000000	0.000000	1.940212
1332.000000	0.000000	1.937746
1333.000000	0.000000	1.932050
1334.000000	0.000000	1.925039
1335.000000	0.000000	1.929622
1336.000000	0.000000	1.923289
1337.000000	0.000000	1.920077
1338.000000	0.000000	1.914363
1339.000000	0.000000	1.901672
1340.000000	0.000000	1.886552
1341.000000	0.000000	1.886837
1342.000000	0.000000	1.883363
1343.000000	0.000000	1.877604
1344.000000	0.000000	1.872060
1345.000000	0.000000	1.862702
1346.000000	0.000000	1.849944
1347.000000	0.000000	1.859563
1348.000000	0.000000	1.867203
1349.000000	0.000000	1.856444
1350.000000	0.000000	1.846744
1351.000000	0.000000	1.843792
1352.000000	0.000000	1.843171
1353.000000	0.000000	1.839741
1354.000000	0.000000	1.828114
1355.000000	0.000000	1.827870
1356.000000	0.000000	1.820941
1357.000000	0.000000	1.817766
1358.000000	0.000000	1.804087
1359.000000	0.000000	1.804131
1360.000000	0.000000	1.787704
1361.000000	0.000000	1.785141
1362.000000	0.000000	1.790053
1363.000000	0.000000	1.789052
1364.000000	0.000000	1.807764
1365.000000	0.000000	1.793441
1366.000000	0.000000	1.778303
1367.000000	0.000000	1.760689
1368.000000	0.000000	1.768191
1369.000000	0.000000	1.732392
1370.000000	0.000000	1.718107
1371.000000	0.000000	1.706261
1372.000000	0.000000	1.698956
1373.000000	0.000000	1.669624
1374.000000	0.000000	1.633897
1375.000000	0.000000	1.640296
1376.000000	0.000000	1.616192
1377.000000	0.000000	1.592940
1378.000000	0.000000	1.589104
1379.000000	0.000000	1.563577
1380.000000	0.000000	1.541034
1381.000000	0.000000	1.551123
1382.000000	0.000000	1.565210
1383.000000	0.000000	1.589779
1384.000000	0.000000	1.620032
1385.000000	0.000000	1.599294
1386.000000	0.000000	1.600242
1387.000000	0.000000	1.610232
1388.000000	0.000000	1.649335
1389.000000	0.000000	1.633352
1390.000000	0.000000	1.643775
1391.000000	0.000000	1.630428
1392.000000	0.000000	1.628036
1393.000000	0.000000	1.636546
1394.000000	0.000000	1.640338
1395.000000	0.000000	1.635894
1396.000000	0.000000	1.646971
1397.000000	0.000000	1.664102
1398.000000	0.000000	1.642950
1399.000000	0.000000	1.635440
1400.000000	0.000000	1.647963
1401.000000	0.000000	1.670721
1402.000000	0.000000	1.655463
1403.000000	0.000000	1.634702
1404.000000	0.000000	1.615278
1405.000000	0.000000	1.625696
1406.000000	0.000000	1.617676
1407.000000	0.000000	1.624426
1408.000000	0.000000	1.606533
1409.000000	0.000000	1.612193
1410.000000	0.000000	1.600384
1411.000000	0.000000	1.591346
1412.000000	0.000000	1.613865
1413.000000	0.000000	1.593815
1414.000000	0.000000	1.601301
1415.000000	0.000000	1.594962
1416.000000	0.000000	1.581896
1417.000000	0.000000	1.591340
1418.000000	0.000000	1.574631
1419.000000	0.000000	1.583021
1420.000000	0.000000	1.567084
1421.000000	0.000000	1.552455
1422.000000	0.000000	1.540106
1423.000000	0.000000	1.548348
1424.000000	0.000000	1.547255
1425.000000	0.000000	1.551816
1426.000000	0.000000	1.541575
1427.000000	0.000000	1.526225
1428.000000	0.000000	1.540528
1429.000000	0.000000	1.532205
1430.000000	0.000000	1.512014
1431.000000	0.000000	1.513147
1432.000000	0.000000	1.530840
1433.000000	0.000000	1.513350
1434.000000	0.000000	1.525874
1435.000000	0.000000	1.511579
1436.000000	0.000000	1.514865
1437.000000	0.000000	1.520636
1438.000000	0.000000	1.504755
1439.000000	0.000000	1.511020
1440.000000	0.000000	1.516188
1441.000000	0.000000	1.503628
1442.000000	0.000000	1.527914
1443.000000	0.000000	1.498274
1444.000000	0.000000	1.517192
1445.000000	0.000000	1.510376
1446.000000	0.000000	1.524399
1447.000000	0.000000	1.525597
1448.000000	0.000000	1.522168
1449.000000	0.000000	1.531227
1450.000000	0.000000	1.523478
1451.000000	0.000000	1.552764
1452.000000	0.000000	1.536464
1453.000000	0.000000	1.541147
1454.000000	0.000000	1.559888
1455.000000	0.000000	1.563163
1456.000000	0.000000	1.549809
1457.000000	0.000000	1.565998
1458.000000	0.000000	1.559225
1459.000000	0.000000	1.565028
1460.000000	0.000000	1.582937
1461.000000	0.000000	1.585262
1462.000000	0.000000	1.584591
1463.000000	0.000000	1.583898
1464.000000	0.000000	1.581034
1465.000000	0.000000	1.585748
1466.000000	0.000000	1.595802
1467.000000	0.000000	1.592513
1468.000000	0.000000	1.604663
1469.000000	0.000000	1.601844
1470.000000	0.000000	1.587697
1471.000000	0.000000	1.595902
1472.000000	0.000000	1.605582
1473.000000	0.000000	1.607287
1474.000000	0.000000	1.601361
1475.000000	0.000000	1.615456
1476.000000	0.000000	1.604443
1477.000000	0.000000	1.606224
1478.000000	0.000000	1.606006
1479.000000	0.000000	1.613754
1480.000000	0.000000	1.614406
1481.000000	0.000000	1.606400
1482.000000	0.000000	1.610700
1483.000000	0.000000	1.605638
1484.000000	0.000000	1.594891
1485.000000	0.000000	1.598963
1486.000000	0.000000	1.597897
1487.000000	0.000000	1.593441
1488.000000	0.000000	1.589891
1489.000000	0.000000	1.583884
1490.000000	0.000000	1.578311
1491.000000	0.000000	1.569439
1492.000000	0.000000	1.559885
1493.000000	0.000000	1.559170
1494.000000	0.000000	1.552627
1495.000000	0.000000	1.550577
1496.000000	0.000000	1.543097
1497.000000	0.000000	1.549416
1498.000000	0.000000	1.535179
1499.000000	0.000000	1.527216
1500.000000	0.000000	1.526384
1501.000000	0.000000	1.526371
1502.000000	0.000000	1.513422
1503.000000	0.000000	1.501327
1504.000000	0.000000	1.501150
1505.000000	0.000000	1.498978
1506.000000	0.000000	1.480448
1507.000000	0.000000	1.473712
1508.000000	0.000000	1.462785
1509.000000	0.000000	1.456065
1510.000000	0.000000	1.455083
1511.000000	0.000000	1.452747
1512.000000	0.000000	1.456232
1513.000000	0.000000	1.439701
1514.000000	0.000000	1.432479
1515.000000	0.000000	1.428157
1516.000000	0.000000	1.419038
1517.000000	0.000000	1.418222
1518.000000	0.000000	1.419816
1519.000000	0.000000	1.414835
1520.000000	0.000000	1.407663
1521.000000	0.000000	1.405208
1522.000000	0.000000	1.402236
1523.000000	0.000000	1.401637
1524.000000	0.000000	1.396675
1525.000000	0.000000	1.404568
1526.000000	0.000000	1.405412
1527.000000	0.000000	1.396231
1528.000000	0.000000	1.394312
1529.000000	0.000000	1.399576
1530.000000	0.000000	1.391225
1531.000000	0.000000	1.385814
1532.000000	0.000000	1.392611
1533.000000	0.000000	1.394394
1534.000000	0.000000	1.392382
1535.000000	0.000000	1.391938
1536.000000	0.000000	1.398808
1537.000000	0.000000	1.406741
1538.000000	0.000000	1.406126
1539.000000	0.000000	1.404671
1540.000000	0.000000	1.412971
1541.000000	0.000000	1.414106
1542.000000	0.000000	1.418947
1543.000000	0.000000	1.426224
1544.000000	0.000000	1.426952
1545.000000	0.000000	1.432337
1546.000000	0.000000	1.442579
1547.000000	0.000000	1.443536
1548.000000	0.000000	1.448814
1549.000000	0.000000	1.460638
1550.000000	0.000000	1.466587
1551.000000	0.000000	1.462865
1552.000000	0.000000	1.464781
1553.000000	0.000000	1.472949
1554.000000	0.000000	1.473514
1555.000000	0.000000	1.476758
1556.000000	0.000000	1.481218
1557.000000	0.000000	1.483654
1558.000000	0.000000	1.493272
1559.000000	0.000000	1.494975
1560.000000	0.000000	1.488940
1561.000000	0.000000	1.489432
1562.000000	0.000000	1.495659
1563.000000	0.000000	1.498828
1564.000000	0.000000	1.500475
1565.000000	0.000000	1.504429
1566.000000	0.000000	1.501983
1567.000000	0.000000	1.499665
1568.000000	0.000000	1.502985
1569.000000	0.000000	1.495528
1570.000000	0.000000	1.499311
1571.000000	0.000000	1.502708
1572.000000	0.000000	1.504936
1573.000000	0.000000	1.506661
1574.000000	0.000000	1.503973
1575.000000	0.000000	1.504191
1576.000000	0.000000	1.500534
1577.000000	0.000000	1.504510
1578.000000	0.000000	1.505265
1579.000000	0.000000	1.508371
1580.000000	0.000000	1.516321
1581.000000	0.000000	1.505481
1582.000000	0.000000	1.502524
1583.000000	0.000000	1.499793
1584.000000	0.000000	1.495266
1585.000000	0.000000	1.490914
1586.000000	0.000000	1.484643
1587.000000	0.000000	1.483324
1588.000000	0.000000	1.478461
1589.000000	0.000000	1.476606
1590.000000	0.000000	1.476103
1591.000000	0.000000	1.470903
1592.000000	0.000000	1.466113
1593.000000	0.000000	1.461738
1594.000000	0.000000	1.454484
1595.000000	0.000000	1.453459
1596.000000	0.000000	1.454998
1597.000000	0.000000	1.444699
1598.000000	0.000000	1.448244
1599.000000	0.000000	1.443682
1600.000000	0.000000	1.429082
1601.000000	0.000000	1.425628
1602.000000	0.000000	1.424078
1603.000000	0.000000	1.419310
1604.000000	0.000000	1.411502
1605.000000	0.000000	1.412766
1606.000000	0.000000	1.409963
1607.000000	0.000000	1.402073
1608.000000	0.000000	1.392792
1609.000000	0.000000	1.385774
1610.000000	0.000000	1.389265
1611.000000	0.000000	1.387260
1612.000000	0.000000	1.382053
1613.000000	0.000000	1.386269
1614.000000	0.000000	1.375585
1615.000000	0.000000	1.359519
1616.000000	0.000000	1.366605
1617.000000	0.000000	1.366969
1618.000000	0.000000	1.359974
1619.000000	0.000000	1.350902
1620.000000	0.000000	1.349318
1621.000000	0.000000	1.357162
1622.000000	0.000000	1.343982
1623.000000	0.000000	1.345855
1624.000000	0.000000	1.346654
1625.000000	0.000000	1.346397
1626.000000	0.000000	1.346556
1627.000000	0.000000	1.348548
1628.000000	0.000000	1.349786
1629.000000	0.000000	1.347761
1630.000000	0.000000	1.346785
1631.000000	0.000000	1.340884
1632.000000	0.000000	1.345613
1633.000000	0.000000	1.356362
1634.000000	0.000000	1.349379
1635.000000	0.000000	1.345849
1636.000000	0.000000	1.346770
1637.000000	0.000000	1.354783
1638.000000	0.000000	1.355927
1639.000000	0.000000	1.351109
1640.000000	0.000000	1.347832
1641.000000	0.000000	1.356445
1642.000000	0.000000	1.356177
1643.000000	0.000000	1.361851
1644.000000	0.000000	1.362064
1645.000000	0.000000	1.372211
1646.000000	0.000000	1.381054
1647.000000	0.000000	1.373919
1648.000000	0.000000	1.382632
1649.000000	0.000000	1.388865
1650.000000	0.000000	1.394085
1651.000000	0.000000	1.389148
1652.000000	0.000000	1.388571
1653.000000	0.000000	1.382022
1654.000000	0.000000	1.404236
1655.000000	0.000000	1.406614
1656.000000	0.000000	1.404146
1657.000000	0.000000	1.406160
1658.000000	0.000000	1.409368
1659.000000	0.000000	1.415719
1660.000000	0.000000	1.405598
1661.000000	0.000000	1.409481
1662.000000	0.000000	1.407219
1663.000000	0.000000	1.420439
1664.000000	0.000000	1.414169
1665.000000	0.000000	1.421033
1666.000000	0.000000	1.431627
1667.000000	0.000000	1.439409
1668.000000	0.000000	1.432668
1669.000000	0.000000	1.445546
1670.000000	0.000000	1.440934
1671.000000	0.000000	1.441404
1672.000000	0.000000	1.430828
1673.000000	0.000000	1.439662
1674.000000	0.000000	1.433593
1675.000000	0.000000	1.430353
1676.000000	0.000000	1.427385
1677.000000	0.000000	1.416380
1678.000000	0.000000	1.400572
1679.000000	0.000000	1.409782
1680.000000	0.000000	1.402566
1681.000000	0.000000	1.404335
1682.000000	0.000000	1.397203
1683.000000	0.000000	1.394072
1684.000000	0.000000	1.387812
1685.000000	0.000000	1.389340
1686.000000	0.000000	1.388367
1687.000000	0.000000	1.375826
1688.000000	0.000000	1.377457
1689.000000	0.000000	1.387976
1690.000000	0.000000	1.378720
1691.000000	0.000000	1.377648
1692.000000	0.000000	1.360276
1693.000000	0.000000	1.351188
1694.000000	0.000000	1.325784
1695.000000	0.000000	1.324533
1696.000000	0.000000	1.308457
1697.000000	0.000000	1.292826
1698.000000	0.000000	1.285931
1699.000000	0.000000	1.275754
1700.000000	0.000000	1.257769
1701.000000	0.000000	1.265067
1702.000000	0.000000	1.264536
1703.000000	0.000000	1.249470
1704.000000	0.000000	1.246376
1705.000000	0.000000	1.235441
1706.000000	0.000000	1.246539
1707.000000	0.000000	1.226949
1708.000000	0.000000	1.235524
1709.000000	0.000000	1.208260
1710.000000	0.000000	1.216094
1711.000000	0.000000	1.215517
1712.000000	0.000000	1.216125
1713.000000	0.000000	1.205228
1714.000000	0.000000	1.209354
1715.000000	0.000000	1.207630
1716.000000	0.000000	1.202005
1717.000000	0.000000	1.205155
1718.000000	0.000000	1.223115
1719.000000	0.000000	1.221276
1720.000000	0.000000	1.214238
1721.000000	0.000000	1.221715
1722.000000	0.000000	1.228266
1723.000000	0.000000	1.217701
1724.000000	0.000000	1.241304
1725.000000	0.000000	1.233190
1726.000000	0.000000	1.223075
1727.000000	0.000000	1.226269
1728.000000	0.000000	1.224735
1729.000000	0.000000	1.228582
1730.000000	0.000000	1.202836
1731.000000	0.000000	1.205574
1732.000000	0.000000	1.215775
1733.000000	0.000000	1.218911
1734.000000	0.000000	1.209029
1735.000000	0.000000	1.201421
1736.000000	0.000000	1.207815
1737.000000	0.000000	1.215950
1738.000000	0.000000	1.213884
1739.000000	0.000000	1.193780
1740.000000	0.000000	1.200032
1741.000000	0.000000	1.193246
1742.000000	0.000000	1.191308
1743.000000	0.000000	1.197163
1744.000000	0.000000	1.195980
1745.000000	0.000000	1.196136
1746.000000	0.000000	1.196139
1747.000000	0.000000	1.188024
1748.000000	0.000000	1.187554
1749.000000	0.000000	1.189249
1750.000000	0.000000	1.184046
1751.000000	0.000000	1.190280
1752.000000	0.000000	1.209357
1753.000000	0.000000	1.199488
1754.000000	0.000000	1.197104
1755.000000	0.000000	1.207325
1756.000000	0.000000	1.212737
1757.000000	0.000000	1.216959
1758.000000	0.000000	1.218852
1759.000000	0.000000	1.231628
1760.000000	0.000000	1.220126
1761.000000	0.000000	1.230765
1762.000000	0.000000	1.248211
1763.000000	0.000000	1.257869
1764.000000	0.000000	1.259477
1765.000000	0.000000	1.264984
1766.000000	0.000000	1.267822
1767.000000	0.000000	1.275018
1768.000000	0.000000	1.283300
1769.000000	0.000000	1.283590
1770.000000	0.000000	1.288683
1771.000000	0.000000	1.297234
1772.000000	0.000000	1.303058
1773.000000	0.000000	1.294896
1774.000000	0.000000	1.300177
1775.000000	0.000000	1.305067
1776.000000	0.000000	1.299950
1777.000000	0.000000	1.297326
1778.000000	0.000000	1.305769
1779.000000	0.000000	1.313655
1780.000000	0.000000	1.309560
1781.000000	0.000000	1.310635
1782.000000	0.000000	1.314514
1783.000000	0.000000	1.317667
1784.000000	0.000000	1.312441
1785.000000	0.000000	1.312762
1786.000000	0.000000	1.316609
1787.000000	0.000000	1.319917
1788.000000	0.000000	1.319598
1789.000000	0.000000	1.320319
1790.000000	0.000000	1.324776
1791.000000	0.000000	1.323183
1792.000000	0.000000	1.320055
1793.000000	0.000000	1.318977
1794.000000	0.000000	1.326816
1795.000000	0.000000	1.327114
1796.000000	0.000000	1.323343
1797.000000	0.000000	1.316165
1798.000000	0.000000	1.314202
1799.000000	0.000000	1.305208
1800.000000	0.000000	1.308196
1801.000000	0.000000	1.313397
1802.000000	0.000000	1.312808
1803.000000	0.000000	1.309271
1804.000000	0.000000	1.299235
1805.000000	0.000000	1.296071
1806.000000	0.000000	1.305245
1807.000000	0.000000	1.304879
1808.000000	0.000000	1.302984
1809.000000	0.000000	1.289624
1810.000000	0.000000	1.279690
1811.000000	0.000000	1.278172
1812.000000	0.000000	1.280017
1813.000000	0.000000	1.270474
1814.000000	0.000000	1.268579
1815.000000	0.000000	1.268897
1816.000000	0.000000	1.269241
1817.000000	0.000000	1.266176
1818.000000	0.000000	1.246559
1819.000000	0.000000	1.237797
1820.000000	0.000000	1.243179
1821.000000	0.000000	1.246306
1822.000000	0.000000	1.250447
1823.000000	0.000000	1.247035
1824.000000	0.000000	1.247144
1825.000000	0.000000	1.239582
1826.000000	0.000000	1.232859
1827.000000	0.000000	1.227504
1828.000000	0.000000	1.232837
1829.000000	0.000000	1.235743
1830.000000	0.000000	1.232717
1831.000000	0.000000	1.223888
1832.000000	0.000000	1.209809
1833.000000	0.000000	1.214999
1834.000000	0.000000	1.210042
1835.000000	0.000000	1.203810
1836.000000	0.000000	1.202170
1837.000000	0.000000	1.191474
1838.000000	0.000000	1.193394
1839.000000	0.000000	1.199442
1840.000000	0.000000	1.191862
1841.000000	0.000000	1.188346
1842.000000	0.000000	1.193307
1843.000000	0.000000	1.187522
1844.000000	0.000000	1.175724
1845.000000	0.000000	1.162641
1846.000000	0.000000	1.150061
1847.000000	0.000000	1.144546
1848.000000	0.000000	1.153451
1849.000000	0.000000	1.165999
1850.000000	0.000000	1.167980
1851.000000	0.000000	1.159818
1852.000000	0.000000	1.144822
1853.000000	0.000000	1.130383
1854.000000	0.000000	1.128528
1855.000000	0.000000	1.133468
1856.000000	0.000000	1.129177
1857.000000	0.000000	1.120116
1858.000000	0.000000	1.114968
1859.000000	0.000000	1.116131
1860.000000	0.000000	1.124387
1861.000000	0.000000	1.130365
1862.000000	0.000000	1.129326
1863.000000	0.000000	1.113969
1864.000000	0.000000	1.104989
1865.000000	0.000000	1.098294
1866.000000	0.000000	1.083567
1867.000000	0.000000	1.077923
1868.000000	0.000000	1.074859
1869.000000	0.000000	1.060245
1870.000000	0.000000	1.068927
1871.000000	0.000000	1.070438
1872.000000	0.000000	1.078267
1873.000000	0.000000	1.083221
1874.000000	0.000000	1.081812
1875.000000	0.000000	1.082353
1876.000000	0.000000	1.079360
1877.000000	0.000000	1.077065
1878.000000	0.000000	1.074736
1879.000000	0.000000	1.066639
1880.000000	0.000000	1.056210
1881.000000	0.000000	1.034057
1882.000000	0.000000	1.034205
1883.000000	0.000000	1.022485
1884.000000	0.000000	1.020270
1885.000000	0.000000	1.028345
1886.000000	0.000000	1.028931
1887.000000	0.000000	1.019165
1888.000000	0.000000	1.012713
1889.000000	0.000000	1.001910
1890.000000	0.000000	0.997843
1891.000000	0.000000	0.996091
1892.000000	0.000000	0.989110
1893.000000	0.000000	1.005608
1894.000000	0.000000	1.001360
1895.000000	0.000000	0.991653
1896.000000	0.000000	0.982862
1897.000000	0.000000	0.960851
1898.000000	0.000000	0.951613
1899.000000	0.000000	0.943229
1900.000000	0.000000	0.928795
1901.000000	0.000000	0.927668
1902.000000	0.000000	0.929584
1903.000000	0.000000	0.921171
1904.000000	0.000000	0.906984
1905.000000	0.000000	0.892764
1906.000000	0.000000	0.898786
1907.000000	0.000000	0.886750
1908.000000	0.000000	0.881125
1909.000000	0.000000	0.890765
1910.000000	0.000000	0.873879
1911.000000	0.000000	0.859137
1912.000000	0.000000	0.847558
1913.000000	0.000000	0.840542
1914.000000	0.000000	0.832187
1915.000000	0.000000	0.831173
1916.000000	0.000000	0.833307
1917.000000	0.000000	0.817873
1918.000000	0.000000	0.812022
1919.000000	0.000000	0.808764
1920.000000	0.000000	0.812772
1921.000000	0.000000	0.800120
1922.000000	0.000000	0.795350
1923.000000	0.000000	0.794404
1924.000000	0.000000	0.795145
1925.000000	0.000000	0.797434
1926.000000	0.000000	0.793134
1927.000000	0.000000	0.792189
1928.000000	0.000000	0.792456
1929.000000	0.000000	0.792482
1930.000000	0.000000	0.788409
1931.000000	0.000000	0.788105
1932.000000	0.000000	0.792983
1933.000000	0.000000	0.795322
1934.000000	0.000000	0.808330
1935.000000	0.000000	0.788216
1936.000000	0.000000	0.803358
1937.000000	0.000000	0.788283
1938.000000	0.000000	0.798537
1939.000000	0.000000	0.807825
1940.000000	0.000000	0.807987
1941.000000	0.000000	0.820577
1942.000000	0.000000	0.803109
1943.000000	0.000000	0.806409
1944.000000	0.000000	0.822147
1945.000000	0.000000	0.825848
1946.000000	0.000000	0.832510
1947.000000	0.000000	0.825176
1948.000000	0.000000	0.827707
1949.000000	0.000000	0.818942
1950.000000	0.000000	0.837012
1951.000000	0.000000	0.837682
1952.000000	0.000000	0.821639
1953.000000	0.000000	0.826218
1954.000000	0.000000	0.827485
1955.000000	0.000000	0.812894
1956.000000	0.000000	0.832094
1957.000000	0.000000	0.819872
1958.000000	0.000000	0.822781
1959.000000	0.000000	0.821378
1960.000000	0.000000	0.831280
1961.000000	0.000000	0.829341
1962.000000	0.000000	0.829346
1963.000000	0.000000	0.829910
1964.000000	0.000000	0.817369
1965.000000	0.000000	0.831792
1966.000000	0.000000	0.831368
1967.000000	0.000000	0.835499
1968.000000	0.000000	0.835326
1969.000000	0.000000	0.845116
1970.000000	0.000000	0.826398
1971.000000	0.000000	0.830318
1972.000000	0.000000	0.831374
1973.000000	0.000000	0.815013
1974.000000	0.000000	0.808731
1975.000000	0.000000	0.823061
1976.000000	0.000000	0.790691
1977.000000	0.000000	0.805849
1978.000000	0.000000	0.819660
1979.000000	0.000000	0.809167
1980.000000	0.000000	0.807783
1981.000000	0.000000	0.801313
1982.000000	0.000000	0.801457
1983.000000	0.000000	0.791843
1984.000000	0.000000	0.793471
1985.000000	0.000000	0.789938
1986.000000	0.000000	0.790807
1987.000000	0.000000	0.784563
1988.000000	0.000000	0.794355
1989.000000	0.000000	0.785725
1990.000000	0.000000	0.771074
1991.000000	0.000000	0.782857
1992.000000	0.000000	0.783102
1993.000000	0.000000	0.769919
1994.000000	0.000000	0.773400
1995.000000	0.000000	0.774078
1996.000000	0.000000	0.765106
1997.000000	0.000000	0.771953
1998.000000	0.000000	0.777849
1999.000000	0.000000	0.765899
