PE UV       SUBTECH     SPECTRUM    ASCII       PEDS        4.00        
   -1
CICIMAUCR0108-3.Sample.ASC
24/04/04
14:31:49.00
24/04/04
14:31:49.00
Vinicio Soto Monge
C. resplendens
250,000000
1
Lambda 1050
1050L1511233
PerkinElmer UV WinLab 6.3.2.0749 / 2.02.05 Lambda 900 UV/VIS/NIR, Aug  7 2015 09:38:08

0
0
3350/servo 860,8/2
0
0
UV/VIS
1
1
1
DoubleDePol,CommonBeamDepol,RBeamAtt,SBeamAtt,60mm sphere, WB InGaAs Detector
0
0
0
0
Program
Program
3350/servo 860,8/2
3350/0,2 860,8/0,2
3350/0,2 860,8/0,2
0
15.00
 
 
 
0
 
860,8
319,2
860,8
Front
100
on
S:100 R:100
0
0
0
0
 
0
 
 
 
0
 
 
0
0
0
0
0
 
 
 
 
0
0


0
0
#HDR
-1
-1
#GR
nm
%R
1.0
0.0
2500,000000
-1,000000
2251
8
68,128600
5,096800
#DATA
250.000000	0.000000	0.160640
251.000000	0.000000	0.151044
252.000000	0.000000	0.155018
253.000000	0.000000	0.156778
254.000000	0.000000	0.174911
255.000000	0.000000	0.194819
256.000000	0.000000	0.148827
257.000000	0.000000	0.143997
258.000000	0.000000	0.161164
259.000000	0.000000	0.148190
260.000000	0.000000	0.127595
261.000000	0.000000	0.127142
262.000000	0.000000	0.133574
263.000000	0.000000	0.154602
264.000000	0.000000	0.157294
265.000000	0.000000	0.139262
266.000000	0.000000	0.164399
267.000000	0.000000	0.126541
268.000000	0.000000	0.132465
269.000000	0.000000	0.131402
270.000000	0.000000	0.135804
271.000000	0.000000	0.138048
272.000000	0.000000	0.143313
273.000000	0.000000	0.099600
274.000000	0.000000	0.140349
275.000000	0.000000	0.143561
276.000000	0.000000	0.139393
277.000000	0.000000	0.142024
278.000000	0.000000	0.138563
279.000000	0.000000	0.145138
280.000000	0.000000	0.063804
281.000000	0.000000	0.116107
282.000000	0.000000	0.106454
283.000000	0.000000	0.104985
284.000000	0.000000	0.112583
285.000000	0.000000	0.116362
286.000000	0.000000	0.116851
287.000000	0.000000	0.127024
288.000000	0.000000	0.122186
289.000000	0.000000	0.117943
290.000000	0.000000	0.108809
291.000000	0.000000	0.096849
292.000000	0.000000	0.094412
293.000000	0.000000	0.098959
294.000000	0.000000	0.076648
295.000000	0.000000	0.095314
296.000000	0.000000	0.068158
297.000000	0.000000	0.075952
298.000000	0.000000	0.061227
299.000000	0.000000	0.074661
300.000000	0.000000	0.105771
301.000000	0.000000	0.087209
302.000000	0.000000	0.070810
303.000000	0.000000	0.109762
304.000000	0.000000	0.106695
305.000000	0.000000	0.082731
306.000000	0.000000	0.056878
307.000000	0.000000	0.057264
308.000000	0.000000	0.081133
309.000000	0.000000	0.076175
310.000000	0.000000	0.049549
311.000000	0.000000	0.078859
312.000000	0.000000	0.079313
313.000000	0.000000	0.053379
314.000000	0.000000	0.069842
315.000000	0.000000	0.042473
316.000000	0.000000	0.050752
317.000000	0.000000	0.073677
318.000000	0.000000	0.091574
319.000000	0.000000	0.171701
320.000000	0.000000	0.108896
321.000000	0.000000	0.188909
322.000000	0.000000	0.071650
323.000000	0.000000	0.102912
324.000000	0.000000	0.007590
325.000000	0.000000	0.077866
326.000000	0.000000	0.095533
327.000000	0.000000	0.082074
328.000000	0.000000	0.043750
329.000000	0.000000	0.145017
330.000000	0.000000	0.038304
331.000000	0.000000	0.111052
332.000000	0.000000	0.084318
333.000000	0.000000	0.040358
334.000000	0.000000	0.067279
335.000000	0.000000	0.019846
336.000000	0.000000	0.033518
337.000000	0.000000	0.021922
338.000000	0.000000	0.005950
339.000000	0.000000	0.039227
340.000000	0.000000	0.040802
341.000000	0.000000	0.058287
342.000000	0.000000	0.028197
343.000000	0.000000	0.102775
344.000000	0.000000	0.094518
345.000000	0.000000	0.068323
346.000000	0.000000	0.037068
347.000000	0.000000	0.015316
348.000000	0.000000	0.020368
349.000000	0.000000	0.038552
350.000000	0.000000	0.033652
351.000000	0.000000	0.029954
352.000000	0.000000	0.032379
353.000000	0.000000	0.038015
354.000000	0.000000	0.055466
355.000000	0.000000	0.072260
356.000000	0.000000	0.077112
357.000000	0.000000	0.037887
358.000000	0.000000	0.042050
359.000000	0.000000	0.021462
360.000000	0.000000	0.032061
361.000000	0.000000	0.023273
362.000000	0.000000	0.022404
363.000000	0.000000	0.028892
364.000000	0.000000	0.021802
365.000000	0.000000	0.014643
366.000000	0.000000	0.030769
367.000000	0.000000	0.020304
368.000000	0.000000	0.019385
369.000000	0.000000	0.024153
370.000000	0.000000	0.009016
371.000000	0.000000	0.058831
372.000000	0.000000	0.036763
373.000000	0.000000	0.075923
374.000000	0.000000	0.021564
375.000000	0.000000	0.042055
376.000000	0.000000	0.011982
377.000000	0.000000	0.008186
378.000000	0.000000	0.019742
379.000000	0.000000	0.023014
380.000000	0.000000	0.012503
381.000000	0.000000	0.012029
382.000000	0.000000	0.023661
383.000000	0.000000	0.039104
384.000000	0.000000	0.042293
385.000000	0.000000	0.033889
386.000000	0.000000	0.029537
387.000000	0.000000	0.039368
388.000000	0.000000	0.035935
389.000000	0.000000	0.048925
390.000000	0.000000	0.057245
391.000000	0.000000	0.060963
392.000000	0.000000	0.061989
393.000000	0.000000	0.071131
394.000000	0.000000	0.074666
395.000000	0.000000	0.093053
396.000000	0.000000	0.098762
397.000000	0.000000	0.107585
398.000000	0.000000	0.122122
399.000000	0.000000	0.135525
400.000000	0.000000	0.146011
401.000000	0.000000	0.153972
402.000000	0.000000	0.175523
403.000000	0.000000	0.194928
404.000000	0.000000	0.213198
405.000000	0.000000	0.229440
406.000000	0.000000	0.251246
407.000000	0.000000	0.268428
408.000000	0.000000	0.284166
409.000000	0.000000	0.303924
410.000000	0.000000	0.322263
411.000000	0.000000	0.333289
412.000000	0.000000	0.350977
413.000000	0.000000	0.384132
414.000000	0.000000	0.398375
415.000000	0.000000	0.404819
416.000000	0.000000	0.418900
417.000000	0.000000	0.420217
418.000000	0.000000	0.431242
419.000000	0.000000	0.434067
420.000000	0.000000	0.431016
421.000000	0.000000	0.424912
422.000000	0.000000	0.403603
423.000000	0.000000	0.385238
424.000000	0.000000	0.374477
425.000000	0.000000	0.338935
426.000000	0.000000	0.285533
427.000000	0.000000	0.252351
428.000000	0.000000	0.223817
429.000000	0.000000	0.180971
430.000000	0.000000	0.132629
431.000000	0.000000	0.097634
432.000000	0.000000	0.060779
433.000000	0.000000	0.067934
434.000000	0.000000	0.103962
435.000000	0.000000	0.157525
436.000000	0.000000	0.215790
437.000000	0.000000	0.269726
438.000000	0.000000	0.311023
439.000000	0.000000	0.364508
440.000000	0.000000	0.432496
441.000000	0.000000	0.479666
442.000000	0.000000	0.521930
443.000000	0.000000	0.567797
444.000000	0.000000	0.617783
445.000000	0.000000	0.663849
446.000000	0.000000	0.704317
447.000000	0.000000	0.742159
448.000000	0.000000	0.769838
449.000000	0.000000	0.805052
450.000000	0.000000	0.840402
451.000000	0.000000	0.880866
452.000000	0.000000	0.919442
453.000000	0.000000	0.967254
454.000000	0.000000	1.006624
455.000000	0.000000	1.023663
456.000000	0.000000	1.062949
457.000000	0.000000	1.107054
458.000000	0.000000	1.126142
459.000000	0.000000	1.155043
460.000000	0.000000	1.187044
461.000000	0.000000	1.217810
462.000000	0.000000	1.238834
463.000000	0.000000	1.266183
464.000000	0.000000	1.305319
465.000000	0.000000	1.327598
466.000000	0.000000	1.349019
467.000000	0.000000	1.376691
468.000000	0.000000	1.398900
469.000000	0.000000	1.421009
470.000000	0.000000	1.436802
471.000000	0.000000	1.438283
472.000000	0.000000	1.454710
473.000000	0.000000	1.455955
474.000000	0.000000	1.465622
475.000000	0.000000	1.465824
476.000000	0.000000	1.461757
477.000000	0.000000	1.447368
478.000000	0.000000	1.433481
479.000000	0.000000	1.419486
480.000000	0.000000	1.384255
481.000000	0.000000	1.344337
482.000000	0.000000	1.284408
483.000000	0.000000	1.225374
484.000000	0.000000	1.156309
485.000000	0.000000	1.087540
486.000000	0.000000	1.007408
487.000000	0.000000	0.920532
488.000000	0.000000	0.822970
489.000000	0.000000	0.737744
490.000000	0.000000	0.653346
491.000000	0.000000	0.575539
492.000000	0.000000	0.506356
493.000000	0.000000	0.432221
494.000000	0.000000	0.372821
495.000000	0.000000	0.321841
496.000000	0.000000	0.267269
497.000000	0.000000	0.227476
498.000000	0.000000	0.197457
499.000000	0.000000	0.169640
500.000000	0.000000	0.181560
501.000000	0.000000	0.198116
502.000000	0.000000	0.213896
503.000000	0.000000	0.242041
504.000000	0.000000	0.273999
505.000000	0.000000	0.304496
506.000000	0.000000	0.334921
507.000000	0.000000	0.371461
508.000000	0.000000	0.402359
509.000000	0.000000	0.412847
510.000000	0.000000	0.422110
511.000000	0.000000	0.418628
512.000000	0.000000	0.403669
513.000000	0.000000	0.408039
514.000000	0.000000	0.414034
515.000000	0.000000	0.464064
516.000000	0.000000	0.515556
517.000000	0.000000	0.581812
518.000000	0.000000	0.671016
519.000000	0.000000	0.781500
520.000000	0.000000	0.882113
521.000000	0.000000	0.989156
522.000000	0.000000	1.091088
523.000000	0.000000	1.193505
524.000000	0.000000	1.258577
525.000000	0.000000	1.318640
526.000000	0.000000	1.350670
527.000000	0.000000	1.367570
528.000000	0.000000	1.367851
529.000000	0.000000	1.332656
530.000000	0.000000	1.281150
531.000000	0.000000	1.204385
532.000000	0.000000	1.095362
533.000000	0.000000	0.965758
534.000000	0.000000	0.836238
535.000000	0.000000	0.683379
536.000000	0.000000	0.502496
537.000000	0.000000	0.309948
538.000000	0.000000	0.153337
539.000000	0.000000	0.136465
540.000000	0.000000	0.303960
541.000000	0.000000	0.477332
542.000000	0.000000	0.655297
543.000000	0.000000	0.799014
544.000000	0.000000	0.951263
545.000000	0.000000	1.113651
546.000000	0.000000	1.243374
547.000000	0.000000	1.378221
548.000000	0.000000	1.480283
549.000000	0.000000	1.593831
550.000000	0.000000	1.674827
551.000000	0.000000	1.775835
552.000000	0.000000	1.844353
553.000000	0.000000	1.944679
554.000000	0.000000	2.031555
555.000000	0.000000	2.091779
556.000000	0.000000	2.148778
557.000000	0.000000	2.209050
558.000000	0.000000	2.261960
559.000000	0.000000	2.302256
560.000000	0.000000	2.424053
561.000000	0.000000	2.457701
562.000000	0.000000	2.494272
563.000000	0.000000	2.535519
564.000000	0.000000	2.542541
565.000000	0.000000	2.555228
566.000000	0.000000	2.590084
567.000000	0.000000	2.584155
568.000000	0.000000	2.643552
569.000000	0.000000	2.619679
570.000000	0.000000	2.659766
571.000000	0.000000	2.664296
572.000000	0.000000	2.701364
573.000000	0.000000	2.741977
574.000000	0.000000	2.757540
575.000000	0.000000	2.753378
576.000000	0.000000	2.834999
577.000000	0.000000	2.841102
578.000000	0.000000	2.872633
579.000000	0.000000	2.894013
580.000000	0.000000	2.925818
581.000000	0.000000	2.920670
582.000000	0.000000	2.968468
583.000000	0.000000	2.954952
584.000000	0.000000	2.988766
585.000000	0.000000	2.983828
586.000000	0.000000	3.000800
587.000000	0.000000	3.030896
588.000000	0.000000	3.048922
589.000000	0.000000	3.075952
590.000000	0.000000	3.090197
591.000000	0.000000	3.119473
592.000000	0.000000	3.131371
593.000000	0.000000	3.132769
594.000000	0.000000	3.143923
595.000000	0.000000	3.207366
596.000000	0.000000	3.211540
597.000000	0.000000	3.246999
598.000000	0.000000	3.297279
599.000000	0.000000	3.334657
600.000000	0.000000	3.354150
601.000000	0.000000	3.387175
602.000000	0.000000	3.455788
603.000000	0.000000	3.512479
604.000000	0.000000	3.558580
605.000000	0.000000	3.644154
606.000000	0.000000	3.707797
607.000000	0.000000	3.762663
608.000000	0.000000	3.825283
609.000000	0.000000	3.936370
610.000000	0.000000	3.975792
611.000000	0.000000	4.029457
612.000000	0.000000	4.072544
613.000000	0.000000	4.150211
614.000000	0.000000	4.180449
615.000000	0.000000	4.200885
616.000000	0.000000	4.222999
617.000000	0.000000	4.242688
618.000000	0.000000	4.262489
619.000000	0.000000	4.297089
620.000000	0.000000	4.303315
621.000000	0.000000	4.346432
622.000000	0.000000	4.396869
623.000000	0.000000	4.467489
624.000000	0.000000	4.518930
625.000000	0.000000	4.575580
626.000000	0.000000	4.629323
627.000000	0.000000	4.680377
628.000000	0.000000	4.738824
629.000000	0.000000	4.791789
630.000000	0.000000	4.813517
631.000000	0.000000	4.790490
632.000000	0.000000	4.741139
633.000000	0.000000	4.652258
634.000000	0.000000	4.531456
635.000000	0.000000	4.394501
636.000000	0.000000	4.233081
637.000000	0.000000	4.026400
638.000000	0.000000	3.756472
639.000000	0.000000	3.488095
640.000000	0.000000	3.205598
641.000000	0.000000	2.870454
642.000000	0.000000	2.553273
643.000000	0.000000	2.228307
644.000000	0.000000	1.920445
645.000000	0.000000	1.604263
646.000000	0.000000	1.321184
647.000000	0.000000	1.057068
648.000000	0.000000	0.820553
649.000000	0.000000	0.623023
650.000000	0.000000	0.470241
651.000000	0.000000	0.367033
652.000000	0.000000	0.342359
653.000000	0.000000	0.391160
654.000000	0.000000	0.470248
655.000000	0.000000	0.515390
656.000000	0.000000	0.561788
657.000000	0.000000	0.616305
658.000000	0.000000	0.650482
659.000000	0.000000	0.614821
660.000000	0.000000	0.571910
661.000000	0.000000	0.520777
662.000000	0.000000	0.432127
663.000000	0.000000	0.333393
664.000000	0.000000	0.235618
665.000000	0.000000	0.105621
666.000000	0.000000	0.048098
667.000000	0.000000	0.162487
668.000000	0.000000	0.307279
669.000000	0.000000	0.420424
670.000000	0.000000	0.525552
671.000000	0.000000	0.679772
672.000000	0.000000	0.800238
673.000000	0.000000	0.912318
674.000000	0.000000	0.985232
675.000000	0.000000	1.060662
676.000000	0.000000	1.119335
677.000000	0.000000	1.194280
678.000000	0.000000	1.232849
679.000000	0.000000	1.272089
680.000000	0.000000	1.353137
681.000000	0.000000	1.380827
682.000000	0.000000	1.440911
683.000000	0.000000	1.464509
684.000000	0.000000	1.491286
685.000000	0.000000	1.548704
686.000000	0.000000	1.577439
687.000000	0.000000	1.593720
688.000000	0.000000	1.632840
689.000000	0.000000	1.669593
690.000000	0.000000	1.682132
691.000000	0.000000	1.728180
692.000000	0.000000	1.751490
693.000000	0.000000	1.735575
694.000000	0.000000	1.744493
695.000000	0.000000	1.754939
696.000000	0.000000	1.739315
697.000000	0.000000	1.692587
698.000000	0.000000	1.661549
699.000000	0.000000	1.679932
700.000000	0.000000	1.639651
701.000000	0.000000	1.586556
702.000000	0.000000	1.544370
703.000000	0.000000	1.497123
704.000000	0.000000	1.456584
705.000000	0.000000	1.412286
706.000000	0.000000	1.337160
707.000000	0.000000	1.277132
708.000000	0.000000	1.199307
709.000000	0.000000	1.153276
710.000000	0.000000	1.137028
711.000000	0.000000	1.043030
712.000000	0.000000	0.952955
713.000000	0.000000	0.904882
714.000000	0.000000	0.826634
715.000000	0.000000	0.746254
716.000000	0.000000	0.678782
717.000000	0.000000	0.611456
718.000000	0.000000	0.552588
719.000000	0.000000	0.484978
720.000000	0.000000	0.410942
721.000000	0.000000	0.358222
722.000000	0.000000	0.347722
723.000000	0.000000	0.364049
724.000000	0.000000	0.325540
725.000000	0.000000	0.289488
726.000000	0.000000	0.298373
727.000000	0.000000	0.318245
728.000000	0.000000	0.371832
729.000000	0.000000	0.393664
730.000000	0.000000	0.427179
731.000000	0.000000	0.488402
732.000000	0.000000	0.530635
733.000000	0.000000	0.583136
734.000000	0.000000	0.642869
735.000000	0.000000	0.656597
736.000000	0.000000	0.724908
737.000000	0.000000	0.795744
738.000000	0.000000	0.804061
739.000000	0.000000	0.837921
740.000000	0.000000	0.873583
741.000000	0.000000	0.916779
742.000000	0.000000	0.973434
743.000000	0.000000	1.025382
744.000000	0.000000	1.063944
745.000000	0.000000	1.104041
746.000000	0.000000	1.139644
747.000000	0.000000	1.163935
748.000000	0.000000	1.203407
749.000000	0.000000	1.226140
750.000000	0.000000	1.228149
751.000000	0.000000	1.246490
752.000000	0.000000	1.229550
753.000000	0.000000	1.229181
754.000000	0.000000	1.262267
755.000000	0.000000	1.284127
756.000000	0.000000	1.255019
757.000000	0.000000	1.188665
758.000000	0.000000	1.212610
759.000000	0.000000	1.268314
760.000000	0.000000	1.261576
761.000000	0.000000	1.252404
762.000000	0.000000	1.270736
763.000000	0.000000	1.258002
764.000000	0.000000	1.289581
765.000000	0.000000	1.321316
766.000000	0.000000	1.271906
767.000000	0.000000	1.287055
768.000000	0.000000	1.299742
769.000000	0.000000	1.371791
770.000000	0.000000	1.428297
771.000000	0.000000	1.419460
772.000000	0.000000	1.434392
773.000000	0.000000	1.465541
774.000000	0.000000	1.531278
775.000000	0.000000	1.553955
776.000000	0.000000	1.573390
777.000000	0.000000	1.622430
778.000000	0.000000	1.619323
779.000000	0.000000	1.654217
780.000000	0.000000	1.668991
781.000000	0.000000	1.640914
782.000000	0.000000	1.639444
783.000000	0.000000	1.633170
784.000000	0.000000	1.641599
785.000000	0.000000	1.616466
786.000000	0.000000	1.643791
787.000000	0.000000	1.570488
788.000000	0.000000	1.553981
789.000000	0.000000	1.598672
790.000000	0.000000	1.566706
791.000000	0.000000	1.433800
792.000000	0.000000	1.430081
793.000000	0.000000	1.421684
794.000000	0.000000	1.330667
795.000000	0.000000	1.343602
796.000000	0.000000	1.338270
797.000000	0.000000	1.282104
798.000000	0.000000	1.276052
799.000000	0.000000	1.195540
800.000000	0.000000	1.194347
801.000000	0.000000	1.232627
802.000000	0.000000	1.195827
803.000000	0.000000	1.240328
804.000000	0.000000	1.257643
805.000000	0.000000	1.212862
806.000000	0.000000	1.152758
807.000000	0.000000	1.252728
808.000000	0.000000	1.309419
809.000000	0.000000	1.358614
810.000000	0.000000	1.403027
811.000000	0.000000	1.506356
812.000000	0.000000	1.571230
813.000000	0.000000	1.628332
814.000000	0.000000	1.630986
815.000000	0.000000	1.758998
816.000000	0.000000	1.705903
817.000000	0.000000	1.787485
818.000000	0.000000	1.912791
819.000000	0.000000	1.962866
820.000000	0.000000	2.026971
821.000000	0.000000	2.168324
822.000000	0.000000	2.155110
823.000000	0.000000	2.198610
824.000000	0.000000	2.191901
825.000000	0.000000	2.261822
826.000000	0.000000	2.163228
827.000000	0.000000	2.215546
828.000000	0.000000	2.230301
829.000000	0.000000	2.173832
830.000000	0.000000	2.208543
831.000000	0.000000	2.176062
832.000000	0.000000	2.301042
833.000000	0.000000	2.285074
834.000000	0.000000	2.326202
835.000000	0.000000	2.299831
836.000000	0.000000	2.200503
837.000000	0.000000	2.119868
838.000000	0.000000	2.218207
839.000000	0.000000	2.340724
840.000000	0.000000	2.202725
841.000000	0.000000	2.111088
842.000000	0.000000	2.128263
843.000000	0.000000	2.059169
844.000000	0.000000	1.983178
845.000000	0.000000	2.137858
846.000000	0.000000	2.250847
847.000000	0.000000	2.166964
848.000000	0.000000	2.008192
849.000000	0.000000	1.943861
850.000000	0.000000	2.016917
851.000000	0.000000	1.992097
852.000000	0.000000	2.015766
853.000000	0.000000	1.915232
854.000000	0.000000	2.054502
855.000000	0.000000	2.080288
856.000000	0.000000	1.939152
857.000000	0.000000	2.123484
858.000000	0.000000	2.046393
859.000000	0.000000	1.884503
860.000000	0.000000	1.880404
861.000000	0.000000	1.836827
862.000000	0.000000	1.818058
863.000000	0.000000	1.792274
864.000000	0.000000	1.776605
865.000000	0.000000	1.775245
866.000000	0.000000	1.759824
867.000000	0.000000	1.749771
868.000000	0.000000	1.746326
869.000000	0.000000	1.721498
870.000000	0.000000	1.727845
871.000000	0.000000	1.736726
872.000000	0.000000	1.742567
873.000000	0.000000	1.768236
874.000000	0.000000	1.774071
875.000000	0.000000	1.785197
876.000000	0.000000	1.801507
877.000000	0.000000	1.825083
878.000000	0.000000	1.857819
879.000000	0.000000	1.874513
880.000000	0.000000	1.900488
881.000000	0.000000	1.927976
882.000000	0.000000	1.937575
883.000000	0.000000	1.978320
884.000000	0.000000	2.010181
885.000000	0.000000	2.036270
886.000000	0.000000	2.083445
887.000000	0.000000	2.112563
888.000000	0.000000	2.145322
889.000000	0.000000	2.187234
890.000000	0.000000	2.216777
891.000000	0.000000	2.255580
892.000000	0.000000	2.288830
893.000000	0.000000	2.328426
894.000000	0.000000	2.382315
895.000000	0.000000	2.411276
896.000000	0.000000	2.454054
897.000000	0.000000	2.484217
898.000000	0.000000	2.538815
899.000000	0.000000	2.546957
900.000000	0.000000	2.577141
901.000000	0.000000	2.603515
902.000000	0.000000	2.642914
903.000000	0.000000	2.668298
904.000000	0.000000	2.683897
905.000000	0.000000	2.694098
906.000000	0.000000	2.712288
907.000000	0.000000	2.705003
908.000000	0.000000	2.716295
909.000000	0.000000	2.718325
910.000000	0.000000	2.705578
911.000000	0.000000	2.689209
912.000000	0.000000	2.666818
913.000000	0.000000	2.639464
914.000000	0.000000	2.609449
915.000000	0.000000	2.574960
916.000000	0.000000	2.539298
917.000000	0.000000	2.505110
918.000000	0.000000	2.461251
919.000000	0.000000	2.429505
920.000000	0.000000	2.407173
921.000000	0.000000	2.361319
922.000000	0.000000	2.323170
923.000000	0.000000	2.284961
924.000000	0.000000	2.261087
925.000000	0.000000	2.227105
926.000000	0.000000	2.213735
927.000000	0.000000	2.171405
928.000000	0.000000	2.142444
929.000000	0.000000	2.123362
930.000000	0.000000	2.097516
931.000000	0.000000	2.074261
932.000000	0.000000	2.065678
933.000000	0.000000	2.058593
934.000000	0.000000	2.055067
935.000000	0.000000	2.040341
936.000000	0.000000	2.019637
937.000000	0.000000	2.035204
938.000000	0.000000	2.033856
939.000000	0.000000	2.025297
940.000000	0.000000	2.020018
941.000000	0.000000	2.030058
942.000000	0.000000	2.024613
943.000000	0.000000	2.031115
944.000000	0.000000	2.036623
945.000000	0.000000	2.048826
946.000000	0.000000	2.059929
947.000000	0.000000	2.075202
948.000000	0.000000	2.078685
949.000000	0.000000	2.081503
950.000000	0.000000	2.098293
951.000000	0.000000	2.113623
952.000000	0.000000	2.128960
953.000000	0.000000	2.125326
954.000000	0.000000	2.143035
955.000000	0.000000	2.143127
956.000000	0.000000	2.138453
957.000000	0.000000	2.133108
958.000000	0.000000	2.134456
959.000000	0.000000	2.133672
960.000000	0.000000	2.125146
961.000000	0.000000	2.115695
962.000000	0.000000	2.102141
963.000000	0.000000	2.098942
964.000000	0.000000	2.080160
965.000000	0.000000	2.079446
966.000000	0.000000	2.058529
967.000000	0.000000	2.029743
968.000000	0.000000	2.013763
969.000000	0.000000	2.000563
970.000000	0.000000	1.973065
971.000000	0.000000	1.945381
972.000000	0.000000	1.913118
973.000000	0.000000	1.900319
974.000000	0.000000	1.859988
975.000000	0.000000	1.824741
976.000000	0.000000	1.780111
977.000000	0.000000	1.741235
978.000000	0.000000	1.703594
979.000000	0.000000	1.661735
980.000000	0.000000	1.622736
981.000000	0.000000	1.582631
982.000000	0.000000	1.538239
983.000000	0.000000	1.499658
984.000000	0.000000	1.456280
985.000000	0.000000	1.417720
986.000000	0.000000	1.376313
987.000000	0.000000	1.342002
988.000000	0.000000	1.314749
989.000000	0.000000	1.278205
990.000000	0.000000	1.246817
991.000000	0.000000	1.211633
992.000000	0.000000	1.197245
993.000000	0.000000	1.176465
994.000000	0.000000	1.153979
995.000000	0.000000	1.138627
996.000000	0.000000	1.121826
997.000000	0.000000	1.105326
998.000000	0.000000	1.100543
999.000000	0.000000	1.092725
1000.000000	0.000000	1.081686
1001.000000	0.000000	1.078608
1002.000000	0.000000	1.080740
1003.000000	0.000000	1.078363
1004.000000	0.000000	1.087001
1005.000000	0.000000	1.101577
1006.000000	0.000000	1.110942
1007.000000	0.000000	1.117226
1008.000000	0.000000	1.131088
1009.000000	0.000000	1.136804
1010.000000	0.000000	1.144653
1011.000000	0.000000	1.164334
1012.000000	0.000000	1.181585
1013.000000	0.000000	1.202096
1014.000000	0.000000	1.228271
1015.000000	0.000000	1.242071
1016.000000	0.000000	1.256397
1017.000000	0.000000	1.273561
1018.000000	0.000000	1.292307
1019.000000	0.000000	1.306740
1020.000000	0.000000	1.311941
1021.000000	0.000000	1.314923
1022.000000	0.000000	1.322848
1023.000000	0.000000	1.320913
1024.000000	0.000000	1.314156
1025.000000	0.000000	1.314608
1026.000000	0.000000	1.321419
1027.000000	0.000000	1.311062
1028.000000	0.000000	1.289451
1029.000000	0.000000	1.280965
1030.000000	0.000000	1.277862
1031.000000	0.000000	1.267030
1032.000000	0.000000	1.248624
1033.000000	0.000000	1.230531
1034.000000	0.000000	1.220387
1035.000000	0.000000	1.202954
1036.000000	0.000000	1.183912
1037.000000	0.000000	1.161702
1038.000000	0.000000	1.142640
1039.000000	0.000000	1.126732
1040.000000	0.000000	1.106588
1041.000000	0.000000	1.084379
1042.000000	0.000000	1.052668
1043.000000	0.000000	1.030962
1044.000000	0.000000	1.016756
1045.000000	0.000000	0.999954
1046.000000	0.000000	0.975890
1047.000000	0.000000	0.943509
1048.000000	0.000000	0.923699
1049.000000	0.000000	0.911972
1050.000000	0.000000	0.893496
1051.000000	0.000000	0.872357
1052.000000	0.000000	0.867634
1053.000000	0.000000	0.863315
1054.000000	0.000000	0.849983
1055.000000	0.000000	0.837754
1056.000000	0.000000	0.836090
1057.000000	0.000000	0.830312
1058.000000	0.000000	0.821642
1059.000000	0.000000	0.823143
1060.000000	0.000000	0.826278
1061.000000	0.000000	0.827298
1062.000000	0.000000	0.825448
1063.000000	0.000000	0.822478
1064.000000	0.000000	0.835391
1065.000000	0.000000	0.849530
1066.000000	0.000000	0.853079
1067.000000	0.000000	0.862026
1068.000000	0.000000	0.877497
1069.000000	0.000000	0.884720
1070.000000	0.000000	0.894140
1071.000000	0.000000	0.904260
1072.000000	0.000000	0.924949
1073.000000	0.000000	0.938200
1074.000000	0.000000	0.944340
1075.000000	0.000000	0.958300
1076.000000	0.000000	0.952703
1077.000000	0.000000	0.967060
1078.000000	0.000000	0.986124
1079.000000	0.000000	0.991088
1080.000000	0.000000	0.992403
1081.000000	0.000000	1.009784
1082.000000	0.000000	1.020352
1083.000000	0.000000	1.027301
1084.000000	0.000000	1.027775
1085.000000	0.000000	1.032791
1086.000000	0.000000	1.036429
1087.000000	0.000000	1.036091
1088.000000	0.000000	1.043378
1089.000000	0.000000	1.045785
1090.000000	0.000000	1.043175
1091.000000	0.000000	1.054613
1092.000000	0.000000	1.049270
1093.000000	0.000000	1.036598
1094.000000	0.000000	1.034630
1095.000000	0.000000	1.021146
1096.000000	0.000000	1.010226
1097.000000	0.000000	1.010449
1098.000000	0.000000	1.006481
1099.000000	0.000000	1.001351
1100.000000	0.000000	0.995163
1101.000000	0.000000	0.984465
1102.000000	0.000000	0.969901
1103.000000	0.000000	0.959565
1104.000000	0.000000	0.954195
1105.000000	0.000000	0.945123
1106.000000	0.000000	0.934862
1107.000000	0.000000	0.923647
1108.000000	0.000000	0.915372
1109.000000	0.000000	0.920789
1110.000000	0.000000	0.918824
1111.000000	0.000000	0.903297
1112.000000	0.000000	0.900321
1113.000000	0.000000	0.896859
1114.000000	0.000000	0.885343
1115.000000	0.000000	0.882367
1116.000000	0.000000	0.873279
1117.000000	0.000000	0.889425
1118.000000	0.000000	0.881895
1119.000000	0.000000	0.869015
1120.000000	0.000000	0.859224
1121.000000	0.000000	0.867284
1122.000000	0.000000	0.872612
1123.000000	0.000000	0.875462
1124.000000	0.000000	0.880333
1125.000000	0.000000	0.886009
1126.000000	0.000000	0.894339
1127.000000	0.000000	0.894472
1128.000000	0.000000	0.898885
1129.000000	0.000000	0.918945
1130.000000	0.000000	0.924670
1131.000000	0.000000	0.929865
1132.000000	0.000000	0.933765
1133.000000	0.000000	0.941869
1134.000000	0.000000	0.953703
1135.000000	0.000000	0.979380
1136.000000	0.000000	0.998871
1137.000000	0.000000	1.019586
1138.000000	0.000000	1.033363
1139.000000	0.000000	1.066316
1140.000000	0.000000	1.095526
1141.000000	0.000000	1.112672
1142.000000	0.000000	1.141245
1143.000000	0.000000	1.154381
1144.000000	0.000000	1.177539
1145.000000	0.000000	1.210860
1146.000000	0.000000	1.226691
1147.000000	0.000000	1.233178
1148.000000	0.000000	1.231316
1149.000000	0.000000	1.232583
1150.000000	0.000000	1.229216
1151.000000	0.000000	1.234234
1152.000000	0.000000	1.239393
1153.000000	0.000000	1.229376
1154.000000	0.000000	1.240784
1155.000000	0.000000	1.252899
1156.000000	0.000000	1.260492
1157.000000	0.000000	1.272196
1158.000000	0.000000	1.292873
1159.000000	0.000000	1.299250
1160.000000	0.000000	1.316769
1161.000000	0.000000	1.315253
1162.000000	0.000000	1.343738
1163.000000	0.000000	1.351751
1164.000000	0.000000	1.369360
1165.000000	0.000000	1.373485
1166.000000	0.000000	1.404611
1167.000000	0.000000	1.411205
1168.000000	0.000000	1.437376
1169.000000	0.000000	1.442852
1170.000000	0.000000	1.465723
1171.000000	0.000000	1.472892
1172.000000	0.000000	1.482976
1173.000000	0.000000	1.477641
1174.000000	0.000000	1.475818
1175.000000	0.000000	1.501325
1176.000000	0.000000	1.526510
1177.000000	0.000000	1.534021
1178.000000	0.000000	1.544332
1179.000000	0.000000	1.545051
1180.000000	0.000000	1.570298
1181.000000	0.000000	1.568404
1182.000000	0.000000	1.584747
1183.000000	0.000000	1.600585
1184.000000	0.000000	1.596499
1185.000000	0.000000	1.609790
1186.000000	0.000000	1.629161
1187.000000	0.000000	1.621862
1188.000000	0.000000	1.611384
1189.000000	0.000000	1.621655
1190.000000	0.000000	1.604351
1191.000000	0.000000	1.609036
1192.000000	0.000000	1.578512
1193.000000	0.000000	1.581196
1194.000000	0.000000	1.569631
1195.000000	0.000000	1.565746
1196.000000	0.000000	1.564959
1197.000000	0.000000	1.543177
1198.000000	0.000000	1.538970
1199.000000	0.000000	1.541729
1200.000000	0.000000	1.546430
1201.000000	0.000000	1.535904
1202.000000	0.000000	1.551160
1203.000000	0.000000	1.552515
1204.000000	0.000000	1.545559
1205.000000	0.000000	1.551070
1206.000000	0.000000	1.545405
1207.000000	0.000000	1.550697
1208.000000	0.000000	1.548828
1209.000000	0.000000	1.553570
1210.000000	0.000000	1.558483
1211.000000	0.000000	1.540244
1212.000000	0.000000	1.539050
1213.000000	0.000000	1.526689
1214.000000	0.000000	1.526139
1215.000000	0.000000	1.508417
1216.000000	0.000000	1.502695
1217.000000	0.000000	1.483015
1218.000000	0.000000	1.473817
1219.000000	0.000000	1.457774
1220.000000	0.000000	1.452453
1221.000000	0.000000	1.450819
1222.000000	0.000000	1.422434
1223.000000	0.000000	1.429566
1224.000000	0.000000	1.405045
1225.000000	0.000000	1.396909
1226.000000	0.000000	1.387825
1227.000000	0.000000	1.375158
1228.000000	0.000000	1.355652
1229.000000	0.000000	1.353090
1230.000000	0.000000	1.346240
1231.000000	0.000000	1.334602
1232.000000	0.000000	1.329856
1233.000000	0.000000	1.317620
1234.000000	0.000000	1.312661
1235.000000	0.000000	1.307331
1236.000000	0.000000	1.300835
1237.000000	0.000000	1.308715
1238.000000	0.000000	1.301702
1239.000000	0.000000	1.291577
1240.000000	0.000000	1.293999
1241.000000	0.000000	1.293128
1242.000000	0.000000	1.282825
1243.000000	0.000000	1.282933
1244.000000	0.000000	1.280225
1245.000000	0.000000	1.276522
1246.000000	0.000000	1.276011
1247.000000	0.000000	1.275682
1248.000000	0.000000	1.278185
1249.000000	0.000000	1.284912
1250.000000	0.000000	1.286671
1251.000000	0.000000	1.288293
1252.000000	0.000000	1.288825
1253.000000	0.000000	1.292088
1254.000000	0.000000	1.296974
1255.000000	0.000000	1.289240
1256.000000	0.000000	1.295150
1257.000000	0.000000	1.306136
1258.000000	0.000000	1.303421
1259.000000	0.000000	1.297558
1260.000000	0.000000	1.301525
1261.000000	0.000000	1.298119
1262.000000	0.000000	1.296302
1263.000000	0.000000	1.296715
1264.000000	0.000000	1.287744
1265.000000	0.000000	1.288841
1266.000000	0.000000	1.293739
1267.000000	0.000000	1.297153
1268.000000	0.000000	1.284498
1269.000000	0.000000	1.280486
1270.000000	0.000000	1.277456
1271.000000	0.000000	1.276121
1272.000000	0.000000	1.277945
1273.000000	0.000000	1.275151
1274.000000	0.000000	1.268517
1275.000000	0.000000	1.259500
1276.000000	0.000000	1.264046
1277.000000	0.000000	1.267939
1278.000000	0.000000	1.256541
1279.000000	0.000000	1.245623
1280.000000	0.000000	1.240632
1281.000000	0.000000	1.243567
1282.000000	0.000000	1.244504
1283.000000	0.000000	1.235358
1284.000000	0.000000	1.226611
1285.000000	0.000000	1.228014
1286.000000	0.000000	1.234211
1287.000000	0.000000	1.226428
1288.000000	0.000000	1.221323
1289.000000	0.000000	1.211842
1290.000000	0.000000	1.197254
1291.000000	0.000000	1.200929
1292.000000	0.000000	1.208509
1293.000000	0.000000	1.198900
1294.000000	0.000000	1.193133
1295.000000	0.000000	1.196808
1296.000000	0.000000	1.197273
1297.000000	0.000000	1.192749
1298.000000	0.000000	1.192372
1299.000000	0.000000	1.194260
1300.000000	0.000000	1.195198
1301.000000	0.000000	1.194087
1302.000000	0.000000	1.191533
1303.000000	0.000000	1.190862
1304.000000	0.000000	1.193971
1305.000000	0.000000	1.196008
1306.000000	0.000000	1.186752
1307.000000	0.000000	1.180679
1308.000000	0.000000	1.176461
1309.000000	0.000000	1.169204
1310.000000	0.000000	1.169063
1311.000000	0.000000	1.172522
1312.000000	0.000000	1.170753
1313.000000	0.000000	1.165012
1314.000000	0.000000	1.172457
1315.000000	0.000000	1.174249
1316.000000	0.000000	1.172284
1317.000000	0.000000	1.174065
1318.000000	0.000000	1.174742
1319.000000	0.000000	1.176194
1320.000000	0.000000	1.173593
1321.000000	0.000000	1.180085
1322.000000	0.000000	1.182682
1323.000000	0.000000	1.178688
1324.000000	0.000000	1.181289
1325.000000	0.000000	1.184996
1326.000000	0.000000	1.194095
1327.000000	0.000000	1.193508
1328.000000	0.000000	1.202330
1329.000000	0.000000	1.211386
1330.000000	0.000000	1.207687
1331.000000	0.000000	1.217133
1332.000000	0.000000	1.226408
1333.000000	0.000000	1.233408
1334.000000	0.000000	1.240127
1335.000000	0.000000	1.230673
1336.000000	0.000000	1.236693
1337.000000	0.000000	1.255500
1338.000000	0.000000	1.261939
1339.000000	0.000000	1.265462
1340.000000	0.000000	1.276028
1341.000000	0.000000	1.282309
1342.000000	0.000000	1.297203
1343.000000	0.000000	1.294504
1344.000000	0.000000	1.299549
1345.000000	0.000000	1.307047
1346.000000	0.000000	1.313651
1347.000000	0.000000	1.314444
1348.000000	0.000000	1.330403
1349.000000	0.000000	1.341280
1350.000000	0.000000	1.347104
1351.000000	0.000000	1.368537
1352.000000	0.000000	1.375776
1353.000000	0.000000	1.387492
1354.000000	0.000000	1.409707
1355.000000	0.000000	1.439842
1356.000000	0.000000	1.455093
1357.000000	0.000000	1.458056
1358.000000	0.000000	1.459073
1359.000000	0.000000	1.465309
1360.000000	0.000000	1.461692
1361.000000	0.000000	1.471153
1362.000000	0.000000	1.482507
1363.000000	0.000000	1.477060
1364.000000	0.000000	1.477448
1365.000000	0.000000	1.482881
1366.000000	0.000000	1.486984
1367.000000	0.000000	1.497892
1368.000000	0.000000	1.503733
1369.000000	0.000000	1.487844
1370.000000	0.000000	1.485043
1371.000000	0.000000	1.507867
1372.000000	0.000000	1.499138
1373.000000	0.000000	1.491929
1374.000000	0.000000	1.474788
1375.000000	0.000000	1.470810
1376.000000	0.000000	1.455972
1377.000000	0.000000	1.451723
1378.000000	0.000000	1.438452
1379.000000	0.000000	1.422505
1380.000000	0.000000	1.428654
1381.000000	0.000000	1.422674
1382.000000	0.000000	1.428292
1383.000000	0.000000	1.422448
1384.000000	0.000000	1.429866
1385.000000	0.000000	1.425632
1386.000000	0.000000	1.427550
1387.000000	0.000000	1.424423
1388.000000	0.000000	1.452314
1389.000000	0.000000	1.447844
1390.000000	0.000000	1.442797
1391.000000	0.000000	1.446146
1392.000000	0.000000	1.454385
1393.000000	0.000000	1.463710
1394.000000	0.000000	1.461031
1395.000000	0.000000	1.444367
1396.000000	0.000000	1.470755
1397.000000	0.000000	1.443849
1398.000000	0.000000	1.432310
1399.000000	0.000000	1.421712
1400.000000	0.000000	1.424522
1401.000000	0.000000	1.446339
1402.000000	0.000000	1.415711
1403.000000	0.000000	1.406666
1404.000000	0.000000	1.372492
1405.000000	0.000000	1.375929
1406.000000	0.000000	1.377503
1407.000000	0.000000	1.368684
1408.000000	0.000000	1.365817
1409.000000	0.000000	1.341130
1410.000000	0.000000	1.336977
1411.000000	0.000000	1.331438
1412.000000	0.000000	1.319860
1413.000000	0.000000	1.309256
1414.000000	0.000000	1.312031
1415.000000	0.000000	1.306917
1416.000000	0.000000	1.299256
1417.000000	0.000000	1.277857
1418.000000	0.000000	1.270465
1419.000000	0.000000	1.264413
1420.000000	0.000000	1.258428
1421.000000	0.000000	1.251138
1422.000000	0.000000	1.235117
1423.000000	0.000000	1.219192
1424.000000	0.000000	1.223944
1425.000000	0.000000	1.208841
1426.000000	0.000000	1.194032
1427.000000	0.000000	1.186434
1428.000000	0.000000	1.191242
1429.000000	0.000000	1.176698
1430.000000	0.000000	1.162956
1431.000000	0.000000	1.156688
1432.000000	0.000000	1.159180
1433.000000	0.000000	1.151338
1434.000000	0.000000	1.154822
1435.000000	0.000000	1.137390
1436.000000	0.000000	1.131663
1437.000000	0.000000	1.145901
1438.000000	0.000000	1.124056
1439.000000	0.000000	1.122011
1440.000000	0.000000	1.119096
1441.000000	0.000000	1.115204
1442.000000	0.000000	1.116086
1443.000000	0.000000	1.089597
1444.000000	0.000000	1.112020
1445.000000	0.000000	1.093348
1446.000000	0.000000	1.090140
1447.000000	0.000000	1.074842
1448.000000	0.000000	1.081610
1449.000000	0.000000	1.075082
1450.000000	0.000000	1.072239
1451.000000	0.000000	1.077728
1452.000000	0.000000	1.076761
1453.000000	0.000000	1.074204
1454.000000	0.000000	1.079169
1455.000000	0.000000	1.070845
1456.000000	0.000000	1.068027
1457.000000	0.000000	1.067770
1458.000000	0.000000	1.054237
1459.000000	0.000000	1.053548
1460.000000	0.000000	1.046073
1461.000000	0.000000	1.042954
1462.000000	0.000000	1.055563
1463.000000	0.000000	1.043367
1464.000000	0.000000	1.039735
1465.000000	0.000000	1.046629
1466.000000	0.000000	1.040787
1467.000000	0.000000	1.050473
1468.000000	0.000000	1.052317
1469.000000	0.000000	1.036981
1470.000000	0.000000	1.039621
1471.000000	0.000000	1.037927
1472.000000	0.000000	1.039233
1473.000000	0.000000	1.043319
1474.000000	0.000000	1.034650
1475.000000	0.000000	1.041987
1476.000000	0.000000	1.029438
1477.000000	0.000000	1.021943
1478.000000	0.000000	1.026247
1479.000000	0.000000	1.031057
1480.000000	0.000000	1.022068
1481.000000	0.000000	1.030828
1482.000000	0.000000	1.035923
1483.000000	0.000000	1.020676
1484.000000	0.000000	1.014113
1485.000000	0.000000	1.033550
1486.000000	0.000000	1.027683
1487.000000	0.000000	1.019467
1488.000000	0.000000	1.035548
1489.000000	0.000000	1.027894
1490.000000	0.000000	1.036429
1491.000000	0.000000	1.032226
1492.000000	0.000000	1.033419
1493.000000	0.000000	1.024539
1494.000000	0.000000	1.027022
1495.000000	0.000000	1.035017
1496.000000	0.000000	1.041517
1497.000000	0.000000	1.025892
1498.000000	0.000000	1.021728
1499.000000	0.000000	1.034641
1500.000000	0.000000	1.031099
1501.000000	0.000000	1.026903
1502.000000	0.000000	1.044494
1503.000000	0.000000	1.046042
1504.000000	0.000000	1.045569
1505.000000	0.000000	1.045109
1506.000000	0.000000	1.052258
1507.000000	0.000000	1.049570
1508.000000	0.000000	1.045873
1509.000000	0.000000	1.049595
1510.000000	0.000000	1.064012
1511.000000	0.000000	1.062070
1512.000000	0.000000	1.064436
1513.000000	0.000000	1.057978
1514.000000	0.000000	1.063683
1515.000000	0.000000	1.058591
1516.000000	0.000000	1.068510
1517.000000	0.000000	1.075547
1518.000000	0.000000	1.080737
1519.000000	0.000000	1.076753
1520.000000	0.000000	1.083213
1521.000000	0.000000	1.078216
1522.000000	0.000000	1.067181
1523.000000	0.000000	1.080420
1524.000000	0.000000	1.082850
1525.000000	0.000000	1.079742
1526.000000	0.000000	1.080312
1527.000000	0.000000	1.076692
1528.000000	0.000000	1.089380
1529.000000	0.000000	1.086307
1530.000000	0.000000	1.097773
1531.000000	0.000000	1.098785
1532.000000	0.000000	1.096479
1533.000000	0.000000	1.094128
1534.000000	0.000000	1.090523
1535.000000	0.000000	1.094538
1536.000000	0.000000	1.093993
1537.000000	0.000000	1.089314
1538.000000	0.000000	1.089114
1539.000000	0.000000	1.083658
1540.000000	0.000000	1.077912
1541.000000	0.000000	1.088771
1542.000000	0.000000	1.089136
1543.000000	0.000000	1.082080
1544.000000	0.000000	1.074041
1545.000000	0.000000	1.072143
1546.000000	0.000000	1.080036
1547.000000	0.000000	1.080889
1548.000000	0.000000	1.082624
1549.000000	0.000000	1.080116
1550.000000	0.000000	1.083683
1551.000000	0.000000	1.076839
1552.000000	0.000000	1.074541
1553.000000	0.000000	1.086312
1554.000000	0.000000	1.090122
1555.000000	0.000000	1.089470
1556.000000	0.000000	1.087420
1557.000000	0.000000	1.092055
1558.000000	0.000000	1.101759
1559.000000	0.000000	1.100496
1560.000000	0.000000	1.091021
1561.000000	0.000000	1.098383
1562.000000	0.000000	1.102270
1563.000000	0.000000	1.097301
1564.000000	0.000000	1.101670
1565.000000	0.000000	1.102826
1566.000000	0.000000	1.105160
1567.000000	0.000000	1.102467
1568.000000	0.000000	1.097884
1569.000000	0.000000	1.094643
1570.000000	0.000000	1.098520
1571.000000	0.000000	1.093962
1572.000000	0.000000	1.095760
1573.000000	0.000000	1.104677
1574.000000	0.000000	1.099461
1575.000000	0.000000	1.097996
1576.000000	0.000000	1.101278
1577.000000	0.000000	1.103761
1578.000000	0.000000	1.104064
1579.000000	0.000000	1.103200
1580.000000	0.000000	1.098329
1581.000000	0.000000	1.098447
1582.000000	0.000000	1.107821
1583.000000	0.000000	1.119077
1584.000000	0.000000	1.122802
1585.000000	0.000000	1.122779
1586.000000	0.000000	1.122150
1587.000000	0.000000	1.125440
1588.000000	0.000000	1.129911
1589.000000	0.000000	1.135551
1590.000000	0.000000	1.138134
1591.000000	0.000000	1.139569
1592.000000	0.000000	1.151269
1593.000000	0.000000	1.148772
1594.000000	0.000000	1.138254
1595.000000	0.000000	1.149221
1596.000000	0.000000	1.159134
1597.000000	0.000000	1.167179
1598.000000	0.000000	1.177380
1599.000000	0.000000	1.178178
1600.000000	0.000000	1.175068
1601.000000	0.000000	1.180969
1602.000000	0.000000	1.188924
1603.000000	0.000000	1.188844
1604.000000	0.000000	1.192802
1605.000000	0.000000	1.188309
1606.000000	0.000000	1.189321
1607.000000	0.000000	1.199378
1608.000000	0.000000	1.200030
1609.000000	0.000000	1.201857
1610.000000	0.000000	1.209908
1611.000000	0.000000	1.198594
1612.000000	0.000000	1.213804
1613.000000	0.000000	1.217869
1614.000000	0.000000	1.218589
1615.000000	0.000000	1.216017
1616.000000	0.000000	1.204376
1617.000000	0.000000	1.221926
1618.000000	0.000000	1.227228
1619.000000	0.000000	1.225218
1620.000000	0.000000	1.227657
1621.000000	0.000000	1.231452
1622.000000	0.000000	1.223923
1623.000000	0.000000	1.229855
1624.000000	0.000000	1.224554
1625.000000	0.000000	1.230099
1626.000000	0.000000	1.235016
1627.000000	0.000000	1.234616
1628.000000	0.000000	1.234066
1629.000000	0.000000	1.231921
1630.000000	0.000000	1.235393
1631.000000	0.000000	1.243493
1632.000000	0.000000	1.242117
1633.000000	0.000000	1.243880
1634.000000	0.000000	1.236911
1635.000000	0.000000	1.225499
1636.000000	0.000000	1.239122
1637.000000	0.000000	1.245331
1638.000000	0.000000	1.252511
1639.000000	0.000000	1.248707
1640.000000	0.000000	1.242788
1641.000000	0.000000	1.255845
1642.000000	0.000000	1.258358
1643.000000	0.000000	1.254867
1644.000000	0.000000	1.264873
1645.000000	0.000000	1.262467
1646.000000	0.000000	1.248253
1647.000000	0.000000	1.260596
1648.000000	0.000000	1.267048
1649.000000	0.000000	1.268099
1650.000000	0.000000	1.265327
1651.000000	0.000000	1.267100
1652.000000	0.000000	1.273781
1653.000000	0.000000	1.269701
1654.000000	0.000000	1.271175
1655.000000	0.000000	1.268144
1656.000000	0.000000	1.274224
1657.000000	0.000000	1.261125
1658.000000	0.000000	1.271086
1659.000000	0.000000	1.252031
1660.000000	0.000000	1.267411
1661.000000	0.000000	1.261748
1662.000000	0.000000	1.249046
1663.000000	0.000000	1.237964
1664.000000	0.000000	1.239530
1665.000000	0.000000	1.252501
1666.000000	0.000000	1.235597
1667.000000	0.000000	1.234327
1668.000000	0.000000	1.224577
1669.000000	0.000000	1.226882
1670.000000	0.000000	1.201340
1671.000000	0.000000	1.215053
1672.000000	0.000000	1.188625
1673.000000	0.000000	1.193375
1674.000000	0.000000	1.175634
1675.000000	0.000000	1.142152
1676.000000	0.000000	1.118399
1677.000000	0.000000	1.117301
1678.000000	0.000000	1.084465
1679.000000	0.000000	1.073959
1680.000000	0.000000	1.054647
1681.000000	0.000000	1.024238
1682.000000	0.000000	0.992063
1683.000000	0.000000	0.974230
1684.000000	0.000000	0.986507
1685.000000	0.000000	0.981589
1686.000000	0.000000	0.973533
1687.000000	0.000000	0.989478
1688.000000	0.000000	1.001019
1689.000000	0.000000	0.990883
1690.000000	0.000000	1.002948
1691.000000	0.000000	0.999185
1692.000000	0.000000	0.994035
1693.000000	0.000000	1.002041
1694.000000	0.000000	0.999284
1695.000000	0.000000	1.018834
1696.000000	0.000000	1.014422
1697.000000	0.000000	1.035782
1698.000000	0.000000	1.058524
1699.000000	0.000000	1.062056
1700.000000	0.000000	1.100994
1701.000000	0.000000	1.102090
1702.000000	0.000000	1.127996
1703.000000	0.000000	1.136952
1704.000000	0.000000	1.156658
1705.000000	0.000000	1.170006
1706.000000	0.000000	1.176527
1707.000000	0.000000	1.179302
1708.000000	0.000000	1.199973
1709.000000	0.000000	1.208764
1710.000000	0.000000	1.219040
1711.000000	0.000000	1.209913
1712.000000	0.000000	1.207105
1713.000000	0.000000	1.216517
1714.000000	0.000000	1.206268
1715.000000	0.000000	1.200839
1716.000000	0.000000	1.199655
1717.000000	0.000000	1.201661
1718.000000	0.000000	1.196412
1719.000000	0.000000	1.205814
1720.000000	0.000000	1.193830
1721.000000	0.000000	1.200655
1722.000000	0.000000	1.199170
1723.000000	0.000000	1.203425
1724.000000	0.000000	1.203017
1725.000000	0.000000	1.208366
1726.000000	0.000000	1.203899
1727.000000	0.000000	1.188540
1728.000000	0.000000	1.186359
1729.000000	0.000000	1.180314
1730.000000	0.000000	1.170629
1731.000000	0.000000	1.163847
1732.000000	0.000000	1.163771
1733.000000	0.000000	1.146437
1734.000000	0.000000	1.129152
1735.000000	0.000000	1.141048
1736.000000	0.000000	1.136842
1737.000000	0.000000	1.141471
1738.000000	0.000000	1.137304
1739.000000	0.000000	1.145329
1740.000000	0.000000	1.147949
1741.000000	0.000000	1.150525
1742.000000	0.000000	1.164905
1743.000000	0.000000	1.183775
1744.000000	0.000000	1.194534
1745.000000	0.000000	1.196378
1746.000000	0.000000	1.208785
1747.000000	0.000000	1.227093
1748.000000	0.000000	1.226841
1749.000000	0.000000	1.227488
1750.000000	0.000000	1.227894
1751.000000	0.000000	1.230632
1752.000000	0.000000	1.241327
1753.000000	0.000000	1.239393
1754.000000	0.000000	1.253497
1755.000000	0.000000	1.226844
1756.000000	0.000000	1.230982
1757.000000	0.000000	1.242838
1758.000000	0.000000	1.229457
1759.000000	0.000000	1.220656
1760.000000	0.000000	1.223541
1761.000000	0.000000	1.214567
1762.000000	0.000000	1.218869
1763.000000	0.000000	1.225606
1764.000000	0.000000	1.242247
1765.000000	0.000000	1.235449
1766.000000	0.000000	1.239399
1767.000000	0.000000	1.240946
1768.000000	0.000000	1.226592
1769.000000	0.000000	1.226483
1770.000000	0.000000	1.232620
1771.000000	0.000000	1.240774
1772.000000	0.000000	1.248514
1773.000000	0.000000	1.239584
1774.000000	0.000000	1.244032
1775.000000	0.000000	1.248891
1776.000000	0.000000	1.256221
1777.000000	0.000000	1.262069
1778.000000	0.000000	1.262370
1779.000000	0.000000	1.261915
1780.000000	0.000000	1.268873
1781.000000	0.000000	1.271162
1782.000000	0.000000	1.267137
1783.000000	0.000000	1.273961
1784.000000	0.000000	1.283959
1785.000000	0.000000	1.283607
1786.000000	0.000000	1.280454
1787.000000	0.000000	1.288610
1788.000000	0.000000	1.286400
1789.000000	0.000000	1.301164
1790.000000	0.000000	1.301357
1791.000000	0.000000	1.306335
1792.000000	0.000000	1.316203
1793.000000	0.000000	1.312869
1794.000000	0.000000	1.311015
1795.000000	0.000000	1.316489
1796.000000	0.000000	1.330856
1797.000000	0.000000	1.323912
1798.000000	0.000000	1.323327
1799.000000	0.000000	1.325364
1800.000000	0.000000	1.335684
1801.000000	0.000000	1.342494
1802.000000	0.000000	1.339204
1803.000000	0.000000	1.334051
1804.000000	0.000000	1.334016
1805.000000	0.000000	1.343220
1806.000000	0.000000	1.356169
1807.000000	0.000000	1.351773
1808.000000	0.000000	1.345461
1809.000000	0.000000	1.350556
1810.000000	0.000000	1.352996
1811.000000	0.000000	1.356424
1812.000000	0.000000	1.363446
1813.000000	0.000000	1.372196
1814.000000	0.000000	1.379536
1815.000000	0.000000	1.380672
1816.000000	0.000000	1.375874
1817.000000	0.000000	1.371899
1818.000000	0.000000	1.381844
1819.000000	0.000000	1.386502
1820.000000	0.000000	1.387601
1821.000000	0.000000	1.397823
1822.000000	0.000000	1.395973
1823.000000	0.000000	1.386255
1824.000000	0.000000	1.385188
1825.000000	0.000000	1.383340
1826.000000	0.000000	1.396954
1827.000000	0.000000	1.407058
1828.000000	0.000000	1.398556
1829.000000	0.000000	1.398521
1830.000000	0.000000	1.404254
1831.000000	0.000000	1.409669
1832.000000	0.000000	1.399309
1833.000000	0.000000	1.391790
1834.000000	0.000000	1.400002
1835.000000	0.000000	1.412287
1836.000000	0.000000	1.416634
1837.000000	0.000000	1.422035
1838.000000	0.000000	1.437311
1839.000000	0.000000	1.433325
1840.000000	0.000000	1.431319
1841.000000	0.000000	1.441328
1842.000000	0.000000	1.444847
1843.000000	0.000000	1.440161
1844.000000	0.000000	1.439081
1845.000000	0.000000	1.432970
1846.000000	0.000000	1.430824
1847.000000	0.000000	1.436412
1848.000000	0.000000	1.447456
1849.000000	0.000000	1.445877
1850.000000	0.000000	1.433718
1851.000000	0.000000	1.426571
1852.000000	0.000000	1.418138
1853.000000	0.000000	1.425316
1854.000000	0.000000	1.427901
1855.000000	0.000000	1.426454
1856.000000	0.000000	1.425426
1857.000000	0.000000	1.415361
1858.000000	0.000000	1.416408
1859.000000	0.000000	1.411472
1860.000000	0.000000	1.403165
1861.000000	0.000000	1.401995
1862.000000	0.000000	1.387760
1863.000000	0.000000	1.373825
1864.000000	0.000000	1.363004
1865.000000	0.000000	1.374847
1866.000000	0.000000	1.377515
1867.000000	0.000000	1.366743
1868.000000	0.000000	1.357838
1869.000000	0.000000	1.354015
1870.000000	0.000000	1.349051
1871.000000	0.000000	1.341083
1872.000000	0.000000	1.332540
1873.000000	0.000000	1.318086
1874.000000	0.000000	1.308384
1875.000000	0.000000	1.305141
1876.000000	0.000000	1.278357
1877.000000	0.000000	1.248363
1878.000000	0.000000	1.228351
1879.000000	0.000000	1.197250
1880.000000	0.000000	1.179028
1881.000000	0.000000	1.146535
1882.000000	0.000000	1.123553
1883.000000	0.000000	1.108788
1884.000000	0.000000	1.084953
1885.000000	0.000000	1.077574
1886.000000	0.000000	1.053422
1887.000000	0.000000	1.031414
1888.000000	0.000000	1.012300
1889.000000	0.000000	0.989870
1890.000000	0.000000	0.993614
1891.000000	0.000000	0.975804
1892.000000	0.000000	0.956987
1893.000000	0.000000	0.935019
1894.000000	0.000000	0.915905
1895.000000	0.000000	0.890798
1896.000000	0.000000	0.871220
1897.000000	0.000000	0.858181
1898.000000	0.000000	0.850544
1899.000000	0.000000	0.835203
1900.000000	0.000000	0.815647
1901.000000	0.000000	0.795085
1902.000000	0.000000	0.768685
1903.000000	0.000000	0.763300
1904.000000	0.000000	0.742778
1905.000000	0.000000	0.722435
1906.000000	0.000000	0.709874
1907.000000	0.000000	0.685713
1908.000000	0.000000	0.660184
1909.000000	0.000000	0.657685
1910.000000	0.000000	0.635048
1911.000000	0.000000	0.624237
1912.000000	0.000000	0.607055
1913.000000	0.000000	0.599162
1914.000000	0.000000	0.595232
1915.000000	0.000000	0.561667
1916.000000	0.000000	0.552435
1917.000000	0.000000	0.535708
1918.000000	0.000000	0.519760
1919.000000	0.000000	0.535276
1920.000000	0.000000	0.526311
1921.000000	0.000000	0.514680
1922.000000	0.000000	0.497139
1923.000000	0.000000	0.486557
1924.000000	0.000000	0.477807
1925.000000	0.000000	0.478676
1926.000000	0.000000	0.458769
1927.000000	0.000000	0.451604
1928.000000	0.000000	0.461382
1929.000000	0.000000	0.448124
1930.000000	0.000000	0.445696
1931.000000	0.000000	0.440177
1932.000000	0.000000	0.428870
1933.000000	0.000000	0.451743
1934.000000	0.000000	0.428033
1935.000000	0.000000	0.419251
1936.000000	0.000000	0.429859
1937.000000	0.000000	0.430913
1938.000000	0.000000	0.414244
1939.000000	0.000000	0.433272
1940.000000	0.000000	0.419709
1941.000000	0.000000	0.425487
1942.000000	0.000000	0.426953
1943.000000	0.000000	0.425089
1944.000000	0.000000	0.429165
1945.000000	0.000000	0.438786
1946.000000	0.000000	0.429228
1947.000000	0.000000	0.431661
1948.000000	0.000000	0.441442
1949.000000	0.000000	0.439244
1950.000000	0.000000	0.450410
1951.000000	0.000000	0.455351
1952.000000	0.000000	0.466039
1953.000000	0.000000	0.447715
1954.000000	0.000000	0.459714
1955.000000	0.000000	0.468270
1956.000000	0.000000	0.482044
1957.000000	0.000000	0.493050
1958.000000	0.000000	0.481207
1959.000000	0.000000	0.500773
1960.000000	0.000000	0.493498
1961.000000	0.000000	0.494906
1962.000000	0.000000	0.517331
1963.000000	0.000000	0.508330
1964.000000	0.000000	0.522563
1965.000000	0.000000	0.529313
1966.000000	0.000000	0.535868
1967.000000	0.000000	0.549384
1968.000000	0.000000	0.544602
1969.000000	0.000000	0.546691
1970.000000	0.000000	0.561508
1971.000000	0.000000	0.558237
1972.000000	0.000000	0.579076
1973.000000	0.000000	0.566459
1974.000000	0.000000	0.589146
1975.000000	0.000000	0.589017
1976.000000	0.000000	0.587791
1977.000000	0.000000	0.609578
1978.000000	0.000000	0.611599
1979.000000	0.000000	0.616391
1980.000000	0.000000	0.607637
1981.000000	0.000000	0.619024
1982.000000	0.000000	0.641563
1983.000000	0.000000	0.650864
1984.000000	0.000000	0.656695
1985.000000	0.000000	0.646915
1986.000000	0.000000	0.654986
1987.000000	0.000000	0.671947
1988.000000	0.000000	0.688713
1989.000000	0.000000	0.681587
1990.000000	0.000000	0.681577
1991.000000	0.000000	0.688239
1992.000000	0.000000	0.678795
1993.000000	0.000000	0.702644
1994.000000	0.000000	0.694243
1995.000000	0.000000	0.710759
1996.000000	0.000000	0.701139
1997.000000	0.000000	0.702713
1998.000000	0.000000	0.727778
1999.000000	0.000000	0.710674
