PE UV       SUBTECH     SPECTRUM    ASCII       PEDS        4.00        
   -1
CICIMAUCR0001-3.Sample.ASC
24/04/04
15:45:00.00
24/04/04
15:45:00.00
Vinicio Soto Monge
C. kalinini
250,000000
1
Lambda 1050
1050L1511233
PerkinElmer UV WinLab 6.3.2.0749 / 2.02.05 Lambda 900 UV/VIS/NIR, Aug  7 2015 09:38:08

0
0
3350/servo 860,8/2
0
0
UV/VIS
1
1
1
DoubleDePol,CommonBeamDepol,RBeamAtt,SBeamAtt,60mm sphere, WB InGaAs Detector
0
0
0
0
Program
Program
3350/servo 860,8/2
3350/0,2 860,8/0,2
3350/0,2 860,8/0,2
0
15.00
 
 
 
0
 
860,8
319,2
860,8
Front
100
on
S:100 R:100
0
0
0
0
 
0
 
 
 
0
 
 
0
0
0
0
0
 
 
 
 
0
0


0
0
#HDR
-1
-1
#GR
nm
%R
1.0
0.0
2500,000000
-1,000000
2251
8
73,921900
4,917300
#DATA
250.000000	0.000000	1.567909
251.000000	0.000000	1.579141
252.000000	0.000000	1.547674
253.000000	0.000000	1.555700
254.000000	0.000000	1.574887
255.000000	0.000000	1.530592
256.000000	0.000000	1.543530
257.000000	0.000000	1.538775
258.000000	0.000000	1.519556
259.000000	0.000000	1.492590
260.000000	0.000000	1.511267
261.000000	0.000000	1.526800
262.000000	0.000000	1.520577
263.000000	0.000000	1.520949
264.000000	0.000000	1.476893
265.000000	0.000000	1.511507
266.000000	0.000000	1.480365
267.000000	0.000000	1.474442
268.000000	0.000000	1.464616
269.000000	0.000000	1.508054
270.000000	0.000000	1.455473
271.000000	0.000000	1.457754
272.000000	0.000000	1.435663
273.000000	0.000000	1.439265
274.000000	0.000000	1.446325
275.000000	0.000000	1.437295
276.000000	0.000000	1.475833
277.000000	0.000000	1.481522
278.000000	0.000000	1.415585
279.000000	0.000000	1.410654
280.000000	0.000000	1.386460
281.000000	0.000000	1.389844
282.000000	0.000000	1.427447
283.000000	0.000000	1.414708
284.000000	0.000000	1.427431
285.000000	0.000000	1.411460
286.000000	0.000000	1.392483
287.000000	0.000000	1.399128
288.000000	0.000000	1.411643
289.000000	0.000000	1.427809
290.000000	0.000000	1.412193
291.000000	0.000000	1.412310
292.000000	0.000000	1.424666
293.000000	0.000000	1.437513
294.000000	0.000000	1.395231
295.000000	0.000000	1.449599
296.000000	0.000000	1.423826
297.000000	0.000000	1.414313
298.000000	0.000000	1.404572
299.000000	0.000000	1.397192
300.000000	0.000000	1.402837
301.000000	0.000000	1.457883
302.000000	0.000000	1.452121
303.000000	0.000000	1.420451
304.000000	0.000000	1.439116
305.000000	0.000000	1.424017
306.000000	0.000000	1.435353
307.000000	0.000000	1.464378
308.000000	0.000000	1.427316
309.000000	0.000000	1.410250
310.000000	0.000000	1.396773
311.000000	0.000000	1.428687
312.000000	0.000000	1.411820
313.000000	0.000000	1.401504
314.000000	0.000000	1.377093
315.000000	0.000000	1.397958
316.000000	0.000000	1.435365
317.000000	0.000000	1.518881
318.000000	0.000000	1.242215
319.000000	0.000000	1.291045
320.000000	0.000000	1.209725
321.000000	0.000000	1.384593
322.000000	0.000000	1.269200
323.000000	0.000000	1.357035
324.000000	0.000000	1.399003
325.000000	0.000000	1.461160
326.000000	0.000000	1.205604
327.000000	0.000000	1.252904
328.000000	0.000000	1.437900
329.000000	0.000000	1.325541
330.000000	0.000000	1.406543
331.000000	0.000000	1.452369
332.000000	0.000000	1.401266
333.000000	0.000000	1.397117
334.000000	0.000000	1.282916
335.000000	0.000000	1.368304
336.000000	0.000000	1.503588
337.000000	0.000000	1.495075
338.000000	0.000000	1.443846
339.000000	0.000000	1.344262
340.000000	0.000000	1.376717
341.000000	0.000000	1.410952
342.000000	0.000000	1.480555
343.000000	0.000000	1.495790
344.000000	0.000000	1.447930
345.000000	0.000000	1.417997
346.000000	0.000000	1.397854
347.000000	0.000000	1.391562
348.000000	0.000000	1.433379
349.000000	0.000000	1.438661
350.000000	0.000000	1.421973
351.000000	0.000000	1.430125
352.000000	0.000000	1.445787
353.000000	0.000000	1.436223
354.000000	0.000000	1.449137
355.000000	0.000000	1.420552
356.000000	0.000000	1.472168
357.000000	0.000000	1.454728
358.000000	0.000000	1.495667
359.000000	0.000000	1.472650
360.000000	0.000000	1.509600
361.000000	0.000000	1.489634
362.000000	0.000000	1.508321
363.000000	0.000000	1.586729
364.000000	0.000000	1.526050
365.000000	0.000000	1.561231
366.000000	0.000000	1.584042
367.000000	0.000000	1.552394
368.000000	0.000000	1.522416
369.000000	0.000000	1.599129
370.000000	0.000000	1.562716
371.000000	0.000000	1.548976
372.000000	0.000000	1.618447
373.000000	0.000000	1.655003
374.000000	0.000000	1.677079
375.000000	0.000000	1.651978
376.000000	0.000000	1.662189
377.000000	0.000000	1.797874
378.000000	0.000000	1.817437
379.000000	0.000000	1.823827
380.000000	0.000000	1.828078
381.000000	0.000000	1.829999
382.000000	0.000000	1.843523
383.000000	0.000000	1.844538
384.000000	0.000000	1.847805
385.000000	0.000000	1.856655
386.000000	0.000000	1.865809
387.000000	0.000000	1.876258
388.000000	0.000000	1.885094
389.000000	0.000000	1.892718
390.000000	0.000000	1.897065
391.000000	0.000000	1.894277
392.000000	0.000000	1.898908
393.000000	0.000000	1.912062
394.000000	0.000000	1.917290
395.000000	0.000000	1.925232
396.000000	0.000000	1.923979
397.000000	0.000000	1.923754
398.000000	0.000000	1.935848
399.000000	0.000000	1.946364
400.000000	0.000000	1.951102
401.000000	0.000000	1.954778
402.000000	0.000000	1.970707
403.000000	0.000000	1.977224
404.000000	0.000000	1.977925
405.000000	0.000000	1.984430
406.000000	0.000000	2.002841
407.000000	0.000000	2.006516
408.000000	0.000000	2.014309
409.000000	0.000000	2.033761
410.000000	0.000000	2.049210
411.000000	0.000000	2.064134
412.000000	0.000000	2.081601
413.000000	0.000000	2.107322
414.000000	0.000000	2.130635
415.000000	0.000000	2.154306
416.000000	0.000000	2.184335
417.000000	0.000000	2.204832
418.000000	0.000000	2.234177
419.000000	0.000000	2.268622
420.000000	0.000000	2.300288
421.000000	0.000000	2.339034
422.000000	0.000000	2.383179
423.000000	0.000000	2.423543
424.000000	0.000000	2.466412
425.000000	0.000000	2.511690
426.000000	0.000000	2.561555
427.000000	0.000000	2.612222
428.000000	0.000000	2.670752
429.000000	0.000000	2.740919
430.000000	0.000000	2.808708
431.000000	0.000000	2.876664
432.000000	0.000000	2.947839
433.000000	0.000000	3.019593
434.000000	0.000000	3.095838
435.000000	0.000000	3.185494
436.000000	0.000000	3.264866
437.000000	0.000000	3.347454
438.000000	0.000000	3.433507
439.000000	0.000000	3.520966
440.000000	0.000000	3.617938
441.000000	0.000000	3.713548
442.000000	0.000000	3.817442
443.000000	0.000000	3.922872
444.000000	0.000000	4.020457
445.000000	0.000000	4.112383
446.000000	0.000000	4.205411
447.000000	0.000000	4.305575
448.000000	0.000000	4.408386
449.000000	0.000000	4.503979
450.000000	0.000000	4.593855
451.000000	0.000000	4.697538
452.000000	0.000000	4.797757
453.000000	0.000000	4.885117
454.000000	0.000000	4.974239
455.000000	0.000000	5.072047
456.000000	0.000000	5.162143
457.000000	0.000000	5.242605
458.000000	0.000000	5.325184
459.000000	0.000000	5.413890
460.000000	0.000000	5.507039
461.000000	0.000000	5.589264
462.000000	0.000000	5.665501
463.000000	0.000000	5.741883
464.000000	0.000000	5.809018
465.000000	0.000000	5.877325
466.000000	0.000000	5.952964
467.000000	0.000000	6.028482
468.000000	0.000000	6.095589
469.000000	0.000000	6.164329
470.000000	0.000000	6.234166
471.000000	0.000000	6.306703
472.000000	0.000000	6.379644
473.000000	0.000000	6.452961
474.000000	0.000000	6.528713
475.000000	0.000000	6.605349
476.000000	0.000000	6.675291
477.000000	0.000000	6.739007
478.000000	0.000000	6.806831
479.000000	0.000000	6.872173
480.000000	0.000000	6.957445
481.000000	0.000000	7.024189
482.000000	0.000000	7.083618
483.000000	0.000000	7.128590
484.000000	0.000000	7.148589
485.000000	0.000000	7.166598
486.000000	0.000000	7.181331
487.000000	0.000000	7.196660
488.000000	0.000000	7.220171
489.000000	0.000000	7.241819
490.000000	0.000000	7.251833
491.000000	0.000000	7.266570
492.000000	0.000000	7.297683
493.000000	0.000000	7.320650
494.000000	0.000000	7.335734
495.000000	0.000000	7.361158
496.000000	0.000000	7.389972
497.000000	0.000000	7.422767
498.000000	0.000000	7.458228
499.000000	0.000000	7.495854
500.000000	0.000000	7.528867
501.000000	0.000000	7.571910
502.000000	0.000000	7.631933
503.000000	0.000000	7.677414
504.000000	0.000000	7.754808
505.000000	0.000000	7.834708
506.000000	0.000000	7.927102
507.000000	0.000000	8.033181
508.000000	0.000000	8.142425
509.000000	0.000000	8.270296
510.000000	0.000000	8.416739
511.000000	0.000000	8.569042
512.000000	0.000000	8.733686
513.000000	0.000000	8.910099
514.000000	0.000000	9.105941
515.000000	0.000000	9.311665
516.000000	0.000000	9.526079
517.000000	0.000000	9.721427
518.000000	0.000000	9.931378
519.000000	0.000000	10.152924
520.000000	0.000000	10.371636
521.000000	0.000000	10.578876
522.000000	0.000000	10.786280
523.000000	0.000000	10.988470
524.000000	0.000000	11.192024
525.000000	0.000000	11.412874
526.000000	0.000000	11.616613
527.000000	0.000000	11.829190
528.000000	0.000000	12.030793
529.000000	0.000000	12.242807
530.000000	0.000000	12.440100
531.000000	0.000000	12.645921
532.000000	0.000000	12.831785
533.000000	0.000000	13.025180
534.000000	0.000000	13.197388
535.000000	0.000000	13.381293
536.000000	0.000000	13.559934
537.000000	0.000000	13.726461
538.000000	0.000000	13.884193
539.000000	0.000000	14.043230
540.000000	0.000000	14.200281
541.000000	0.000000	14.377949
542.000000	0.000000	14.524184
543.000000	0.000000	14.666282
544.000000	0.000000	14.804069
545.000000	0.000000	14.937724
546.000000	0.000000	15.078513
547.000000	0.000000	15.202739
548.000000	0.000000	15.328039
549.000000	0.000000	15.447142
550.000000	0.000000	15.573562
551.000000	0.000000	15.685143
552.000000	0.000000	15.784489
553.000000	0.000000	15.894466
554.000000	0.000000	15.972203
555.000000	0.000000	16.048773
556.000000	0.000000	16.124495
557.000000	0.000000	16.189990
558.000000	0.000000	16.251593
559.000000	0.000000	16.304970
560.000000	0.000000	16.859078
561.000000	0.000000	16.965250
562.000000	0.000000	17.003345
563.000000	0.000000	17.050926
564.000000	0.000000	17.083646
565.000000	0.000000	17.103226
566.000000	0.000000	17.133198
567.000000	0.000000	17.153275
568.000000	0.000000	17.184273
569.000000	0.000000	17.230850
570.000000	0.000000	17.262948
571.000000	0.000000	17.261279
572.000000	0.000000	17.299263
573.000000	0.000000	17.320301
574.000000	0.000000	17.297733
575.000000	0.000000	17.301703
576.000000	0.000000	17.302246
577.000000	0.000000	17.281925
578.000000	0.000000	17.272407
579.000000	0.000000	17.253854
580.000000	0.000000	17.246058
581.000000	0.000000	17.211609
582.000000	0.000000	17.165360
583.000000	0.000000	17.136476
584.000000	0.000000	17.083273
585.000000	0.000000	16.974917
586.000000	0.000000	16.916144
587.000000	0.000000	16.837860
588.000000	0.000000	16.750035
589.000000	0.000000	16.689931
590.000000	0.000000	16.611037
591.000000	0.000000	16.505792
592.000000	0.000000	16.431800
593.000000	0.000000	16.346488
594.000000	0.000000	16.240258
595.000000	0.000000	16.116455
596.000000	0.000000	16.001308
597.000000	0.000000	15.871490
598.000000	0.000000	15.747733
599.000000	0.000000	15.616135
600.000000	0.000000	15.467022
601.000000	0.000000	15.330655
602.000000	0.000000	15.177526
603.000000	0.000000	15.037235
604.000000	0.000000	14.878926
605.000000	0.000000	14.703454
606.000000	0.000000	14.519819
607.000000	0.000000	14.348430
608.000000	0.000000	14.135162
609.000000	0.000000	13.939422
610.000000	0.000000	13.741947
611.000000	0.000000	13.518273
612.000000	0.000000	13.352775
613.000000	0.000000	13.157422
614.000000	0.000000	13.006193
615.000000	0.000000	12.871414
616.000000	0.000000	12.755018
617.000000	0.000000	12.633447
618.000000	0.000000	12.524129
619.000000	0.000000	12.444415
620.000000	0.000000	12.377730
621.000000	0.000000	12.337329
622.000000	0.000000	12.305500
623.000000	0.000000	12.270675
624.000000	0.000000	12.270085
625.000000	0.000000	12.282865
626.000000	0.000000	12.301722
627.000000	0.000000	12.313558
628.000000	0.000000	12.359811
629.000000	0.000000	12.429558
630.000000	0.000000	12.497637
631.000000	0.000000	12.606359
632.000000	0.000000	12.722691
633.000000	0.000000	12.838844
634.000000	0.000000	12.962183
635.000000	0.000000	13.106034
636.000000	0.000000	13.244546
637.000000	0.000000	13.396366
638.000000	0.000000	13.517815
639.000000	0.000000	13.622522
640.000000	0.000000	13.722932
641.000000	0.000000	13.819857
642.000000	0.000000	13.888728
643.000000	0.000000	13.927685
644.000000	0.000000	13.980110
645.000000	0.000000	13.978723
646.000000	0.000000	13.977553
647.000000	0.000000	13.952839
648.000000	0.000000	13.897637
649.000000	0.000000	13.831885
650.000000	0.000000	13.762675
651.000000	0.000000	13.697050
652.000000	0.000000	13.635720
653.000000	0.000000	13.578428
654.000000	0.000000	13.540123
655.000000	0.000000	13.538411
656.000000	0.000000	13.572887
657.000000	0.000000	13.604602
658.000000	0.000000	13.669744
659.000000	0.000000	13.787212
660.000000	0.000000	13.901563
661.000000	0.000000	14.054162
662.000000	0.000000	14.195129
663.000000	0.000000	14.387133
664.000000	0.000000	14.576363
665.000000	0.000000	14.782023
666.000000	0.000000	14.955866
667.000000	0.000000	15.159041
668.000000	0.000000	15.336442
669.000000	0.000000	15.511986
670.000000	0.000000	15.631100
671.000000	0.000000	15.775193
672.000000	0.000000	15.871314
673.000000	0.000000	15.950583
674.000000	0.000000	16.042929
675.000000	0.000000	16.116110
676.000000	0.000000	16.131015
677.000000	0.000000	16.191078
678.000000	0.000000	16.241678
679.000000	0.000000	16.264515
680.000000	0.000000	16.294372
681.000000	0.000000	16.308673
682.000000	0.000000	16.347558
683.000000	0.000000	16.398310
684.000000	0.000000	16.441177
685.000000	0.000000	16.539881
686.000000	0.000000	16.639319
687.000000	0.000000	16.745560
688.000000	0.000000	16.849422
689.000000	0.000000	16.968419
690.000000	0.000000	17.065873
691.000000	0.000000	17.192892
692.000000	0.000000	17.337772
693.000000	0.000000	17.445289
694.000000	0.000000	17.539470
695.000000	0.000000	17.654717
696.000000	0.000000	17.793489
697.000000	0.000000	17.905479
698.000000	0.000000	17.951319
699.000000	0.000000	18.027190
700.000000	0.000000	18.136436
701.000000	0.000000	18.214759
702.000000	0.000000	18.263015
703.000000	0.000000	18.356620
704.000000	0.000000	18.451686
705.000000	0.000000	18.518929
706.000000	0.000000	18.631192
707.000000	0.000000	18.727324
708.000000	0.000000	18.796412
709.000000	0.000000	18.882771
710.000000	0.000000	19.016312
711.000000	0.000000	19.156188
712.000000	0.000000	19.268289
713.000000	0.000000	19.407185
714.000000	0.000000	19.576338
715.000000	0.000000	19.762358
716.000000	0.000000	19.907531
717.000000	0.000000	20.049185
718.000000	0.000000	20.168059
719.000000	0.000000	20.352406
720.000000	0.000000	20.481000
721.000000	0.000000	20.599442
722.000000	0.000000	20.741993
723.000000	0.000000	20.886762
724.000000	0.000000	21.004884
725.000000	0.000000	21.092901
726.000000	0.000000	21.204460
727.000000	0.000000	21.315489
728.000000	0.000000	21.407058
729.000000	0.000000	21.484098
730.000000	0.000000	21.560050
731.000000	0.000000	21.583717
732.000000	0.000000	21.637072
733.000000	0.000000	21.718627
734.000000	0.000000	21.790674
735.000000	0.000000	21.850806
736.000000	0.000000	21.894440
737.000000	0.000000	21.960077
738.000000	0.000000	22.001359
739.000000	0.000000	22.047293
740.000000	0.000000	22.107379
741.000000	0.000000	22.221734
742.000000	0.000000	22.302978
743.000000	0.000000	22.298006
744.000000	0.000000	22.374092
745.000000	0.000000	22.465203
746.000000	0.000000	22.488602
747.000000	0.000000	22.528693
748.000000	0.000000	22.559100
749.000000	0.000000	22.609806
750.000000	0.000000	22.647301
751.000000	0.000000	22.680133
752.000000	0.000000	22.737359
753.000000	0.000000	22.776519
754.000000	0.000000	22.875936
755.000000	0.000000	22.923182
756.000000	0.000000	22.913210
757.000000	0.000000	22.962468
758.000000	0.000000	22.969307
759.000000	0.000000	22.998118
760.000000	0.000000	23.025923
761.000000	0.000000	23.010390
762.000000	0.000000	23.001114
763.000000	0.000000	23.064803
764.000000	0.000000	23.081645
765.000000	0.000000	23.037794
766.000000	0.000000	23.031030
767.000000	0.000000	23.061157
768.000000	0.000000	23.071662
769.000000	0.000000	23.099069
770.000000	0.000000	23.102959
771.000000	0.000000	23.128174
772.000000	0.000000	23.135070
773.000000	0.000000	23.111944
774.000000	0.000000	23.174347
775.000000	0.000000	23.203648
776.000000	0.000000	23.176818
777.000000	0.000000	23.201623
778.000000	0.000000	23.225734
779.000000	0.000000	23.244551
780.000000	0.000000	23.247110
781.000000	0.000000	23.242405
782.000000	0.000000	23.263888
783.000000	0.000000	23.238130
784.000000	0.000000	23.214759
785.000000	0.000000	23.202552
786.000000	0.000000	23.219792
787.000000	0.000000	23.197595
788.000000	0.000000	23.255117
789.000000	0.000000	23.298330
790.000000	0.000000	23.265543
791.000000	0.000000	23.200957
792.000000	0.000000	23.127789
793.000000	0.000000	23.147940
794.000000	0.000000	23.170788
795.000000	0.000000	23.077136
796.000000	0.000000	23.006969
797.000000	0.000000	22.934671
798.000000	0.000000	22.894202
799.000000	0.000000	22.805394
800.000000	0.000000	22.701996
801.000000	0.000000	22.658455
802.000000	0.000000	22.596405
803.000000	0.000000	22.507179
804.000000	0.000000	22.438285
805.000000	0.000000	22.417236
806.000000	0.000000	22.321284
807.000000	0.000000	22.207178
808.000000	0.000000	22.038701
809.000000	0.000000	21.995476
810.000000	0.000000	21.893516
811.000000	0.000000	21.817493
812.000000	0.000000	21.677072
813.000000	0.000000	21.655278
814.000000	0.000000	21.571766
815.000000	0.000000	21.461879
816.000000	0.000000	21.384957
817.000000	0.000000	21.270748
818.000000	0.000000	21.218855
819.000000	0.000000	21.098637
820.000000	0.000000	21.045670
821.000000	0.000000	20.987079
822.000000	0.000000	20.898129
823.000000	0.000000	20.755840
824.000000	0.000000	20.702925
825.000000	0.000000	20.603449
826.000000	0.000000	20.502275
827.000000	0.000000	20.429323
828.000000	0.000000	20.376173
829.000000	0.000000	20.331975
830.000000	0.000000	20.214440
831.000000	0.000000	20.213304
832.000000	0.000000	20.149878
833.000000	0.000000	20.011478
834.000000	0.000000	19.892583
835.000000	0.000000	19.765443
836.000000	0.000000	19.708967
837.000000	0.000000	19.779025
838.000000	0.000000	19.608365
839.000000	0.000000	19.496799
840.000000	0.000000	19.424767
841.000000	0.000000	19.369793
842.000000	0.000000	19.365203
843.000000	0.000000	19.429572
844.000000	0.000000	19.227296
845.000000	0.000000	19.206755
846.000000	0.000000	19.179509
847.000000	0.000000	19.045008
848.000000	0.000000	19.034966
849.000000	0.000000	18.963435
850.000000	0.000000	19.031920
851.000000	0.000000	19.023558
852.000000	0.000000	19.109044
853.000000	0.000000	19.173593
854.000000	0.000000	19.125911
855.000000	0.000000	19.108628
856.000000	0.000000	19.026900
857.000000	0.000000	19.021844
858.000000	0.000000	19.051878
859.000000	0.000000	19.082820
860.000000	0.000000	19.140794
861.000000	0.000000	19.203057
862.000000	0.000000	19.212675
863.000000	0.000000	19.141615
864.000000	0.000000	19.086727
865.000000	0.000000	19.004763
866.000000	0.000000	18.910294
867.000000	0.000000	18.824345
868.000000	0.000000	18.778829
869.000000	0.000000	18.721257
870.000000	0.000000	18.675311
871.000000	0.000000	18.623955
872.000000	0.000000	18.577445
873.000000	0.000000	18.514539
874.000000	0.000000	18.461615
875.000000	0.000000	18.397543
876.000000	0.000000	18.348342
877.000000	0.000000	18.277987
878.000000	0.000000	18.207445
879.000000	0.000000	18.150036
880.000000	0.000000	18.124634
881.000000	0.000000	18.086164
882.000000	0.000000	18.054048
883.000000	0.000000	18.023698
884.000000	0.000000	17.949185
885.000000	0.000000	17.917691
886.000000	0.000000	17.861161
887.000000	0.000000	17.830020
888.000000	0.000000	17.791989
889.000000	0.000000	17.768047
890.000000	0.000000	17.743775
891.000000	0.000000	17.719491
892.000000	0.000000	17.684959
893.000000	0.000000	17.683509
894.000000	0.000000	17.672503
895.000000	0.000000	17.646327
896.000000	0.000000	17.631518
897.000000	0.000000	17.613379
898.000000	0.000000	17.624826
899.000000	0.000000	17.599716
900.000000	0.000000	17.584886
901.000000	0.000000	17.589743
902.000000	0.000000	17.592237
903.000000	0.000000	17.593680
904.000000	0.000000	17.606434
905.000000	0.000000	17.606309
906.000000	0.000000	17.602108
907.000000	0.000000	17.604884
908.000000	0.000000	17.604583
909.000000	0.000000	17.628555
910.000000	0.000000	17.630919
911.000000	0.000000	17.633555
912.000000	0.000000	17.643766
913.000000	0.000000	17.651073
914.000000	0.000000	17.643691
915.000000	0.000000	17.663135
916.000000	0.000000	17.668419
917.000000	0.000000	17.664256
918.000000	0.000000	17.683803
919.000000	0.000000	17.686826
920.000000	0.000000	17.691807
921.000000	0.000000	17.701502
922.000000	0.000000	17.700893
923.000000	0.000000	17.694618
924.000000	0.000000	17.689392
925.000000	0.000000	17.714255
926.000000	0.000000	17.709693
927.000000	0.000000	17.706121
928.000000	0.000000	17.722495
929.000000	0.000000	17.720414
930.000000	0.000000	17.729079
931.000000	0.000000	17.723857
932.000000	0.000000	17.724555
933.000000	0.000000	17.721761
934.000000	0.000000	17.741145
935.000000	0.000000	17.730450
936.000000	0.000000	17.741849
937.000000	0.000000	17.735923
938.000000	0.000000	17.711296
939.000000	0.000000	17.737820
940.000000	0.000000	17.746344
941.000000	0.000000	17.756182
942.000000	0.000000	17.749591
943.000000	0.000000	17.790724
944.000000	0.000000	17.792309
945.000000	0.000000	17.803548
946.000000	0.000000	17.824074
947.000000	0.000000	17.838018
948.000000	0.000000	17.846335
949.000000	0.000000	17.858438
950.000000	0.000000	17.890387
951.000000	0.000000	17.888174
952.000000	0.000000	17.911064
953.000000	0.000000	17.918949
954.000000	0.000000	17.920124
955.000000	0.000000	17.939037
956.000000	0.000000	17.944895
957.000000	0.000000	17.955795
958.000000	0.000000	17.962503
959.000000	0.000000	17.972417
960.000000	0.000000	17.972683
961.000000	0.000000	17.986689
962.000000	0.000000	17.991597
963.000000	0.000000	17.989709
964.000000	0.000000	17.990951
965.000000	0.000000	18.002900
966.000000	0.000000	18.005990
967.000000	0.000000	18.014471
968.000000	0.000000	18.023104
969.000000	0.000000	18.025068
970.000000	0.000000	18.035565
971.000000	0.000000	18.036384
972.000000	0.000000	18.048741
973.000000	0.000000	18.052581
974.000000	0.000000	18.056056
975.000000	0.000000	18.054537
976.000000	0.000000	18.064941
977.000000	0.000000	18.080083
978.000000	0.000000	18.079874
979.000000	0.000000	18.084211
980.000000	0.000000	18.094007
981.000000	0.000000	18.101801
982.000000	0.000000	18.104164
983.000000	0.000000	18.094759
984.000000	0.000000	18.098245
985.000000	0.000000	18.120971
986.000000	0.000000	18.124630
987.000000	0.000000	18.130249
988.000000	0.000000	18.144080
989.000000	0.000000	18.154666
990.000000	0.000000	18.168319
991.000000	0.000000	18.174224
992.000000	0.000000	18.187107
993.000000	0.000000	18.194655
994.000000	0.000000	18.195976
995.000000	0.000000	18.210705
996.000000	0.000000	18.216112
997.000000	0.000000	18.228633
998.000000	0.000000	18.239140
999.000000	0.000000	18.257976
1000.000000	0.000000	18.266597
1001.000000	0.000000	18.275061
1002.000000	0.000000	18.271430
1003.000000	0.000000	18.270780
1004.000000	0.000000	18.290963
1005.000000	0.000000	18.307247
1006.000000	0.000000	18.311579
1007.000000	0.000000	18.313711
1008.000000	0.000000	18.327038
1009.000000	0.000000	18.338306
1010.000000	0.000000	18.351266
1011.000000	0.000000	18.362945
1012.000000	0.000000	18.369612
1013.000000	0.000000	18.377673
1014.000000	0.000000	18.389995
1015.000000	0.000000	18.398738
1016.000000	0.000000	18.402980
1017.000000	0.000000	18.413874
1018.000000	0.000000	18.427173
1019.000000	0.000000	18.443818
1020.000000	0.000000	18.452878
1021.000000	0.000000	18.468015
1022.000000	0.000000	18.482819
1023.000000	0.000000	18.485372
1024.000000	0.000000	18.500200
1025.000000	0.000000	18.520453
1026.000000	0.000000	18.533573
1027.000000	0.000000	18.543862
1028.000000	0.000000	18.558483
1029.000000	0.000000	18.561285
1030.000000	0.000000	18.571323
1031.000000	0.000000	18.592301
1032.000000	0.000000	18.604163
1033.000000	0.000000	18.602707
1034.000000	0.000000	18.614951
1035.000000	0.000000	18.636249
1036.000000	0.000000	18.652294
1037.000000	0.000000	18.672922
1038.000000	0.000000	18.691734
1039.000000	0.000000	18.707023
1040.000000	0.000000	18.717654
1041.000000	0.000000	18.730316
1042.000000	0.000000	18.753042
1043.000000	0.000000	18.764851
1044.000000	0.000000	18.775008
1045.000000	0.000000	18.798085
1046.000000	0.000000	18.810154
1047.000000	0.000000	18.826750
1048.000000	0.000000	18.836233
1049.000000	0.000000	18.855492
1050.000000	0.000000	18.873727
1051.000000	0.000000	18.885823
1052.000000	0.000000	18.897368
1053.000000	0.000000	18.908313
1054.000000	0.000000	18.928092
1055.000000	0.000000	18.947093
1056.000000	0.000000	18.962741
1057.000000	0.000000	18.979502
1058.000000	0.000000	19.000791
1059.000000	0.000000	19.014951
1060.000000	0.000000	19.032126
1061.000000	0.000000	19.049780
1062.000000	0.000000	19.077417
1063.000000	0.000000	19.099027
1064.000000	0.000000	19.115420
1065.000000	0.000000	19.130177
1066.000000	0.000000	19.141020
1067.000000	0.000000	19.160481
1068.000000	0.000000	19.179118
1069.000000	0.000000	19.193094
1070.000000	0.000000	19.209752
1071.000000	0.000000	19.224226
1072.000000	0.000000	19.236557
1073.000000	0.000000	19.247876
1074.000000	0.000000	19.263424
1075.000000	0.000000	19.265867
1076.000000	0.000000	19.283281
1077.000000	0.000000	19.300041
1078.000000	0.000000	19.305092
1079.000000	0.000000	19.313627
1080.000000	0.000000	19.329827
1081.000000	0.000000	19.349458
1082.000000	0.000000	19.359715
1083.000000	0.000000	19.372336
1084.000000	0.000000	19.390927
1085.000000	0.000000	19.405651
1086.000000	0.000000	19.410841
1087.000000	0.000000	19.420367
1088.000000	0.000000	19.435120
1089.000000	0.000000	19.451480
1090.000000	0.000000	19.467289
1091.000000	0.000000	19.483904
1092.000000	0.000000	19.492781
1093.000000	0.000000	19.502954
1094.000000	0.000000	19.514376
1095.000000	0.000000	19.528771
1096.000000	0.000000	19.543731
1097.000000	0.000000	19.565529
1098.000000	0.000000	19.579470
1099.000000	0.000000	19.590918
1100.000000	0.000000	19.595773
1101.000000	0.000000	19.605700
1102.000000	0.000000	19.619715
1103.000000	0.000000	19.628076
1104.000000	0.000000	19.646916
1105.000000	0.000000	19.659813
1106.000000	0.000000	19.661508
1107.000000	0.000000	19.681133
1108.000000	0.000000	19.689852
1109.000000	0.000000	19.697110
1110.000000	0.000000	19.700011
1111.000000	0.000000	19.723392
1112.000000	0.000000	19.727086
1113.000000	0.000000	19.730860
1114.000000	0.000000	19.743750
1115.000000	0.000000	19.755068
1116.000000	0.000000	19.759236
1117.000000	0.000000	19.761329
1118.000000	0.000000	19.771942
1119.000000	0.000000	19.761398
1120.000000	0.000000	19.766965
1121.000000	0.000000	19.764647
1122.000000	0.000000	19.773427
1123.000000	0.000000	19.766753
1124.000000	0.000000	19.774934
1125.000000	0.000000	19.756207
1126.000000	0.000000	19.736479
1127.000000	0.000000	19.717055
1128.000000	0.000000	19.703200
1129.000000	0.000000	19.696550
1130.000000	0.000000	19.674347
1131.000000	0.000000	19.650000
1132.000000	0.000000	19.623329
1133.000000	0.000000	19.619429
1134.000000	0.000000	19.593602
1135.000000	0.000000	19.546712
1136.000000	0.000000	19.501781
1137.000000	0.000000	19.449217
1138.000000	0.000000	19.427726
1139.000000	0.000000	19.405911
1140.000000	0.000000	19.359661
1141.000000	0.000000	19.332809
1142.000000	0.000000	19.304188
1143.000000	0.000000	19.274040
1144.000000	0.000000	19.270456
1145.000000	0.000000	19.231269
1146.000000	0.000000	19.209424
1147.000000	0.000000	19.193130
1148.000000	0.000000	19.152739
1149.000000	0.000000	19.137745
1150.000000	0.000000	19.113525
1151.000000	0.000000	19.094342
1152.000000	0.000000	19.070445
1153.000000	0.000000	19.058904
1154.000000	0.000000	18.995889
1155.000000	0.000000	18.963014
1156.000000	0.000000	18.945676
1157.000000	0.000000	18.907255
1158.000000	0.000000	18.869716
1159.000000	0.000000	18.846690
1160.000000	0.000000	18.787711
1161.000000	0.000000	18.750078
1162.000000	0.000000	18.729036
1163.000000	0.000000	18.671464
1164.000000	0.000000	18.654639
1165.000000	0.000000	18.614377
1166.000000	0.000000	18.582992
1167.000000	0.000000	18.550122
1168.000000	0.000000	18.515208
1169.000000	0.000000	18.477174
1170.000000	0.000000	18.455205
1171.000000	0.000000	18.435102
1172.000000	0.000000	18.398031
1173.000000	0.000000	18.380663
1174.000000	0.000000	18.355667
1175.000000	0.000000	18.336842
1176.000000	0.000000	18.325381
1177.000000	0.000000	18.296014
1178.000000	0.000000	18.276143
1179.000000	0.000000	18.260970
1180.000000	0.000000	18.241402
1181.000000	0.000000	18.209720
1182.000000	0.000000	18.203088
1183.000000	0.000000	18.191914
1184.000000	0.000000	18.190154
1185.000000	0.000000	18.183187
1186.000000	0.000000	18.180775
1187.000000	0.000000	18.209741
1188.000000	0.000000	18.203292
1189.000000	0.000000	18.225369
1190.000000	0.000000	18.253605
1191.000000	0.000000	18.281169
1192.000000	0.000000	18.304384
1193.000000	0.000000	18.329585
1194.000000	0.000000	18.367838
1195.000000	0.000000	18.387479
1196.000000	0.000000	18.425525
1197.000000	0.000000	18.461148
1198.000000	0.000000	18.485480
1199.000000	0.000000	18.521079
1200.000000	0.000000	18.535114
1201.000000	0.000000	18.560301
1202.000000	0.000000	18.590730
1203.000000	0.000000	18.625822
1204.000000	0.000000	18.652060
1205.000000	0.000000	18.668627
1206.000000	0.000000	18.697826
1207.000000	0.000000	18.722834
1208.000000	0.000000	18.750669
1209.000000	0.000000	18.777948
1210.000000	0.000000	18.799546
1211.000000	0.000000	18.805870
1212.000000	0.000000	18.837905
1213.000000	0.000000	18.852330
1214.000000	0.000000	18.869465
1215.000000	0.000000	18.885027
1216.000000	0.000000	18.885120
1217.000000	0.000000	18.903201
1218.000000	0.000000	18.908270
1219.000000	0.000000	18.917506
1220.000000	0.000000	18.941547
1221.000000	0.000000	18.942881
1222.000000	0.000000	18.955477
1223.000000	0.000000	18.975117
1224.000000	0.000000	18.990300
1225.000000	0.000000	19.008682
1226.000000	0.000000	19.019857
1227.000000	0.000000	19.021003
1228.000000	0.000000	19.026967
1229.000000	0.000000	19.038836
1230.000000	0.000000	19.059837
1231.000000	0.000000	19.070493
1232.000000	0.000000	19.078205
1233.000000	0.000000	19.088907
1234.000000	0.000000	19.094528
1235.000000	0.000000	19.105212
1236.000000	0.000000	19.113752
1237.000000	0.000000	19.124671
1238.000000	0.000000	19.132937
1239.000000	0.000000	19.147473
1240.000000	0.000000	19.158376
1241.000000	0.000000	19.164103
1242.000000	0.000000	19.177656
1243.000000	0.000000	19.187743
1244.000000	0.000000	19.201664
1245.000000	0.000000	19.223239
1246.000000	0.000000	19.229048
1247.000000	0.000000	19.245373
1248.000000	0.000000	19.264045
1249.000000	0.000000	19.286142
1250.000000	0.000000	19.290478
1251.000000	0.000000	19.305487
1252.000000	0.000000	19.311725
1253.000000	0.000000	19.338022
1254.000000	0.000000	19.353547
1255.000000	0.000000	19.360230
1256.000000	0.000000	19.357277
1257.000000	0.000000	19.365108
1258.000000	0.000000	19.377914
1259.000000	0.000000	19.378581
1260.000000	0.000000	19.371353
1261.000000	0.000000	19.386982
1262.000000	0.000000	19.391928
1263.000000	0.000000	19.383741
1264.000000	0.000000	19.390745
1265.000000	0.000000	19.397106
1266.000000	0.000000	19.399478
1267.000000	0.000000	19.406881
1268.000000	0.000000	19.397526
1269.000000	0.000000	19.390405
1270.000000	0.000000	19.399346
1271.000000	0.000000	19.401074
1272.000000	0.000000	19.406780
1273.000000	0.000000	19.417175
1274.000000	0.000000	19.425984
1275.000000	0.000000	19.444326
1276.000000	0.000000	19.468671
1277.000000	0.000000	19.476872
1278.000000	0.000000	19.476149
1279.000000	0.000000	19.483327
1280.000000	0.000000	19.503640
1281.000000	0.000000	19.521207
1282.000000	0.000000	19.530506
1283.000000	0.000000	19.533995
1284.000000	0.000000	19.551161
1285.000000	0.000000	19.574090
1286.000000	0.000000	19.579367
1287.000000	0.000000	19.584974
1288.000000	0.000000	19.588029
1289.000000	0.000000	19.601446
1290.000000	0.000000	19.607377
1291.000000	0.000000	19.604821
1292.000000	0.000000	19.613380
1293.000000	0.000000	19.610256
1294.000000	0.000000	19.599893
1295.000000	0.000000	19.597901
1296.000000	0.000000	19.599776
1297.000000	0.000000	19.599479
1298.000000	0.000000	19.597282
1299.000000	0.000000	19.592165
1300.000000	0.000000	19.574072
1301.000000	0.000000	19.555434
1302.000000	0.000000	19.545670
1303.000000	0.000000	19.542594
1304.000000	0.000000	19.534899
1305.000000	0.000000	19.519312
1306.000000	0.000000	19.503489
1307.000000	0.000000	19.490744
1308.000000	0.000000	19.475822
1309.000000	0.000000	19.453665
1310.000000	0.000000	19.435052
1311.000000	0.000000	19.415847
1312.000000	0.000000	19.398088
1313.000000	0.000000	19.379737
1314.000000	0.000000	19.356795
1315.000000	0.000000	19.329407
1316.000000	0.000000	19.307214
1317.000000	0.000000	19.297307
1318.000000	0.000000	19.280027
1319.000000	0.000000	19.257478
1320.000000	0.000000	19.228795
1321.000000	0.000000	19.208030
1322.000000	0.000000	19.189089
1323.000000	0.000000	19.156339
1324.000000	0.000000	19.125434
1325.000000	0.000000	19.103428
1326.000000	0.000000	19.080943
1327.000000	0.000000	19.061258
1328.000000	0.000000	19.032105
1329.000000	0.000000	18.997309
1330.000000	0.000000	18.958254
1331.000000	0.000000	18.927401
1332.000000	0.000000	18.889550
1333.000000	0.000000	18.845603
1334.000000	0.000000	18.806210
1335.000000	0.000000	18.775937
1336.000000	0.000000	18.728120
1337.000000	0.000000	18.678556
1338.000000	0.000000	18.628104
1339.000000	0.000000	18.581968
1340.000000	0.000000	18.528340
1341.000000	0.000000	18.477716
1342.000000	0.000000	18.419219
1343.000000	0.000000	18.361911
1344.000000	0.000000	18.301758
1345.000000	0.000000	18.230361
1346.000000	0.000000	18.176016
1347.000000	0.000000	18.135240
1348.000000	0.000000	18.066512
1349.000000	0.000000	17.990816
1350.000000	0.000000	17.939938
1351.000000	0.000000	17.887710
1352.000000	0.000000	17.833845
1353.000000	0.000000	17.783277
1354.000000	0.000000	17.752431
1355.000000	0.000000	17.699671
1356.000000	0.000000	17.650967
1357.000000	0.000000	17.619981
1358.000000	0.000000	17.588384
1359.000000	0.000000	17.568480
1360.000000	0.000000	17.571394
1361.000000	0.000000	17.561502
1362.000000	0.000000	17.506759
1363.000000	0.000000	17.423875
1364.000000	0.000000	17.398529
1365.000000	0.000000	17.352567
1366.000000	0.000000	17.262496
1367.000000	0.000000	17.190181
1368.000000	0.000000	17.137886
1369.000000	0.000000	17.029572
1370.000000	0.000000	16.927814
1371.000000	0.000000	16.809872
1372.000000	0.000000	16.650989
1373.000000	0.000000	16.466750
1374.000000	0.000000	16.272299
1375.000000	0.000000	16.098983
1376.000000	0.000000	15.899903
1377.000000	0.000000	15.714715
1378.000000	0.000000	15.547584
1379.000000	0.000000	15.402153
1380.000000	0.000000	15.238783
1381.000000	0.000000	15.163821
1382.000000	0.000000	15.060534
1383.000000	0.000000	14.942001
1384.000000	0.000000	14.866362
1385.000000	0.000000	14.755673
1386.000000	0.000000	14.696854
1387.000000	0.000000	14.645090
1388.000000	0.000000	14.622924
1389.000000	0.000000	14.509308
1390.000000	0.000000	14.464567
1391.000000	0.000000	14.426392
1392.000000	0.000000	14.386285
1393.000000	0.000000	14.304434
1394.000000	0.000000	14.248866
1395.000000	0.000000	14.223958
1396.000000	0.000000	14.119349
1397.000000	0.000000	13.992113
1398.000000	0.000000	13.877163
1399.000000	0.000000	13.863879
1400.000000	0.000000	13.791025
1401.000000	0.000000	13.674670
1402.000000	0.000000	13.492993
1403.000000	0.000000	13.386111
1404.000000	0.000000	13.300750
1405.000000	0.000000	13.191866
1406.000000	0.000000	13.063585
1407.000000	0.000000	12.945337
1408.000000	0.000000	12.838464
1409.000000	0.000000	12.725109
1410.000000	0.000000	12.587672
1411.000000	0.000000	12.479084
1412.000000	0.000000	12.382491
1413.000000	0.000000	12.325551
1414.000000	0.000000	12.243858
1415.000000	0.000000	12.113992
1416.000000	0.000000	12.010339
1417.000000	0.000000	11.950895
1418.000000	0.000000	11.885386
1419.000000	0.000000	11.839441
1420.000000	0.000000	11.742364
1421.000000	0.000000	11.651936
1422.000000	0.000000	11.605184
1423.000000	0.000000	11.558844
1424.000000	0.000000	11.508721
1425.000000	0.000000	11.451897
1426.000000	0.000000	11.388321
1427.000000	0.000000	11.353472
1428.000000	0.000000	11.318202
1429.000000	0.000000	11.263632
1430.000000	0.000000	11.214527
1431.000000	0.000000	11.204231
1432.000000	0.000000	11.186087
1433.000000	0.000000	11.132080
1434.000000	0.000000	11.128001
1435.000000	0.000000	11.072340
1436.000000	0.000000	11.048477
1437.000000	0.000000	11.019883
1438.000000	0.000000	11.003968
1439.000000	0.000000	10.989249
1440.000000	0.000000	10.959934
1441.000000	0.000000	10.930828
1442.000000	0.000000	10.910128
1443.000000	0.000000	10.883575
1444.000000	0.000000	10.859869
1445.000000	0.000000	10.845356
1446.000000	0.000000	10.844325
1447.000000	0.000000	10.789575
1448.000000	0.000000	10.765620
1449.000000	0.000000	10.762278
1450.000000	0.000000	10.747771
1451.000000	0.000000	10.723982
1452.000000	0.000000	10.685931
1453.000000	0.000000	10.646285
1454.000000	0.000000	10.634759
1455.000000	0.000000	10.610439
1456.000000	0.000000	10.583788
1457.000000	0.000000	10.562971
1458.000000	0.000000	10.512245
1459.000000	0.000000	10.489192
1460.000000	0.000000	10.473836
1461.000000	0.000000	10.437413
1462.000000	0.000000	10.426550
1463.000000	0.000000	10.398830
1464.000000	0.000000	10.371219
1465.000000	0.000000	10.358378
1466.000000	0.000000	10.338509
1467.000000	0.000000	10.318547
1468.000000	0.000000	10.291572
1469.000000	0.000000	10.272810
1470.000000	0.000000	10.275901
1471.000000	0.000000	10.259996
1472.000000	0.000000	10.236777
1473.000000	0.000000	10.213431
1474.000000	0.000000	10.201762
1475.000000	0.000000	10.172115
1476.000000	0.000000	10.175903
1477.000000	0.000000	10.171569
1478.000000	0.000000	10.146853
1479.000000	0.000000	10.143912
1480.000000	0.000000	10.143834
1481.000000	0.000000	10.151554
1482.000000	0.000000	10.146576
1483.000000	0.000000	10.138138
1484.000000	0.000000	10.137135
1485.000000	0.000000	10.138615
1486.000000	0.000000	10.130213
1487.000000	0.000000	10.135743
1488.000000	0.000000	10.126667
1489.000000	0.000000	10.124395
1490.000000	0.000000	10.132965
1491.000000	0.000000	10.137610
1492.000000	0.000000	10.143492
1493.000000	0.000000	10.155416
1494.000000	0.000000	10.161182
1495.000000	0.000000	10.163493
1496.000000	0.000000	10.181814
1497.000000	0.000000	10.201189
1498.000000	0.000000	10.219615
1499.000000	0.000000	10.240438
1500.000000	0.000000	10.269903
1501.000000	0.000000	10.290428
1502.000000	0.000000	10.316271
1503.000000	0.000000	10.343342
1504.000000	0.000000	10.361155
1505.000000	0.000000	10.395465
1506.000000	0.000000	10.425169
1507.000000	0.000000	10.444368
1508.000000	0.000000	10.468459
1509.000000	0.000000	10.498627
1510.000000	0.000000	10.532659
1511.000000	0.000000	10.564197
1512.000000	0.000000	10.592453
1513.000000	0.000000	10.615470
1514.000000	0.000000	10.653943
1515.000000	0.000000	10.685363
1516.000000	0.000000	10.710494
1517.000000	0.000000	10.741553
1518.000000	0.000000	10.768749
1519.000000	0.000000	10.792175
1520.000000	0.000000	10.818175
1521.000000	0.000000	10.847450
1522.000000	0.000000	10.877389
1523.000000	0.000000	10.902323
1524.000000	0.000000	10.927741
1525.000000	0.000000	10.954244
1526.000000	0.000000	10.977029
1527.000000	0.000000	10.994492
1528.000000	0.000000	11.022637
1529.000000	0.000000	11.042431
1530.000000	0.000000	11.073744
1531.000000	0.000000	11.096201
1532.000000	0.000000	11.106991
1533.000000	0.000000	11.119176
1534.000000	0.000000	11.132284
1535.000000	0.000000	11.147713
1536.000000	0.000000	11.177440
1537.000000	0.000000	11.201952
1538.000000	0.000000	11.212410
1539.000000	0.000000	11.220441
1540.000000	0.000000	11.223738
1541.000000	0.000000	11.241271
1542.000000	0.000000	11.264119
1543.000000	0.000000	11.279238
1544.000000	0.000000	11.298393
1545.000000	0.000000	11.319038
1546.000000	0.000000	11.337386
1547.000000	0.000000	11.364388
1548.000000	0.000000	11.387701
1549.000000	0.000000	11.411133
1550.000000	0.000000	11.434140
1551.000000	0.000000	11.456570
1552.000000	0.000000	11.473266
1553.000000	0.000000	11.497702
1554.000000	0.000000	11.509900
1555.000000	0.000000	11.521606
1556.000000	0.000000	11.531716
1557.000000	0.000000	11.543952
1558.000000	0.000000	11.558349
1559.000000	0.000000	11.563164
1560.000000	0.000000	11.567574
1561.000000	0.000000	11.574178
1562.000000	0.000000	11.575917
1563.000000	0.000000	11.568321
1564.000000	0.000000	11.562290
1565.000000	0.000000	11.564618
1566.000000	0.000000	11.558495
1567.000000	0.000000	11.550406
1568.000000	0.000000	11.552460
1569.000000	0.000000	11.543833
1570.000000	0.000000	11.527024
1571.000000	0.000000	11.525299
1572.000000	0.000000	11.534424
1573.000000	0.000000	11.544693
1574.000000	0.000000	11.551505
1575.000000	0.000000	11.555715
1576.000000	0.000000	11.562418
1577.000000	0.000000	11.560417
1578.000000	0.000000	11.566499
1579.000000	0.000000	11.580500
1580.000000	0.000000	11.579926
1581.000000	0.000000	11.591617
1582.000000	0.000000	11.616160
1583.000000	0.000000	11.629515
1584.000000	0.000000	11.652113
1585.000000	0.000000	11.670845
1586.000000	0.000000	11.687434
1587.000000	0.000000	11.712155
1588.000000	0.000000	11.722522
1589.000000	0.000000	11.732582
1590.000000	0.000000	11.749121
1591.000000	0.000000	11.785070
1592.000000	0.000000	11.816211
1593.000000	0.000000	11.830122
1594.000000	0.000000	11.841121
1595.000000	0.000000	11.867595
1596.000000	0.000000	11.901182
1597.000000	0.000000	11.932563
1598.000000	0.000000	11.952564
1599.000000	0.000000	11.971432
1600.000000	0.000000	12.001477
1601.000000	0.000000	12.037908
1602.000000	0.000000	12.074885
1603.000000	0.000000	12.104296
1604.000000	0.000000	12.140891
1605.000000	0.000000	12.168528
1606.000000	0.000000	12.199520
1607.000000	0.000000	12.232830
1608.000000	0.000000	12.256530
1609.000000	0.000000	12.284394
1610.000000	0.000000	12.303864
1611.000000	0.000000	12.326696
1612.000000	0.000000	12.346724
1613.000000	0.000000	12.382599
1614.000000	0.000000	12.396782
1615.000000	0.000000	12.418807
1616.000000	0.000000	12.434111
1617.000000	0.000000	12.456800
1618.000000	0.000000	12.476303
1619.000000	0.000000	12.490365
1620.000000	0.000000	12.512670
1621.000000	0.000000	12.532740
1622.000000	0.000000	12.551013
1623.000000	0.000000	12.580822
1624.000000	0.000000	12.598032
1625.000000	0.000000	12.602582
1626.000000	0.000000	12.633078
1627.000000	0.000000	12.660931
1628.000000	0.000000	12.676777
1629.000000	0.000000	12.693359
1630.000000	0.000000	12.705205
1631.000000	0.000000	12.722879
1632.000000	0.000000	12.736050
1633.000000	0.000000	12.750245
1634.000000	0.000000	12.767559
1635.000000	0.000000	12.783724
1636.000000	0.000000	12.789872
1637.000000	0.000000	12.796164
1638.000000	0.000000	12.811491
1639.000000	0.000000	12.819375
1640.000000	0.000000	12.814228
1641.000000	0.000000	12.826418
1642.000000	0.000000	12.819849
1643.000000	0.000000	12.827273
1644.000000	0.000000	12.831991
1645.000000	0.000000	12.839022
1646.000000	0.000000	12.831917
1647.000000	0.000000	12.822520
1648.000000	0.000000	12.829929
1649.000000	0.000000	12.830801
1650.000000	0.000000	12.823666
1651.000000	0.000000	12.806533
1652.000000	0.000000	12.794088
1653.000000	0.000000	12.786774
1654.000000	0.000000	12.766009
1655.000000	0.000000	12.744822
1656.000000	0.000000	12.724006
1657.000000	0.000000	12.697419
1658.000000	0.000000	12.664519
1659.000000	0.000000	12.634033
1660.000000	0.000000	12.612072
1661.000000	0.000000	12.554585
1662.000000	0.000000	12.515916
1663.000000	0.000000	12.454637
1664.000000	0.000000	12.412383
1665.000000	0.000000	12.365631
1666.000000	0.000000	12.297057
1667.000000	0.000000	12.248126
1668.000000	0.000000	12.230073
1669.000000	0.000000	12.181873
1670.000000	0.000000	12.122751
1671.000000	0.000000	12.052997
1672.000000	0.000000	12.002593
1673.000000	0.000000	11.939413
1674.000000	0.000000	11.868861
1675.000000	0.000000	11.818696
1676.000000	0.000000	11.751323
1677.000000	0.000000	11.696274
1678.000000	0.000000	11.635589
1679.000000	0.000000	11.556658
1680.000000	0.000000	11.491217
1681.000000	0.000000	11.413187
1682.000000	0.000000	11.340016
1683.000000	0.000000	11.273003
1684.000000	0.000000	11.195152
1685.000000	0.000000	11.160674
1686.000000	0.000000	11.121347
1687.000000	0.000000	11.097717
1688.000000	0.000000	11.086448
1689.000000	0.000000	11.082803
1690.000000	0.000000	11.117444
1691.000000	0.000000	11.129538
1692.000000	0.000000	11.159956
1693.000000	0.000000	11.176161
1694.000000	0.000000	11.210137
1695.000000	0.000000	11.208942
1696.000000	0.000000	11.211296
1697.000000	0.000000	11.231110
1698.000000	0.000000	11.228047
1699.000000	0.000000	11.230351
1700.000000	0.000000	11.236798
1701.000000	0.000000	11.225838
1702.000000	0.000000	11.232578
1703.000000	0.000000	11.238727
1704.000000	0.000000	11.213723
1705.000000	0.000000	11.213009
1706.000000	0.000000	11.195176
1707.000000	0.000000	11.167449
1708.000000	0.000000	11.148964
1709.000000	0.000000	11.112752
1710.000000	0.000000	11.093091
1711.000000	0.000000	11.049326
1712.000000	0.000000	11.007685
1713.000000	0.000000	10.959903
1714.000000	0.000000	10.903453
1715.000000	0.000000	10.844565
1716.000000	0.000000	10.781217
1717.000000	0.000000	10.720138
1718.000000	0.000000	10.645878
1719.000000	0.000000	10.619010
1720.000000	0.000000	10.557504
1721.000000	0.000000	10.531695
1722.000000	0.000000	10.517330
1723.000000	0.000000	10.501665
1724.000000	0.000000	10.496863
1725.000000	0.000000	10.507073
1726.000000	0.000000	10.528632
1727.000000	0.000000	10.551478
1728.000000	0.000000	10.555491
1729.000000	0.000000	10.573129
1730.000000	0.000000	10.585931
1731.000000	0.000000	10.608934
1732.000000	0.000000	10.621730
1733.000000	0.000000	10.629760
1734.000000	0.000000	10.662276
1735.000000	0.000000	10.679951
1736.000000	0.000000	10.693000
1737.000000	0.000000	10.717984
1738.000000	0.000000	10.742857
1739.000000	0.000000	10.775445
1740.000000	0.000000	10.802069
1741.000000	0.000000	10.820419
1742.000000	0.000000	10.845703
1743.000000	0.000000	10.874233
1744.000000	0.000000	10.888476
1745.000000	0.000000	10.919836
1746.000000	0.000000	10.945323
1747.000000	0.000000	10.954717
1748.000000	0.000000	10.969918
1749.000000	0.000000	10.991246
1750.000000	0.000000	10.986375
1751.000000	0.000000	11.004492
1752.000000	0.000000	11.017184
1753.000000	0.000000	11.022643
1754.000000	0.000000	11.025879
1755.000000	0.000000	11.027811
1756.000000	0.000000	11.027228
1757.000000	0.000000	11.034491
1758.000000	0.000000	11.016531
1759.000000	0.000000	11.008235
1760.000000	0.000000	11.021283
1761.000000	0.000000	11.030203
1762.000000	0.000000	11.025074
1763.000000	0.000000	11.027701
1764.000000	0.000000	11.030485
1765.000000	0.000000	11.043906
1766.000000	0.000000	11.067765
1767.000000	0.000000	11.065432
1768.000000	0.000000	11.074910
1769.000000	0.000000	11.078693
1770.000000	0.000000	11.092869
1771.000000	0.000000	11.087099
1772.000000	0.000000	11.105725
1773.000000	0.000000	11.109373
1774.000000	0.000000	11.117695
1775.000000	0.000000	11.118421
1776.000000	0.000000	11.121321
1777.000000	0.000000	11.125679
1778.000000	0.000000	11.123588
1779.000000	0.000000	11.132987
1780.000000	0.000000	11.130260
1781.000000	0.000000	11.130386
1782.000000	0.000000	11.127447
1783.000000	0.000000	11.131889
1784.000000	0.000000	11.125373
1785.000000	0.000000	11.122379
1786.000000	0.000000	11.117577
1787.000000	0.000000	11.105503
1788.000000	0.000000	11.093783
1789.000000	0.000000	11.089147
1790.000000	0.000000	11.095881
1791.000000	0.000000	11.095353
1792.000000	0.000000	11.093424
1793.000000	0.000000	11.102583
1794.000000	0.000000	11.106934
1795.000000	0.000000	11.106731
1796.000000	0.000000	11.111626
1797.000000	0.000000	11.110804
1798.000000	0.000000	11.113350
1799.000000	0.000000	11.123273
1800.000000	0.000000	11.133004
1801.000000	0.000000	11.146689
1802.000000	0.000000	11.147386
1803.000000	0.000000	11.135053
1804.000000	0.000000	11.146818
1805.000000	0.000000	11.154510
1806.000000	0.000000	11.162473
1807.000000	0.000000	11.169488
1808.000000	0.000000	11.170672
1809.000000	0.000000	11.186445
1810.000000	0.000000	11.196532
1811.000000	0.000000	11.208986
1812.000000	0.000000	11.219303
1813.000000	0.000000	11.228824
1814.000000	0.000000	11.227320
1815.000000	0.000000	11.230463
1816.000000	0.000000	11.236262
1817.000000	0.000000	11.236803
1818.000000	0.000000	11.235017
1819.000000	0.000000	11.259204
1820.000000	0.000000	11.287720
1821.000000	0.000000	11.286282
1822.000000	0.000000	11.256161
1823.000000	0.000000	11.219657
1824.000000	0.000000	11.223710
1825.000000	0.000000	11.274217
1826.000000	0.000000	11.306672
1827.000000	0.000000	11.305833
1828.000000	0.000000	11.309694
1829.000000	0.000000	11.324930
1830.000000	0.000000	11.338644
1831.000000	0.000000	11.346495
1832.000000	0.000000	11.345248
1833.000000	0.000000	11.357620
1834.000000	0.000000	11.377069
1835.000000	0.000000	11.423662
1836.000000	0.000000	11.457990
1837.000000	0.000000	11.468017
1838.000000	0.000000	11.469323
1839.000000	0.000000	11.480336
1840.000000	0.000000	11.509429
1841.000000	0.000000	11.523893
1842.000000	0.000000	11.503962
1843.000000	0.000000	11.466031
1844.000000	0.000000	11.469096
1845.000000	0.000000	11.500670
1846.000000	0.000000	11.564983
1847.000000	0.000000	11.600959
1848.000000	0.000000	11.587697
1849.000000	0.000000	11.539894
1850.000000	0.000000	11.489262
1851.000000	0.000000	11.488050
1852.000000	0.000000	11.493156
1853.000000	0.000000	11.502015
1854.000000	0.000000	11.500190
1855.000000	0.000000	11.486644
1856.000000	0.000000	11.464378
1857.000000	0.000000	11.451827
1858.000000	0.000000	11.441086
1859.000000	0.000000	11.408124
1860.000000	0.000000	11.366875
1861.000000	0.000000	11.324918
1862.000000	0.000000	11.277310
1863.000000	0.000000	11.230083
1864.000000	0.000000	11.201112
1865.000000	0.000000	11.176787
1866.000000	0.000000	11.151921
1867.000000	0.000000	11.127796
1868.000000	0.000000	11.084652
1869.000000	0.000000	11.013004
1870.000000	0.000000	10.947463
1871.000000	0.000000	10.858010
1872.000000	0.000000	10.747214
1873.000000	0.000000	10.635576
1874.000000	0.000000	10.521825
1875.000000	0.000000	10.412142
1876.000000	0.000000	10.296354
1877.000000	0.000000	10.178309
1878.000000	0.000000	10.051757
1879.000000	0.000000	9.918134
1880.000000	0.000000	9.788822
1881.000000	0.000000	9.665400
1882.000000	0.000000	9.536195
1883.000000	0.000000	9.384601
1884.000000	0.000000	9.203613
1885.000000	0.000000	9.011649
1886.000000	0.000000	8.847191
1887.000000	0.000000	8.684669
1888.000000	0.000000	8.521452
1889.000000	0.000000	8.330013
1890.000000	0.000000	8.181472
1891.000000	0.000000	7.983243
1892.000000	0.000000	7.758388
1893.000000	0.000000	7.563639
1894.000000	0.000000	7.391118
1895.000000	0.000000	7.231201
1896.000000	0.000000	7.106399
1897.000000	0.000000	6.961136
1898.000000	0.000000	6.782477
1899.000000	0.000000	6.624084
1900.000000	0.000000	6.456343
1901.000000	0.000000	6.294656
1902.000000	0.000000	6.171548
1903.000000	0.000000	6.033457
1904.000000	0.000000	5.929197
1905.000000	0.000000	5.797760
1906.000000	0.000000	5.657370
1907.000000	0.000000	5.526209
1908.000000	0.000000	5.438222
1909.000000	0.000000	5.372894
1910.000000	0.000000	5.314360
1911.000000	0.000000	5.236196
1912.000000	0.000000	5.153264
1913.000000	0.000000	5.067665
1914.000000	0.000000	4.968409
1915.000000	0.000000	4.903969
1916.000000	0.000000	4.850829
1917.000000	0.000000	4.806636
1918.000000	0.000000	4.740104
1919.000000	0.000000	4.693618
1920.000000	0.000000	4.647026
1921.000000	0.000000	4.609326
1922.000000	0.000000	4.561296
1923.000000	0.000000	4.496070
1924.000000	0.000000	4.468201
1925.000000	0.000000	4.442862
1926.000000	0.000000	4.413127
1927.000000	0.000000	4.381889
1928.000000	0.000000	4.371097
1929.000000	0.000000	4.338970
1930.000000	0.000000	4.313628
1931.000000	0.000000	4.297565
1932.000000	0.000000	4.288832
1933.000000	0.000000	4.257638
1934.000000	0.000000	4.265669
1935.000000	0.000000	4.250492
1936.000000	0.000000	4.246675
1937.000000	0.000000	4.242863
1938.000000	0.000000	4.237069
1939.000000	0.000000	4.252379
1940.000000	0.000000	4.250144
1941.000000	0.000000	4.249685
1942.000000	0.000000	4.239169
1943.000000	0.000000	4.245330
1944.000000	0.000000	4.263580
1945.000000	0.000000	4.277306
1946.000000	0.000000	4.283384
1947.000000	0.000000	4.303662
1948.000000	0.000000	4.321053
1949.000000	0.000000	4.323501
1950.000000	0.000000	4.350199
1951.000000	0.000000	4.368484
1952.000000	0.000000	4.392194
1953.000000	0.000000	4.418599
1954.000000	0.000000	4.424901
1955.000000	0.000000	4.447526
1956.000000	0.000000	4.475828
1957.000000	0.000000	4.492959
1958.000000	0.000000	4.510398
1959.000000	0.000000	4.539466
1960.000000	0.000000	4.573030
1961.000000	0.000000	4.577274
1962.000000	0.000000	4.605949
1963.000000	0.000000	4.635706
1964.000000	0.000000	4.674062
1965.000000	0.000000	4.679030
1966.000000	0.000000	4.705199
1967.000000	0.000000	4.713930
1968.000000	0.000000	4.751405
1969.000000	0.000000	4.800103
1970.000000	0.000000	4.809947
1971.000000	0.000000	4.835320
1972.000000	0.000000	4.867792
1973.000000	0.000000	4.894807
1974.000000	0.000000	4.915613
1975.000000	0.000000	4.959247
1976.000000	0.000000	4.981743
1977.000000	0.000000	4.999825
1978.000000	0.000000	5.040727
1979.000000	0.000000	5.083721
1980.000000	0.000000	5.102441
1981.000000	0.000000	5.142531
1982.000000	0.000000	5.174233
1983.000000	0.000000	5.202293
1984.000000	0.000000	5.232619
1985.000000	0.000000	5.280846
1986.000000	0.000000	5.316212
1987.000000	0.000000	5.348917
1988.000000	0.000000	5.377750
1989.000000	0.000000	5.408004
1990.000000	0.000000	5.438611
1991.000000	0.000000	5.490773
1992.000000	0.000000	5.508945
1993.000000	0.000000	5.542388
1994.000000	0.000000	5.569511
1995.000000	0.000000	5.599071
1996.000000	0.000000	5.639774
1997.000000	0.000000	5.672088
1998.000000	0.000000	5.693862
1999.000000	0.000000	5.724958
