PE UV       SUBTECH     SPECTRUM    ASCII       PEDS        4.00        
   -1
CICIMAUCR0112-2.Sample.ASC
24/04/04
15:29:38.00
24/04/04
15:29:38.00
Vinicio Soto Monge
C. resplendens
250,000000
1
Lambda 1050
1050L1511233
PerkinElmer UV WinLab 6.3.2.0749 / 2.02.05 Lambda 900 UV/VIS/NIR, Aug  7 2015 09:38:08

0
0
3350/servo 860,8/2
0
0
UV/VIS
1
1
1
DoubleDePol,CommonBeamDepol,RBeamAtt,SBeamAtt,60mm sphere, WB InGaAs Detector
0
0
0
0
Program
Program
3350/servo 860,8/2
3350/0,2 860,8/0,2
3350/0,2 860,8/0,2
0
15.00
 
 
 
0
 
860,8
319,2
860,8
Front
100
on
S:100 R:100
0
0
0
0
 
0
 
 
 
0
 
 
0
0
0
0
0
 
 
 
 
0
0


0
0
#HDR
-1
-1
#GR
nm
%R
1.0
0.0
2500,000000
-1,000000
2251
8
62,626100
4,604700
#DATA
250.000000	0.000000	0.201808
251.000000	0.000000	0.233062
252.000000	0.000000	0.158180
253.000000	0.000000	0.184060
254.000000	0.000000	0.168009
255.000000	0.000000	0.153796
256.000000	0.000000	0.190000
257.000000	0.000000	0.173453
258.000000	0.000000	0.154361
259.000000	0.000000	0.115400
260.000000	0.000000	0.163907
261.000000	0.000000	0.175504
262.000000	0.000000	0.198909
263.000000	0.000000	0.210152
264.000000	0.000000	0.145381
265.000000	0.000000	0.188515
266.000000	0.000000	0.163200
267.000000	0.000000	0.178757
268.000000	0.000000	0.167867
269.000000	0.000000	0.154786
270.000000	0.000000	0.140290
271.000000	0.000000	0.182646
272.000000	0.000000	0.172746
273.000000	0.000000	0.176140
274.000000	0.000000	0.209162
275.000000	0.000000	0.175150
276.000000	0.000000	0.207394
277.000000	0.000000	0.107339
278.000000	0.000000	0.132583
279.000000	0.000000	0.149129
280.000000	0.000000	0.173807
281.000000	0.000000	0.152523
282.000000	0.000000	0.141209
283.000000	0.000000	0.225779
284.000000	0.000000	0.148280
285.000000	0.000000	0.136684
286.000000	0.000000	0.177979
287.000000	0.000000	0.149907
288.000000	0.000000	0.151887
289.000000	0.000000	0.159806
290.000000	0.000000	0.126006
291.000000	0.000000	0.144250
292.000000	0.000000	0.132017
293.000000	0.000000	0.135270
294.000000	0.000000	0.107622
295.000000	0.000000	0.181444
296.000000	0.000000	0.143472
297.000000	0.000000	0.158745
298.000000	0.000000	0.127986
299.000000	0.000000	0.141633
300.000000	0.000000	0.126784
301.000000	0.000000	0.084994
302.000000	0.000000	0.138805
303.000000	0.000000	0.153018
304.000000	0.000000	0.180100
305.000000	0.000000	0.174585
306.000000	0.000000	0.159806
307.000000	0.000000	0.151462
308.000000	0.000000	0.164614
309.000000	0.000000	0.172251
310.000000	0.000000	0.160796
311.000000	0.000000	0.140078
312.000000	0.000000	0.150826
313.000000	0.000000	0.141139
314.000000	0.000000	0.118865
315.000000	0.000000	0.166312
316.000000	0.000000	0.152735
317.000000	0.000000	0.274923
318.000000	0.000000	0.051902
319.000000	0.000000	0.023193
320.000000	0.000000	0.372575
321.000000	0.000000	0.211425
322.000000	0.000000	0.299035
323.000000	0.000000	0.166665
324.000000	0.000000	0.188303
325.000000	0.000000	0.222809
326.000000	0.000000	0.166241
327.000000	0.000000	0.168645
328.000000	0.000000	0.143613
329.000000	0.000000	0.152876
330.000000	0.000000	0.264175
331.000000	0.000000	0.126501
332.000000	0.000000	0.174868
333.000000	0.000000	0.096449
334.000000	0.000000	0.216375
335.000000	0.000000	0.136967
336.000000	0.000000	0.073044
337.000000	0.000000	0.131875
338.000000	0.000000	0.190777
339.000000	0.000000	0.252932
340.000000	0.000000	0.105288
341.000000	0.000000	0.101399
342.000000	0.000000	0.098924
343.000000	0.000000	0.175150
344.000000	0.000000	0.152311
345.000000	0.000000	0.172322
346.000000	0.000000	0.189292
347.000000	0.000000	0.138946
348.000000	0.000000	0.135623
349.000000	0.000000	0.211354
350.000000	0.000000	0.134916
351.000000	0.000000	0.109955
352.000000	0.000000	0.107551
353.000000	0.000000	0.181585
354.000000	0.000000	0.208384
355.000000	0.000000	0.123885
356.000000	0.000000	0.089803
357.000000	0.000000	0.169069
358.000000	0.000000	0.098641
359.000000	0.000000	0.146371
360.000000	0.000000	0.131734
361.000000	0.000000	0.195444
362.000000	0.000000	0.103238
363.000000	0.000000	0.139371
364.000000	0.000000	0.180100
365.000000	0.000000	0.167867
366.000000	0.000000	0.142411
367.000000	0.000000	0.119925
368.000000	0.000000	0.112430
369.000000	0.000000	0.182504
370.000000	0.000000	0.175080
371.000000	0.000000	0.200323
372.000000	0.000000	0.116107
373.000000	0.000000	0.090439
374.000000	0.000000	0.097934
375.000000	0.000000	0.149624
376.000000	0.000000	0.223587
377.000000	0.000000	0.161362
378.000000	0.000000	0.145098
379.000000	0.000000	0.142482
380.000000	0.000000	0.152382
381.000000	0.000000	0.144886
382.000000	0.000000	0.142058
383.000000	0.000000	0.138239
384.000000	0.000000	0.134633
385.000000	0.000000	0.151179
386.000000	0.000000	0.143613
387.000000	0.000000	0.137674
388.000000	0.000000	0.144038
389.000000	0.000000	0.147644
390.000000	0.000000	0.161998
391.000000	0.000000	0.163342
392.000000	0.000000	0.150472
393.000000	0.000000	0.144179
394.000000	0.000000	0.136542
395.000000	0.000000	0.133431
396.000000	0.000000	0.140361
397.000000	0.000000	0.143896
398.000000	0.000000	0.142623
399.000000	0.000000	0.139512
400.000000	0.000000	0.138027
401.000000	0.000000	0.141704
402.000000	0.000000	0.146018
403.000000	0.000000	0.133219
404.000000	0.000000	0.136613
405.000000	0.000000	0.142270
406.000000	0.000000	0.149341
407.000000	0.000000	0.157473
408.000000	0.000000	0.157685
409.000000	0.000000	0.144603
410.000000	0.000000	0.139371
411.000000	0.000000	0.143401
412.000000	0.000000	0.148280
413.000000	0.000000	0.150331
414.000000	0.000000	0.153725
415.000000	0.000000	0.158392
416.000000	0.000000	0.158958
417.000000	0.000000	0.147290
418.000000	0.000000	0.150826
419.000000	0.000000	0.153584
420.000000	0.000000	0.153089
421.000000	0.000000	0.157048
422.000000	0.000000	0.165322
423.000000	0.000000	0.169140
424.000000	0.000000	0.156624
425.000000	0.000000	0.152664
426.000000	0.000000	0.151957
427.000000	0.000000	0.153230
428.000000	0.000000	0.150260
429.000000	0.000000	0.149482
430.000000	0.000000	0.147361
431.000000	0.000000	0.130178
432.000000	0.000000	0.117945
433.000000	0.000000	0.115117
434.000000	0.000000	0.107904
435.000000	0.000000	0.104723
436.000000	0.000000	0.094752
437.000000	0.000000	0.076721
438.000000	0.000000	0.060599
439.000000	0.000000	0.053528
440.000000	0.000000	0.046881
441.000000	0.000000	0.041719
442.000000	0.000000	0.016122
443.000000	0.000000	0.005728
444.000000	0.000000	0.011667
445.000000	0.000000	0.019163
446.000000	0.000000	0.031183
447.000000	0.000000	0.040164
448.000000	0.000000	0.028143
449.000000	0.000000	0.027011
450.000000	0.000000	0.041507
451.000000	0.000000	0.051124
452.000000	0.000000	0.047942
453.000000	0.000000	0.048578
454.000000	0.000000	0.049568
455.000000	0.000000	0.069155
456.000000	0.000000	0.076226
457.000000	0.000000	0.063781
458.000000	0.000000	0.057629
459.000000	0.000000	0.071276
460.000000	0.000000	0.081176
461.000000	0.000000	0.070004
462.000000	0.000000	0.072691
463.000000	0.000000	0.068165
464.000000	0.000000	0.068801
465.000000	0.000000	0.069226
466.000000	0.000000	0.056922
467.000000	0.000000	0.055932
468.000000	0.000000	0.069721
469.000000	0.000000	0.070569
470.000000	0.000000	0.069084
471.000000	0.000000	0.066539
472.000000	0.000000	0.060740
473.000000	0.000000	0.068165
474.000000	0.000000	0.081671
475.000000	0.000000	0.084641
476.000000	0.000000	0.077923
477.000000	0.000000	0.080186
478.000000	0.000000	0.089095
479.000000	0.000000	0.098641
480.000000	0.000000	0.113349
481.000000	0.000000	0.118511
482.000000	0.000000	0.107763
483.000000	0.000000	0.112076
484.000000	0.000000	0.120208
485.000000	0.000000	0.112501
486.000000	0.000000	0.102955
487.000000	0.000000	0.103308
488.000000	0.000000	0.109884
489.000000	0.000000	0.110733
490.000000	0.000000	0.112147
491.000000	0.000000	0.096874
492.000000	0.000000	0.083368
493.000000	0.000000	0.094682
494.000000	0.000000	0.096520
495.000000	0.000000	0.081034
496.000000	0.000000	0.058902
497.000000	0.000000	0.043770
498.000000	0.000000	0.014284
499.000000	0.000000	0.008415
500.000000	0.000000	0.038113
501.000000	0.000000	0.068801
502.000000	0.000000	0.095106
503.000000	0.000000	0.147361
504.000000	0.000000	0.195161
505.000000	0.000000	0.244164
506.000000	0.000000	0.281641
507.000000	0.000000	0.330926
508.000000	0.000000	0.373565
509.000000	0.000000	0.423416
510.000000	0.000000	0.470509
511.000000	0.000000	0.503884
512.000000	0.000000	0.532522
513.000000	0.000000	0.555362
514.000000	0.000000	0.591990
515.000000	0.000000	0.615678
516.000000	0.000000	0.623597
517.000000	0.000000	0.653650
518.000000	0.000000	0.655559
519.000000	0.000000	0.673307
520.000000	0.000000	0.684762
521.000000	0.000000	0.692470
522.000000	0.000000	0.695227
523.000000	0.000000	0.688651
524.000000	0.000000	0.701167
525.000000	0.000000	0.689571
526.000000	0.000000	0.680095
527.000000	0.000000	0.665670
528.000000	0.000000	0.654003
529.000000	0.000000	0.637810
530.000000	0.000000	0.612354
531.000000	0.000000	0.592061
532.000000	0.000000	0.584919
533.000000	0.000000	0.577423
534.000000	0.000000	0.577423
535.000000	0.000000	0.563776
536.000000	0.000000	0.534997
537.000000	0.000000	0.515057
538.000000	0.000000	0.495682
539.000000	0.000000	0.519936
540.000000	0.000000	0.509895
541.000000	0.000000	0.503601
542.000000	0.000000	0.468812
543.000000	0.000000	0.454316
544.000000	0.000000	0.446891
545.000000	0.000000	0.430416
546.000000	0.000000	0.397253
547.000000	0.000000	0.379646
548.000000	0.000000	0.379151
549.000000	0.000000	0.364089
550.000000	0.000000	0.362816
551.000000	0.000000	0.349169
552.000000	0.000000	0.349735
553.000000	0.000000	0.335876
554.000000	0.000000	0.336583
555.000000	0.000000	0.342098
556.000000	0.000000	0.338280
557.000000	0.000000	0.319047
558.000000	0.000000	0.329229
559.000000	0.000000	0.318057
560.000000	0.000000	0.287368
561.000000	0.000000	0.269408
562.000000	0.000000	0.253498
563.000000	0.000000	0.246073
564.000000	0.000000	0.238649
565.000000	0.000000	0.253710
566.000000	0.000000	0.206334
567.000000	0.000000	0.208667
568.000000	0.000000	0.221537
569.000000	0.000000	0.216799
570.000000	0.000000	0.228608
571.000000	0.000000	0.195161
572.000000	0.000000	0.205415
573.000000	0.000000	0.207889
574.000000	0.000000	0.246639
575.000000	0.000000	0.224789
576.000000	0.000000	0.195374
577.000000	0.000000	0.219981
578.000000	0.000000	0.213051
579.000000	0.000000	0.206687
580.000000	0.000000	0.213617
581.000000	0.000000	0.177837
582.000000	0.000000	0.203364
583.000000	0.000000	0.203647
584.000000	0.000000	0.213546
585.000000	0.000000	0.171968
586.000000	0.000000	0.175787
587.000000	0.000000	0.148987
588.000000	0.000000	0.156978
589.000000	0.000000	0.156553
590.000000	0.000000	0.113208
591.000000	0.000000	0.128057
592.000000	0.000000	0.059680
593.000000	0.000000	0.072266
594.000000	0.000000	0.067812
595.000000	0.000000	0.053599
596.000000	0.000000	0.016263
597.000000	0.000000	0.054659
598.000000	0.000000	0.021920
599.000000	0.000000	0.052609
600.000000	0.000000	0.001697
601.000000	0.000000	0.003182
602.000000	0.000000	0.004031
603.000000	0.000000	0.044406
604.000000	0.000000	0.003182
605.000000	0.000000	0.021779
606.000000	0.000000	0.087469
607.000000	0.000000	0.068165
608.000000	0.000000	0.097369
609.000000	0.000000	0.181726
610.000000	0.000000	0.238578
611.000000	0.000000	0.298328
612.000000	0.000000	0.326330
613.000000	0.000000	0.374413
614.000000	0.000000	0.426032
615.000000	0.000000	0.471216
616.000000	0.000000	0.501268
617.000000	0.000000	0.500632
618.000000	0.000000	0.536411
619.000000	0.000000	0.511450
620.000000	0.000000	0.573039
621.000000	0.000000	0.523330
622.000000	0.000000	0.496672
623.000000	0.000000	0.459266
624.000000	0.000000	0.453468
625.000000	0.000000	0.414718
626.000000	0.000000	0.397960
627.000000	0.000000	0.420163
628.000000	0.000000	0.464711
629.000000	0.000000	0.470014
630.000000	0.000000	0.517602
631.000000	0.000000	0.509541
632.000000	0.000000	0.562008
633.000000	0.000000	0.612001
634.000000	0.000000	0.576928
635.000000	0.000000	0.534643
636.000000	0.000000	0.517814
637.000000	0.000000	0.440315
638.000000	0.000000	0.348816
639.000000	0.000000	0.225921
640.000000	0.000000	0.129188
641.000000	0.000000	0.010536
642.000000	0.000000	0.137108
643.000000	0.000000	0.269973
644.000000	0.000000	0.388697
645.000000	0.000000	0.452195
646.000000	0.000000	0.532239
647.000000	0.000000	0.631658
648.000000	0.000000	0.654215
649.000000	0.000000	0.700814
650.000000	0.000000	0.732068
651.000000	0.000000	0.746775
652.000000	0.000000	0.763251
653.000000	0.000000	0.802283
654.000000	0.000000	0.793232
655.000000	0.000000	0.806314
656.000000	0.000000	0.861539
657.000000	0.000000	0.912026
658.000000	0.000000	0.971070
659.000000	0.000000	1.009395
660.000000	0.000000	1.111501
661.000000	0.000000	1.152725
662.000000	0.000000	1.166938
663.000000	0.000000	1.168211
664.000000	0.000000	1.158099
665.000000	0.000000	1.148907
666.000000	0.000000	1.112138
667.000000	0.000000	1.033507
668.000000	0.000000	0.984010
669.000000	0.000000	0.923340
670.000000	0.000000	0.837922
671.000000	0.000000	0.768625
672.000000	0.000000	0.713754
673.000000	0.000000	0.661074
674.000000	0.000000	0.688298
675.000000	0.000000	0.686601
676.000000	0.000000	0.682499
677.000000	0.000000	0.660155
678.000000	0.000000	0.693035
679.000000	0.000000	0.701096
680.000000	0.000000	0.721107
681.000000	0.000000	0.726057
682.000000	0.000000	0.728815
683.000000	0.000000	0.714107
684.000000	0.000000	0.681297
685.000000	0.000000	0.686247
686.000000	0.000000	0.643962
687.000000	0.000000	0.625224
688.000000	0.000000	0.603162
689.000000	0.000000	0.569504
690.000000	0.000000	0.548149
691.000000	0.000000	0.492853
692.000000	0.000000	0.486631
693.000000	0.000000	0.485853
694.000000	0.000000	0.485358
695.000000	0.000000	0.488328
696.000000	0.000000	0.509612
697.000000	0.000000	0.549281
698.000000	0.000000	0.572191
699.000000	0.000000	0.590010
700.000000	0.000000	0.615749
701.000000	0.000000	0.638447
702.000000	0.000000	0.658246
703.000000	0.000000	0.670408
704.000000	0.000000	0.687166
705.000000	0.000000	0.654922
706.000000	0.000000	0.642619
707.000000	0.000000	0.640922
708.000000	0.000000	0.609385
709.000000	0.000000	0.621618
710.000000	0.000000	0.688581
711.000000	0.000000	0.658034
712.000000	0.000000	0.642831
713.000000	0.000000	0.622254
714.000000	0.000000	0.650538
715.000000	0.000000	0.675358
716.000000	0.000000	0.672529
717.000000	0.000000	0.713188
718.000000	0.000000	0.779797
719.000000	0.000000	0.835871
720.000000	0.000000	0.886712
721.000000	0.000000	0.927441
722.000000	0.000000	0.972343
723.000000	0.000000	1.027426
724.000000	0.000000	1.024881
725.000000	0.000000	1.013779
726.000000	0.000000	1.016112
727.000000	0.000000	1.063206
728.000000	0.000000	1.091278
729.000000	0.000000	1.118502
730.000000	0.000000	1.160999
731.000000	0.000000	1.141695
732.000000	0.000000	1.104996
733.000000	0.000000	1.117299
734.000000	0.000000	1.134058
735.000000	0.000000	1.160504
736.000000	0.000000	1.125078
737.000000	0.000000	1.124441
738.000000	0.000000	1.127482
739.000000	0.000000	1.152230
740.000000	0.000000	1.221881
741.000000	0.000000	1.183697
742.000000	0.000000	1.214597
743.000000	0.000000	1.262893
744.000000	0.000000	1.238215
745.000000	0.000000	1.242316
746.000000	0.000000	1.247124
747.000000	0.000000	1.210284
748.000000	0.000000	1.173939
749.000000	0.000000	1.187444
750.000000	0.000000	1.192182
751.000000	0.000000	1.189566
752.000000	0.000000	1.130876
753.000000	0.000000	1.107329
754.000000	0.000000	1.096157
755.000000	0.000000	1.058327
756.000000	0.000000	1.038952
757.000000	0.000000	1.022618
758.000000	0.000000	1.035416
759.000000	0.000000	1.000061
760.000000	0.000000	0.951624
761.000000	0.000000	0.987828
762.000000	0.000000	1.003102
763.000000	0.000000	1.021981
764.000000	0.000000	1.029830
765.000000	0.000000	0.992212
766.000000	0.000000	1.008546
767.000000	0.000000	0.972060
768.000000	0.000000	0.935502
769.000000	0.000000	1.011941
770.000000	0.000000	0.991010
771.000000	0.000000	0.924896
772.000000	0.000000	0.914643
773.000000	0.000000	0.925603
774.000000	0.000000	0.858569
775.000000	0.000000	0.820244
776.000000	0.000000	0.872994
777.000000	0.000000	0.902905
778.000000	0.000000	0.838487
779.000000	0.000000	0.801081
780.000000	0.000000	0.838275
781.000000	0.000000	0.912946
782.000000	0.000000	0.946038
783.000000	0.000000	0.935927
784.000000	0.000000	0.947382
785.000000	0.000000	0.976797
786.000000	0.000000	0.907147
787.000000	0.000000	0.822931
788.000000	0.000000	0.875752
789.000000	0.000000	0.900925
790.000000	0.000000	0.896611
791.000000	0.000000	0.942432
792.000000	0.000000	0.981959
793.000000	0.000000	0.903895
794.000000	0.000000	0.887631
795.000000	0.000000	0.928219
796.000000	0.000000	0.782484
797.000000	0.000000	0.871863
798.000000	0.000000	0.983444
799.000000	0.000000	0.904672
800.000000	0.000000	0.822789
801.000000	0.000000	0.881621
802.000000	0.000000	0.897531
803.000000	0.000000	0.874903
804.000000	0.000000	0.933310
805.000000	0.000000	0.916623
806.000000	0.000000	0.890672
807.000000	0.000000	1.017668
808.000000	0.000000	0.909551
809.000000	0.000000	0.882328
810.000000	0.000000	0.943280
811.000000	0.000000	1.042983
812.000000	0.000000	0.928219
813.000000	0.000000	0.814375
814.000000	0.000000	0.873135
815.000000	0.000000	0.911885
816.000000	0.000000	0.854539
817.000000	0.000000	0.818971
818.000000	0.000000	0.927653
819.000000	0.000000	0.885298
820.000000	0.000000	0.980828
821.000000	0.000000	0.969938
822.000000	0.000000	0.978565
823.000000	0.000000	0.953604
824.000000	0.000000	0.846407
825.000000	0.000000	0.966120
826.000000	0.000000	0.944412
827.000000	0.000000	1.111996
828.000000	0.000000	0.993980
829.000000	0.000000	0.944624
830.000000	0.000000	0.961170
831.000000	0.000000	0.904460
832.000000	0.000000	0.966827
833.000000	0.000000	0.932532
834.000000	0.000000	0.905238
835.000000	0.000000	0.727118
836.000000	0.000000	0.639649
837.000000	0.000000	0.691055
838.000000	0.000000	0.771524
839.000000	0.000000	0.796202
840.000000	0.000000	0.796626
841.000000	0.000000	0.672034
842.000000	0.000000	0.739634
843.000000	0.000000	0.829790
844.000000	0.000000	0.903046
845.000000	0.000000	0.810486
846.000000	0.000000	0.593050
847.000000	0.000000	0.454528
848.000000	0.000000	0.457498
849.000000	0.000000	0.768696
850.000000	0.000000	0.620698
851.000000	0.000000	0.609385
852.000000	0.000000	0.864792
853.000000	0.000000	0.383393
854.000000	0.000000	0.264387
855.000000	0.000000	0.405243
856.000000	0.000000	0.612142
857.000000	0.000000	0.920936
858.000000	0.000000	0.646107
859.000000	0.000000	0.658623
860.000000	0.000000	0.670303
861.000000	0.000000	0.689310
862.000000	0.000000	0.707866
863.000000	0.000000	0.746440
864.000000	0.000000	0.738887
865.000000	0.000000	0.780736
866.000000	0.000000	0.774997
867.000000	0.000000	0.800129
868.000000	0.000000	0.824228
869.000000	0.000000	0.850908
870.000000	0.000000	0.841101
871.000000	0.000000	0.868305
872.000000	0.000000	0.858626
873.000000	0.000000	0.870166
874.000000	0.000000	0.913861
875.000000	0.000000	0.888582
876.000000	0.000000	0.888021
877.000000	0.000000	0.886758
878.000000	0.000000	0.886870
879.000000	0.000000	0.920236
880.000000	0.000000	0.931693
881.000000	0.000000	0.915728
882.000000	0.000000	0.903981
883.000000	0.000000	0.916819
884.000000	0.000000	0.930321
885.000000	0.000000	0.919185
886.000000	0.000000	0.897374
887.000000	0.000000	0.883722
888.000000	0.000000	0.889258
889.000000	0.000000	0.885989
890.000000	0.000000	0.887089
891.000000	0.000000	0.886211
892.000000	0.000000	0.881028
893.000000	0.000000	0.850830
894.000000	0.000000	0.860903
895.000000	0.000000	0.854033
896.000000	0.000000	0.857940
897.000000	0.000000	0.867458
898.000000	0.000000	0.837539
899.000000	0.000000	0.843907
900.000000	0.000000	0.839860
901.000000	0.000000	0.844267
902.000000	0.000000	0.840604
903.000000	0.000000	0.844566
904.000000	0.000000	0.843166
905.000000	0.000000	0.834737
906.000000	0.000000	0.842591
907.000000	0.000000	0.832626
908.000000	0.000000	0.851329
909.000000	0.000000	0.848098
910.000000	0.000000	0.854161
911.000000	0.000000	0.852671
912.000000	0.000000	0.847400
913.000000	0.000000	0.861696
914.000000	0.000000	0.858867
915.000000	0.000000	0.891490
916.000000	0.000000	0.883062
917.000000	0.000000	0.869944
918.000000	0.000000	0.893977
919.000000	0.000000	0.887136
920.000000	0.000000	0.912486
921.000000	0.000000	0.910459
922.000000	0.000000	0.904280
923.000000	0.000000	0.942093
924.000000	0.000000	0.927759
925.000000	0.000000	0.946212
926.000000	0.000000	0.915022
927.000000	0.000000	0.934615
928.000000	0.000000	0.926489
929.000000	0.000000	0.950578
930.000000	0.000000	0.916458
931.000000	0.000000	0.954151
932.000000	0.000000	0.945770
933.000000	0.000000	0.928852
934.000000	0.000000	0.951696
935.000000	0.000000	0.951959
936.000000	0.000000	0.960095
937.000000	0.000000	0.974443
938.000000	0.000000	0.958304
939.000000	0.000000	0.975634
940.000000	0.000000	0.961438
941.000000	0.000000	0.963630
942.000000	0.000000	0.938462
943.000000	0.000000	0.960782
944.000000	0.000000	0.937780
945.000000	0.000000	0.953941
946.000000	0.000000	0.963901
947.000000	0.000000	0.970848
948.000000	0.000000	0.965404
949.000000	0.000000	0.956699
950.000000	0.000000	0.947068
951.000000	0.000000	0.956029
952.000000	0.000000	0.938346
953.000000	0.000000	0.917082
954.000000	0.000000	0.928141
955.000000	0.000000	0.924686
956.000000	0.000000	0.934020
957.000000	0.000000	0.932161
958.000000	0.000000	0.929275
959.000000	0.000000	0.940490
960.000000	0.000000	0.941099
961.000000	0.000000	0.912881
962.000000	0.000000	0.915954
963.000000	0.000000	0.938515
964.000000	0.000000	0.938551
965.000000	0.000000	0.937668
966.000000	0.000000	0.941310
967.000000	0.000000	0.927776
968.000000	0.000000	0.940328
969.000000	0.000000	0.976336
970.000000	0.000000	0.971326
971.000000	0.000000	0.969748
972.000000	0.000000	0.979865
973.000000	0.000000	0.987112
974.000000	0.000000	1.003336
975.000000	0.000000	0.975015
976.000000	0.000000	0.986395
977.000000	0.000000	1.010781
978.000000	0.000000	1.019405
979.000000	0.000000	1.012341
980.000000	0.000000	1.031787
981.000000	0.000000	1.030025
982.000000	0.000000	1.032320
983.000000	0.000000	1.053712
984.000000	0.000000	1.066074
985.000000	0.000000	1.077363
986.000000	0.000000	1.080248
987.000000	0.000000	1.097488
988.000000	0.000000	1.095407
989.000000	0.000000	1.095267
990.000000	0.000000	1.106319
991.000000	0.000000	1.114992
992.000000	0.000000	1.126942
993.000000	0.000000	1.125187
994.000000	0.000000	1.133347
995.000000	0.000000	1.139158
996.000000	0.000000	1.123234
997.000000	0.000000	1.135908
998.000000	0.000000	1.143752
999.000000	0.000000	1.148090
1000.000000	0.000000	1.152308
1001.000000	0.000000	1.167065
1002.000000	0.000000	1.172811
1003.000000	0.000000	1.184185
1004.000000	0.000000	1.203904
1005.000000	0.000000	1.199747
1006.000000	0.000000	1.206481
1007.000000	0.000000	1.212965
1008.000000	0.000000	1.228440
1009.000000	0.000000	1.242392
1010.000000	0.000000	1.251781
1011.000000	0.000000	1.254601
1012.000000	0.000000	1.251677
1013.000000	0.000000	1.262067
1014.000000	0.000000	1.273662
1015.000000	0.000000	1.283289
1016.000000	0.000000	1.290623
1017.000000	0.000000	1.303274
1018.000000	0.000000	1.304618
1019.000000	0.000000	1.304334
1020.000000	0.000000	1.320953
1021.000000	0.000000	1.329162
1022.000000	0.000000	1.335367
1023.000000	0.000000	1.337630
1024.000000	0.000000	1.341907
1025.000000	0.000000	1.357178
1026.000000	0.000000	1.361956
1027.000000	0.000000	1.379287
1028.000000	0.000000	1.397585
1029.000000	0.000000	1.405525
1030.000000	0.000000	1.407531
1031.000000	0.000000	1.424952
1032.000000	0.000000	1.433457
1033.000000	0.000000	1.434809
1034.000000	0.000000	1.452028
1035.000000	0.000000	1.468605
1036.000000	0.000000	1.470730
1037.000000	0.000000	1.467104
1038.000000	0.000000	1.475360
1039.000000	0.000000	1.491236
1040.000000	0.000000	1.496381
1041.000000	0.000000	1.499728
1042.000000	0.000000	1.510406
1043.000000	0.000000	1.514147
1044.000000	0.000000	1.523347
1045.000000	0.000000	1.537723
1046.000000	0.000000	1.545519
1047.000000	0.000000	1.553910
1048.000000	0.000000	1.566481
1049.000000	0.000000	1.579802
1050.000000	0.000000	1.591680
1051.000000	0.000000	1.601171
1052.000000	0.000000	1.600128
1053.000000	0.000000	1.617500
1054.000000	0.000000	1.637853
1055.000000	0.000000	1.625424
1056.000000	0.000000	1.628003
1057.000000	0.000000	1.646212
1058.000000	0.000000	1.646323
1059.000000	0.000000	1.652697
1060.000000	0.000000	1.666857
1061.000000	0.000000	1.662326
1062.000000	0.000000	1.662851
1063.000000	0.000000	1.675509
1064.000000	0.000000	1.688942
1065.000000	0.000000	1.686855
1066.000000	0.000000	1.688289
1067.000000	0.000000	1.700080
1068.000000	0.000000	1.715075
1069.000000	0.000000	1.719090
1070.000000	0.000000	1.731289
1071.000000	0.000000	1.731357
1072.000000	0.000000	1.731945
1073.000000	0.000000	1.740333
1074.000000	0.000000	1.739430
1075.000000	0.000000	1.738128
1076.000000	0.000000	1.739770
1077.000000	0.000000	1.762981
1078.000000	0.000000	1.762311
1079.000000	0.000000	1.758693
1080.000000	0.000000	1.754831
1081.000000	0.000000	1.756015
1082.000000	0.000000	1.762318
1083.000000	0.000000	1.771825
1084.000000	0.000000	1.770059
1085.000000	0.000000	1.761835
1086.000000	0.000000	1.775466
1087.000000	0.000000	1.770993
1088.000000	0.000000	1.781097
1089.000000	0.000000	1.763685
1090.000000	0.000000	1.766094
1091.000000	0.000000	1.775617
1092.000000	0.000000	1.771715
1093.000000	0.000000	1.762869
1094.000000	0.000000	1.770482
1095.000000	0.000000	1.782108
1096.000000	0.000000	1.780308
1097.000000	0.000000	1.779335
1098.000000	0.000000	1.769212
1099.000000	0.000000	1.795355
1100.000000	0.000000	1.787415
1101.000000	0.000000	1.782430
1102.000000	0.000000	1.775445
1103.000000	0.000000	1.781145
1104.000000	0.000000	1.795247
1105.000000	0.000000	1.792912
1106.000000	0.000000	1.797047
1107.000000	0.000000	1.811467
1108.000000	0.000000	1.817939
1109.000000	0.000000	1.805849
1110.000000	0.000000	1.795300
1111.000000	0.000000	1.804325
1112.000000	0.000000	1.820866
1113.000000	0.000000	1.827653
1114.000000	0.000000	1.824708
1115.000000	0.000000	1.834023
1116.000000	0.000000	1.842379
1117.000000	0.000000	1.834276
1118.000000	0.000000	1.843964
1119.000000	0.000000	1.839940
1120.000000	0.000000	1.845367
1121.000000	0.000000	1.845421
1122.000000	0.000000	1.850515
1123.000000	0.000000	1.849484
1124.000000	0.000000	1.859658
1125.000000	0.000000	1.861650
1126.000000	0.000000	1.850484
1127.000000	0.000000	1.856150
1128.000000	0.000000	1.864766
1129.000000	0.000000	1.874045
1130.000000	0.000000	1.873904
1131.000000	0.000000	1.875220
1132.000000	0.000000	1.871656
1133.000000	0.000000	1.912080
1134.000000	0.000000	1.895111
1135.000000	0.000000	1.903545
1136.000000	0.000000	1.904866
1137.000000	0.000000	1.892242
1138.000000	0.000000	1.902891
1139.000000	0.000000	1.904838
1140.000000	0.000000	1.893091
1141.000000	0.000000	1.918969
1142.000000	0.000000	1.902627
1143.000000	0.000000	1.900150
1144.000000	0.000000	1.919541
1145.000000	0.000000	1.912061
1146.000000	0.000000	1.897398
1147.000000	0.000000	1.901115
1148.000000	0.000000	1.882513
1149.000000	0.000000	1.873795
1150.000000	0.000000	1.874689
1151.000000	0.000000	1.887691
1152.000000	0.000000	1.870328
1153.000000	0.000000	1.865375
1154.000000	0.000000	1.870976
1155.000000	0.000000	1.859687
1156.000000	0.000000	1.852488
1157.000000	0.000000	1.851387
1158.000000	0.000000	1.861965
1159.000000	0.000000	1.854170
1160.000000	0.000000	1.830125
1161.000000	0.000000	1.848869
1162.000000	0.000000	1.830519
1163.000000	0.000000	1.841472
1164.000000	0.000000	1.830289
1165.000000	0.000000	1.842353
1166.000000	0.000000	1.802557
1167.000000	0.000000	1.809558
1168.000000	0.000000	1.822592
1169.000000	0.000000	1.784952
1170.000000	0.000000	1.783670
1171.000000	0.000000	1.780783
1172.000000	0.000000	1.789793
1173.000000	0.000000	1.755815
1174.000000	0.000000	1.743200
1175.000000	0.000000	1.746427
1176.000000	0.000000	1.731809
1177.000000	0.000000	1.735985
1178.000000	0.000000	1.732859
1179.000000	0.000000	1.703699
1180.000000	0.000000	1.686496
1181.000000	0.000000	1.627303
1182.000000	0.000000	1.643560
1183.000000	0.000000	1.622666
1184.000000	0.000000	1.611055
1185.000000	0.000000	1.599191
1186.000000	0.000000	1.600514
1187.000000	0.000000	1.612710
1188.000000	0.000000	1.626327
1189.000000	0.000000	1.630328
1190.000000	0.000000	1.660963
1191.000000	0.000000	1.665529
1192.000000	0.000000	1.685291
1193.000000	0.000000	1.690195
1194.000000	0.000000	1.707197
1195.000000	0.000000	1.726002
1196.000000	0.000000	1.732765
1197.000000	0.000000	1.721106
1198.000000	0.000000	1.753133
1199.000000	0.000000	1.755470
1200.000000	0.000000	1.751925
1201.000000	0.000000	1.758979
1202.000000	0.000000	1.772224
1203.000000	0.000000	1.760018
1204.000000	0.000000	1.762429
1205.000000	0.000000	1.761762
1206.000000	0.000000	1.778253
1207.000000	0.000000	1.772019
1208.000000	0.000000	1.769923
1209.000000	0.000000	1.778733
1210.000000	0.000000	1.792147
1211.000000	0.000000	1.800859
1212.000000	0.000000	1.790880
1213.000000	0.000000	1.806817
1214.000000	0.000000	1.807904
1215.000000	0.000000	1.819973
1216.000000	0.000000	1.818645
1217.000000	0.000000	1.823419
1218.000000	0.000000	1.814639
1219.000000	0.000000	1.835768
1220.000000	0.000000	1.851699
1221.000000	0.000000	1.838060
1222.000000	0.000000	1.844632
1223.000000	0.000000	1.852248
1224.000000	0.000000	1.857801
1225.000000	0.000000	1.864913
1226.000000	0.000000	1.881907
1227.000000	0.000000	1.897037
1228.000000	0.000000	1.888568
1229.000000	0.000000	1.893039
1230.000000	0.000000	1.895013
1231.000000	0.000000	1.897233
1232.000000	0.000000	1.896711
1233.000000	0.000000	1.905991
1234.000000	0.000000	1.901149
1235.000000	0.000000	1.908070
1236.000000	0.000000	1.925793
1237.000000	0.000000	1.924966
1238.000000	0.000000	1.915675
1239.000000	0.000000	1.912558
1240.000000	0.000000	1.924267
1241.000000	0.000000	1.937292
1242.000000	0.000000	1.930254
1243.000000	0.000000	1.921573
1244.000000	0.000000	1.935184
1245.000000	0.000000	1.943414
1246.000000	0.000000	1.960818
1247.000000	0.000000	1.953958
1248.000000	0.000000	1.945323
1249.000000	0.000000	1.951479
1250.000000	0.000000	1.948342
1251.000000	0.000000	1.964016
1252.000000	0.000000	1.952388
1253.000000	0.000000	1.938419
1254.000000	0.000000	1.935905
1255.000000	0.000000	1.952129
1256.000000	0.000000	1.943450
1257.000000	0.000000	1.942163
1258.000000	0.000000	1.954805
1259.000000	0.000000	1.953257
1260.000000	0.000000	1.952238
1261.000000	0.000000	1.960891
1262.000000	0.000000	1.948967
1263.000000	0.000000	1.933492
1264.000000	0.000000	1.933610
1265.000000	0.000000	1.933526
1266.000000	0.000000	1.927543
1267.000000	0.000000	1.937254
1268.000000	0.000000	1.945906
1269.000000	0.000000	1.940964
1270.000000	0.000000	1.937783
1271.000000	0.000000	1.927627
1272.000000	0.000000	1.920284
1273.000000	0.000000	1.922974
1274.000000	0.000000	1.924497
1275.000000	0.000000	1.923064
1276.000000	0.000000	1.920090
1277.000000	0.000000	1.925841
1278.000000	0.000000	1.929349
1279.000000	0.000000	1.926186
1280.000000	0.000000	1.921516
1281.000000	0.000000	1.919079
1282.000000	0.000000	1.918973
1283.000000	0.000000	1.912150
1284.000000	0.000000	1.914963
1285.000000	0.000000	1.924008
1286.000000	0.000000	1.919093
1287.000000	0.000000	1.926664
1288.000000	0.000000	1.928960
1289.000000	0.000000	1.920309
1290.000000	0.000000	1.930610
1291.000000	0.000000	1.930262
1292.000000	0.000000	1.930240
1293.000000	0.000000	1.936287
1294.000000	0.000000	1.945746
1295.000000	0.000000	1.941899
1296.000000	0.000000	1.935252
1297.000000	0.000000	1.932951
1298.000000	0.000000	1.929239
1299.000000	0.000000	1.935173
1300.000000	0.000000	1.942726
1301.000000	0.000000	1.945039
1302.000000	0.000000	1.940440
1303.000000	0.000000	1.937886
1304.000000	0.000000	1.937093
1305.000000	0.000000	1.932761
1306.000000	0.000000	1.931912
1307.000000	0.000000	1.940102
1308.000000	0.000000	1.946559
1309.000000	0.000000	1.949409
1310.000000	0.000000	1.942183
1311.000000	0.000000	1.941213
1312.000000	0.000000	1.950901
1313.000000	0.000000	1.945633
1314.000000	0.000000	1.942981
1315.000000	0.000000	1.952575
1316.000000	0.000000	1.947937
1317.000000	0.000000	1.940163
1318.000000	0.000000	1.931406
1319.000000	0.000000	1.926003
1320.000000	0.000000	1.921926
1321.000000	0.000000	1.929120
1322.000000	0.000000	1.935305
1323.000000	0.000000	1.926696
1324.000000	0.000000	1.927960
1325.000000	0.000000	1.931297
1326.000000	0.000000	1.919761
1327.000000	0.000000	1.922485
1328.000000	0.000000	1.915636
1329.000000	0.000000	1.905134
1330.000000	0.000000	1.900873
1331.000000	0.000000	1.897859
1332.000000	0.000000	1.899678
1333.000000	0.000000	1.900981
1334.000000	0.000000	1.874739
1335.000000	0.000000	1.871208
1336.000000	0.000000	1.876830
1337.000000	0.000000	1.871786
1338.000000	0.000000	1.871731
1339.000000	0.000000	1.865976
1340.000000	0.000000	1.847000
1341.000000	0.000000	1.841759
1342.000000	0.000000	1.829615
1343.000000	0.000000	1.804714
1344.000000	0.000000	1.796653
1345.000000	0.000000	1.810222
1346.000000	0.000000	1.773605
1347.000000	0.000000	1.758764
1348.000000	0.000000	1.747344
1349.000000	0.000000	1.757918
1350.000000	0.000000	1.755139
1351.000000	0.000000	1.738105
1352.000000	0.000000	1.708565
1353.000000	0.000000	1.698270
1354.000000	0.000000	1.672395
1355.000000	0.000000	1.661679
1356.000000	0.000000	1.657424
1357.000000	0.000000	1.652495
1358.000000	0.000000	1.639424
1359.000000	0.000000	1.638421
1360.000000	0.000000	1.628244
1361.000000	0.000000	1.643188
1362.000000	0.000000	1.628330
1363.000000	0.000000	1.630205
1364.000000	0.000000	1.625890
1365.000000	0.000000	1.612413
1366.000000	0.000000	1.613633
1367.000000	0.000000	1.583491
1368.000000	0.000000	1.563308
1369.000000	0.000000	1.535617
1370.000000	0.000000	1.530674
1371.000000	0.000000	1.521431
1372.000000	0.000000	1.488653
1373.000000	0.000000	1.486207
1374.000000	0.000000	1.452530
1375.000000	0.000000	1.424387
1376.000000	0.000000	1.413343
1377.000000	0.000000	1.392926
1378.000000	0.000000	1.366033
1379.000000	0.000000	1.357656
1380.000000	0.000000	1.342442
1381.000000	0.000000	1.344707
1382.000000	0.000000	1.318815
1383.000000	0.000000	1.291538
1384.000000	0.000000	1.280718
1385.000000	0.000000	1.288397
1386.000000	0.000000	1.245773
1387.000000	0.000000	1.235272
1388.000000	0.000000	1.219149
1389.000000	0.000000	1.224032
1390.000000	0.000000	1.205224
1391.000000	0.000000	1.225022
1392.000000	0.000000	1.214521
1393.000000	0.000000	1.220791
1394.000000	0.000000	1.205501
1395.000000	0.000000	1.181104
1396.000000	0.000000	1.186182
1397.000000	0.000000	1.184200
1398.000000	0.000000	1.180344
1399.000000	0.000000	1.153970
1400.000000	0.000000	1.158491
1401.000000	0.000000	1.140454
1402.000000	0.000000	1.114879
1403.000000	0.000000	1.080057
1404.000000	0.000000	1.063490
1405.000000	0.000000	1.039896
1406.000000	0.000000	1.027560
1407.000000	0.000000	0.999529
1408.000000	0.000000	1.006705
1409.000000	0.000000	0.979779
1410.000000	0.000000	0.989417
1411.000000	0.000000	0.951563
1412.000000	0.000000	0.937885
1413.000000	0.000000	0.920659
1414.000000	0.000000	0.941411
1415.000000	0.000000	0.929731
1416.000000	0.000000	0.914091
1417.000000	0.000000	0.912199
1418.000000	0.000000	0.897551
1419.000000	0.000000	0.903627
1420.000000	0.000000	0.887390
1421.000000	0.000000	0.871588
1422.000000	0.000000	0.857283
1423.000000	0.000000	0.857561
1424.000000	0.000000	0.854264
1425.000000	0.000000	0.811449
1426.000000	0.000000	0.823733
1427.000000	0.000000	0.838801
1428.000000	0.000000	0.823092
1429.000000	0.000000	0.819488
1430.000000	0.000000	0.797401
1431.000000	0.000000	0.814296
1432.000000	0.000000	0.796207
1433.000000	0.000000	0.770791
1434.000000	0.000000	0.799374
1435.000000	0.000000	0.790714
1436.000000	0.000000	0.781803
1437.000000	0.000000	0.780008
1438.000000	0.000000	0.791083
1439.000000	0.000000	0.783351
1440.000000	0.000000	0.753416
1441.000000	0.000000	0.759670
1442.000000	0.000000	0.747500
1443.000000	0.000000	0.753878
1444.000000	0.000000	0.761920
1445.000000	0.000000	0.753480
1446.000000	0.000000	0.743791
1447.000000	0.000000	0.719430
1448.000000	0.000000	0.728065
1449.000000	0.000000	0.736801
1450.000000	0.000000	0.721137
1451.000000	0.000000	0.720709
1452.000000	0.000000	0.713681
1453.000000	0.000000	0.703976
1454.000000	0.000000	0.722566
1455.000000	0.000000	0.699238
1456.000000	0.000000	0.695078
1457.000000	0.000000	0.710741
1458.000000	0.000000	0.705255
1459.000000	0.000000	0.682063
1460.000000	0.000000	0.688103
1461.000000	0.000000	0.682088
1462.000000	0.000000	0.690462
1463.000000	0.000000	0.671507
1464.000000	0.000000	0.688224
1465.000000	0.000000	0.682175
1466.000000	0.000000	0.648594
1467.000000	0.000000	0.662467
1468.000000	0.000000	0.655059
1469.000000	0.000000	0.660719
1470.000000	0.000000	0.654917
1471.000000	0.000000	0.682717
1472.000000	0.000000	0.676922
1473.000000	0.000000	0.677140
1474.000000	0.000000	0.663951
1475.000000	0.000000	0.664367
1476.000000	0.000000	0.647778
1477.000000	0.000000	0.639105
1478.000000	0.000000	0.657506
1479.000000	0.000000	0.643232
1480.000000	0.000000	0.644930
1481.000000	0.000000	0.649161
1482.000000	0.000000	0.659487
1483.000000	0.000000	0.657212
1484.000000	0.000000	0.645310
1485.000000	0.000000	0.639469
1486.000000	0.000000	0.643002
1487.000000	0.000000	0.648696
1488.000000	0.000000	0.632529
1489.000000	0.000000	0.635688
1490.000000	0.000000	0.628213
1491.000000	0.000000	0.640545
1492.000000	0.000000	0.642503
1493.000000	0.000000	0.634264
1494.000000	0.000000	0.632074
1495.000000	0.000000	0.616583
1496.000000	0.000000	0.628053
1497.000000	0.000000	0.630202
1498.000000	0.000000	0.634560
1499.000000	0.000000	0.638882
1500.000000	0.000000	0.628484
1501.000000	0.000000	0.622839
1502.000000	0.000000	0.620852
1503.000000	0.000000	0.630789
1504.000000	0.000000	0.622692
1505.000000	0.000000	0.638515
1506.000000	0.000000	0.630657
1507.000000	0.000000	0.628128
1508.000000	0.000000	0.620214
1509.000000	0.000000	0.637452
1510.000000	0.000000	0.638828
1511.000000	0.000000	0.636429
1512.000000	0.000000	0.641166
1513.000000	0.000000	0.634811
1514.000000	0.000000	0.629180
1515.000000	0.000000	0.625251
1516.000000	0.000000	0.624288
1517.000000	0.000000	0.634493
1518.000000	0.000000	0.637500
1519.000000	0.000000	0.609856
1520.000000	0.000000	0.551924
1521.000000	0.000000	0.514254
1522.000000	0.000000	0.509675
1523.000000	0.000000	0.501976
1524.000000	0.000000	0.506409
1525.000000	0.000000	0.510554
1526.000000	0.000000	0.496417
1527.000000	0.000000	0.508965
1528.000000	0.000000	0.519603
1529.000000	0.000000	0.516085
1530.000000	0.000000	0.520424
1531.000000	0.000000	0.526842
1532.000000	0.000000	0.522598
1533.000000	0.000000	0.521117
1534.000000	0.000000	0.522261
1535.000000	0.000000	0.520776
1536.000000	0.000000	0.527883
1537.000000	0.000000	0.528179
1538.000000	0.000000	0.526947
1539.000000	0.000000	0.517679
1540.000000	0.000000	0.513842
1541.000000	0.000000	0.519279
1542.000000	0.000000	0.526312
1543.000000	0.000000	0.526887
1544.000000	0.000000	0.538137
1545.000000	0.000000	0.534479
1546.000000	0.000000	0.531473
1547.000000	0.000000	0.524658
1548.000000	0.000000	0.530926
1549.000000	0.000000	0.528557
1550.000000	0.000000	0.520354
1551.000000	0.000000	0.509547
1552.000000	0.000000	0.507500
1553.000000	0.000000	0.518659
1554.000000	0.000000	0.518779
1555.000000	0.000000	0.520252
1556.000000	0.000000	0.514998
1557.000000	0.000000	0.503343
1558.000000	0.000000	0.516484
1559.000000	0.000000	0.521738
1560.000000	0.000000	0.516923
1561.000000	0.000000	0.516599
1562.000000	0.000000	0.515586
1563.000000	0.000000	0.510810
1564.000000	0.000000	0.500704
1565.000000	0.000000	0.505681
1566.000000	0.000000	0.507102
1567.000000	0.000000	0.492687
1568.000000	0.000000	0.488061
1569.000000	0.000000	0.501673
1570.000000	0.000000	0.508391
1571.000000	0.000000	0.504602
1572.000000	0.000000	0.501028
1573.000000	0.000000	0.496682
1574.000000	0.000000	0.509728
1575.000000	0.000000	0.509645
1576.000000	0.000000	0.501142
1577.000000	0.000000	0.494449
1578.000000	0.000000	0.498099
1579.000000	0.000000	0.495542
1580.000000	0.000000	0.495833
1581.000000	0.000000	0.506061
1582.000000	0.000000	0.500026
1583.000000	0.000000	0.505479
1584.000000	0.000000	0.507249
1585.000000	0.000000	0.503644
1586.000000	0.000000	0.503183
1587.000000	0.000000	0.505943
1588.000000	0.000000	0.525107
1589.000000	0.000000	0.526797
1590.000000	0.000000	0.522630
1591.000000	0.000000	0.527522
1592.000000	0.000000	0.515376
1593.000000	0.000000	0.526145
1594.000000	0.000000	0.542992
1595.000000	0.000000	0.536407
1596.000000	0.000000	0.535727
1597.000000	0.000000	0.548387
1598.000000	0.000000	0.546635
1599.000000	0.000000	0.532881
1600.000000	0.000000	0.546533
1601.000000	0.000000	0.551408
1602.000000	0.000000	0.561264
1603.000000	0.000000	0.567658
1604.000000	0.000000	0.563698
1605.000000	0.000000	0.559242
1606.000000	0.000000	0.573454
1607.000000	0.000000	0.588464
1608.000000	0.000000	0.586721
1609.000000	0.000000	0.589189
1610.000000	0.000000	0.592002
1611.000000	0.000000	0.592930
1612.000000	0.000000	0.595677
1613.000000	0.000000	0.615207
1614.000000	0.000000	0.619931
1615.000000	0.000000	0.614790
1616.000000	0.000000	0.620296
1617.000000	0.000000	0.627737
1618.000000	0.000000	0.630865
1619.000000	0.000000	0.618028
1620.000000	0.000000	0.628085
1621.000000	0.000000	0.655550
1622.000000	0.000000	0.667391
1623.000000	0.000000	0.661123
1624.000000	0.000000	0.649303
1625.000000	0.000000	0.660832
1626.000000	0.000000	0.674558
1627.000000	0.000000	0.683929
1628.000000	0.000000	0.688708
1629.000000	0.000000	0.696301
1630.000000	0.000000	0.701490
1631.000000	0.000000	0.705229
1632.000000	0.000000	0.708759
1633.000000	0.000000	0.720275
1634.000000	0.000000	0.728818
1635.000000	0.000000	0.748569
1636.000000	0.000000	0.739288
1637.000000	0.000000	0.735566
1638.000000	0.000000	0.746964
1639.000000	0.000000	0.775777
1640.000000	0.000000	0.785895
1641.000000	0.000000	0.777042
1642.000000	0.000000	0.772599
1643.000000	0.000000	0.779209
1644.000000	0.000000	0.791535
1645.000000	0.000000	0.766370
1646.000000	0.000000	0.783353
1647.000000	0.000000	0.787069
1648.000000	0.000000	0.801586
1649.000000	0.000000	0.792462
1650.000000	0.000000	0.791835
1651.000000	0.000000	0.802620
1652.000000	0.000000	0.790552
1653.000000	0.000000	0.802658
1654.000000	0.000000	0.806476
1655.000000	0.000000	0.828328
1656.000000	0.000000	0.812902
1657.000000	0.000000	0.821449
1658.000000	0.000000	0.818743
1659.000000	0.000000	0.823093
1660.000000	0.000000	0.822471
1661.000000	0.000000	0.821679
1662.000000	0.000000	0.806668
1663.000000	0.000000	0.805075
1664.000000	0.000000	0.789684
1665.000000	0.000000	0.792254
1666.000000	0.000000	0.789660
1667.000000	0.000000	0.790584
1668.000000	0.000000	0.762560
1669.000000	0.000000	0.756897
1670.000000	0.000000	0.747447
1671.000000	0.000000	0.748335
1672.000000	0.000000	0.721669
1673.000000	0.000000	0.708513
1674.000000	0.000000	0.671114
1675.000000	0.000000	0.651765
1676.000000	0.000000	0.640277
1677.000000	0.000000	0.594853
1678.000000	0.000000	0.566104
1679.000000	0.000000	0.526836
1680.000000	0.000000	0.484633
1681.000000	0.000000	0.489252
1682.000000	0.000000	0.459426
1683.000000	0.000000	0.424418
1684.000000	0.000000	0.429469
1685.000000	0.000000	0.415533
1686.000000	0.000000	0.443021
1687.000000	0.000000	0.419582
1688.000000	0.000000	0.440602
1689.000000	0.000000	0.429837
1690.000000	0.000000	0.420098
1691.000000	0.000000	0.405622
1692.000000	0.000000	0.399089
1693.000000	0.000000	0.388608
1694.000000	0.000000	0.407159
1695.000000	0.000000	0.382566
1696.000000	0.000000	0.394946
1697.000000	0.000000	0.387137
1698.000000	0.000000	0.389559
1699.000000	0.000000	0.395833
1700.000000	0.000000	0.424755
1701.000000	0.000000	0.419652
1702.000000	0.000000	0.441534
1703.000000	0.000000	0.435770
1704.000000	0.000000	0.428146
1705.000000	0.000000	0.448465
1706.000000	0.000000	0.436236
1707.000000	0.000000	0.431961
1708.000000	0.000000	0.425859
1709.000000	0.000000	0.437845
1710.000000	0.000000	0.444219
1711.000000	0.000000	0.430892
1712.000000	0.000000	0.459927
1713.000000	0.000000	0.446690
1714.000000	0.000000	0.421970
1715.000000	0.000000	0.440567
1716.000000	0.000000	0.431462
1717.000000	0.000000	0.416569
1718.000000	0.000000	0.415787
1719.000000	0.000000	0.445020
1720.000000	0.000000	0.433263
1721.000000	0.000000	0.421943
1722.000000	0.000000	0.422344
1723.000000	0.000000	0.453601
1724.000000	0.000000	0.447565
1725.000000	0.000000	0.423320
1726.000000	0.000000	0.398725
1727.000000	0.000000	0.403527
1728.000000	0.000000	0.408016
1729.000000	0.000000	0.393858
1730.000000	0.000000	0.399528
1731.000000	0.000000	0.392775
1732.000000	0.000000	0.392525
1733.000000	0.000000	0.364639
1734.000000	0.000000	0.380097
1735.000000	0.000000	0.374774
1736.000000	0.000000	0.385464
1737.000000	0.000000	0.391499
1738.000000	0.000000	0.396485
1739.000000	0.000000	0.417226
1740.000000	0.000000	0.436122
1741.000000	0.000000	0.440321
1742.000000	0.000000	0.460556
1743.000000	0.000000	0.452284
1744.000000	0.000000	0.481352
1745.000000	0.000000	0.501553
1746.000000	0.000000	0.501952
1747.000000	0.000000	0.511629
1748.000000	0.000000	0.485998
1749.000000	0.000000	0.498623
1750.000000	0.000000	0.514729
1751.000000	0.000000	0.540270
1752.000000	0.000000	0.519274
1753.000000	0.000000	0.518571
1754.000000	0.000000	0.531155
1755.000000	0.000000	0.536804
1756.000000	0.000000	0.516812
1757.000000	0.000000	0.508729
1758.000000	0.000000	0.514896
1759.000000	0.000000	0.513164
1760.000000	0.000000	0.509253
1761.000000	0.000000	0.490807
1762.000000	0.000000	0.503754
1763.000000	0.000000	0.506676
1764.000000	0.000000	0.508063
1765.000000	0.000000	0.504435
1766.000000	0.000000	0.509190
1767.000000	0.000000	0.515444
1768.000000	0.000000	0.531578
1769.000000	0.000000	0.538600
1770.000000	0.000000	0.548578
1771.000000	0.000000	0.545695
1772.000000	0.000000	0.552793
1773.000000	0.000000	0.581878
1774.000000	0.000000	0.577948
1775.000000	0.000000	0.585794
1776.000000	0.000000	0.609481
1777.000000	0.000000	0.612511
1778.000000	0.000000	0.615169
1779.000000	0.000000	0.611105
1780.000000	0.000000	0.623590
1781.000000	0.000000	0.637979
1782.000000	0.000000	0.620041
1783.000000	0.000000	0.625324
1784.000000	0.000000	0.633068
1785.000000	0.000000	0.649842
1786.000000	0.000000	0.651812
1787.000000	0.000000	0.647889
1788.000000	0.000000	0.655143
1789.000000	0.000000	0.666941
1790.000000	0.000000	0.660330
1791.000000	0.000000	0.657790
1792.000000	0.000000	0.661195
1793.000000	0.000000	0.680570
1794.000000	0.000000	0.687147
1795.000000	0.000000	0.688086
1796.000000	0.000000	0.688301
1797.000000	0.000000	0.693755
1798.000000	0.000000	0.705845
1799.000000	0.000000	0.702233
1800.000000	0.000000	0.708310
1801.000000	0.000000	0.709053
1802.000000	0.000000	0.714449
1803.000000	0.000000	0.713179
1804.000000	0.000000	0.708870
1805.000000	0.000000	0.718079
1806.000000	0.000000	0.728202
1807.000000	0.000000	0.723937
1808.000000	0.000000	0.728640
1809.000000	0.000000	0.734249
1810.000000	0.000000	0.722445
1811.000000	0.000000	0.721836
1812.000000	0.000000	0.730023
1813.000000	0.000000	0.735021
1814.000000	0.000000	0.741426
1815.000000	0.000000	0.735320
1816.000000	0.000000	0.734202
1817.000000	0.000000	0.728369
1818.000000	0.000000	0.729200
1819.000000	0.000000	0.743201
1820.000000	0.000000	0.734798
1821.000000	0.000000	0.732372
1822.000000	0.000000	0.759027
1823.000000	0.000000	0.746323
1824.000000	0.000000	0.733259
1825.000000	0.000000	0.746481
1826.000000	0.000000	0.757847
1827.000000	0.000000	0.764968
1828.000000	0.000000	0.768612
1829.000000	0.000000	0.764868
1830.000000	0.000000	0.780529
1831.000000	0.000000	0.803805
1832.000000	0.000000	0.795658
1833.000000	0.000000	0.784914
1834.000000	0.000000	0.786110
1835.000000	0.000000	0.792516
1836.000000	0.000000	0.797105
1837.000000	0.000000	0.804783
1838.000000	0.000000	0.810117
1839.000000	0.000000	0.816793
1840.000000	0.000000	0.817203
1841.000000	0.000000	0.822953
1842.000000	0.000000	0.833379
1843.000000	0.000000	0.835597
1844.000000	0.000000	0.833982
1845.000000	0.000000	0.827887
1846.000000	0.000000	0.817610
1847.000000	0.000000	0.825247
1848.000000	0.000000	0.840662
1849.000000	0.000000	0.843940
1850.000000	0.000000	0.846890
1851.000000	0.000000	0.850106
1852.000000	0.000000	0.863413
1853.000000	0.000000	0.877423
1854.000000	0.000000	0.867689
1855.000000	0.000000	0.871936
1856.000000	0.000000	0.882761
1857.000000	0.000000	0.867145
1858.000000	0.000000	0.867469
1859.000000	0.000000	0.881333
1860.000000	0.000000	0.883562
1861.000000	0.000000	0.900977
1862.000000	0.000000	0.882050
1863.000000	0.000000	0.870900
1864.000000	0.000000	0.873881
1865.000000	0.000000	0.875399
1866.000000	0.000000	0.876525
1867.000000	0.000000	0.867149
1868.000000	0.000000	0.856991
1869.000000	0.000000	0.849340
1870.000000	0.000000	0.833036
1871.000000	0.000000	0.823849
1872.000000	0.000000	0.810302
1873.000000	0.000000	0.824952
1874.000000	0.000000	0.823493
1875.000000	0.000000	0.787472
1876.000000	0.000000	0.771970
1877.000000	0.000000	0.740543
1878.000000	0.000000	0.716892
1879.000000	0.000000	0.700530
1880.000000	0.000000	0.673044
1881.000000	0.000000	0.644766
1882.000000	0.000000	0.607476
1883.000000	0.000000	0.606304
1884.000000	0.000000	0.592966
1885.000000	0.000000	0.573775
1886.000000	0.000000	0.570500
1887.000000	0.000000	0.555079
1888.000000	0.000000	0.531933
1889.000000	0.000000	0.527753
1890.000000	0.000000	0.516754
1891.000000	0.000000	0.512666
1892.000000	0.000000	0.501844
1893.000000	0.000000	0.512411
1894.000000	0.000000	0.496396
1895.000000	0.000000	0.474238
1896.000000	0.000000	0.475275
1897.000000	0.000000	0.465759
1898.000000	0.000000	0.447930
1899.000000	0.000000	0.449471
1900.000000	0.000000	0.445156
1901.000000	0.000000	0.441443
1902.000000	0.000000	0.432705
1903.000000	0.000000	0.418637
1904.000000	0.000000	0.406521
1905.000000	0.000000	0.392895
1906.000000	0.000000	0.401879
1907.000000	0.000000	0.388996
1908.000000	0.000000	0.392737
1909.000000	0.000000	0.382859
1910.000000	0.000000	0.362141
1911.000000	0.000000	0.363047
1912.000000	0.000000	0.345123
1913.000000	0.000000	0.370409
1914.000000	0.000000	0.359656
1915.000000	0.000000	0.356826
1916.000000	0.000000	0.339997
1917.000000	0.000000	0.344046
1918.000000	0.000000	0.333025
1919.000000	0.000000	0.324247
1920.000000	0.000000	0.315651
1921.000000	0.000000	0.300450
1922.000000	0.000000	0.311118
1923.000000	0.000000	0.324414
1924.000000	0.000000	0.324889
1925.000000	0.000000	0.304139
1926.000000	0.000000	0.295308
1927.000000	0.000000	0.311389
1928.000000	0.000000	0.320682
1929.000000	0.000000	0.291798
1930.000000	0.000000	0.303371
1931.000000	0.000000	0.297739
1932.000000	0.000000	0.272566
1933.000000	0.000000	0.280268
1934.000000	0.000000	0.295941
1935.000000	0.000000	0.296642
1936.000000	0.000000	0.295090
1937.000000	0.000000	0.299230
1938.000000	0.000000	0.289543
1939.000000	0.000000	0.292126
1940.000000	0.000000	0.313329
1941.000000	0.000000	0.281146
1942.000000	0.000000	0.296179
1943.000000	0.000000	0.300416
1944.000000	0.000000	0.307859
1945.000000	0.000000	0.316251
1946.000000	0.000000	0.299958
1947.000000	0.000000	0.309602
1948.000000	0.000000	0.306212
1949.000000	0.000000	0.318845
1950.000000	0.000000	0.325113
1951.000000	0.000000	0.318516
1952.000000	0.000000	0.311702
1953.000000	0.000000	0.312482
1954.000000	0.000000	0.312140
1955.000000	0.000000	0.323404
1956.000000	0.000000	0.328937
1957.000000	0.000000	0.310257
1958.000000	0.000000	0.319381
1959.000000	0.000000	0.325348
1960.000000	0.000000	0.340471
1961.000000	0.000000	0.324454
1962.000000	0.000000	0.321655
1963.000000	0.000000	0.332871
1964.000000	0.000000	0.344192
1965.000000	0.000000	0.325206
1966.000000	0.000000	0.332655
1967.000000	0.000000	0.333682
1968.000000	0.000000	0.344303
1969.000000	0.000000	0.345271
1970.000000	0.000000	0.350944
1971.000000	0.000000	0.338266
1972.000000	0.000000	0.305727
1973.000000	0.000000	0.349176
1974.000000	0.000000	0.341827
1975.000000	0.000000	0.347740
1976.000000	0.000000	0.364442
1977.000000	0.000000	0.367483
1978.000000	0.000000	0.350926
1979.000000	0.000000	0.351776
1980.000000	0.000000	0.351970
1981.000000	0.000000	0.351117
1982.000000	0.000000	0.366362
1983.000000	0.000000	0.373325
1984.000000	0.000000	0.381590
1985.000000	0.000000	0.371632
1986.000000	0.000000	0.347521
1987.000000	0.000000	0.370641
1988.000000	0.000000	0.376172
1989.000000	0.000000	0.380880
1990.000000	0.000000	0.372663
1991.000000	0.000000	0.374716
1992.000000	0.000000	0.382698
1993.000000	0.000000	0.387629
1994.000000	0.000000	0.378199
1995.000000	0.000000	0.372181
1996.000000	0.000000	0.382480
1997.000000	0.000000	0.360733
1998.000000	0.000000	0.380243
1999.000000	0.000000	0.367922
