PE UV       SUBTECH     SPECTRUM    ASCII       PEDS        4.00        
   -1
CICIMAUCR0004-1.Sample.ASC
24/05/03
14:00:46.00
24/05/03
14:00:46.00
Vinicio Soto Monge
C. kalinini
250,000000
1
Lambda 1050
1050L1511233
PerkinElmer UV WinLab 6.3.2.0749 / 2.02.05 Lambda 900 UV/VIS/NIR, Aug  7 2015 09:38:08

0
0
3350/servo 860,8/2
0
0
UV/VIS
1
1
1
DoubleDePol,CommonBeamDepol,RBeamAtt,SBeamAtt,60mm sphere, WB InGaAs Detector
0
0
0
0
Program
Program
3350/servo 860,8/2
3350/0,2 860,8/0,2
3350/0,2 860,8/0,2
0
15.00
 
 
 
0
 
860,8
319,2
860,8
Front
100
on
S:100 R:100
0
0
0
0
 
0
 
 
 
0
 
 
0
0
0
0
0
 
 
 
 
0
0


0
0
#HDR
-1
-1
#GR
nm
%R
1.0
0.0
2500,000000
-1,000000
2251
8
95,169100
5,381700
#DATA
2500,000000	8,112700
2499,000000	7,871300
2498,000000	7,996600
2497,000000	8,005300
2496,000000	8,039500
2495,000000	7,977000
2494,000000	7,977100
2493,000000	7,907000
2492,000000	7,899200
2491,000000	7,808100
2490,000000	7,814600
2489,000000	7,816600
2488,000000	7,746200
2487,000000	7,791400
2486,000000	7,820400
2485,000000	7,809400
2484,000000	7,713200
2483,000000	7,765900
2482,000000	7,769500
2481,000000	7,714000
2480,000000	7,749300
2479,000000	7,700200
2478,000000	7,690300
2477,000000	7,683300
2476,000000	7,708600
2475,000000	7,686300
2474,000000	7,743100
2473,000000	7,714000
2472,000000	7,764900
2471,000000	7,716100
2470,000000	7,709000
2469,000000	7,724000
2468,000000	7,751100
2467,000000	7,778700
2466,000000	7,818800
2465,000000	7,848800
2464,000000	7,883500
2463,000000	7,848300
2462,000000	7,939900
2461,000000	7,966400
2460,000000	8,002800
2459,000000	8,057500
2458,000000	8,096500
2457,000000	8,144600
2456,000000	8,193600
2455,000000	8,271500
2454,000000	8,341400
2453,000000	8,392000
2452,000000	8,451400
2451,000000	8,533100
2450,000000	8,602500
2449,000000	8,667500
2448,000000	8,769800
2447,000000	8,844100
2446,000000	8,901800
2445,000000	8,965200
2444,000000	9,063100
2443,000000	9,115900
2442,000000	9,198200
2441,000000	9,286500
2440,000000	9,334500
2439,000000	9,399800
2438,000000	9,479500
2437,000000	9,562200
2436,000000	9,624000
2435,000000	9,689100
2434,000000	9,745500
2433,000000	9,809100
2432,000000	9,863800
2431,000000	9,903500
2430,000000	9,962100
2429,000000	10,010100
2428,000000	10,053400
2427,000000	10,091900
2426,000000	10,134000
2425,000000	10,173100
2424,000000	10,205400
2423,000000	10,234200
2422,000000	10,276400
2421,000000	10,316500
2420,000000	10,335800
2419,000000	10,353900
2418,000000	10,380500
2417,000000	10,423200
2416,000000	10,444300
2415,000000	10,484200
2414,000000	10,486800
2413,000000	10,503900
2412,000000	10,543900
2411,000000	10,565400
2410,000000	10,580700
2409,000000	10,600700
2408,000000	10,608300
2407,000000	10,632200
2406,000000	10,655000
2405,000000	10,679900
2404,000000	10,703600
2403,000000	10,729800
2402,000000	10,761300
2401,000000	10,793000
2400,000000	10,809100
2399,000000	10,847600
2398,000000	10,889900
2397,000000	10,908500
2396,000000	10,939200
2395,000000	10,950700
2394,000000	10,968600
2393,000000	10,988400
2392,000000	10,992400
2391,000000	11,008800
2390,000000	11,031700
2389,000000	11,035700
2388,000000	11,043000
2387,000000	11,041800
2386,000000	11,038300
2385,000000	11,035100
2384,000000	11,023200
2383,000000	11,016400
2382,000000	11,019400
2381,000000	11,003800
2380,000000	10,989400
2379,000000	10,959400
2378,000000	10,933200
2377,000000	10,923000
2376,000000	10,902300
2375,000000	10,862200
2374,000000	10,820200
2373,000000	10,799700
2372,000000	10,761900
2371,000000	10,716600
2370,000000	10,672300
2369,000000	10,626400
2368,000000	10,562700
2367,000000	10,497900
2366,000000	10,444500
2365,000000	10,375800
2364,000000	10,312000
2363,000000	10,243700
2362,000000	10,175100
2361,000000	10,112500
2360,000000	10,034700
2359,000000	9,976000
2358,000000	9,932500
2357,000000	9,886400
2356,000000	9,844100
2355,000000	9,810800
2354,000000	9,784300
2353,000000	9,769600
2352,000000	9,766000
2351,000000	9,770600
2350,000000	9,776600
2349,000000	9,794900
2348,000000	9,827300
2347,000000	9,860100
2346,000000	9,895500
2345,000000	9,914300
2344,000000	9,953700
2343,000000	10,001700
2342,000000	10,019400
2341,000000	10,021100
2340,000000	10,040900
2339,000000	10,054800
2338,000000	10,058200
2337,000000	10,041100
2336,000000	10,031500
2335,000000	10,007500
2334,000000	9,980200
2333,000000	9,952300
2332,000000	9,897700
2331,000000	9,849800
2330,000000	9,781800
2329,000000	9,708300
2328,000000	9,637500
2327,000000	9,569500
2326,000000	9,500000
2325,000000	9,418200
2324,000000	9,322100
2323,000000	9,237100
2322,000000	9,140300
2321,000000	9,057200
2320,000000	8,933800
2319,000000	8,796900
2318,000000	8,698600
2317,000000	8,582900
2316,000000	8,490400
2315,000000	8,390700
2314,000000	8,280900
2313,000000	8,183000
2312,000000	8,094900
2311,000000	8,034500
2310,000000	7,981100
2309,000000	7,933500
2308,000000	7,893500
2307,000000	7,888200
2306,000000	7,897200
2305,000000	7,909200
2304,000000	7,937300
2303,000000	7,997400
2302,000000	8,047500
2301,000000	8,107400
2300,000000	8,176300
2299,000000	8,253100
2298,000000	8,346700
2297,000000	8,413000
2296,000000	8,495500
2295,000000	8,581400
2294,000000	8,624000
2293,000000	8,681800
2292,000000	8,708300
2291,000000	8,741900
2290,000000	8,765200
2289,000000	8,784300
2288,000000	8,771100
2287,000000	8,775100
2286,000000	8,754200
2285,000000	8,736500
2284,000000	8,713400
2283,000000	8,692100
2282,000000	8,632000
2281,000000	8,595400
2280,000000	8,557300
2279,000000	8,528100
2278,000000	8,477900
2277,000000	8,447400
2276,000000	8,447700
2275,000000	8,429600
2274,000000	8,430500
2273,000000	8,409500
2272,000000	8,451300
2271,000000	8,442400
2270,000000	8,498800
2269,000000	8,536400
2268,000000	8,609400
2267,000000	8,709100
2266,000000	8,822800
2265,000000	8,931200
2264,000000	9,077000
2263,000000	9,253300
2262,000000	9,424300
2261,000000	9,643900
2260,000000	9,877200
2259,000000	10,100300
2258,000000	10,332600
2257,000000	10,578300
2256,000000	10,851700
2255,000000	11,086100
2254,000000	11,332600
2253,000000	11,578600
2252,000000	11,836900
2251,000000	12,060200
2250,000000	12,270700
2249,000000	12,462300
2248,000000	12,680800
2247,000000	12,865900
2246,000000	13,029000
2245,000000	13,203700
2244,000000	13,342900
2243,000000	13,482100
2242,000000	13,583500
2241,000000	13,749200
2240,000000	13,862700
2239,000000	13,943400
2238,000000	14,054900
2237,000000	14,152900
2236,000000	14,245300
2235,000000	14,292400
2234,000000	14,347800
2233,000000	14,430700
2232,000000	14,460500
2231,000000	14,484400
2230,000000	14,538900
2229,000000	14,545400
2228,000000	14,587800
2227,000000	14,581300
2226,000000	14,582400
2225,000000	14,586800
2224,000000	14,565400
2223,000000	14,556300
2222,000000	14,536100
2221,000000	14,509100
2220,000000	14,470600
2219,000000	14,467700
2218,000000	14,408800
2217,000000	14,383200
2216,000000	14,372100
2215,000000	14,345800
2214,000000	14,318100
2213,000000	14,254500
2212,000000	14,246700
2211,000000	14,212700
2210,000000	14,179900
2209,000000	14,180800
2208,000000	14,156500
2207,000000	14,128300
2206,000000	14,119800
2205,000000	14,086000
2204,000000	14,085500
2203,000000	14,063300
2202,000000	14,042400
2201,000000	14,048900
2200,000000	14,029900
2199,000000	14,021000
2198,000000	14,021000
2197,000000	14,012000
2196,000000	14,003000
2195,000000	13,994700
2194,000000	13,997100
2193,000000	13,995700
2192,000000	13,988900
2191,000000	13,965300
2190,000000	13,984100
2189,000000	13,962400
2188,000000	13,955200
2187,000000	13,938500
2186,000000	13,945100
2185,000000	13,926200
2184,000000	13,910100
2183,000000	13,888900
2182,000000	13,882600
2181,000000	13,882500
2180,000000	13,880600
2179,000000	13,867500
2178,000000	13,862000
2177,000000	13,870100
2176,000000	13,863600
2175,000000	13,862400
2174,000000	13,870700
2173,000000	13,868900
2172,000000	13,879400
2171,000000	13,907800
2170,000000	13,928700
2169,000000	13,944000
2168,000000	13,949500
2167,000000	13,965800
2166,000000	14,014300
2165,000000	14,049500
2164,000000	14,059100
2163,000000	14,099400
2162,000000	14,129400
2161,000000	14,179500
2160,000000	14,191200
2159,000000	14,220400
2158,000000	14,279000
2157,000000	14,327200
2156,000000	14,373600
2155,000000	14,416100
2154,000000	14,463600
2153,000000	14,521700
2152,000000	14,572500
2151,000000	14,614800
2150,000000	14,663500
2149,000000	14,725000
2148,000000	14,794900
2147,000000	14,835000
2146,000000	14,873000
2145,000000	14,916600
2144,000000	14,980700
2143,000000	15,036200
2142,000000	15,059200
2141,000000	15,105800
2140,000000	15,165100
2139,000000	15,210300
2138,000000	15,234400
2137,000000	15,266000
2136,000000	15,307900
2135,000000	15,334700
2134,000000	15,350400
2133,000000	15,370400
2132,000000	15,405100
2131,000000	15,434900
2130,000000	15,437200
2129,000000	15,452400
2128,000000	15,451400
2127,000000	15,462800
2126,000000	15,462700
2125,000000	15,456700
2124,000000	15,458800
2123,000000	15,454300
2122,000000	15,446500
2121,000000	15,436400
2120,000000	15,418500
2119,000000	15,383900
2118,000000	15,366600
2117,000000	15,349700
2116,000000	15,326300
2115,000000	15,307200
2114,000000	15,270100
2113,000000	15,239700
2112,000000	15,213900
2111,000000	15,195700
2110,000000	15,177200
2109,000000	15,147100
2108,000000	15,114900
2107,000000	15,082900
2106,000000	15,049400
2105,000000	15,016600
2104,000000	14,988500
2103,000000	14,958800
2102,000000	14,922200
2101,000000	14,906400
2100,000000	14,892200
2099,000000	14,856300
2098,000000	14,838600
2097,000000	14,834400
2096,000000	14,811100
2095,000000	14,781300
2094,000000	14,759300
2093,000000	14,764600
2092,000000	14,762600
2091,000000	14,745900
2090,000000	14,743900
2089,000000	14,727000
2088,000000	14,707500
2087,000000	14,712600
2086,000000	14,703300
2085,000000	14,678800
2084,000000	14,659400
2083,000000	14,633800
2082,000000	14,625000
2081,000000	14,617600
2080,000000	14,594600
2079,000000	14,577200
2078,000000	14,541200
2077,000000	14,506200
2076,000000	14,476800
2075,000000	14,450200
2074,000000	14,414800
2073,000000	14,384200
2072,000000	14,354600
2071,000000	14,313700
2070,000000	14,285200
2069,000000	14,239900
2068,000000	14,196300
2067,000000	14,153700
2066,000000	14,114200
2065,000000	14,098100
2064,000000	14,075500
2063,000000	14,033900
2062,000000	14,019700
2061,000000	13,995200
2060,000000	13,986500
2059,000000	13,987500
2058,000000	13,986900
2057,000000	14,008600
2056,000000	14,032000
2055,000000	14,070300
2054,000000	14,140400
2053,000000	14,223000
2052,000000	14,318500
2051,000000	14,408400
2050,000000	14,523300
2049,000000	14,651700
2048,000000	14,821400
2047,000000	14,972400
2046,000000	15,117500
2045,000000	15,293700
2044,000000	15,492600
2043,000000	15,680600
2042,000000	15,862400
2041,000000	16,053700
2040,000000	16,244200
2039,000000	16,422000
2038,000000	16,605300
2037,000000	16,775500
2036,000000	16,952100
2035,000000	17,104200
2034,000000	17,264700
2033,000000	17,426500
2032,000000	17,574000
2031,000000	17,706400
2030,000000	17,833300
2029,000000	17,964300
2028,000000	18,112800
2027,000000	18,219700
2026,000000	18,352000
2025,000000	18,468600
2024,000000	18,580500
2023,000000	18,692000
2022,000000	18,791000
2021,000000	18,908000
2020,000000	19,007700
2019,000000	19,088500
2018,000000	19,183800
2017,000000	19,265500
2016,000000	19,372300
2015,000000	19,432800
2014,000000	19,520300
2013,000000	19,596800
2012,000000	19,660900
2011,000000	19,712400
2010,000000	19,754100
2009,000000	19,805500
2008,000000	19,881300
2007,000000	19,889500
2006,000000	19,902400
2005,000000	19,937500
2004,000000	19,962100
2003,000000	19,981800
2002,000000	19,986600
2001,000000	19,977000
2000,000000	19,969800
1999,000000	19,979700
1998,000000	19,965700
1997,000000	19,946100
1996,000000	19,925300
1995,000000	19,896500
1994,000000	19,876300
1993,000000	19,814400
1992,000000	19,760000
1991,000000	19,705500
1990,000000	19,660600
1989,000000	19,601700
1988,000000	19,545800
1987,000000	19,483900
1986,000000	19,431900
1985,000000	19,348400
1984,000000	19,289000
1983,000000	19,239200
1982,000000	19,163800
1981,000000	19,067700
1980,000000	19,014300
1979,000000	18,924600
1978,000000	18,833400
1977,000000	18,784600
1976,000000	18,694100
1975,000000	18,636700
1974,000000	18,548500
1973,000000	18,494400
1972,000000	18,413200
1971,000000	18,344100
1970,000000	18,256100
1969,000000	18,210800
1968,000000	18,136600
1967,000000	18,077500
1966,000000	18,010900
1965,000000	17,941500
1964,000000	17,876600
1963,000000	17,825200
1962,000000	17,751300
1961,000000	17,670400
1960,000000	17,610700
1959,000000	17,527600
1958,000000	17,460300
1957,000000	17,388700
1956,000000	17,310800
1955,000000	17,248800
1954,000000	17,192800
1953,000000	17,127300
1952,000000	17,058000
1951,000000	16,997500
1950,000000	16,937500
1949,000000	16,886800
1948,000000	16,832000
1947,000000	16,785700
1946,000000	16,731200
1945,000000	16,698100
1944,000000	16,659700
1943,000000	16,650800
1942,000000	16,641300
1941,000000	16,650900
1940,000000	16,659900
1939,000000	16,658200
1938,000000	16,674000
1937,000000	16,700400
1936,000000	16,715300
1935,000000	16,749300
1934,000000	16,830500
1933,000000	16,883400
1932,000000	16,963600
1931,000000	17,031400
1930,000000	17,160400
1929,000000	17,259800
1928,000000	17,378400
1927,000000	17,507200
1926,000000	17,617400
1925,000000	17,771700
1924,000000	17,935000
1923,000000	18,077500
1922,000000	18,255900
1921,000000	18,467300
1920,000000	18,657600
1919,000000	18,832600
1918,000000	19,036800
1917,000000	19,241600
1916,000000	19,462800
1915,000000	19,691900
1914,000000	19,966000
1913,000000	20,223400
1912,000000	20,483100
1911,000000	20,754900
1910,000000	21,005100
1909,000000	21,256900
1908,000000	21,527200
1907,000000	21,835000
1906,000000	22,154400
1905,000000	22,480000
1904,000000	22,790900
1903,000000	23,085600
1902,000000	23,390400
1901,000000	23,706800
1900,000000	24,046100
1899,000000	24,350300
1898,000000	24,684700
1897,000000	25,006900
1896,000000	25,285000
1895,000000	25,560600
1894,000000	25,879100
1893,000000	26,183800
1892,000000	26,485300
1891,000000	26,796200
1890,000000	27,083300
1889,000000	27,390900
1888,000000	27,703600
1887,000000	28,030800
1886,000000	28,375000
1885,000000	28,752300
1884,000000	29,174300
1883,000000	29,593800
1882,000000	29,981100
1881,000000	30,408900
1880,000000	30,800900
1879,000000	31,183400
1878,000000	31,547600
1877,000000	31,859000
1876,000000	32,159600
1875,000000	32,425900
1874,000000	32,667500
1873,000000	32,897900
1872,000000	33,105400
1871,000000	33,258100
1870,000000	33,361900
1869,000000	33,481400
1868,000000	33,589000
1867,000000	33,647000
1866,000000	33,690700
1865,000000	33,722400
1864,000000	33,758800
1863,000000	33,789400
1862,000000	33,800000
1861,000000	33,800100
1860,000000	33,791900
1859,000000	33,765400
1858,000000	33,740400
1857,000000	33,689000
1856,000000	33,618000
1855,000000	33,565500
1854,000000	33,491500
1853,000000	33,403000
1852,000000	33,327200
1851,000000	33,277000
1850,000000	33,206700
1849,000000	33,122600
1848,000000	33,020100
1847,000000	32,897600
1846,000000	32,804900
1845,000000	32,754000
1844,000000	32,712300
1843,000000	32,703600
1842,000000	32,673500
1841,000000	32,586600
1840,000000	32,514500
1839,000000	32,449700
1838,000000	32,379400
1837,000000	32,307600
1836,000000	32,223200
1835,000000	32,126900
1834,000000	32,036200
1833,000000	31,952700
1832,000000	31,885000
1831,000000	31,804400
1830,000000	31,703300
1829,000000	31,603200
1828,000000	31,492500
1827,000000	31,411300
1826,000000	31,351200
1825,000000	31,294100
1824,000000	31,263500
1823,000000	31,264000
1822,000000	31,251400
1821,000000	31,214800
1820,000000	31,171200
1819,000000	31,142000
1818,000000	31,130400
1817,000000	31,132100
1816,000000	31,139400
1815,000000	31,118700
1814,000000	31,091600
1813,000000	31,081300
1812,000000	31,064200
1811,000000	31,011300
1810,000000	30,950900
1809,000000	30,910400
1808,000000	30,865800
1807,000000	30,821400
1806,000000	30,763700
1805,000000	30,692800
1804,000000	30,641700
1803,000000	30,597900
1802,000000	30,549300
1801,000000	30,480400
1800,000000	30,410300
1799,000000	30,352300
1798,000000	30,300900
1797,000000	30,257900
1796,000000	30,201900
1795,000000	30,126700
1794,000000	30,063600
1793,000000	30,009300
1792,000000	29,933200
1791,000000	29,870700
1790,000000	29,808900
1789,000000	29,739000
1788,000000	29,662100
1787,000000	29,577600
1786,000000	29,504500
1785,000000	29,423600
1784,000000	29,316400
1783,000000	29,216300
1782,000000	29,131200
1781,000000	29,027500
1780,000000	28,930900
1779,000000	28,802600
1778,000000	28,669500
1777,000000	28,550000
1776,000000	28,401900
1775,000000	28,235300
1774,000000	28,079000
1773,000000	27,920300
1772,000000	27,753300
1771,000000	27,589700
1770,000000	27,427200
1769,000000	27,277100
1768,000000	27,146300
1767,000000	27,035800
1766,000000	26,931800
1765,000000	26,846100
1764,000000	26,815700
1763,000000	26,783900
1762,000000	26,821100
1761,000000	26,897300
1760,000000	26,952700
1759,000000	27,041100
1758,000000	27,094800
1757,000000	27,151700
1756,000000	27,187900
1755,000000	27,220400
1754,000000	27,243400
1753,000000	27,213600
1752,000000	27,183400
1751,000000	27,130100
1750,000000	27,040300
1749,000000	26,948900
1748,000000	26,825400
1747,000000	26,685400
1746,000000	26,520400
1745,000000	26,327800
1744,000000	26,115300
1743,000000	25,849400
1742,000000	25,593300
1741,000000	25,301700
1740,000000	25,007600
1739,000000	24,729500
1738,000000	24,481900
1737,000000	24,295100
1736,000000	24,138600
1735,000000	24,030600
1734,000000	23,997800
1733,000000	24,024000
1732,000000	24,083500
1731,000000	24,166700
1730,000000	24,273100
1729,000000	24,387300
1728,000000	24,526700
1727,000000	24,593500
1726,000000	24,672300
1725,000000	24,740900
1724,000000	24,778000
1723,000000	24,812900
1722,000000	24,847600
1721,000000	24,887500
1720,000000	24,931500
1719,000000	25,000600
1718,000000	25,073300
1717,000000	25,145100
1716,000000	25,252200
1715,000000	25,359400
1714,000000	25,462000
1713,000000	25,547800
1712,000000	25,608200
1711,000000	25,678400
1710,000000	25,690200
1709,000000	25,699000
1708,000000	25,705200
1707,000000	25,676000
1706,000000	25,633500
1705,000000	25,577100
1704,000000	25,527900
1703,000000	25,424700
1702,000000	25,300200
1701,000000	25,133800
1700,000000	24,952600
1699,000000	24,771100
1698,000000	24,626100
1697,000000	24,523200
1696,000000	24,472200
1695,000000	24,514900
1694,000000	24,565000
1693,000000	24,680900
1692,000000	24,838700
1691,000000	24,989300
1690,000000	25,127100
1689,000000	25,196800
1688,000000	25,229000
1687,000000	25,250400
1686,000000	25,272100
1685,000000	25,356500
1684,000000	25,553600
1683,000000	25,837700
1682,000000	26,300000
1681,000000	26,864800
1680,000000	27,501000
1679,000000	28,108500
1678,000000	28,693500
1677,000000	29,239300
1676,000000	29,722600
1675,000000	30,139300
1674,000000	30,501600
1673,000000	30,825300
1672,000000	31,088400
1671,000000	31,330000
1670,000000	31,581600
1669,000000	31,777400
1668,000000	31,937700
1667,000000	32,091100
1666,000000	32,208300
1665,000000	32,326300
1664,000000	32,430700
1663,000000	32,519500
1662,000000	32,613500
1661,000000	32,676300
1660,000000	32,760600
1659,000000	32,799400
1658,000000	32,851300
1657,000000	32,872200
1656,000000	32,905600
1655,000000	32,906000
1654,000000	32,896400
1653,000000	32,890800
1652,000000	32,881800
1651,000000	32,858300
1650,000000	32,847700
1649,000000	32,816500
1648,000000	32,775600
1647,000000	32,714400
1646,000000	32,653800
1645,000000	32,616500
1644,000000	32,556000
1643,000000	32,499100
1642,000000	32,442100
1641,000000	32,386000
1640,000000	32,338400
1639,000000	32,261000
1638,000000	32,194200
1637,000000	32,120500
1636,000000	32,059300
1635,000000	31,990000
1634,000000	31,900200
1633,000000	31,825700
1632,000000	31,748800
1631,000000	31,660900
1630,000000	31,582500
1629,000000	31,498700
1628,000000	31,398700
1627,000000	31,306400
1626,000000	31,229800
1625,000000	31,136000
1624,000000	31,049100
1623,000000	30,957800
1622,000000	30,874000
1621,000000	30,788300
1620,000000	30,703800
1619,000000	30,634900
1618,000000	30,550500
1617,000000	30,452700
1616,000000	30,373400
1615,000000	30,295300
1614,000000	30,207600
1613,000000	30,130200
1612,000000	30,054000
1611,000000	29,974600
1610,000000	29,910300
1609,000000	29,835300
1608,000000	29,749000
1607,000000	29,667100
1606,000000	29,587300
1605,000000	29,511000
1604,000000	29,420200
1603,000000	29,337000
1602,000000	29,270300
1601,000000	29,193300
1600,000000	29,112900
1599,000000	29,030100
1598,000000	28,960300
1597,000000	28,891500
1596,000000	28,829200
1595,000000	28,773700
1594,000000	28,723800
1593,000000	28,669200
1592,000000	28,623900
1591,000000	28,581100
1590,000000	28,546400
1589,000000	28,498300
1588,000000	28,452800
1587,000000	28,411200
1586,000000	28,377900
1585,000000	28,342200
1584,000000	28,320300
1583,000000	28,307000
1582,000000	28,289600
1581,000000	28,256900
1580,000000	28,247200
1579,000000	28,252500
1578,000000	28,247100
1577,000000	28,242200
1576,000000	28,251100
1575,000000	28,271900
1574,000000	28,292800
1573,000000	28,316700
1572,000000	28,355000
1571,000000	28,385600
1570,000000	28,412500
1569,000000	28,462800
1568,000000	28,511400
1567,000000	28,545400
1566,000000	28,591600
1565,000000	28,647000
1564,000000	28,690800
1563,000000	28,726100
1562,000000	28,767000
1561,000000	28,804500
1560,000000	28,827900
1559,000000	28,854100
1558,000000	28,879600
1557,000000	28,886300
1556,000000	28,887400
1555,000000	28,894700
1554,000000	28,900800
1553,000000	28,893200
1552,000000	28,880900
1551,000000	28,880700
1550,000000	28,871500
1549,000000	28,859900
1548,000000	28,850500
1547,000000	28,838500
1546,000000	28,828300
1545,000000	28,831500
1544,000000	28,834900
1543,000000	28,839200
1542,000000	28,844600
1541,000000	28,854900
1540,000000	28,868800
1539,000000	28,869900
1538,000000	28,870000
1537,000000	28,883000
1536,000000	28,889700
1535,000000	28,899100
1534,000000	28,901500
1533,000000	28,903300
1532,000000	28,898300
1531,000000	28,889200
1530,000000	28,887200
1529,000000	28,885300
1528,000000	28,878200
1527,000000	28,872500
1526,000000	28,843300
1525,000000	28,833700
1524,000000	28,808900
1523,000000	28,793500
1522,000000	28,787300
1521,000000	28,770000
1520,000000	28,738300
1519,000000	28,724300
1518,000000	28,704600
1517,000000	28,689700
1516,000000	28,664900
1515,000000	28,651200
1514,000000	28,623100
1513,000000	28,586400
1512,000000	28,558600
1511,000000	28,545800
1510,000000	28,510600
1509,000000	28,485600
1508,000000	28,453300
1507,000000	28,438100
1506,000000	28,414800
1505,000000	28,386100
1504,000000	28,353500
1503,000000	28,326200
1502,000000	28,302600
1501,000000	28,310200
1500,000000	28,309800
1499,000000	28,305300
1498,000000	28,292500
1497,000000	28,293800
1496,000000	28,307900
1495,000000	28,319000
1494,000000	28,331200
1493,000000	28,352200
1492,000000	28,374100
1491,000000	28,414700
1490,000000	28,428100
1489,000000	28,450700
1488,000000	28,479100
1487,000000	28,508100
1486,000000	28,524900
1485,000000	28,577800
1484,000000	28,588300
1483,000000	28,630500
1482,000000	28,676000
1481,000000	28,732400
1480,000000	28,781300
1479,000000	28,845300
1478,000000	28,912300
1477,000000	28,942200
1476,000000	29,024500
1475,000000	29,115800
1474,000000	29,188900
1473,000000	29,278100
1472,000000	29,361500
1471,000000	29,432900
1470,000000	29,486800
1469,000000	29,553500
1468,000000	29,646200
1467,000000	29,732900
1466,000000	29,810500
1465,000000	29,901400
1464,000000	29,991700
1463,000000	30,097400
1462,000000	30,207500
1461,000000	30,312400
1460,000000	30,416900
1459,000000	30,537100
1458,000000	30,684600
1457,000000	30,797600
1456,000000	30,922200
1455,000000	31,042400
1454,000000	31,187900
1453,000000	31,349900
1452,000000	31,503500
1451,000000	31,657000
1450,000000	31,759700
1449,000000	31,905600
1448,000000	32,054300
1447,000000	32,233000
1446,000000	32,406700
1445,000000	32,579000
1444,000000	32,735800
1443,000000	32,894700
1442,000000	33,072100
1441,000000	33,213300
1440,000000	33,394800
1439,000000	33,569200
1438,000000	33,718000
1437,000000	33,843100
1436,000000	33,999900
1435,000000	34,160500
1434,000000	34,316600
1433,000000	34,469100
1432,000000	34,660800
1431,000000	34,818100
1430,000000	35,012500
1429,000000	35,213000
1428,000000	35,423700
1427,000000	35,623900
1426,000000	35,918700
1425,000000	36,155400
1424,000000	36,414900
1423,000000	36,689500
1422,000000	36,916400
1421,000000	37,184000
1420,000000	37,465500
1419,000000	37,694100
1418,000000	37,894000
1417,000000	38,127700
1416,000000	38,391300
1415,000000	38,646200
1414,000000	38,858700
1413,000000	39,058400
1412,000000	39,254000
1411,000000	39,563300
1410,000000	39,882300
1409,000000	40,213600
1408,000000	40,587200
1407,000000	40,975800
1406,000000	41,352900
1405,000000	41,736200
1404,000000	42,110500
1403,000000	42,500400
1402,000000	42,906700
1401,000000	43,306800
1400,000000	43,617700
1399,000000	43,795800
1398,000000	43,995200
1397,000000	44,223700
1396,000000	44,436700
1395,000000	44,520200
1394,000000	44,587700
1393,000000	44,708600
1392,000000	44,849800
1391,000000	44,988200
1390,000000	45,141600
1389,000000	45,381500
1388,000000	45,617900
1387,000000	45,888400
1386,000000	46,210500
1385,000000	46,579800
1384,000000	46,891600
1383,000000	47,203500
1382,000000	47,405200
1381,000000	47,510900
1380,000000	47,566400
1379,000000	47,595300
1378,000000	47,606200
1377,000000	47,700600
1376,000000	47,821200
1375,000000	48,049100
1374,000000	48,357600
1373,000000	48,736400
1372,000000	49,119000
1371,000000	49,510400
1370,000000	49,848400
1369,000000	50,177800
1368,000000	50,496200
1367,000000	50,741600
1366,000000	50,949100
1365,000000	51,165000
1364,000000	51,314200
1363,000000	51,498900
1362,000000	51,661300
1361,000000	51,728400
1360,000000	51,735400
1359,000000	51,845700
1358,000000	51,976700
1357,000000	52,219000
1356,000000	52,654000
1355,000000	53,215000
1354,000000	53,815300
1353,000000	54,434100
1352,000000	55,146800
1351,000000	55,798300
1350,000000	56,378200
1349,000000	56,914700
1348,000000	57,423400
1347,000000	57,873200
1346,000000	58,313700
1345,000000	58,743600
1344,000000	59,122200
1343,000000	59,487700
1342,000000	59,827900
1341,000000	60,160500
1340,000000	60,468400
1339,000000	60,753500
1338,000000	61,046700
1337,000000	61,311000
1336,000000	61,543600
1335,000000	61,772800
1334,000000	61,990100
1333,000000	62,187100
1332,000000	62,377400
1331,000000	62,567900
1330,000000	62,737200
1329,000000	62,890500
1328,000000	63,034000
1327,000000	63,171000
1326,000000	63,303200
1325,000000	63,419600
1324,000000	63,535800
1323,000000	63,645900
1322,000000	63,740300
1321,000000	63,831200
1320,000000	63,909300
1319,000000	63,984800
1318,000000	64,077900
1317,000000	64,159000
1316,000000	64,224600
1315,000000	64,294500
1314,000000	64,338100
1313,000000	64,386700
1312,000000	64,439500
1311,000000	64,488000
1310,000000	64,533200
1309,000000	64,562700
1308,000000	64,577200
1307,000000	64,592100
1306,000000	64,601600
1305,000000	64,602900
1304,000000	64,590100
1303,000000	64,584100
1302,000000	64,577400
1301,000000	64,545800
1300,000000	64,521400
1299,000000	64,501500
1298,000000	64,478000
1297,000000	64,445600
1296,000000	64,408800
1295,000000	64,372400
1294,000000	64,338100
1293,000000	64,306900
1292,000000	64,262800
1291,000000	64,199000
1290,000000	64,133800
1289,000000	64,066800
1288,000000	63,983100
1287,000000	63,895700
1286,000000	63,813300
1285,000000	63,718600
1284,000000	63,617600
1283,000000	63,518500
1282,000000	63,410900
1281,000000	63,313400
1280,000000	63,214300
1279,000000	63,106000
1278,000000	63,008600
1277,000000	62,925400
1276,000000	62,840600
1275,000000	62,757900
1274,000000	62,686100
1273,000000	62,621000
1272,000000	62,542800
1271,000000	62,480900
1270,000000	62,423800
1269,000000	62,366700
1268,000000	62,290600
1267,000000	62,214400
1266,000000	62,145000
1265,000000	62,065600
1264,000000	61,992000
1263,000000	61,924700
1262,000000	61,871700
1261,000000	61,803300
1260,000000	61,741900
1259,000000	61,678300
1258,000000	61,589900
1257,000000	61,512800
1256,000000	61,438600
1255,000000	61,354400
1254,000000	61,254100
1253,000000	61,163900
1252,000000	61,070000
1251,000000	60,953800
1250,000000	60,844100
1249,000000	60,712000
1248,000000	60,589000
1247,000000	60,454400
1246,000000	60,299300
1245,000000	60,126400
1244,000000	59,934200
1243,000000	59,757500
1242,000000	59,565100
1241,000000	59,362200
1240,000000	59,168100
1239,000000	58,963400
1238,000000	58,760900
1237,000000	58,543600
1236,000000	58,327000
1235,000000	58,112300
1234,000000	57,901100
1233,000000	57,672900
1232,000000	57,453500
1231,000000	57,233900
1230,000000	57,016900
1229,000000	56,785800
1228,000000	56,557400
1227,000000	56,350000
1226,000000	56,120000
1225,000000	55,905000
1224,000000	55,709300
1223,000000	55,496100
1222,000000	55,326600
1221,000000	55,132000
1220,000000	54,953700
1219,000000	54,787400
1218,000000	54,636400
1217,000000	54,486200
1216,000000	54,348400
1215,000000	54,231400
1214,000000	54,113800
1213,000000	53,991500
1212,000000	53,888200
1211,000000	53,773200
1210,000000	53,695600
1209,000000	53,586700
1208,000000	53,528600
1207,000000	53,481200
1206,000000	53,445100
1205,000000	53,438200
1204,000000	53,418800
1203,000000	53,396800
1202,000000	53,372900
1201,000000	53,326500
1200,000000	53,260100
1199,000000	53,137000
1198,000000	53,008500
1197,000000	52,816600
1196,000000	52,582300
1195,000000	52,255500
1194,000000	51,849900
1193,000000	51,417000
1192,000000	50,894700
1191,000000	50,405800
1190,000000	49,956700
1189,000000	49,591600
1188,000000	49,338300
1187,000000	49,225700
1186,000000	49,268000
1185,000000	49,423100
1184,000000	49,727400
1183,000000	50,135900
1182,000000	50,642700
1181,000000	51,171500
1180,000000	51,705700
1179,000000	52,186100
1178,000000	52,596300
1177,000000	52,968200
1176,000000	53,297800
1175,000000	53,609200
1174,000000	53,918600
1173,000000	54,257200
1172,000000	54,603200
1171,000000	54,980600
1170,000000	55,374400
1169,000000	55,751400
1168,000000	56,128900
1167,000000	56,536700
1166,000000	56,936500
1165,000000	57,353900
1164,000000	57,766500
1163,000000	58,174700
1162,000000	58,573500
1161,000000	58,971000
1160,000000	59,360400
1159,000000	59,713600
1158,000000	60,044800
1157,000000	60,327600
1156,000000	60,555800
1155,000000	60,722100
1154,000000	60,808100
1153,000000	60,835100
1152,000000	60,822300
1151,000000	60,759200
1150,000000	60,731900
1149,000000	60,678100
1148,000000	60,652100
1147,000000	60,715800
1146,000000	60,825900
1145,000000	61,033800
1144,000000	61,335600
1143,000000	61,683800
1142,000000	61,990800
1141,000000	62,358700
1140,000000	62,733900
1139,000000	63,144500
1138,000000	63,531600
1137,000000	63,951200
1136,000000	64,379900
1135,000000	64,766600
1134,000000	65,108200
1133,000000	65,376500
1132,000000	65,659200
1131,000000	65,934200
1130,000000	66,171500
1129,000000	66,339000
1128,000000	66,495000
1127,000000	66,592300
1126,000000	66,679400
1125,000000	66,752300
1124,000000	66,816300
1123,000000	66,870000
1122,000000	66,904500
1121,000000	66,921900
1120,000000	66,934600
1119,000000	66,938700
1118,000000	66,944400
1117,000000	66,921100
1116,000000	66,877500
1115,000000	66,849300
1114,000000	66,824800
1113,000000	66,773400
1112,000000	66,749500
1111,000000	66,706600
1110,000000	66,678200
1109,000000	66,624900
1108,000000	66,594000
1107,000000	66,554200
1106,000000	66,493600
1105,000000	66,442500
1104,000000	66,409200
1103,000000	66,356100
1102,000000	66,311100
1101,000000	66,231600
1100,000000	66,165100
1099,000000	66,103100
1098,000000	66,032400
1097,000000	65,963700
1096,000000	65,893000
1095,000000	65,811500
1094,000000	65,730800
1093,000000	65,635800
1092,000000	65,544300
1091,000000	65,457200
1090,000000	65,375900
1089,000000	65,282700
1088,000000	65,193100
1087,000000	65,092500
1086,000000	64,973300
1085,000000	64,878000
1084,000000	64,776700
1083,000000	64,669300
1082,000000	64,569400
1081,000000	64,490000
1080,000000	64,396500
1079,000000	64,299500
1078,000000	64,190600
1077,000000	64,104100
1076,000000	64,025100
1075,000000	63,929000
1074,000000	63,837700
1073,000000	63,746300
1072,000000	63,649200
1071,000000	63,552100
1070,000000	63,471100
1069,000000	63,386000
1068,000000	63,287000
1067,000000	63,204900
1066,000000	63,130000
1065,000000	63,051800
1064,000000	62,961200
1063,000000	62,877000
1062,000000	62,795800
1061,000000	62,708200
1060,000000	62,625400
1059,000000	62,534900
1058,000000	62,457400
1057,000000	62,374100
1056,000000	62,272500
1055,000000	62,185900
1054,000000	62,112300
1053,000000	62,012300
1052,000000	61,925700
1051,000000	61,859700
1050,000000	61,784000
1049,000000	61,708600
1048,000000	61,634000
1047,000000	61,564300
1046,000000	61,494300
1045,000000	61,411000
1044,000000	61,337700
1043,000000	61,277900
1042,000000	61,202000
1041,000000	61,126900
1040,000000	61,058500
1039,000000	60,991900
1038,000000	60,911900
1037,000000	60,829600
1036,000000	60,748800
1035,000000	60,662700
1034,000000	60,575300
1033,000000	60,485900
1032,000000	60,401000
1031,000000	60,323900
1030,000000	60,211700
1029,000000	60,108000
1028,000000	60,022300
1027,000000	59,915600
1026,000000	59,808900
1025,000000	59,704500
1024,000000	59,612600
1023,000000	59,522600
1022,000000	59,420700
1021,000000	59,321500
1020,000000	59,218500
1019,000000	59,123600
1018,000000	59,045700
1017,000000	58,973400
1016,000000	58,908200
1015,000000	58,835000
1014,000000	58,772600
1013,000000	58,727800
1012,000000	58,686800
1011,000000	58,660500
1010,000000	58,621900
1009,000000	58,592800
1008,000000	58,575200
1007,000000	58,550600
1006,000000	58,529100
1005,000000	58,515200
1004,000000	58,503200
1003,000000	58,486400
1002,000000	58,458000
1001,000000	58,422000
1000,000000	58,417700
999,000000	58,409600
998,000000	58,386800
997,000000	58,378200
996,000000	58,351200
995,000000	58,343400
994,000000	58,348300
993,000000	58,338900
992,000000	58,345100
991,000000	58,340100
990,000000	58,358000
989,000000	58,355400
988,000000	58,370200
987,000000	58,383300
986,000000	58,392100
985,000000	58,402400
984,000000	58,435200
983,000000	58,470700
982,000000	58,468200
981,000000	58,473800
980,000000	58,499900
979,000000	58,495800
978,000000	58,516900
977,000000	58,540600
976,000000	58,540100
975,000000	58,547200
974,000000	58,556200
973,000000	58,580700
972,000000	58,599900
971,000000	58,610400
970,000000	58,631000
969,000000	58,659600
968,000000	58,683700
967,000000	58,704600
966,000000	58,726100
965,000000	58,765100
964,000000	58,816700
963,000000	58,854500
962,000000	58,908800
961,000000	58,961300
960,000000	59,020900
959,000000	59,092200
958,000000	59,157800
957,000000	59,223400
956,000000	59,274200
955,000000	59,322900
954,000000	59,382500
953,000000	59,465500
952,000000	59,519900
951,000000	59,574900
950,000000	59,618200
949,000000	59,680100
948,000000	59,723700
947,000000	59,812800
946,000000	59,864400
945,000000	59,914600
944,000000	60,002400
943,000000	60,058100
942,000000	60,130200
941,000000	60,192500
940,000000	60,293100
939,000000	60,363800
938,000000	60,452400
937,000000	60,548300
936,000000	60,625300
935,000000	60,757900
934,000000	60,827600
933,000000	60,915700
932,000000	61,017500
931,000000	61,102200
930,000000	61,224300
929,000000	61,303400
928,000000	61,381800
927,000000	61,517200
926,000000	61,587000
925,000000	61,641900
924,000000	61,719800
923,000000	61,800300
922,000000	61,876800
921,000000	61,919800
920,000000	62,006700
919,000000	62,125900
918,000000	62,168900
917,000000	62,213600
916,000000	62,275700
915,000000	62,323900
914,000000	62,375900
913,000000	62,387700
912,000000	62,443900
911,000000	62,507500
910,000000	62,553100
909,000000	62,614400
908,000000	62,667500
907,000000	62,730800
906,000000	62,746100
905,000000	62,807400
904,000000	62,887600
903,000000	62,981500
902,000000	63,058700
901,000000	63,138100
900,000000	63,227200
899,000000	63,334900
898,000000	63,423700
897,000000	63,440300
896,000000	63,564100
895,000000	63,643600
894,000000	63,706300
893,000000	63,745900
892,000000	63,844800
891,000000	63,935600
890,000000	64,034500
889,000000	64,051400
888,000000	64,120900
887,000000	64,137500
886,000000	64,224400
885,000000	64,282900
884,000000	64,382200
883,000000	64,468900
882,000000	64,501300
881,000000	64,598600
880,000000	64,627000
879,000000	64,632300
878,000000	64,682800
877,000000	64,664600
876,000000	64,614100
875,000000	64,606500
874,000000	64,473000
873,000000	64,382600
872,000000	64,421600
871,000000	64,632500
870,000000	64,873600
869,000000	65,158300
868,000000	65,428700
867,000000	65,700100
866,000000	65,955300
865,000000	66,238900
864,000000	66,511000
863,000000	66,789500
862,000000	67,074300
861,000000	67,370400
860,000000	67,668200
859,000000	67,967400
858,000000	69,043000
857,000000	73,627400
856,000000	73,356800
855,000000	73,635300
854,000000	74,727900
853,000000	75,172700
852,000000	75,281300
851,000000	75,266200
850,000000	75,446100
849,000000	76,018800
848,000000	76,629400
847,000000	76,791200
846,000000	77,214600
845,000000	77,749200
844,000000	77,969600
843,000000	77,789600
842,000000	78,618200
841,000000	79,248400
840,000000	79,275200
839,000000	79,894500
838,000000	80,787800
837,000000	80,891900
836,000000	81,136400
835,000000	81,271500
834,000000	81,773500
833,000000	82,063500
832,000000	82,571200
831,000000	83,011800
830,000000	83,539400
829,000000	83,643800
828,000000	84,301300
827,000000	84,769500
826,000000	85,172900
825,000000	85,497600
824,000000	85,888400
823,000000	86,451100
822,000000	86,920700
821,000000	87,394000
820,000000	87,622600
819,000000	87,763300
818,000000	88,253000
817,000000	88,768100
816,000000	89,266000
815,000000	89,557200
814,000000	89,936100
813,000000	90,303900
812,000000	90,578900
811,000000	90,960900
810,000000	91,206100
809,000000	91,618600
808,000000	91,917300
807,000000	92,050700
806,000000	92,199800
805,000000	92,599400
804,000000	92,898900
803,000000	93,147000
802,000000	93,326000
801,000000	93,346700
800,000000	93,613200
799,000000	93,824500
798,000000	93,992800
797,000000	94,180700
796,000000	94,303600
795,000000	94,410100
794,000000	94,401700
793,000000	94,654800
792,000000	94,708200
791,000000	94,773300
790,000000	94,751100
789,000000	94,898700
788,000000	94,877500
787,000000	94,977400
786,000000	95,058200
785,000000	95,169100
784,000000	95,151800
783,000000	95,095700
782,000000	95,065300
781,000000	95,126700
780,000000	95,118600
779,000000	94,988900
778,000000	95,052700
777,000000	95,120200
776,000000	95,097900
775,000000	95,066000
774,000000	95,052300
773,000000	95,100700
772,000000	95,054900
771,000000	95,071100
770,000000	95,046500
769,000000	94,893300
768,000000	94,976900
767,000000	94,985000
766,000000	94,827700
765,000000	94,783200
764,000000	94,739000
763,000000	94,627600
762,000000	94,527700
761,000000	94,553600
760,000000	94,521700
759,000000	94,381800
758,000000	94,321000
757,000000	94,274800
756,000000	94,121400
755,000000	93,923100
754,000000	93,769200
753,000000	93,777800
752,000000	93,733800
751,000000	93,613000
750,000000	93,490500
749,000000	93,319700
748,000000	93,195200
747,000000	93,013300
746,000000	92,785600
745,000000	92,603700
744,000000	92,441700
743,000000	92,253500
742,000000	91,968200
741,000000	91,700700
740,000000	91,500400
739,000000	91,255500
738,000000	90,988500
737,000000	90,644300
736,000000	90,321800
735,000000	89,970300
734,000000	89,617500
733,000000	89,293800
732,000000	88,849600
731,000000	88,353300
730,000000	87,872400
729,000000	87,330500
728,000000	86,903200
727,000000	86,409300
726,000000	85,808700
725,000000	85,264800
724,000000	84,650300
723,000000	84,100500
722,000000	83,525500
721,000000	82,891400
720,000000	82,337800
719,000000	81,790100
718,000000	81,199600
717,000000	80,668100
716,000000	80,141300
715,000000	79,692800
714,000000	79,281100
713,000000	78,806700
712,000000	78,392600
711,000000	78,066000
710,000000	77,736500
709,000000	77,414600
708,000000	77,159200
707,000000	76,871500
706,000000	76,699700
705,000000	76,445600
704,000000	76,204700
703,000000	76,013100
702,000000	75,826000
701,000000	75,709000
700,000000	75,555000
699,000000	75,391100
698,000000	75,219300
697,000000	75,121300
696,000000	75,018400
695,000000	74,846400
694,000000	74,669900
693,000000	74,504900
692,000000	74,319000
691,000000	74,126800
690,000000	73,916900
689,000000	73,728700
688,000000	73,536800
687,000000	73,243100
686,000000	73,002200
685,000000	72,744400
684,000000	72,458500
683,000000	72,215400
682,000000	71,900300
681,000000	71,578600
680,000000	71,241600
679,000000	70,918400
678,000000	70,624200
677,000000	70,362200
676,000000	70,065700
675,000000	69,769700
674,000000	69,491000
673,000000	69,218900
672,000000	68,932700
671,000000	68,756300
670,000000	68,518400
669,000000	68,252700
668,000000	68,129200
667,000000	67,935100
666,000000	67,816200
665,000000	67,625500
664,000000	67,496600
663,000000	67,401500
662,000000	67,238800
661,000000	67,138800
660,000000	67,073400
659,000000	66,933700
658,000000	66,799100
657,000000	66,687400
656,000000	66,560300
655,000000	66,419000
654,000000	66,261200
653,000000	66,161200
652,000000	65,966200
651,000000	65,861900
650,000000	65,779700
649,000000	65,627900
648,000000	65,457300
647,000000	65,318100
646,000000	65,177400
645,000000	64,988400
644,000000	64,830600
643,000000	64,716000
642,000000	64,550600
641,000000	64,381300
640,000000	64,266600
639,000000	64,115100
638,000000	64,062100
637,000000	63,964200
636,000000	63,908500
635,000000	63,976500
634,000000	63,988200
633,000000	64,023000
632,000000	64,114700
631,000000	64,249600
630,000000	64,390400
629,000000	64,581400
628,000000	64,815600
627,000000	65,028700
626,000000	65,359100
625,000000	65,623100
624,000000	65,995300
623,000000	66,346100
622,000000	66,758500
621,000000	67,131600
620,000000	67,554700
619,000000	67,976700
618,000000	68,440400
617,000000	68,874100
616,000000	69,266700
615,000000	69,723700
614,000000	70,212900
613,000000	70,676200
612,000000	71,144400
611,000000	71,604200
610,000000	72,071600
609,000000	72,488500
608,000000	72,912900
607,000000	73,393500
606,000000	73,810500
605,000000	74,144900
604,000000	74,564100
603,000000	74,989900
602,000000	75,372700
601,000000	75,765200
600,000000	76,107500
599,000000	76,429700
598,000000	76,794200
597,000000	77,115900
596,000000	77,365000
595,000000	77,696200
594,000000	77,939300
593,000000	78,198900
592,000000	78,358600
591,000000	78,646500
590,000000	78,780300
589,000000	78,849300
588,000000	79,016100
587,000000	79,085000
586,000000	79,043100
585,000000	79,182100
584,000000	79,151900
583,000000	79,111200
582,000000	79,072300
581,000000	78,997100
580,000000	78,942700
579,000000	78,845600
578,000000	78,704100
577,000000	78,486200
576,000000	78,367500
575,000000	78,158800
574,000000	78,024400
573,000000	77,833600
572,000000	77,650500
571,000000	77,322500
570,000000	77,159800
569,000000	76,849100
568,000000	76,602800
567,000000	76,248500
566,000000	75,931800
565,000000	75,624900
564,000000	75,307300
563,000000	74,995500
562,000000	74,547500
561,000000	74,165800
560,000000	73,712800
559,000000	73,091500
558,000000	72,608000
557,000000	72,069000
556,000000	71,486600
555,000000	70,969000
554,000000	70,385600
553,000000	69,775800
552,000000	69,143400
551,000000	68,467000
550,000000	67,777900
549,000000	67,142000
548,000000	66,467400
547,000000	65,780800
546,000000	65,062000
545,000000	64,361900
544,000000	63,647500
543,000000	62,880300
542,000000	62,123600
541,000000	61,294600
540,000000	60,504400
539,000000	59,666400
538,000000	58,826400
537,000000	58,010700
536,000000	57,175300
535,000000	56,295200
534,000000	55,373500
533,000000	54,479600
532,000000	53,594100
531,000000	52,711100
530,000000	51,814400
529,000000	50,923800
528,000000	50,058300
527,000000	49,205300
526,000000	48,336500
525,000000	47,503800
524,000000	46,669400
523,000000	45,849100
522,000000	45,053600
521,000000	44,231400
520,000000	43,422600
519,000000	42,691900
518,000000	41,986100
517,000000	41,298700
516,000000	40,613600
515,000000	39,958200
514,000000	39,329200
513,000000	38,718800
512,000000	38,147700
511,000000	37,625800
510,000000	37,122500
509,000000	36,629100
508,000000	36,166400
507,000000	35,720900
506,000000	35,314500
505,000000	34,907600
504,000000	34,521200
503,000000	34,136100
502,000000	33,764600
501,000000	33,436300
500,000000	33,094600
499,000000	32,760100
498,000000	32,434500
497,000000	32,112300
496,000000	31,801000
495,000000	31,508300
494,000000	31,195400
493,000000	30,891300
492,000000	30,604800
491,000000	30,322000
490,000000	30,035500
489,000000	29,765800
488,000000	29,519000
487,000000	29,298600
486,000000	29,068200
485,000000	28,855500
484,000000	28,670200
483,000000	28,481800
482,000000	28,308000
481,000000	28,120900
480,000000	27,959900
479,000000	27,824400
478,000000	27,694000
477,000000	27,601200
476,000000	27,488600
475,000000	27,397400
474,000000	27,301500
473,000000	27,219200
472,000000	27,162200
471,000000	27,117300
470,000000	27,043000
469,000000	26,981400
468,000000	26,937900
467,000000	26,880200
466,000000	26,826800
465,000000	26,802500
464,000000	26,768500
463,000000	26,726700
462,000000	26,674500
461,000000	26,619400
460,000000	26,566900
459,000000	26,526500
458,000000	26,461700
457,000000	26,409700
456,000000	26,369500
455,000000	26,287200
454,000000	26,221800
453,000000	26,159300
452,000000	26,096000
451,000000	25,982200
450,000000	25,883500
449,000000	25,791500
448,000000	25,685700
447,000000	25,583000
446,000000	25,472300
445,000000	25,337800
444,000000	25,188200
443,000000	25,032400
442,000000	24,874400
441,000000	24,709600
440,000000	24,496000
439,000000	24,302800
438,000000	24,094500
437,000000	23,876700
436,000000	23,630000
435,000000	23,377200
434,000000	23,109700
433,000000	22,834500
432,000000	22,578100
431,000000	22,286000
430,000000	21,967400
429,000000	21,638400
428,000000	21,324100
427,000000	21,007300
426,000000	20,661800
425,000000	20,314900
424,000000	19,941600
423,000000	19,563800
422,000000	19,191300
421,000000	18,806800
420,000000	18,404600
419,000000	18,014300
418,000000	17,633200
417,000000	17,233500
416,000000	16,838900
415,000000	16,468900
414,000000	16,088700
413,000000	15,712100
412,000000	15,311200
411,000000	14,934100
410,000000	14,553100
409,000000	14,185800
408,000000	13,820400
407,000000	13,467600
406,000000	13,132800
405,000000	12,801300
404,000000	12,461500
403,000000	12,155500
402,000000	11,829500
401,000000	11,535200
400,000000	11,238700
399,000000	10,957000
398,000000	10,694600
397,000000	10,430400
396,000000	10,173500
395,000000	9,933900
394,000000	9,725600
393,000000	9,488400
392,000000	9,243100
391,000000	9,056300
390,000000	8,858900
389,000000	8,660900
388,000000	8,467300
387,000000	8,312000
386,000000	8,163000
385,000000	8,019500
384,000000	7,842400
383,000000	7,709500
382,000000	7,584900
381,000000	7,478900
380,000000	7,344000
379,000000	7,239200
378,000000	7,136200
377,000000	7,061500
376,000000	6,971500
375,000000	6,483500
374,000000	6,312200
373,000000	6,364100
372,000000	6,171200
371,000000	6,181800
370,000000	6,310500
369,000000	6,243200
368,000000	6,184600
367,000000	6,198900
366,000000	6,252100
365,000000	6,334600
364,000000	6,278400
363,000000	5,992300
362,000000	6,167100
361,000000	6,232400
360,000000	6,116000
359,000000	5,995500
358,000000	5,949700
357,000000	6,257200
356,000000	6,025700
355,000000	6,065900
354,000000	5,860300
353,000000	5,754900
352,000000	5,827700
351,000000	5,795300
350,000000	5,913500
349,000000	6,071400
348,000000	5,984400
347,000000	6,019000
346,000000	5,698800
345,000000	5,611300
344,000000	5,488300
343,000000	5,381700
342,000000	5,920800
341,000000	5,653500
340,000000	5,837800
339,000000	5,604600
338,000000	5,782900
337,000000	5,856000
336,000000	5,737700
335,000000	5,885000
334,000000	6,102900
333,000000	5,652300
332,000000	5,511500
331,000000	5,800600
330,000000	5,586000
329,000000	6,127700
328,000000	5,693500
327,000000	5,500300
326,000000	5,651900
325,000000	5,546500
324,000000	5,969100
323,000000	6,543500
322,000000	5,811200
321,000000	6,083300
320,000000	6,476000
319,000000	6,387800
318,000000	6,512900
317,000000	6,187500
316,000000	5,608600
315,000000	5,549800
314,000000	5,580600
313,000000	5,571200
312,000000	5,581400
311,000000	5,547500
310,000000	5,518200
309,000000	5,603900
308,000000	5,542100
307,000000	5,533100
306,000000	5,544100
305,000000	5,604100
304,000000	5,608900
303,000000	5,621600
302,000000	5,607600
301,000000	5,566700
300,000000	5,610000
299,000000	5,582000
298,000000	5,585500
297,000000	5,596300
296,000000	5,595800
295,000000	5,614900
294,000000	5,597200
293,000000	5,634100
292,000000	5,665000
291,000000	5,621500
290,000000	5,647200
289,000000	5,592400
288,000000	5,649300
287,000000	5,719500
286,000000	5,662300
285,000000	5,722200
284,000000	5,679800
283,000000	5,727100
282,000000	5,718100
281,000000	5,684600
280,000000	5,732600
279,000000	5,668000
278,000000	5,713400
277,000000	5,756600
276,000000	5,735800
275,000000	5,773500
274,000000	5,769500
273,000000	5,793600
272,000000	5,760000
271,000000	5,826700
270,000000	5,786400
269,000000	5,815400
268,000000	5,872300
267,000000	5,885300
266,000000	5,886600
265,000000	5,921700
264,000000	5,915000
263,000000	5,959200
262,000000	6,030700
261,000000	6,046800
260,000000	6,043300
259,000000	6,073400
258,000000	6,099000
257,000000	6,085600
256,000000	6,104300
255,000000	6,097800
254,000000	6,091200
253,000000	6,111800
252,000000	6,124500
251,000000	6,187700
250,000000	6,149200
