PE UV       SUBTECH     SPECTRUM    ASCII       PEDS        4.00        
   -1
CICIMAUCR0244-3.Sample.ASC
24/06/21
15:30:51.00
24/06/21
15:30:51.00
Vinicio Soto Monge
C. cupreomarginata. Ventral. Sex M
250,000000
1
Lambda 1050
1050L1511233
PerkinElmer UV WinLab 6.3.2.0749 / 2.02.05 Lambda 900 UV/VIS/NIR, Aug  7 2015 09:38:08

0
0
3350/servo 860,8/2
0
0
UV/VIS
1
1
1
DoubleDePol,CommonBeamDepol,RBeamAtt,SBeamAtt,60mm sphere, WB InGaAs Detector
0
0
0
0
Program
Program
3350/servo 860,8/2
3350/0,2 860,8/0,2
3350/0,2 860,8/0,2
0
15.00
 
 
 
0
 
860,8
319,2
860,8
Front
100
on
S:100 R:100
0
0
0
0
 
0
 
 
 
0
 
 
0
0
0
0
0
 
 
 
 
0
0


0
0
#HDR
-1
-1
#GR
nm
%R
1.0
0.0
2500,000000
-1,000000
2251
8
57,107000
3,834700
#DATA
2482.000000	5.036474
2481.000000	4.971467
2480.000000	5.045920
2479.000000	5.017583
2478.000000	5.052921
2477.000000	5.014916
2476.000000	5.067256
2475.000000	5.001693
2474.000000	5.022806
2473.000000	4.977468
2472.000000	4.997581
2471.000000	4.973689
2470.000000	4.980246
2469.000000	4.970133
2468.000000	4.962355
2467.000000	4.999692
2466.000000	4.984913
2465.000000	4.981690
2464.000000	4.981579
2463.000000	4.992136
2462.000000	4.976134
2461.000000	5.003915
2460.000000	5.000359
2459.000000	5.033474
2458.000000	5.039586
2457.000000	5.017917
2456.000000	5.035141
2455.000000	5.060700
2454.000000	5.027696
2453.000000	5.062589
2452.000000	5.076146
2451.000000	5.043142
2450.000000	5.091259
2449.000000	5.108261
2448.000000	5.125818
2447.000000	5.130597
2446.000000	5.151154
2445.000000	5.151932
2444.000000	5.169045
2443.000000	5.213162
2442.000000	5.222274
2441.000000	5.205605
2440.000000	5.224274
2439.000000	5.259278
2438.000000	5.290393
2437.000000	5.291282
2436.000000	5.317285
2435.000000	5.309728
2434.000000	5.312951
2433.000000	5.337843
2432.000000	5.364735
2431.000000	5.376625
2430.000000	5.366068
2429.000000	5.377736
2428.000000	5.393405
2427.000000	5.401072
2426.000000	5.413963
2425.000000	5.425186
2424.000000	5.429631
2423.000000	5.445633
2422.000000	5.451967
2421.000000	5.460746
2420.000000	5.476192
2419.000000	5.492750
2418.000000	5.489861
2417.000000	5.484304
2416.000000	5.503418
2415.000000	5.515530
2414.000000	5.526643
2413.000000	5.529976
2412.000000	5.543645
2411.000000	5.554868
2410.000000	5.549645
2409.000000	5.550423
2408.000000	5.566203
2407.000000	5.568870
2406.000000	5.572981
2405.000000	5.575537
2404.000000	5.585205
2403.000000	5.588316
2402.000000	5.593650
2401.000000	5.594095
2400.000000	5.595095
2399.000000	5.605652
2398.000000	5.631655
2397.000000	5.641211
2396.000000	5.656324
2395.000000	5.671104
2394.000000	5.683550
2393.000000	5.684883
2392.000000	5.686883
2391.000000	5.684105
2390.000000	5.702885
2389.000000	5.718665
2388.000000	5.709997
2387.000000	5.706441
2386.000000	5.720665
2385.000000	5.729777
2384.000000	5.733222
2383.000000	5.724443
2382.000000	5.726221
2381.000000	5.752669
2380.000000	5.752002
2379.000000	5.736778
2378.000000	5.731444
2377.000000	5.742557
2376.000000	5.739223
2375.000000	5.735778
2374.000000	5.742001
2373.000000	5.743890
2372.000000	5.722554
2371.000000	5.712775
2370.000000	5.710219
2369.000000	5.709330
2368.000000	5.704330
2367.000000	5.707886
2366.000000	5.700107
2365.000000	5.698440
2364.000000	5.689550
2363.000000	5.672437
2362.000000	5.656324
2361.000000	5.651101
2360.000000	5.658769
2359.000000	5.647101
2358.000000	5.631766
2357.000000	5.613653
2356.000000	5.603985
2355.000000	5.603096
2354.000000	5.592428
2353.000000	5.586983
2352.000000	5.583760
2351.000000	5.589094
2350.000000	5.593095
2349.000000	5.606541
2348.000000	5.613319
2347.000000	5.609319
2346.000000	5.613208
2345.000000	5.628543
2344.000000	5.654213
2343.000000	5.657102
2342.000000	5.659325
2341.000000	5.673215
2340.000000	5.680660
2339.000000	5.687661
2338.000000	5.695884
2337.000000	5.684439
2336.000000	5.690328
2335.000000	5.710219
2334.000000	5.721665
2333.000000	5.716442
2332.000000	5.712886
2331.000000	5.708330
2330.000000	5.699329
2329.000000	5.719332
2328.000000	5.696996
2327.000000	5.685994
2326.000000	5.680660
2325.000000	5.679994
2324.000000	5.673771
2323.000000	5.649657
2322.000000	5.624654
2321.000000	5.615986
2320.000000	5.621542
2319.000000	5.590094
2318.000000	5.565647
2317.000000	5.545867
2316.000000	5.532866
2315.000000	5.518975
2314.000000	5.478637
2313.000000	5.472192
2312.000000	5.460302
2311.000000	5.425075
2310.000000	5.424297
2309.000000	5.403406
2308.000000	5.382959
2307.000000	5.405851
2306.000000	5.395405
2305.000000	5.400517
2304.000000	5.395072
2303.000000	5.377070
2302.000000	5.394294
2301.000000	5.421853
2300.000000	5.431520
2299.000000	5.437521
2298.000000	5.457857
2297.000000	5.475637
2296.000000	5.478304
2295.000000	5.497973
2294.000000	5.530199
2293.000000	5.548756
2292.000000	5.547312
2291.000000	5.557424
2290.000000	5.593095
2289.000000	5.603763
2288.000000	5.598762
2287.000000	5.608541
2286.000000	5.611986
2285.000000	5.612653
2284.000000	5.622987
2283.000000	5.598540
2282.000000	5.607985
2281.000000	5.611208
2280.000000	5.592650
2279.000000	5.594650
2278.000000	5.597317
2277.000000	5.580760
2276.000000	5.565980
2275.000000	5.559424
2274.000000	5.556868
2273.000000	5.560869
2272.000000	5.565425
2271.000000	5.572203
2270.000000	5.574870
2269.000000	5.574426
2268.000000	5.586983
2267.000000	5.629543
2266.000000	5.636989
2265.000000	5.648546
2264.000000	5.687106
2263.000000	5.748668
2262.000000	5.764337
2261.000000	5.808564
2260.000000	5.858570
2259.000000	5.906576
2258.000000	5.951247
2257.000000	6.026701
2256.000000	6.092042
2255.000000	6.144714
2254.000000	6.223279
2253.000000	6.320068
2252.000000	6.366185
2251.000000	6.419080
2250.000000	6.462307
2249.000000	6.532537
2248.000000	6.614547
2247.000000	6.661108
2246.000000	6.736672
2245.000000	6.791679
2244.000000	6.831683
2243.000000	6.900024
2242.000000	6.929917
2241.000000	6.956587
2240.000000	7.035262
2239.000000	7.043819
2238.000000	7.088602
2237.000000	7.108271
2236.000000	7.145720
2235.000000	7.165166
2234.000000	7.198281
2233.000000	7.235175
2232.000000	7.236397
2231.000000	7.249510
2230.000000	7.261622
2229.000000	7.274512
2228.000000	7.298182
2227.000000	7.282069
2226.000000	7.297404
2225.000000	7.292181
2224.000000	7.294293
2223.000000	7.322963
2222.000000	7.293292
2221.000000	7.266512
2220.000000	7.282847
2219.000000	7.259177
2218.000000	7.228174
2217.000000	7.252732
2216.000000	7.222729
2215.000000	7.204060
2214.000000	7.199393
2213.000000	7.201948
2212.000000	7.162611
2211.000000	7.172278
2210.000000	7.153721
2209.000000	7.136830
2208.000000	7.142830
2207.000000	7.120828
2206.000000	7.126495
2205.000000	7.107049
2204.000000	7.108160
2203.000000	7.112160
2202.000000	7.098825
2201.000000	7.087935
2200.000000	7.097047
2199.000000	7.095269
2198.000000	7.081268
2197.000000	7.052376
2196.000000	7.098159
2195.000000	7.073711
2194.000000	7.062154
2193.000000	7.064821
2192.000000	7.045930
2191.000000	7.074489
2190.000000	7.048042
2189.000000	7.035151
2188.000000	7.040596
2187.000000	7.025706
2186.000000	7.033929
2185.000000	7.030040
2184.000000	7.031373
2183.000000	6.996258
2182.000000	7.012482
2181.000000	6.998036
2180.000000	6.980367
2179.000000	7.007926
2178.000000	6.991702
2177.000000	6.989479
2176.000000	6.990146
2175.000000	6.985923
2174.000000	6.989146
2173.000000	6.976922
2172.000000	6.981034
2171.000000	6.980923
2170.000000	6.984590
2169.000000	6.974922
2168.000000	6.991813
2167.000000	6.993591
2166.000000	6.997147
2165.000000	7.015927
2164.000000	7.011815
2163.000000	7.007259
2162.000000	7.005592
2161.000000	7.027928
2160.000000	7.038930
2159.000000	7.055598
2158.000000	7.064710
2157.000000	7.066488
2156.000000	7.077712
2155.000000	7.096714
2154.000000	7.138052
2153.000000	7.169167
2152.000000	7.159055
2151.000000	7.172501
2150.000000	7.206616
2149.000000	7.208727
2148.000000	7.238064
2147.000000	7.242175
2146.000000	7.268401
2145.000000	7.286514
2144.000000	7.288292
2143.000000	7.319851
2142.000000	7.352966
2141.000000	7.374080
2140.000000	7.368301
2139.000000	7.382081
2138.000000	7.392082
2137.000000	7.421196
2136.000000	7.423863
2135.000000	7.443532
2134.000000	7.472202
2133.000000	7.486426
2132.000000	7.498761
2131.000000	7.513096
2130.000000	7.519652
2129.000000	7.516541
2128.000000	7.534320
2127.000000	7.544544
2126.000000	7.545211
2125.000000	7.550767
2124.000000	7.566324
2123.000000	7.572769
2122.000000	7.549656
2121.000000	7.568880
2120.000000	7.578992
2119.000000	7.564546
2118.000000	7.553878
2117.000000	7.559323
2116.000000	7.550656
2115.000000	7.550878
2114.000000	7.551211
2113.000000	7.557768
2112.000000	7.550211
2111.000000	7.538654
2110.000000	7.559768
2109.000000	7.557768
2108.000000	7.542432
2107.000000	7.526208
2106.000000	7.529764
2105.000000	7.515763
2104.000000	7.516652
2103.000000	7.513318
2102.000000	7.490538
2101.000000	7.475091
2100.000000	7.498983
2099.000000	7.496983
2098.000000	7.466979
2097.000000	7.461868
2096.000000	7.453644
2095.000000	7.457311
2094.000000	7.461090
2093.000000	7.447533
2092.000000	7.440310
2091.000000	7.443421
2090.000000	7.440976
2089.000000	7.420196
2088.000000	7.419085
2087.000000	7.423752
2086.000000	7.422863
2085.000000	7.419529
2084.000000	7.410084
2083.000000	7.395193
2082.000000	7.378525
2081.000000	7.377524
2080.000000	7.364301
2079.000000	7.339409
2078.000000	7.331630
2077.000000	7.322185
2076.000000	7.310294
2075.000000	7.302182
2074.000000	7.287847
2073.000000	7.265956
2072.000000	7.242398
2071.000000	7.224062
2070.000000	7.215617
2069.000000	7.210283
2068.000000	7.181391
2067.000000	7.142830
2066.000000	7.130051
2065.000000	7.122050
2064.000000	7.103493
2063.000000	7.078156
2062.000000	7.068489
2061.000000	7.057821
2060.000000	7.025484
2059.000000	7.029262
2058.000000	7.012704
2057.000000	6.999480
2056.000000	6.998258
2055.000000	6.998814
2054.000000	6.995369
2053.000000	6.993146
2052.000000	7.018038
2051.000000	7.046153
2050.000000	7.046375
2049.000000	7.070044
2048.000000	7.107715
2047.000000	7.139163
2046.000000	7.156054
2045.000000	7.189169
2044.000000	7.224173
2043.000000	7.253732
2042.000000	7.288847
2041.000000	7.336631
2040.000000	7.370190
2039.000000	7.394415
2038.000000	7.418529
2037.000000	7.453756
2036.000000	7.495983
2035.000000	7.523430
2034.000000	7.554656
2033.000000	7.586326
2032.000000	7.615997
2031.000000	7.638777
2030.000000	7.661113
2029.000000	7.687560
2028.000000	7.708674
2027.000000	7.723231
2026.000000	7.751123
2025.000000	7.756013
2024.000000	7.752012
2023.000000	7.782238
2022.000000	7.784905
2021.000000	7.792239
2020.000000	7.816242
2019.000000	7.822798
2018.000000	7.839800
2017.000000	7.853802
2016.000000	7.849468
2015.000000	7.853802
2014.000000	7.838689
2013.000000	7.826688
2012.000000	7.840578
2011.000000	7.843467
2010.000000	7.820576
2009.000000	7.823910
2008.000000	7.823465
2007.000000	7.823910
2006.000000	7.804796
2005.000000	7.780238
2004.000000	7.793684
2003.000000	7.782905
2002.000000	7.736455
2001.000000	7.719786
2000.000000	7.717231
1999.000000	7.697006
1998.000000	7.690783
1997.000000	7.657890
1996.000000	7.631221
1995.000000	7.620219
1994.000000	7.616219
1993.000000	7.555879
1992.000000	7.526653
1991.000000	7.507762
1990.000000	7.478314
1989.000000	7.452644
1988.000000	7.417307
1987.000000	7.401305
1986.000000	7.377302
1985.000000	7.345521
1984.000000	7.328963
1983.000000	7.290292
1982.000000	7.261511
1981.000000	7.214839
1980.000000	7.210394
1979.000000	7.169945
1978.000000	7.118717
1977.000000	7.116605
1976.000000	7.098936
1975.000000	7.059376
1974.000000	7.039374
1973.000000	7.027039
1972.000000	6.984368
1971.000000	6.957476
1970.000000	6.921805
1969.000000	6.897135
1968.000000	6.877911
1967.000000	6.875244
1966.000000	6.829905
1965.000000	6.812792
1964.000000	6.804236
1963.000000	6.779677
1962.000000	6.749118
1961.000000	6.744006
1960.000000	6.697112
1959.000000	6.681221
1958.000000	6.679332
1957.000000	6.663664
1956.000000	6.634549
1955.000000	6.633105
1954.000000	6.582876
1953.000000	6.556207
1952.000000	6.567541
1951.000000	6.547095
1950.000000	6.523981
1949.000000	6.500645
1948.000000	6.477864
1947.000000	6.465196
1946.000000	6.455306
1945.000000	6.425636
1944.000000	6.434193
1943.000000	6.419191
1942.000000	6.407412
1941.000000	6.371852
1940.000000	6.409523
1939.000000	6.367518
1938.000000	6.403633
1937.000000	6.394521
1936.000000	6.397188
1935.000000	6.378408
1934.000000	6.371074
1933.000000	6.387965
1932.000000	6.385187
1931.000000	6.396633
1930.000000	6.434748
1929.000000	6.448416
1928.000000	6.462196
1927.000000	6.462529
1926.000000	6.515424
1925.000000	6.535649
1924.000000	6.567986
1923.000000	6.564097
1922.000000	6.619770
1921.000000	6.668331
1920.000000	6.700446
1919.000000	6.733338
1918.000000	6.799457
1917.000000	6.836795
1916.000000	6.886356
1915.000000	6.911804
1914.000000	6.976589
1913.000000	7.043152
1912.000000	7.121495
1911.000000	7.175390
1910.000000	7.222062
1909.000000	7.281736
1908.000000	7.383081
1907.000000	7.448644
1906.000000	7.528097
1905.000000	7.642111
1904.000000	7.733566
1903.000000	7.848690
1902.000000	7.932033
1901.000000	8.047491
1900.000000	8.161504
1899.000000	8.286186
1898.000000	8.442315
1897.000000	8.565107
1896.000000	8.706790
1895.000000	8.821359
1894.000000	8.943151
1893.000000	9.105614
1892.000000	9.257854
1891.000000	9.471990
1890.000000	9.640010
1889.000000	9.820920
1888.000000	10.010497
1887.000000	10.219188
1886.000000	10.427435
1885.000000	10.663351
1884.000000	10.939939
1883.000000	11.213526
1882.000000	11.504004
1881.000000	11.791482
1880.000000	12.098407
1879.000000	12.389774
1878.000000	12.658694
1877.000000	12.959729
1876.000000	13.250318
1875.000000	13.541574
1874.000000	13.847832
1873.000000	14.144200
1872.000000	14.454792
1871.000000	14.747826
1870.000000	15.024969
1869.000000	15.304557
1868.000000	15.574477
1867.000000	15.749053
1866.000000	15.926630
1865.000000	16.060312
1864.000000	16.176325
1863.000000	16.251445
1862.000000	16.354235
1861.000000	16.462470
1860.000000	16.592818
1859.000000	16.717166
1858.000000	16.838291
1857.000000	16.884408
1856.000000	16.936747
1855.000000	16.996087
1854.000000	17.034758
1853.000000	17.075208
1852.000000	17.087653
1851.000000	17.100988
1850.000000	17.070096
1849.000000	17.052427
1848.000000	17.068096
1847.000000	17.112767
1846.000000	17.136548
1845.000000	17.106322
1844.000000	17.042870
1843.000000	16.978307
1842.000000	16.947859
1841.000000	16.975640
1840.000000	16.987086
1839.000000	16.967639
1838.000000	16.928968
1837.000000	16.903299
1836.000000	16.902521
1835.000000	16.885185
1834.000000	16.825290
1833.000000	16.753837
1832.000000	16.694163
1831.000000	16.633267
1830.000000	16.590818
1829.000000	16.571482
1828.000000	16.526366
1827.000000	16.465359
1826.000000	16.417909
1825.000000	16.395351
1824.000000	16.333455
1823.000000	16.250445
1822.000000	16.214663
1821.000000	16.196994
1820.000000	16.185549
1819.000000	16.196328
1818.000000	16.163435
1817.000000	16.123875
1816.000000	16.102428
1815.000000	16.083314
1814.000000	16.063201
1813.000000	16.049755
1812.000000	16.036753
1811.000000	16.018529
1810.000000	16.011973
1809.000000	15.974635
1808.000000	15.931297
1807.000000	15.895293
1806.000000	15.872401
1805.000000	15.841064
1804.000000	15.794170
1803.000000	15.759721
1802.000000	15.722161
1801.000000	15.679045
1800.000000	15.635596
1799.000000	15.603925
1798.000000	15.569255
1797.000000	15.527139
1796.000000	15.480022
1795.000000	15.436684
1794.000000	15.402457
1793.000000	15.380122
1792.000000	15.345340
1791.000000	15.304668
1790.000000	15.259774
1789.000000	15.214991
1788.000000	15.184765
1787.000000	15.144316
1786.000000	15.073641
1785.000000	15.038304
1784.000000	15.004189
1783.000000	14.951183
1782.000000	14.901844
1781.000000	14.836281
1780.000000	14.782608
1779.000000	14.741381
1778.000000	14.696153
1777.000000	14.626478
1776.000000	14.565694
1775.000000	14.508798
1774.000000	14.434123
1773.000000	14.373004
1772.000000	14.294884
1771.000000	14.197095
1770.000000	14.116419
1769.000000	14.043077
1768.000000	13.959401
1767.000000	13.888615
1766.000000	13.823274
1765.000000	13.759600
1764.000000	13.715817
1763.000000	13.678813
1762.000000	13.642920
1761.000000	13.663255
1760.000000	13.693259
1759.000000	13.712150
1758.000000	13.747154
1757.000000	13.785714
1756.000000	13.815606
1755.000000	13.859056
1754.000000	13.904617
1753.000000	13.924063
1752.000000	13.935509
1751.000000	13.936509
1750.000000	13.937509
1749.000000	13.914840
1748.000000	13.892060
1747.000000	13.854055
1746.000000	13.820051
1745.000000	13.780713
1744.000000	13.704705
1743.000000	13.622250
1742.000000	13.523461
1741.000000	13.414560
1740.000000	13.287989
1739.000000	13.171865
1738.000000	13.032071
1737.000000	12.898166
1736.000000	12.783375
1735.000000	12.701921
1734.000000	12.620356
1733.000000	12.563905
1732.000000	12.545903
1731.000000	12.545681
1730.000000	12.577351
1729.000000	12.614244
1728.000000	12.664139
1727.000000	12.711478
1726.000000	12.770929
1725.000000	12.815823
1724.000000	12.874497
1723.000000	12.915724
1722.000000	12.950061
1721.000000	12.986065
1720.000000	13.013180
1719.000000	13.046184
1718.000000	13.078409
1717.000000	13.106635
1716.000000	13.152085
1715.000000	13.217981
1714.000000	13.268320
1713.000000	13.331328
1712.000000	13.366665
1711.000000	13.432451
1710.000000	13.469233
1709.000000	13.491235
1708.000000	13.520239
1707.000000	13.531796
1706.000000	13.516016
1705.000000	13.483012
1704.000000	13.460121
1703.000000	13.426894
1702.000000	13.383778
1701.000000	13.348997
1700.000000	13.276210
1699.000000	13.203313
1698.000000	13.106635
1697.000000	13.036516
1696.000000	12.983065
1695.000000	12.950617
1694.000000	12.931059
1693.000000	12.942616
1692.000000	12.957395
1691.000000	13.054296
1690.000000	13.159197
1689.000000	13.245540
1688.000000	13.328216
1687.000000	13.414893
1686.000000	13.453453
1685.000000	13.500792
1684.000000	13.547131
1683.000000	13.621806
1682.000000	13.759155
1681.000000	13.939176
1680.000000	14.197317
1679.000000	14.529578
1678.000000	14.855949
1677.000000	15.240550
1676.000000	15.598814
1675.000000	15.945743
1674.000000	16.276781
1673.000000	16.548702
1672.000000	16.774395
1671.000000	17.003533
1670.000000	17.197555
1669.000000	17.390911
1668.000000	17.533372
1667.000000	17.676500
1666.000000	17.787735
1665.000000	17.884413
1664.000000	17.965756
1663.000000	18.051766
1662.000000	18.115662
1661.000000	18.200116
1660.000000	18.257012
1659.000000	18.303239
1658.000000	18.326686
1657.000000	18.387582
1656.000000	18.379581
1655.000000	18.389138
1654.000000	18.427476
1653.000000	18.411141
1652.000000	18.415586
1651.000000	18.393361
1650.000000	18.384693
1649.000000	18.359690
1648.000000	18.336688
1647.000000	18.278014
1646.000000	18.241121
1645.000000	18.199672
1644.000000	18.180669
1643.000000	18.145888
1642.000000	18.093437
1641.000000	18.026874
1640.000000	18.011205
1639.000000	17.946198
1638.000000	17.924640
1637.000000	17.851964
1636.000000	17.796847
1635.000000	17.729728
1634.000000	17.686612
1633.000000	17.623716
1632.000000	17.567598
1631.000000	17.494367
1630.000000	17.438139
1629.000000	17.372464
1628.000000	17.305457
1627.000000	17.250339
1626.000000	17.175219
1625.000000	17.114323
1624.000000	17.027646
1623.000000	16.965417
1622.000000	16.893297
1621.000000	16.856515
1620.000000	16.782951
1619.000000	16.736946
1618.000000	16.664604
1617.000000	16.615376
1616.000000	16.566704
1615.000000	16.489473
1614.000000	16.428021
1613.000000	16.367903
1612.000000	16.314675
1611.000000	16.255334
1610.000000	16.201106
1609.000000	16.145988
1608.000000	16.093538
1607.000000	16.054978
1606.000000	15.980858
1605.000000	15.938742
1604.000000	15.871957
1603.000000	15.804504
1602.000000	15.745275
1601.000000	15.704270
1600.000000	15.653376
1599.000000	15.582256
1598.000000	15.526694
1597.000000	15.477577
1596.000000	15.414903
1595.000000	15.366564
1594.000000	15.327227
1593.000000	15.257107
1592.000000	15.198100
1591.000000	15.189322
1590.000000	15.135426
1589.000000	15.097200
1588.000000	15.056973
1587.000000	15.015079
1586.000000	14.976964
1585.000000	14.926847
1584.000000	14.900955
1583.000000	14.854727
1582.000000	14.810389
1581.000000	14.787053
1580.000000	14.747937
1579.000000	14.729379
1578.000000	14.709933
1577.000000	14.687152
1576.000000	14.659260
1575.000000	14.636368
1574.000000	14.629923
1573.000000	14.612810
1572.000000	14.603698
1571.000000	14.608143
1570.000000	14.603365
1569.000000	14.607476
1568.000000	14.605476
1567.000000	14.592474
1566.000000	14.599253
1565.000000	14.595697
1564.000000	14.599920
1563.000000	14.590919
1562.000000	14.581807
1561.000000	14.583251
1560.000000	14.582140
1559.000000	14.593141
1558.000000	14.587807
1557.000000	14.562026
1556.000000	14.548025
1555.000000	14.538579
1554.000000	14.521466
1553.000000	14.504909
1552.000000	14.494908
1551.000000	14.469238
1550.000000	14.440346
1549.000000	14.405119
1548.000000	14.372782
1547.000000	14.355891
1546.000000	14.318109
1545.000000	14.303774
1544.000000	14.287217
1543.000000	14.259436
1542.000000	14.231877
1541.000000	14.215431
1540.000000	14.194984
1539.000000	14.180204
1538.000000	14.162647
1537.000000	14.153201
1536.000000	14.146756
1535.000000	14.121197
1534.000000	14.089972
1533.000000	14.067080
1532.000000	14.052300
1531.000000	14.028853
1530.000000	13.998961
1529.000000	13.960512
1528.000000	13.927175
1527.000000	13.898060
1526.000000	13.879503
1525.000000	13.856611
1524.000000	13.819829
1523.000000	13.784603
1522.000000	13.747598
1521.000000	13.722373
1520.000000	13.692036
1519.000000	13.652143
1518.000000	13.609582
1517.000000	13.570800
1516.000000	13.534129
1515.000000	13.499347
1514.000000	13.464788
1513.000000	13.428895
1512.000000	13.382889
1511.000000	13.351886
1510.000000	13.314993
1509.000000	13.261431
1508.000000	13.233872
1507.000000	13.207647
1506.000000	13.156974
1505.000000	13.109413
1504.000000	13.091744
1503.000000	13.063741
1502.000000	13.026181
1501.000000	12.982843
1500.000000	12.938504
1499.000000	12.904500
1498.000000	12.875053
1497.000000	12.851494
1496.000000	12.810823
1495.000000	12.785487
1494.000000	12.765706
1493.000000	12.746260
1492.000000	12.733036
1491.000000	12.714478
1490.000000	12.684697
1489.000000	12.655249
1488.000000	12.644581
1487.000000	12.636136
1486.000000	12.623801
1485.000000	12.609688
1484.000000	12.589908
1483.000000	12.573129
1482.000000	12.575462
1481.000000	12.559349
1480.000000	12.549570
1479.000000	12.552682
1478.000000	12.544570
1477.000000	12.548681
1476.000000	12.546014
1475.000000	12.539125
1474.000000	12.537458
1473.000000	12.528679
1472.000000	12.530124
1471.000000	12.547348
1470.000000	12.547348
1469.000000	12.539236
1468.000000	12.557460
1467.000000	12.560127
1466.000000	12.574462
1465.000000	12.582574
1464.000000	12.598243
1463.000000	12.612355
1462.000000	12.621912
1461.000000	12.643137
1460.000000	12.663139
1459.000000	12.702810
1458.000000	12.726257
1457.000000	12.765262
1456.000000	12.811490
1455.000000	12.826602
1454.000000	12.858384
1453.000000	12.910279
1452.000000	12.954951
1451.000000	13.019180
1450.000000	13.060630
1449.000000	13.127304
1448.000000	13.174310
1447.000000	13.207313
1446.000000	13.270765
1445.000000	13.347663
1444.000000	13.434895
1443.000000	13.462899
1442.000000	13.527906
1441.000000	13.583246
1440.000000	13.659366
1439.000000	13.731597
1438.000000	13.794493
1437.000000	13.872057
1436.000000	13.956734
1435.000000	14.043522
1434.000000	14.134977
1433.000000	14.209985
1432.000000	14.279105
1431.000000	14.393340
1430.000000	14.483795
1429.000000	14.579806
1428.000000	14.685263
1427.000000	14.804277
1426.000000	14.907956
1425.000000	15.034415
1424.000000	15.187432
1423.000000	15.331671
1422.000000	15.500247
1421.000000	15.643819
1420.000000	15.803726
1419.000000	15.990526
1418.000000	16.202106
1417.000000	16.392350
1416.000000	16.570593
1415.000000	16.744836
1414.000000	16.959750
1413.000000	17.215891
1412.000000	17.426471
1411.000000	17.632717
1410.000000	17.886302
1409.000000	18.205228
1408.000000	18.510041
1407.000000	18.849636
1406.000000	19.187342
1405.000000	19.520603
1404.000000	19.894424
1403.000000	20.279802
1402.000000	20.655068
1401.000000	20.962548
1400.000000	21.415934
1399.000000	21.855652
1398.000000	22.207249
1397.000000	22.455500
1396.000000	22.753090
1395.000000	23.166027
1394.000000	23.563406
1393.000000	23.843995
1392.000000	24.114693
1391.000000	24.508961
1390.000000	24.856668
1389.000000	25.180928
1388.000000	25.588420
1387.000000	26.114925
1386.000000	26.611094
1385.000000	27.133488
1384.000000	27.668439
1383.000000	28.284400
1382.000000	28.893582
1381.000000	29.539546
1380.000000	30.083053
1379.000000	30.469098
1378.000000	30.762466
1377.000000	31.005938
1376.000000	31.245855
1375.000000	31.453101
1374.000000	31.750136
1373.000000	32.054060
1372.000000	32.414991
1371.000000	32.811593
1370.000000	33.255533
1369.000000	33.683138
1368.000000	34.025845
1367.000000	34.416113
1366.000000	34.754708
1365.000000	35.029184
1364.000000	35.303771
1363.000000	35.528909
1362.000000	35.772159
1361.000000	36.002519
1360.000000	36.229657
1359.000000	36.396565
1358.000000	36.493687
1357.000000	36.608034
1356.000000	36.778721
1355.000000	37.066976
1354.000000	37.459578
1353.000000	37.978527
1352.000000	38.467473
1351.000000	39.026760
1350.000000	39.641720
1349.000000	40.199452
1348.000000	40.693731
1347.000000	41.221682
1346.000000	41.694514
1345.000000	42.167792
1344.000000	42.582951
1343.000000	42.994666
1342.000000	43.410492
1341.000000	43.812538
1340.000000	44.228698
1339.000000	44.642857
1338.000000	45.036681
1337.000000	45.444839
1336.000000	45.801992
1335.000000	46.177702
1334.000000	46.562858
1333.000000	46.923011
1332.000000	47.290721
1331.000000	47.628649
1330.000000	47.984690
1329.000000	48.320507
1328.000000	48.638433
1327.000000	48.947580
1326.000000	49.255616
1325.000000	49.558095
1324.000000	49.820348
1323.000000	50.072488
1322.000000	50.340409
1321.000000	50.592104
1320.000000	50.829021
1319.000000	51.061048
1318.000000	51.287408
1317.000000	51.519434
1316.000000	51.709345
1315.000000	51.901590
1314.000000	52.103947
1313.000000	52.301637
1312.000000	52.459322
1311.000000	52.615117
1310.000000	52.785471
1309.000000	52.923153
1308.000000	53.065281
1307.000000	53.198074
1306.000000	53.321311
1305.000000	53.433657
1304.000000	53.527001
1303.000000	53.606122
1302.000000	53.679019
1301.000000	53.737581
1300.000000	53.805923
1299.000000	53.851150
1298.000000	53.907157
1297.000000	53.949495
1296.000000	53.980276
1295.000000	54.006390
1294.000000	54.041728
1293.000000	54.060285
1292.000000	54.056396
1291.000000	54.057174
1290.000000	54.069064
1289.000000	54.063730
1288.000000	54.023726
1287.000000	53.990277
1286.000000	53.945494
1285.000000	53.899822
1284.000000	53.836148
1283.000000	53.760251
1282.000000	53.712245
1281.000000	53.640348
1280.000000	53.566673
1279.000000	53.507555
1278.000000	53.440991
1277.000000	53.355870
1276.000000	53.299530
1275.000000	53.237523
1274.000000	53.183628
1273.000000	53.142512
1272.000000	53.087172
1271.000000	53.045723
1270.000000	53.021165
1269.000000	52.970603
1268.000000	52.905040
1267.000000	52.869925
1266.000000	52.841144
1265.000000	52.768580
1264.000000	52.697571
1263.000000	52.633453
1262.000000	52.568890
1261.000000	52.508772
1260.000000	52.442875
1259.000000	52.372867
1258.000000	52.309193
1257.000000	52.223850
1256.000000	52.130394
1255.000000	52.049274
1254.000000	51.929816
1253.000000	51.837694
1252.000000	51.751684
1251.000000	51.637893
1250.000000	51.518657
1249.000000	51.396976
1248.000000	51.252959
1247.000000	51.103719
1246.000000	50.969148
1245.000000	50.818242
1244.000000	50.648000
1243.000000	50.473757
1242.000000	50.306182
1241.000000	50.118160
1240.000000	49.923249
1239.000000	49.733116
1238.000000	49.549428
1237.000000	49.366406
1236.000000	49.164605
1235.000000	48.947691
1234.000000	48.721776
1233.000000	48.492305
1232.000000	48.261945
1231.000000	48.025584
1230.000000	47.770776
1229.000000	47.507857
1228.000000	47.264940
1227.000000	47.005465
1226.000000	46.726433
1225.000000	46.446956
1224.000000	46.163034
1223.000000	45.882446
1222.000000	45.596079
1221.000000	45.314269
1220.000000	45.021679
1219.000000	44.737090
1218.000000	44.459947
1217.000000	44.197583
1216.000000	43.944443
1215.000000	43.698747
1214.000000	43.484500
1213.000000	43.271253
1212.000000	43.062451
1211.000000	42.888542
1210.000000	42.698187
1209.000000	42.522500
1208.000000	42.389484
1207.000000	42.265581
1206.000000	42.154123
1205.000000	42.050000
1204.000000	41.958101
1203.000000	41.898649
1202.000000	41.855533
1201.000000	41.811417
1200.000000	41.764745
1199.000000	41.705293
1198.000000	41.623284
1197.000000	41.516160
1196.000000	41.393479
1195.000000	41.191345
1194.000000	40.947205
1193.000000	40.652282
1192.000000	40.295685
1191.000000	39.873080
1190.000000	39.409360
1189.000000	38.960085
1188.000000	38.537370
1187.000000	38.212110
1186.000000	38.007864
1185.000000	37.920965
1184.000000	37.971415
1183.000000	38.168771
1182.000000	38.526702
1181.000000	38.997979
1180.000000	39.536597
1179.000000	40.139222
1178.000000	40.727958
1177.000000	41.260908
1176.000000	41.745520
1175.000000	42.195239
1174.000000	42.593286
1173.000000	42.962884
1172.000000	43.322593
1171.000000	43.736307
1170.000000	44.121797
1169.000000	44.510175
1168.000000	44.920778
1167.000000	45.338716
1166.000000	45.770210
1165.000000	46.211040
1164.000000	46.647646
1163.000000	47.119812
1162.000000	47.607091
1161.000000	48.129263
1160.000000	48.614986
1159.000000	49.106932
1158.000000	49.590432
1157.000000	50.066599
1156.000000	50.529653
1155.000000	50.926366
1154.000000	51.284185
1153.000000	51.601222
1152.000000	51.865475
1151.000000	52.055163
1150.000000	52.241074
1149.000000	52.377201
1148.000000	52.515884
1147.000000	52.686792
1146.000000	52.885927
1145.000000	53.138734
1144.000000	53.463549
1143.000000	53.846483
1142.000000	54.294090
1141.000000	54.792482
1140.000000	55.323432
1139.000000	55.862495
1138.000000	56.434673
1137.000000	56.999294
1136.000000	57.583917
1135.000000	58.228881
1134.000000	58.879401
1133.000000	59.490584
1132.000000	60.061983
1131.000000	60.585377
1130.000000	61.057099
1129.000000	61.515486
1128.000000	61.896197
1127.000000	62.219123
1126.000000	62.483043
1125.000000	62.678399
1124.000000	62.834750
1123.000000	62.990213
1122.000000	63.094447
1121.000000	63.207905
1120.000000	63.288692
1119.000000	63.364367
1118.000000	63.393593
1117.000000	63.432042
1116.000000	63.445377
1115.000000	63.459601
1114.000000	63.454822
1113.000000	63.455933
1112.000000	63.444710
1111.000000	63.412706
1110.000000	63.409595
1109.000000	63.421596
1108.000000	63.382703
1107.000000	63.379369
1106.000000	63.340142
1105.000000	63.341809
1104.000000	63.322918
1103.000000	63.299026
1102.000000	63.271468
1101.000000	63.249132
1100.000000	63.228796
1099.000000	63.191014
1098.000000	63.178123
1097.000000	63.126895
1096.000000	63.089446
1095.000000	63.042885
1094.000000	62.987435
1093.000000	62.948986
1092.000000	62.881867
1091.000000	62.818081
1090.000000	62.746184
1089.000000	62.686955
1088.000000	62.620058
1087.000000	62.539605
1086.000000	62.470819
1085.000000	62.405811
1084.000000	62.316134
1083.000000	62.225346
1082.000000	62.122890
1081.000000	62.048881
1080.000000	61.967649
1079.000000	61.870194
1078.000000	61.784628
1077.000000	61.708064
1076.000000	61.619164
1075.000000	61.514041
1074.000000	61.441144
1073.000000	61.366024
1072.000000	61.254678
1071.000000	61.172890
1070.000000	61.078768
1069.000000	60.963199
1068.000000	60.883634
1067.000000	60.786956
1066.000000	60.695613
1065.000000	60.602602
1064.000000	60.501368
1063.000000	60.395800
1062.000000	60.290454
1061.000000	60.183997
1060.000000	60.068651
1059.000000	59.965972
1058.000000	59.859738
1057.000000	59.749725
1056.000000	59.640601
1055.000000	59.543367
1054.000000	59.417575
1053.000000	59.287227
1052.000000	59.161656
1051.000000	59.070201
1050.000000	58.951521
1049.000000	58.856954
1048.000000	58.749942
1047.000000	58.690935
1046.000000	58.590479
1045.000000	58.473910
1044.000000	58.370453
1043.000000	58.274109
1042.000000	58.182098
1041.000000	58.097755
1040.000000	58.000744
1039.000000	57.903732
1038.000000	57.818722
1037.000000	57.724489
1036.000000	57.627256
1035.000000	57.539579
1034.000000	57.416565
1033.000000	57.325999
1032.000000	57.199539
1031.000000	57.102973
1030.000000	56.973291
1029.000000	56.865834
1028.000000	56.753154
1027.000000	56.626139
1026.000000	56.519016
1025.000000	56.399780
1024.000000	56.263319
1023.000000	56.142861
1022.000000	56.004623
1021.000000	55.885609
1020.000000	55.777041
1019.000000	55.655693
1018.000000	55.545458
1017.000000	55.399997
1016.000000	55.306986
1015.000000	55.201974
1014.000000	55.096962
1013.000000	55.028731
1012.000000	54.951945
1011.000000	54.885270
1010.000000	54.817262
1009.000000	54.766034
1008.000000	54.741142
1007.000000	54.697915
1006.000000	54.635019
1005.000000	54.602348
1004.000000	54.567456
1003.000000	54.520339
1002.000000	54.489224
1001.000000	54.434440
1000.000000	54.404437
999.000000	54.363765
998.000000	54.313204
997.000000	54.268865
996.000000	54.234528
995.000000	54.195301
994.000000	54.175188
993.000000	54.145851
992.000000	54.108624
991.000000	54.074065
990.000000	54.046284
989.000000	54.023948
988.000000	53.990944
987.000000	53.959607
986.000000	53.964163
985.000000	53.959718
984.000000	53.936493
983.000000	53.907490
982.000000	53.907490
981.000000	53.913713
980.000000	53.904934
979.000000	53.889043
978.000000	53.878709
977.000000	53.875597
976.000000	53.868263
975.000000	53.863151
974.000000	53.849039
973.000000	53.855373
972.000000	53.847483
971.000000	53.843482
970.000000	53.842927
969.000000	53.866819
968.000000	53.850594
967.000000	53.840260
966.000000	53.856706
965.000000	53.866374
964.000000	53.866596
963.000000	53.869152
962.000000	53.887265
961.000000	53.909268
960.000000	53.943827
959.000000	53.984054
958.000000	53.984499
957.000000	54.000167
956.000000	54.019503
955.000000	54.036394
954.000000	54.046728
953.000000	54.046173
952.000000	54.052285
951.000000	54.075954
950.000000	54.083399
949.000000	54.087511
948.000000	54.091400
947.000000	54.079177
946.000000	54.088400
945.000000	54.104624
944.000000	54.086177
943.000000	54.057285
942.000000	54.029615
941.000000	54.010169
940.000000	54.002945
939.000000	53.973164
938.000000	53.943939
937.000000	53.953495
936.000000	53.928048
935.000000	53.883932
934.000000	53.868819
933.000000	53.853261
932.000000	53.851150
931.000000	53.827370
930.000000	53.786809
929.000000	53.739693
928.000000	53.725913
927.000000	53.718579
926.000000	53.683353
925.000000	53.644126
924.000000	53.617012
923.000000	53.613011
922.000000	53.577452
921.000000	53.532669
920.000000	53.485219
919.000000	53.450326
918.000000	53.413655
917.000000	53.360537
916.000000	53.294308
915.000000	53.237301
914.000000	53.187406
913.000000	53.131844
912.000000	53.075393
911.000000	53.015831
910.000000	52.953490
909.000000	52.904040
908.000000	52.863146
907.000000	52.820919
906.000000	52.789027
905.000000	52.757690
904.000000	52.741465
903.000000	52.747133
902.000000	52.730131
901.000000	52.721908
900.000000	52.706795
899.000000	52.696460
898.000000	52.702683
897.000000	52.695016
896.000000	52.685792
895.000000	52.665901
894.000000	52.648788
893.000000	52.634120
892.000000	52.615006
891.000000	52.562334
890.000000	52.542220
889.000000	52.510327
888.000000	52.476879
887.000000	52.411427
886.000000	52.355643
885.000000	52.290746
884.000000	52.229739
883.000000	52.148063
882.000000	52.074166
881.000000	51.995045
880.000000	51.933372
879.000000	51.843250
878.000000	51.745572
877.000000	51.629558
876.000000	51.494432
875.000000	51.330301
874.000000	51.156837
873.000000	51.008931
872.000000	50.855246
871.000000	50.790683
870.000000	50.783682
869.000000	50.834577
868.000000	50.878249
867.000000	50.913809
866.000000	50.935922
865.000000	50.972260
864.000000	51.008264
863.000000	50.979483
862.000000	50.997374
861.000000	51.034600
860.000000	51.051825
859.000000	51.073383
858.000000	51.127167
857.000000	50.313900
856.000000	51.400900
855.000000	51.666700
854.000000	51.697700
853.000000	51.264500
852.000000	51.244000
851.000000	51.388800
850.000000	51.204600
849.000000	51.479500
848.000000	51.428100
847.000000	51.312100
846.000000	51.458700
845.000000	51.739100
844.000000	51.384400
843.000000	51.443500
842.000000	51.321800
841.000000	51.446800
840.000000	51.393900
839.000000	51.339000
838.000000	51.383800
837.000000	51.405600
836.000000	51.340000
835.000000	51.444300
834.000000	51.357900
833.000000	51.093000
832.000000	51.192100
831.000000	50.954600
830.000000	51.170100
829.000000	51.018500
828.000000	50.977000
827.000000	50.932900
826.000000	50.765800
825.000000	51.046100
824.000000	50.905300
823.000000	50.841000
822.000000	50.724100
821.000000	50.717000
820.000000	50.762500
819.000000	50.680700
818.000000	50.482400
817.000000	50.548000
816.000000	50.508000
815.000000	50.420900
814.000000	50.324300
813.000000	50.218500
812.000000	50.482100
811.000000	50.204900
810.000000	50.031900
809.000000	49.963000
808.000000	49.756800
807.000000	49.846400
806.000000	49.721100
805.000000	49.605300
804.000000	49.453400
803.000000	49.511400
802.000000	49.463700
801.000000	49.239900
800.000000	49.322800
799.000000	49.158700
798.000000	49.118800
797.000000	48.956200
796.000000	48.983300
795.000000	48.838400
794.000000	48.718500
793.000000	48.570200
792.000000	48.404500
791.000000	48.459600
790.000000	48.203500
789.000000	48.307200
788.000000	48.247400
787.000000	48.071200
786.000000	47.954700
785.000000	47.764100
784.000000	47.798700
783.000000	47.654800
782.000000	47.548000
781.000000	47.486500
780.000000	47.397800
779.000000	47.250100
778.000000	47.038600
777.000000	47.028500
776.000000	46.866400
775.000000	46.779500
774.000000	46.585500
773.000000	46.576500
772.000000	46.435900
771.000000	46.297500
770.000000	46.173400
769.000000	46.062700
768.000000	45.944600
767.000000	45.797600
766.000000	45.622600
765.000000	45.516900
764.000000	45.376500
763.000000	45.253500
762.000000	45.059000
761.000000	45.080900
760.000000	44.892900
759.000000	44.776500
758.000000	44.636600
757.000000	44.366100
756.000000	44.222900
755.000000	44.062600
754.000000	43.947000
753.000000	43.752200
752.000000	43.596200
751.000000	43.531000
750.000000	43.354300
749.000000	43.198600
748.000000	43.015700
747.000000	42.909900
746.000000	42.673700
745.000000	42.539500
744.000000	42.409300
743.000000	42.212500
742.000000	42.031200
741.000000	41.840700
740.000000	41.594300
739.000000	41.431000
738.000000	41.190600
737.000000	40.949500
736.000000	40.769700
735.000000	40.618300
734.000000	40.421300
733.000000	40.206400
732.000000	39.970000
731.000000	39.813400
730.000000	39.546200
729.000000	39.338300
728.000000	39.124700
727.000000	38.973000
726.000000	38.677000
725.000000	38.415700
724.000000	38.170800
723.000000	37.946900
722.000000	37.694700
721.000000	37.385600
720.000000	37.130500
719.000000	36.938600
718.000000	36.674000
717.000000	36.401400
716.000000	36.134400
715.000000	35.866800
714.000000	35.607900
713.000000	35.331100
712.000000	35.063400
711.000000	34.738300
710.000000	34.440000
709.000000	34.218500
708.000000	33.915200
707.000000	33.602700
706.000000	33.330100
705.000000	33.067000
704.000000	32.782400
703.000000	32.473200
702.000000	32.160600
701.000000	31.863300
700.000000	31.585100
699.000000	31.325700
698.000000	31.057300
697.000000	30.830500
696.000000	30.572100
695.000000	30.275000
694.000000	30.002500
693.000000	29.780000
692.000000	29.502000
691.000000	29.236000
690.000000	28.988100
689.000000	28.704200
688.000000	28.429800
687.000000	28.186800
686.000000	27.938400
685.000000	27.688300
684.000000	27.459700
683.000000	27.191800
682.000000	26.963000
681.000000	26.732200
680.000000	26.509300
679.000000	26.277300
678.000000	26.067300
677.000000	25.843100
676.000000	25.651100
675.000000	25.461100
674.000000	25.245800
673.000000	25.052200
672.000000	24.886300
671.000000	24.706900
670.000000	24.552500
669.000000	24.390900
668.000000	24.220100
667.000000	24.049100
666.000000	23.919000
665.000000	23.801200
664.000000	23.639000
663.000000	23.501200
662.000000	23.372400
661.000000	23.267400
660.000000	23.174100
659.000000	23.035600
658.000000	22.915600
657.000000	22.809500
656.000000	22.707800
655.000000	22.619800
654.000000	22.531300
653.000000	22.449100
652.000000	22.378300
651.000000	22.309900
650.000000	22.261000
649.000000	22.251200
648.000000	22.240400
647.000000	22.236900
646.000000	22.218100
645.000000	22.210800
644.000000	22.249500
643.000000	22.262200
642.000000	22.289500
641.000000	22.328700
640.000000	22.364100
639.000000	22.414900
638.000000	22.473400
637.000000	22.561100
636.000000	22.656800
635.000000	22.737200
634.000000	22.818000
633.000000	22.911300
632.000000	23.006900
631.000000	23.112400
630.000000	23.218200
629.000000	23.310000
628.000000	23.398700
627.000000	23.485800
626.000000	23.561600
625.000000	23.640800
624.000000	23.730900
623.000000	23.829000
622.000000	23.937800
621.000000	24.024200
620.000000	24.097900
619.000000	24.197600
618.000000	24.290100
617.000000	24.378600
616.000000	24.474800
615.000000	24.571500
614.000000	24.675600
613.000000	24.800000
612.000000	24.913300
611.000000	24.995700
610.000000	25.106200
609.000000	25.210500
608.000000	25.304600
607.000000	25.406400
606.000000	25.501000
605.000000	25.582800
604.000000	25.651200
603.000000	25.704700
602.000000	25.765900
601.000000	25.840600
600.000000	25.899400
599.000000	25.961500
598.000000	26.014900
597.000000	26.085900
596.000000	26.152900
595.000000	26.189300
594.000000	26.234300
593.000000	26.306600
592.000000	26.355800
591.000000	26.401500
590.000000	26.456800
589.000000	26.501100
588.000000	26.550300
587.000000	26.604800
586.000000	26.642000
585.000000	26.684000
584.000000	26.728100
583.000000	26.737400
582.000000	26.728300
581.000000	26.743600
580.000000	26.784000
579.000000	26.764400
578.000000	26.758300
577.000000	26.764100
576.000000	26.738000
575.000000	26.707500
574.000000	26.665600
573.000000	26.644600
572.000000	26.602100
571.000000	26.562600
570.000000	26.499100
569.000000	26.440400
568.000000	26.396600
567.000000	26.345200
566.000000	26.275300
565.000000	26.200200
564.000000	26.132200
563.000000	26.062400
562.000000	25.977100
561.000000	25.891800
560.000000	25.801200
559.000000	25.666500
558.000000	25.561300
557.000000	25.464000
556.000000	25.354400
555.000000	25.256900
554.000000	25.152300
553.000000	25.042800
552.000000	24.905500
551.000000	24.768600
550.000000	24.633200
549.000000	24.474500
548.000000	24.356100
547.000000	24.220800
546.000000	24.071300
545.000000	23.923700
544.000000	23.751900
543.000000	23.586700
542.000000	23.399400
541.000000	23.216400
540.000000	23.030900
539.000000	22.839700
538.000000	22.651400
537.000000	22.457800
536.000000	22.236700
535.000000	22.045100
534.000000	21.788500
533.000000	21.565600
532.000000	21.308900
531.000000	21.056400
530.000000	20.781900
529.000000	20.505900
528.000000	20.223300
527.000000	19.936200
526.000000	19.640900
525.000000	19.324300
524.000000	19.002600
523.000000	18.689400
522.000000	18.350500
521.000000	18.009700
520.000000	17.675100
519.000000	17.350500
518.000000	17.000300
517.000000	16.646900
516.000000	16.321000
515.000000	15.980100
514.000000	15.649100
513.000000	15.331500
512.000000	15.013500
511.000000	14.693600
510.000000	14.387400
509.000000	14.083500
508.000000	13.806900
507.000000	13.546000
506.000000	13.285800
505.000000	13.037100
504.000000	12.810800
503.000000	12.585600
502.000000	12.401800
501.000000	12.180800
500.000000	12.014000
499.000000	11.839000
498.000000	11.662500
497.000000	11.500000
496.000000	11.369300
495.000000	11.235900
494.000000	11.115300
493.000000	11.016400
492.000000	10.883500
491.000000	10.784500
490.000000	10.702300
489.000000	10.620900
488.000000	10.523800
487.000000	10.460600
486.000000	10.388900
485.000000	10.324200
484.000000	10.263300
483.000000	10.215100
482.000000	10.162800
481.000000	10.114000
480.000000	10.067600
479.000000	10.010100
478.000000	9.952200
477.000000	9.909800
476.000000	9.850600
475.000000	9.790700
474.000000	9.747200
473.000000	9.716100
472.000000	9.667800
471.000000	9.612900
470.000000	9.583300
469.000000	9.540900
468.000000	9.490800
467.000000	9.427500
466.000000	9.415400
465.000000	9.363900
464.000000	9.316400
463.000000	9.279600
462.000000	9.216700
461.000000	9.166200
460.000000	9.135300
459.000000	9.097500
458.000000	9.031800
457.000000	8.984400
456.000000	8.943000
455.000000	8.884500
454.000000	8.830200
453.000000	8.760600
452.000000	8.707300
451.000000	8.662000
450.000000	8.594200
449.000000	8.531500
448.000000	8.445800
447.000000	8.365300
446.000000	8.297200
445.000000	8.204800
444.000000	8.113000
443.000000	8.060300
442.000000	7.972900
441.000000	7.886500
440.000000	7.789900
439.000000	7.712500
438.000000	7.623700
437.000000	7.545200
436.000000	7.453800
435.000000	7.352900
434.000000	7.286700
433.000000	7.211000
432.000000	7.114500
431.000000	7.042200
430.000000	6.949100
429.000000	6.863500
428.000000	6.797700
427.000000	6.709000
426.000000	6.641900
425.000000	6.566000
424.000000	6.481900
423.000000	6.405600
422.000000	6.347800
421.000000	6.276500
420.000000	6.206700
419.000000	6.111200
418.000000	6.055600
417.000000	5.975600
416.000000	5.907800
415.000000	5.840300
414.000000	5.763700
413.000000	5.711900
412.000000	5.633500
411.000000	5.551700
410.000000	5.486400
409.000000	5.440400
408.000000	5.386400
407.000000	5.321600
406.000000	5.268600
405.000000	5.220600
404.000000	5.138400
403.000000	5.073300
402.000000	5.038900
401.000000	4.991700
400.000000	4.928400
399.000000	4.860800
398.000000	4.825700
397.000000	4.783800
396.000000	4.738800
395.000000	4.694500
394.000000	4.655400
393.000000	4.603800
392.000000	4.565700
391.000000	4.555900
390.000000	4.504200
389.000000	4.467300
388.000000	4.440600
387.000000	4.392000
386.000000	4.379200
385.000000	4.354500
384.000000	4.324000
383.000000	4.322600
382.000000	4.303500
381.000000	4.262600
380.000000	4.248800
379.000000	4.246900
378.000000	4.237900
377.000000	4.235100
376.000000	4.147000
375.000000	3.982800
374.000000	3.915500
373.000000	3.964300
372.000000	4.114600
371.000000	4.092800
370.000000	4.001700
369.000000	4.085900
368.000000	4.016400
367.000000	3.976800
366.000000	4.039600
365.000000	4.064500
364.000000	4.089400
363.000000	4.134800
362.000000	4.077900
361.000000	4.057800
360.000000	4.103000
359.000000	4.090300
358.000000	4.039800
357.000000	4.043700
356.000000	4.088100
355.000000	4.083500
354.000000	4.040800
353.000000	4.081200
352.000000	4.134200
351.000000	4.088300
350.000000	4.012200
349.000000	3.991600
348.000000	4.108800
347.000000	4.133100
346.000000	4.086300
345.000000	4.119100
344.000000	4.124400
343.000000	3.963400
342.000000	3.834700
341.000000	4.004300
340.000000	3.969900
339.000000	3.956200
338.000000	4.064400
337.000000	4.156600
336.000000	4.043200
335.000000	3.860900
334.000000	4.063400
333.000000	4.142100
332.000000	4.125600
331.000000	4.129000
330.000000	4.167600
329.000000	4.219000
328.000000	4.191000
327.000000	4.306000
326.000000	4.256400
325.000000	4.108200
324.000000	4.048700
323.000000	4.229200
322.000000	4.413700
321.000000	4.189800
320.000000	4.207000
319.000000	4.488000
318.000000	4.625700
317.000000	4.417900
316.000000	4.198500
315.000000	4.157500
314.000000	4.140000
313.000000	4.125200
312.000000	4.151800
311.000000	4.158300
310.000000	4.153000
309.000000	4.158800
308.000000	4.164600
307.000000	4.188600
306.000000	4.214800
305.000000	4.207700
304.000000	4.200000
303.000000	4.206700
302.000000	4.216600
301.000000	4.213200
300.000000	4.213600
299.000000	4.219200
298.000000	4.222000
297.000000	4.219600
296.000000	4.235000
295.000000	4.244400
294.000000	4.252200
293.000000	4.277300
292.000000	4.259500
291.000000	4.233300
290.000000	4.251200
289.000000	4.266000
288.000000	4.259400
287.000000	4.246000
286.000000	4.294600
285.000000	4.313700
284.000000	4.287100
283.000000	4.276200
282.000000	4.320400
281.000000	4.346100
280.000000	4.331400
279.000000	4.350500
278.000000	4.360300
277.000000	4.319200
276.000000	4.336300
275.000000	4.350200
274.000000	4.370200
273.000000	4.368800
272.000000	4.397900
271.000000	4.445000
270.000000	4.441200
269.000000	4.440100
268.000000	4.453400
267.000000	4.479900
266.000000	4.487800
265.000000	4.518600
264.000000	4.535000
263.000000	4.557200
262.000000	4.583100
261.000000	4.580800
260.000000	4.604100
259.000000	4.617300
258.000000	4.642600
257.000000	4.658700
256.000000	4.637700
255.000000	4.634900
254.000000	4.671100
253.000000	4.665400
252.000000	4.686100
251.000000	4.691700
250.000000	4.704800
