C AURIGANS DESCABEZADO_M
Integration time [ms]:   8,000
Averaging Nr. [scans]: 10
Smoothing Nr. [pixels]: 0
Data measured with spectrometer [name]: 7314920SP
Wave   ;Sample   ;Dark     ;Reference;Reflectance
[nm]   ;[counts] ;[counts] ;[counts] ;[%]

 199,42;  115,088;   72,222;  210,244;31,05737
 200,02;  124,798;  102,008;  189,811;25,95568
 200,62;   76,305;   74,992;  115,875; 3,21131
 201,22;  115,785;   92,709;  193,470;22,90181
 201,82;  120,750;   64,025;  211,220;38,53701
 202,42;  134,269;   95,408;  188,025;41,95889
 203,03;   80,823;   55,806;  149,594;26,67466
 203,63;  100,807;   65,404;  161,149;36,97628
 204,23;  104,222;   81,415;  188,764;21,24544
 204,83;  104,149;   76,103;  162,076;32,62118
 205,43;  102,888;   65,122;  182,444;32,19004
 206,03;   79,720;   56,103;  131,590;31,28572
 206,63;   93,454;   81,096;  130,910;24,80721
 207,24;  126,383;   77,929;  242,810;29,38721
 207,84;   68,090;   57,902;  135,404;13,14557
 208,44;   83,985;   59,009;  153,170;26,52489
 209,04;   78,683;   53,697;  112,596;42,42154
 209,64;  121,413;   72,519;  200,426;38,22606
 210,24;   79,949;   50,503;  130,176;36,95782
 210,84;   97,014;   60,310;  167,756;34,16093
 211,44;  116,031;   86,511;  189,701;28,60702
 212,05;   72,783;   61,997;  128,496;16,21981
 212,65;  104,623;   75,406;  151,694;38,29911
 213,25;  121,569;   96,208;  175,325;32,05518
 213,85;  109,199;   84,098;  157,241;34,31765
 214,45;   73,349;   59,703;  144,876;16,02080
 215,05;   72,114;   46,810;  150,056;24,50904
 215,65;   78,044;   64,010;  156,742;15,13325
 216,25;   67,049;   47,903;  131,676;22,85391
 216,85;   59,156;   45,209;  131,084;16,24144
 217,45;   81,523;   61,406;  140,794;25,34090
 218,05;   88,518;   56,513;  170,560;28,06348
 218,66;   62,327;   35,109;  126,597;29,75069
 219,26;   53,407;   40,904;  108,649;18,45579
 219,86;   71,764;   30,415;  147,291;35,37851
 220,46;   92,989;   62,212;  165,774;29,71852
 221,06;   97,022;   50,415;  173,264;37,93835
 221,66;   92,109;   49,317;  185,122;31,51024
 222,26;   82,113;   47,619;  163,026;29,88880
 222,86;   95,311;   70,807;  163,753;26,36356
 223,46;   77,149;   54,503;  138,276;27,03187
 224,06;   84,393;   63,215;  169,877;19,85508
 224,66;   90,676;   59,613;  169,732;28,20863
 225,26;   83,002;   55,111;  162,715;25,91988
 225,86;   96,100;   43,521;  183,285;37,62036
 226,46;   91,240;   58,307;  160,639;32,18217
 227,06;   71,176;   30,313;  143,532;36,09205
 227,66;   77,470;   58,298;  114,355;34,20126
 228,27;   60,389;   40,012;  159,574;17,04307
 228,87;  119,047;   91,313;  208,446;23,67763
 229,47;   80,642;   37,020;  166,312;33,73930
 230,07;   38,802;   18,811;  112,215;21,40255
 230,67;   61,556;   40,209;  142,184;20,93390
 231,27;   65,589;   30,212;  143,374;31,26235
 231,87;   80,156;   40,109;  147,584;37,26204
 232,47;  107,524;   59,528;  218,437;30,20371
 233,07;   70,725;   37,496;  115,524;42,58567
 233,67;   86,723;   55,906;  155,694;30,88310
 234,27;   52,120;   20,103;  106,490;37,06187
 234,87;   74,964;   43,315;  164,991;26,01092
 235,47;   54,702;   20,211;  136,915;29,55411
 236,07;   62,616;   29,800;  113,786;39,07276
 236,67;   80,032;   59,802;  134,031;27,25404
 237,27;   79,746;   47,023;  174,316;25,70701
 237,87;   72,576;   44,213;  155,532;25,47908
 238,47;   47,998;   24,408;  124,611;23,54207
 239,07;   67,184;   26,119;  172,740;28,00760
 239,67;  110,303;   47,333;  213,158;37,97352
 240,27;   84,600;   43,621;  186,385;28,70453
 240,87;   89,575;   59,423;  199,102;21,58663
 241,47;   60,421;   48,693;   99,120;23,25687
 242,07;   66,882;   48,007;  129,466;23,17103
 242,67;   49,717;    5,722;  135,930;33,78807
 243,27;   38,249;   23,603;  102,476;18,56833
 243,87;   87,193;   50,915;  171,077;30,19072
 244,47;   72,722;   43,215;  154,464;26,52321
 245,07;   34,114;   13,110;  116,356;20,34424
 245,67;   59,523;   43,706;  124,694;19,53084
 246,27;   52,154;   36,296;  104,710;23,17868
 246,87;   54,011;   29,007;  121,153;27,13507
 247,46;   21,505;   12,792;   58,475;19,07229
 248,06;   58,718;   21,613;  126,060;35,52570
 248,66;   75,313;   43,719;  153,526;28,77209
 249,26;   53,616;   30,300;  102,586;32,25474
 249,86;   73,600;   44,721;  160,885;24,86118
 250,46;   64,753;    4,828;  172,023;35,84148
 251,06;   61,123;   30,406;  103,194;42,20149
 251,66;   44,235;   18,014;  130,305;23,35054
 252,26;   54,274;   40,501;  110,659;19,63166
 252,86;   50,114;   26,710;  135,356;21,54209
 253,46;   16,849;   -0,997;   71,476;24,62352
 254,06;   70,187;   46,300;  117,300;33,64352
 254,66;   71,088;   43,622;  156,244;24,38777
 255,26;   78,929;   47,221;  183,271;23,30650
 255,86;   48,821;   53,693;   90,620;-13,19434
 256,46;   50,031;   27,311;  117,701;25,13506
 257,05;   65,006;   24,314;  137,219;36,04076
 257,65;   79,864;   55,915;  159,191;23,18938
 258,25;   84,342;   44,920;  174,412;30,44375
 258,85;   48,214;   24,210;  114,956;26,45250
 259,45;   32,756;   13,309;  104,284;21,37658
 260,05;   62,249;   39,503;  115,376;29,97826
 260,65;   61,774;   49,901;  110,459;19,60629
 261,25;   68,993;   35,715;  144,777;30,51271
 261,85;   39,880;    3,916;  117,036;31,79282
 262,45;   77,914;   58,110;  146,656;22,36646
 263,04;   87,559;   54,121;  181,157;26,32108
 263,64;   51,436;   46,104;  120,435; 7,17272
 264,24;   78,951;   50,116;  169,050;24,24479
 264,84;  106,191;   72,525;  200,347;26,33874
 265,44;   45,794;   27,105;  102,308;24,85158
 266,04;   64,128;   40,299;  110,528;33,93144
 266,64;   79,032;   46,002;  130,331;39,16841
 267,24;   52,632;   37,402;  107,331;21,77986
 267,84;   59,369;   35,308;  124,625;26,93901
 268,43;   85,752;   63,006;  136,180;31,08533
 269,03;   83,227;   52,609;  143,797;33,57709
 269,63;   85,445;   71,300;  125,873;25,91883
 270,23;   32,170;   18,498;   87,355;19,85594
 270,83;   79,674;   57,001;  121,259;35,28461
 271,43;   44,565;   42,005;  112,221; 3,64620
 272,03;   79,594;   66,705;  133,008;19,43968
 272,62;   56,944;   31,410;  109,542;32,67972
 273,22;   51,347;   11,613;  120,746;36,40906
 273,82;   18,922;   23,684;   41,950;-26,06512
 274,42;   40,450;   31,194;   62,506;29,56120
 275,02;   52,096;   37,396;   87,038;29,61196
 275,62;   80,242;   49,620;  176,012;24,22801
 276,21;   52,060;   22,012;  119,787;30,73182
 276,81;   56,090;   46,802;  100,904;17,16777
 277,41;   64,338;   34,617;  138,809;28,52575
 278,01;   34,596;   30,596;   62,038;12,72175
 278,61;   79,285;   53,409;  127,970;34,70465
 279,20;   95,200;   66,621;  179,185;25,38978
 279,80;   13,484;    2,887;   19,827;62,55933
 280,40;   54,416;   49,500;  111,686; 7,90487
 281,00;   32,585;   -1,591;   79,870;41,95402
 281,60;   53,262;   24,024;  147,561;23,66758
 282,20;   55,631;   44,011;  129,701;13,56000
 282,79;   39,552;   32,006;  103,580;10,54344
 283,39;   26,345;   24,500;   69,873; 4,06517
 283,99;   29,625;   24,796;   62,724;12,73121
 284,59;   36,673;   11,311;   95,329;30,18649
 285,19;   39,420;   27,803;   93,790;17,60448
 285,78;   51,531;   26,011;  114,401;28,87158
 286,38;   53,254;   46,196;   90,310;15,99818
 286,98;   43,252;   42,206;  104,180; 1,68837
 287,58;   42,722;   10,015;  106,264;33,98151
 288,17;   50,029;   30,221;  134,771;18,94644
 288,77;   67,399;   25,130;  160,455;31,23514
 289,37;   31,314;    7,610;  106,556;23,95711
 289,97;   60,725;   51,596;   89,824;23,87966
 290,57;   63,697;   40,218;  142,281;23,00421
 291,16;   83,994;   62,005;  153,508;24,03105
 291,76;   34,947;    9,813;  111,846;24,63352
 292,36;   55,807;   34,804;   91,949;36,75376
 292,96;   31,471;   12,920;  112,799;18,57369
 293,55;   47,890;   24,302;   95,904;32,94352
 294,15;   40,760;   21,012;  117,487;20,46967
 294,75;   63,554;   46,296;   87,510;41,87295
 295,35;   37,494;   30,905;   87,208;11,70281
 295,94;   60,461;   47,602;  101,718;23,76267
 296,54;   50,240;   20,307;  102,039;36,62297
 297,14;   66,409;   35,817;  149,522;26,90517
 297,73;   24,741;   23,498;   65,969; 2,92788
 298,33;   47,387;   41,300;   94,600;11,42025
 298,93;   51,611;   47,607;  131,952; 4,74686
 299,53;   44,855;   21,519;  133,654;20,81087
 300,12;   27,309;    5,217;  115,922;19,95626
 300,72;   61,136;   58,004;  131,835; 4,24150
 301,32;   68,164;   37,415;  153,391;26,51328
 301,92;   24,879;   15,294;   52,693;25,62967
 302,51;   48,778;   22,804;   94,763;36,09579
 303,11;   41,420;   21,403;   92,290;28,23741
 303,71;   55,298;   25,908;  111,711;34,25271
 304,30;   37,858;   24,399;   89,214;20,76436
 304,90;   32,487;   22,400;   83,400;16,53603
 305,50;   46,070;   35,598;   93,655;18,03780
 306,09;   50,116;   27,100;  107,186;28,73870
 306,69;   76,751;   37,316;  149,950;35,01188
 307,29;   31,293;   40,383;   43,764;-268,86141
 307,88;   62,473;   51,611;  142,529;11,94715
 308,48;   39,789;    7,612;  111,974;30,83220
 309,08;   10,446;    6,391;   47,803; 9,79306
 309,68;   44,041;   25,198;   76,769;36,53880
 310,27;   38,944;    3,310;  109,342;33,60619
 310,87;   48,040;   40,507;  113,439;10,32816
 311,47;   67,649;   52,803;  134,376;18,19891
 312,06;   57,612;   54,797;   99,183; 6,34171
 312,66;   77,294;   58,605;  130,408;26,02836
 313,26;   80,035;   57,714;  154,805;22,98932
 313,85;   59,020;   48,603;  102,090;19,47514
 314,45;   68,585;   43,309;  124,070;31,29743
 315,04;   65,712;   52,497;  102,883;26,22746
 315,64;   45,136;   32,204;   92,535;21,43446
 316,24;   73,489;   45,412;  136,874;30,69810
 316,83;   63,516;   44,800;  109,286;29,02285
 317,43;   64,465;   34,805;  112,521;38,16471
 318,03;   64,863;   46,992;  105,248;30,67589
 318,62;   94,426;   83,886;  116,254;32,56251
 319,22;   52,469;   23,508;  114,325;31,88951
 319,82;   62,394;   41,505;  135,108;22,31671
 320,41;   69,798;   50,808;  152,511;18,67189
 321,01;   98,970;   87,098;  148,755;19,25524
 321,60;   87,750;   75,494;  138,706;19,38916
 322,20;   98,288;   57,422;  215,744;25,81195
 322,80;   82,536;   51,404;  154,635;30,15729
 323,39;   68,867;   51,895;  113,651;27,48109
 323,99;   90,574;   62,501;  142,359;35,15387
 324,59;   69,163;   68,792;  121,248; 0,70595
 325,18;   77,578;   47,504;  158,863;27,00648
 325,78;   82,541;   66,698;  150,369;18,93543
 326,37;   93,323;   65,706;  177,794;24,63924
 326,97;   91,036;   72,204;  176,935;17,98093
 327,57;   52,905;   49,692;  114,875; 4,92901
 328,16;   85,321;   66,793;  136,120;26,72515
 328,76;   84,661;   65,802;  159,418;20,14548
 329,35;  106,864;   70,715;  202,591;27,41139
 329,95;   90,331;   46,311;  172,301;34,93896
 330,54;   82,849;   57,403;  166,676;23,28608
 331,14;   72,690;   37,202;  149,004;31,74201
 331,74;   81,870;   65,898;  158,355;17,27528
 332,33;   86,189;   36,712;  182,074;34,03717
 332,93;   65,079;   48,294;  153,293;15,98606
 333,52;   79,345;   51,300;  173,173;23,01138
 334,12;  114,527;   76,609;  216,397;27,12560
 334,71;   64,516;   55,600;  177,586; 7,30881
 335,31;   97,020;   68,403;  194,790;22,64209
 335,90;   48,230;   38,089;  116,458;12,93971
 336,50;   55,254;   31,796;  151,710;19,56189
 337,10;   76,044;   43,110;  224,742;18,13191
 337,69;   78,554;   58,596;  164,910;18,77217
 338,29;   66,907;   38,604;  183,549;19,52664
 338,88;   66,611;   36,207;  199,452;18,62456
 339,48;   77,701;   69,289;  185,372; 7,24652
 340,07;   79,803;   51,901;  214,445;17,16575
 340,67;   87,964;   44,015;  244,991;21,86782
 341,26;   86,816;   52,500;  219,286;20,57468
 341,86;  105,502;   73,011;  274,415;16,13217
 342,45;   88,373;   51,411;  255,729;18,09048
 343,05;   88,373;   41,711;  268,829;20,54531
 343,64;   83,932;   62,602;  262,431;10,67438
 344,24;   64,754;   33,096;  233,710;15,78027
 344,83;   97,525;   72,396;  265,724;12,99796
 345,43;   60,761;   42,302;  272,018; 8,03572
 346,02;   65,556;   43,109;  299,884; 8,74202
 346,62;   99,235;   49,414;  334,805;17,45694
 347,21;   80,741;   56,098;  304,069; 9,93805
 347,81;   73,197;   33,118;  351,481;12,58903
 348,40;   60,921;   34,893;  282,320;10,51936
 349,00;   80,663;   60,892;  331,448; 7,30731
 349,59;  110,647;   71,813;  420,746;11,12946
 350,19;   79,635;   44,914;  383,305;10,26047
 350,78;   83,520;   51,303;  373,790; 9,99007
 351,38;   66,256;   30,009;  377,584;10,42863
 351,97;   73,261;   42,702;  406,118; 8,40891
 352,57;   82,489;   52,312;  422,774; 8,14577
 353,16;   57,667;   39,295;  383,751; 5,33341
 353,76;   85,847;   46,613;  467,346; 9,32524
 354,35;   70,602;   17,411;  484,915;11,37762
 354,95;   88,960;   51,712;  515,687; 8,02806
 355,54;   93,569;   38,008;  504,925;11,89958
 356,14;   75,702;   42,611;  534,915; 6,72163
 356,73;   72,201;   52,589;  490,871; 4,47473
 357,32;   69,898;   26,908;  533,411; 8,48759
 357,92;   90,226;   36,718;  583,967; 9,77755
 358,51;  116,255;   51,519;  631,554;11,16075
 359,11;   94,897;   47,018;  646,981; 7,98030
 359,70;   89,106;   30,014;  629,419; 9,85841
 360,30;   80,084;   58,187;  603,727; 4,01385
 360,89;   65,211;   25,007;  639,453; 6,54310
 361,48;  108,560;   54,112;  712,987; 8,26381
 362,08;   69,965;   25,005;  677,021; 6,89557
 362,67;   82,705;   33,892;  669,375; 7,68122
 363,27;  112,978;   64,804;  752,763; 7,00247
 363,86;   93,270;   36,998;  746,555; 7,93061
 364,46;  119,521;   56,393;  812,720; 8,34662
 365,05;  121,473;   75,379;  800,115; 6,36014
 365,64;  124,877;   53,582;  858,719; 8,85504
 366,24;  139,398;   39,876;  899,498;11,57743
 366,83;  168,187;   64,668; 1001,887;11,04536
 367,43;  180,317;   69,837; 1018,860;11,64145
 368,02;  215,566;   44,141; 1136,095;15,69889
 368,61;  262,736;   63,919; 1250,365;16,75735
 369,21;  233,115;   44,061; 1249,760;15,68007
 369,80;  279,550;   59,322; 1383,066;16,63669
 370,39;  333,517;   60,519; 1588,676;17,86450
 370,99;  359,520;   42,468; 1618,624;20,11552
 371,58;  341,760;   33,423; 1699,364;18,50826
 372,18;  381,672;   38,200; 1809,762;19,38807
 372,77;  382,591;   50,550; 1827,654;18,68438
 373,36;  383,680;   52,342; 1852,343;18,40765
 373,96;  363,664;   53,009; 1748,685;18,32043
 374,55;  365,027;   39,534; 1728,804;19,26823
 375,14;  323,162;   37,250; 1608,468;18,19684
 375,74;  292,050;   73,973; 1533,970;14,93682
 376,33;  232,822;   50,595; 1398,327;13,52102
 376,92;  218,562;   41,936; 1361,138;13,38890
 377,52;  288,822;   93,712; 1534,810;13,53895
 378,11;  224,447;   61,010; 1438,393;11,86579
 378,71;  250,239;   79,636; 1530,799;11,75632
 379,30;  272,991;   57,953; 1617,807;13,78576
 379,89;  267,347;   56,742; 1639,606;13,30532
 380,49;  261,566;   31,556; 1680,725;13,94702
 381,08;  291,175;   81,520; 1641,749;13,43745
 381,67;  277,612;   58,726; 1650,543;13,75068
 382,26;  253,375;   44,520; 1663,849;12,89763
 382,86;  254,064;   51,912; 1684,538;12,38203
 383,45;  269,701;   63,740; 1765,375;12,10375
 384,04;  260,743;   52,739; 1794,203;11,94422
 384,64;  244,422;   47,044; 1831,224;11,06265
 385,23;  239,333;   71,621; 1827,321; 9,55245
 385,82;  259,571;   55,649; 1889,958;11,11710
 386,42;  304,005;   67,274; 1996,892;12,26826
 387,01;  262,963;   67,543; 1922,351;10,53586
 387,60;  265,686;   76,228; 1970,060;10,00394
 388,20;  245,601;   48,340; 2018,675;10,01158
 388,79;  296,253;   83,357; 2123,583;10,43492
 389,38;  236,475;   54,020; 2028,549; 9,24043
 389,97;  249,513;   58,048; 2147,386; 9,16388
 390,57;  266,009;   74,645; 2194,082; 9,02898
 391,16;  270,609;   77,945; 2258,282; 8,83641
 391,75;  261,476;   56,642; 2278,892; 9,21741
 392,34;  282,906;   65,865; 2381,022; 9,37480
 392,94;  266,011;   55,558; 2418,156; 8,90771
 393,53;  247,587;   38,151; 2418,703; 8,79782
 394,12;  264,801;   61,871; 2581,588; 8,05366
 394,72;  263,305;   73,643; 2576,379; 7,57821
 395,31;  243,171;   50,649; 2629,658; 7,46496
 395,90;  270,934;   41,475; 2732,778; 8,52595
 396,49;  299,320;   59,286; 2807,207; 8,73512
 397,09;  267,120;   56,254; 2772,993; 7,76174
 397,68;  290,350;   64,576; 2914,023; 7,92343
 398,27;  300,758;   63,382; 3016,531; 8,03806
 398,86;  274,767;   53,778; 3036,468; 7,40904
 399,45;  309,231;   61,894; 3185,318; 7,91878
 400,05;  266,073;   47,961; 3091,132; 7,16726
 400,64;  285,469;   67,859; 3225,428; 6,89172
 401,23;  294,890;   55,563; 3253,277; 7,48430
 401,82;  289,290;   63,863; 3288,777; 6,99016
 402,42;  291,135;   66,665; 3369,608; 6,79607
 403,01;  322,250;   77,976; 3502,223; 7,13366
 403,60;  320,064;   73,197; 3538,808; 7,12333
 404,19;  314,792;   80,976; 3582,651; 6,67728
 404,78;  297,768;   68,668; 3550,598; 6,57968
 405,38;  339,910;   77,499; 3734,039; 7,17646
 405,97;  306,200;   55,281; 3700,958; 6,88263
 406,56;  334,807;   76,387; 3843,565; 6,85979
 407,15;  315,540;   68,690; 3813,955; 6,59099
 407,74;  341,144;   86,793; 3924,359; 6,62792
 408,34;  331,168;   59,000; 3935,712; 7,02058
 408,93;  327,277;   64,696; 4017,449; 6,64298
 409,52;  322,721;   55,908; 4063,050; 6,65844
 410,11;  347,035;   90,297; 4169,222; 6,29426
 410,70;  307,145;   58,983; 4135,689; 6,08732
 411,29;  320,149;   65,186; 4164,293; 6,21996
 411,89;  335,408;   71,609; 4289,809; 6,25383
 412,48;  301,878;   55,186; 4249,779; 5,88118
 413,07;  353,471;   66,503; 4362,416; 6,68004
 413,66;  349,350;   69,808; 4401,236; 6,45380
 414,25;  356,786;   80,814; 4542,030; 6,18604
 414,84;  328,077;   72,596; 4521,849; 5,74210
 415,44;  363,686;   92,492; 4528,687; 6,11320
 416,03;  345,170;   72,912; 4620,185; 5,98727
 416,62;  364,019;   78,017; 4684,620; 6,20852
 417,21;  351,317;   74,205; 4680,046; 6,01654
 417,80;  363,816;   82,814; 4723,417; 6,05527
 418,39;  376,369;   83,422; 4766,355; 6,25562
 418,98;  325,501;   59,003; 4695,202; 5,74819
 419,58;  332,884;   70,002; 4754,557; 5,61169
 420,17;  332,663;   54,107; 4792,378; 5,87885
 420,76;  364,470;   82,012; 4871,985; 5,89685
 421,35;  334,337;   66,309; 4790,295; 5,67377
 421,94;  384,969;   87,322; 4907,955; 6,17443
 422,53;  349,427;   66,423; 4867,228; 5,89493
 423,12;  367,307;   78,819; 4876,579; 6,01298
 423,71;  337,308;   59,809; 4856,909; 5,78473
 424,30;  359,083;   91,611; 4912,926; 5,54769
 424,90;  318,532;   44,016; 4917,061; 5,63336
 425,49;  360,340;   83,922; 4948,069; 5,68276
 426,08;  365,340;   92,422; 5032,169; 5,52494
 426,67;  327,766;   56,110; 4951,881; 5,54880
 427,26;  355,351;   70,530; 5041,180; 5,73005
 427,85;  335,561;   69,216; 5000,047; 5,40162
 428,44;  351,805;   70,628; 5078,549; 5,61465
 429,03;  380,089;   83,027; 5133,804; 5,88152
 429,62;  364,160;   84,326; 5156,817; 5,51669
 430,21;  373,355;   89,633; 5174,883; 5,57931
 430,80;  361,133;   64,238; 5194,005; 5,78769
 431,39;  364,113;   65,134; 5275,956; 5,73766
 431,99;  333,808;   85,909; 5201,209; 4,84623
 432,58;  366,807;   86,919; 5228,879; 5,44322
 433,17;  333,250;   80,608; 5265,236; 4,87290
 433,76;  381,341;   80,944; 5403,812; 5,64351
 434,35;  380,875;   94,637; 5427,532; 5,36739
 434,94;  390,619;   87,749; 5528,633; 5,56656
 435,53;  364,938;   85,131; 5489,938; 5,17700
 436,12;  359,984;   77,833; 5530,870; 5,17419
 436,71;  365,285;   95,824; 5567,900; 4,92430
 437,30;  355,202;   92,125; 5645,645; 4,73711
 437,89;  364,946;   86,337; 5750,746; 4,91858
 438,48;  354,522;   80,830; 5726,994; 4,84740
 439,07;  376,848;   89,118; 5756,006; 5,07740
 439,66;  401,886;  106,846; 5907,443; 5,08638
 440,25;  379,084;  102,533; 5933,270; 4,74297
 440,84;  408,165;  100,151; 5953,765; 5,26194
 441,43;  404,942;   81,466; 6120,255; 5,35663
 442,02;  381,281;   70,653; 6098,910; 5,15287
 442,61;  385,013;  102,834; 6151,956; 4,66479
 443,20;  417,535;   85,351; 6266,378; 5,37426
 443,79;  381,066;   81,541; 6234,795; 4,86774
 444,38;  397,673;   97,347; 6409,602; 4,75783
 444,97;  395,920;   78,439; 6464,563; 4,97142
 445,56;  409,908;  109,241; 6579,222; 4,64711
 446,15;  417,885;   88,455; 6706,313; 4,97788
 446,74;  365,342;   69,334; 6742,643; 4,43570
 447,33;  402,766;   95,241; 6883,895; 4,52998
 447,92;  416,027;   84,855; 6996,541; 4,79148
 448,51;  411,650;  100,340; 7059,750; 4,47322
 449,10;  420,262;   94,139; 7198,291; 4,59061
 449,69;  416,639;   87,253; 7331,782; 4,54668
 450,28;  414,857;   81,345; 7420,757; 4,54412
 450,87;  425,199;   82,645; 7551,885; 4,58620
 451,46;  443,932;  109,948; 7689,475; 4,40639
 452,05;  431,965;   83,751; 7799,165; 4,51322
 452,64;  441,810;   79,053; 7949,396; 4,60916
 453,23;  486,930;  121,857; 8107,044; 4,57188
 453,82;  446,897;   84,154; 8243,854; 4,44555
 454,40;  450,710;   65,153; 8384,695; 4,63435
 454,99;  490,750;  106,662; 8574,793; 4,53569
 455,58;  444,082;   87,043; 8649,739; 4,16971
 456,17;  463,076;   80,659; 8846,976; 4,36234
 456,76;  464,827;   76,455; 9034,841; 4,33529
 457,35;  471,373;   81,647; 9159,302; 4,29325
 457,94;  476,267;   81,464; 9376,038; 4,24768
 458,53;  473,068;   61,254; 9526,168; 4,35096
 459,12;  520,795;  102,874; 9854,294; 4,28575
 459,71;  484,815;   74,246; 9828,729; 4,20903
 460,30;  495,386;   87,146;10047,144; 4,09880
 460,89;  513,627;   73,955;10215,141; 4,33551
 461,48;  516,967;   79,164;10399,538; 4,24213
 462,06;  516,523;   79,052;10532,938; 4,18477
 462,65;  476,490;   50,349;10614,747; 4,03375
 463,24;  556,133;   97,770;10972,218; 4,21504
 463,83;  494,923;   68,452;11002,037; 3,90056
 464,42;  532,919;   85,649;11187,634; 4,02874
 465,01;  529,410;   73,753;11387,596; 4,02743
 465,60;  530,481;   78,553;11587,810; 3,92665
 466,19;  562,567;   85,064;11761,938; 4,08931
 466,77;  562,185;   85,955;11897,913; 4,03176
 467,36;  562,866;   69,673;12026,008; 4,12495
 467,95;  564,414;   80,156;12155,399; 4,01034
 468,54;  584,783;   89,865;12369,683; 4,03034
 469,13;  582,701;   81,657;12434,158; 4,05622
 469,72;  578,358;   74,968;12666,501; 3,99785
 470,31;  618,416;   85,968;12844,173; 4,17338
 470,90;  594,894;   80,951;12953,451; 3,99256
 471,48;  580,524;   39,174;13142,381; 4,13143
 472,07;  635,311;  121,143;13334,026; 3,89141
 472,66;  591,063;   88,761;13472,034; 3,75321
 473,25;  594,785;   72,055;13588,813; 3,86727
 473,84;  635,871;   61,866;13773,542; 4,18625
 474,43;  622,502;   54,279;14038,502; 4,06331
 475,01;  636,712;   80,066;14139,770; 3,95917
 475,60;  612,829;   49,967;14305,914; 3,94826
 476,19;  678,098;   93,176;14422,298; 4,08205
 476,78;  644,966;   82,173;14542,208; 3,89205
 477,37;  624,529;   58,867;14636,614; 3,88031
 477,95;  671,974;   82,169;14810,445; 4,00458
 478,54;  664,451;   76,062;14981,894; 3,94737
 479,13;  632,750;   63,162;15125,093; 3,78164
 479,72;  671,525;   76,964;15232,811; 3,92298
 480,31;  694,360;   75,880;15418,174; 4,03121
 480,89;  660,412;   70,066;15522,369; 3,82045
 481,48;  679,364;   55,283;15600,078; 4,01473
 482,07;  659,983;   57,765;15750,783; 3,83749
 482,66;  653,880;   68,962;15832,380; 3,71060
 483,25;  710,464;   84,683;15929,778; 3,94937
 483,83;  674,042;   68,466;16050,655; 3,78907
 484,42;  682,767;   63,364;16126,138; 3,85614
 485,01;  698,040;   70,776;16307,025; 3,86336
 485,60;  745,750;   77,194;16445,707; 4,08441
 486,18;  703,274;   67,069;16479,246; 3,87642
 486,77;  689,130;   74,057;16525,145; 3,73880
 487,36;  748,779;   72,094;16711,293; 4,06681
 487,95;  721,610;   70,785;16813,010; 3,88733
 488,53;  722,081;   71,684;16801,322; 3,88769
 489,12;  732,134;   62,692;16952,961; 3,96348
 489,71;  705,743;   39,888;16938,100; 3,94038
 490,30;  746,422;   69,484;17113,451; 3,97172
 490,88;  765,439;   89,585;17127,195; 3,96683
 491,47;  746,063;   69,492;17224,348; 3,94390
 492,06;  740,017;   65,090;17261,617; 3,92479
 492,65;  745,397;   77,986;17233,469; 3,89037
 493,23;  738,435;   68,382;17320,291; 3,88393
 493,82;  729,921;   69,661;17342,307; 3,82258
 494,41;  741,655;   58,487;17437,141; 3,93108
 494,99;  754,371;   84,866;17518,842; 3,84023
 495,58;  767,222;   84,284;17554,650; 3,90913
 496,17;  739,633;   72,370;17509,719; 3,82663
 496,76;  754,074;   93,469;17612,945; 3,77069
 497,34;  750,053;   64,574;17624,666; 3,90362
 497,93;  745,324;   65,474;17590,080; 3,87940
 498,52;  784,419;   75,281;17695,846; 4,02449
 499,10;  774,172;   93,088;17745,086; 3,85839
 499,69;  751,377;   72,282;17776,318; 3,83582
 500,28;  745,060;   45,880;17695,674; 3,96141
 500,86;  793,784;   78,487;17817,127; 4,03242
 501,45;  744,784;   62,587;17787,127; 3,84888
 502,04;  758,743;   74,588;17819,199; 3,85556
 502,62;  769,833;   80,870;17980,617; 3,84901
 503,21;  756,991;   73,771;17892,291; 3,83433
 503,80;  808,901;   80,889;18049,971; 4,05147
 504,38;  779,435;   66,782;18081,592; 3,95593
 504,97;  786,801;   63,789;18149,771; 3,99764
 505,56;  788,073;   86,979;18184,016; 3,87408
 506,14;  824,808;   78,294;18216,379; 4,11573
 506,73;  783,054;   38,396;18106,211; 4,12146
 507,32;  813,370;   77,098;18168,154; 4,06981
 507,90;  828,764;   84,283;18161,578; 4,11832
 508,49;  807,983;   59,197;18255,996; 4,11493
 509,08;  846,421;   77,493;18383,420; 4,20043
 509,66;  814,393;   85,583;18346,564; 3,99108
 510,25;  831,168;   68,886;18430,381; 4,15153
 510,83;  837,254;   75,296;18536,609; 4,12732
 511,42;  878,140;   72,807;18572,838; 4,35314
 512,01;  854,067;   60,695;18642,652; 4,26958
 512,59;  851,801;   62,589;18756,072; 4,22186
 513,18;  880,055;   74,787;18718,840; 4,31917
 513,77;  844,436;   53,173;18818,521; 4,21662
 514,35;  865,388;   48,290;18820,730; 4,35265
 514,94;  922,372;   84,088;18969,385; 4,43881
 515,52;  928,216;   53,000;18990,287; 4,62165
 516,11;  985,625;   92,196;19062,123; 4,70971
 516,69;  977,589;   51,880;18975,660; 4,89178
 517,28; 1058,069;  102,676;18976,813; 5,06192
 517,87; 1109,611;   69,975;18977,738; 5,49846
 518,45; 1229,328;   66,277;19035,684; 6,13119
 519,04; 1323,415;   60,478;19057,742; 6,64799
 519,62; 1507,117;   53,390;19135,617; 7,61822
 520,21; 1702,245;   41,900;19184,572; 8,67352
 520,79; 1962,523;   57,406;19303,594; 9,89868
 521,38; 2149,251;   58,784;19330,137;10,84754
 521,97; 2500,011;   54,407;19542,053;12,54951
 522,55; 2787,544;   65,078;19568,729;13,95875
 523,14; 3096,973;   34,679;19635,314;15,62344
 523,72; 3498,980;   79,184;19741,822;17,39236
 524,31; 3901,254;   73,996;19769,811;19,43183
 524,89; 4307,094;   55,805;20040,607;21,27261
 525,48; 4668,532;   53,902;20077,531;23,04592
 526,06; 5031,566;   75,395;20128,451;24,71529
 526,65; 5464,076;   73,913;20367,232;26,56127
 527,23; 5692,659;   49,890;20330,645;27,82327
 527,82; 5995,178;   51,304;20600,063;28,92571
 528,41; 6241,803;   68,401;20707,045;29,91186
 528,99; 6387,083;   59,097;20783,096;30,53458
 529,58; 6534,730;   47,789;20840,559;31,19806
 530,16; 6686,555;   56,887;21053,141;31,57548
 530,75; 6867,837;   76,995;21260,465;32,05727
 531,33; 6868,032;   49,602;21294,031;32,09515
 531,92; 6958,693;   56,183;21466,564;32,23908
 532,50; 7098,160;  104,412;21786,588;32,25575
 533,09; 7128,199;   83,598;21850,541;32,36376
 533,67; 7210,586;   78,678;22009,957;32,51934
 534,26; 7320,806;   70,982;22162,506;32,81722
 534,84; 7404,997;   66,086;22364,168;32,91275
 535,42; 7551,737;   63,895;22625,564;33,18833
 536,01; 7653,317;   83,690;22830,316;33,27802
 536,59; 7795,145;   54,600;22982,172;33,76086
 537,18; 7916,977;   80,682;23112,119;34,02434
 537,76; 8066,368;   66,517;23531,195;34,09316
 538,35; 8221,481;   75,907;23692,867;34,49036
 538,93; 8304,366;   89,595;23721,951;34,76069
 539,52; 8438,677;   70,313;24095,432;34,83173
 540,10; 8629,644;   75,810;24403,342;35,16112
 540,69; 8729,392;   91,093;24507,135;35,37960
 541,27; 8811,872;   82,888;24822,186;35,28388
 541,85; 9007,587;   59,400;25106,500;35,72544
 542,44; 9005,864;   67,483;25112,178;35,68972
 543,02; 9154,243;   92,310;25576,242;35,55940
 543,61; 9183,249;   96,503;25801,377;35,35028
 544,19; 9263,857;   68,999;26045,113;35,39736
 544,78; 9362,374;   69,301;26190,260;35,57708
 545,36; 9495,485;  100,009;26530,770;35,54751
 545,94; 9470,338;   66,795;26660,564;35,35995
 546,53; 9587,810;   73,917;26816,822;35,57539
 547,11; 9669,069;  105,408;27133,426;35,38425
 547,70; 9694,077;   93,082;27194,020;35,42680
 548,28; 9797,183;   45,797;27442,697;35,59303
 548,86; 9956,983;   87,897;27794,797;35,61960
 549,45; 9951,311;   46,507;27921,453;35,53300
 550,03;10078,606;   76,004;28138,549;35,64396
 550,62;10219,216;   70,000;28556,387;35,62830
 551,20;10405,648;   79,903;28837,176;35,90655
 551,78;10490,479;   71,094;28870,492;36,17918
 552,37;10617,938;   58,995;29194,064;36,24135
 552,95;10731,925;   59,696;29443,123;36,32057
 553,54;10896,454;   55,296;29695,211;36,57621
 554,12;11001,436;   74,404;29911,135;36,62275
 554,70;11238,769;   90,408;30498,525;36,66245
 555,29;11291,142;   74,598;30497,770;36,86842
 555,87;11377,019;   61,613;30831,760;36,77397
 556,45;11549,843;   62,488;31186,799;36,90798
 557,04;11693,091;   58,902;31462,805;37,04695
 557,62;11802,490;   63,202;31739,805;37,05981
 558,20;11925,938;   48,717;32057,809;37,10577
 558,79;12183,523;  104,406;32384,094;37,42018
 559,37;12161,849;   53,403;32421,775;37,40826
 559,95;12364,228;   58,009;32974,496;37,38619
 560,54;12424,740;   76,907;33105,141;37,38569
 561,12;12508,574;   61,901;33310,559;37,43512
 561,70;12620,057;   57,109;33693,484;37,34929
 562,29;12837,382;   74,007;34096,867;37,51412
 562,87;12953,711;   81,807;34555,254;37,33860
 563,45;13137,211;   82,507;34828,051;37,57231
 564,04;13125,559;   58,590;34728,145;37,69004
 564,62;13249,098;   63,108;35171,711;37,55772
 565,20;13310,885;   62,387;35393,527;37,49808
 565,78;13507,112;   81,397;35845,984;37,53913
 566,37;13634,887;   67,400;36021,801;37,73526
 566,95;13671,243;   73,010;36297,043;37,53926
 567,53;13923,242;   77,488;36631,398;37,87763
 568,12;14000,283;   61,697;36731,496;38,01108
 568,70;14174,195;   88,396;37224,637;37,93006
 569,28;14234,656;   72,909;37518,684;37,81935
 569,86;14442,119;   69,103;37728,289;38,16603
 570,45;14579,072;   75,011;38155,730;38,08768
 571,03;14641,813;   53,588;38139,211;38,30376
 571,61;14786,335;   57,514;38657,105;38,15797
 572,19;14807,746;   59,991;38611,504;38,25467
 572,78;15019,823;   75,906;39057,594;38,33574
 573,36;15133,037;   86,495;39295,066;38,37565
 573,94;15207,779;   61,294;39533,691;38,37235
 574,52;15308,061;   76,080;39699,473;38,44189
 575,11;15360,121;   48,093;39929,320;38,39407
 575,69;15473,532;   64,102;40206,430;38,38699
 576,27;15538,710;   59,785;40348,609;38,41990
 576,85;15566,138;   40,795;40698,863;38,18515
 577,44;15645,343;   48,888;40863,898;38,21255
 578,02;15573,818;   49,881;40926,648;37,97741
 578,60;15673,450;   62,994;41257,508;37,89450
 579,18;15599,934;   62,292;41632,262;37,37708
 579,76;15521,267;   50,795;41594,051;37,23943
 580,35;15444,331;   68,111;41928,703;36,73197
 580,93;15510,065;   76,905;42284,422;36,56496
 581,51;15360,760;   37,412;42435,488;36,14161
 582,09;15475,488;   66,590;42631,930;36,20058
 582,67;15512,148;   72,803;42942,875;36,01427
 583,26;15726,640;   35,007;43231,340;36,32631
 583,84;15852,809;   39,694;43499,578;36,38554
 584,42;16139,796;   68,796;43810,539;36,74065
 585,00;16396,732;   81,602;44189,230;36,98936
 585,58;16649,391;   37,302;44473,902;37,38380
 586,17;16812,881;   64,784;44458,621;37,72617
 586,75;16899,346;   19,300;44482,672;37,96393
 587,33;17060,277;   63,604;44897,063;37,91069
 587,91;17167,145;   91,000;45095,574;37,94313
 588,49;17198,242;   80,188;45246,199;37,90030
 589,07;17301,994;   60,505;45233,109;38,16802
 589,65;17278,762;   46,902;45181,918;38,17847
 590,24;17267,014;   58,588;45293,613;38,04226
 590,82;17268,297;   35,086;45274,168;38,09364
 591,40;17207,107;   58,994;45434,578;37,79150
 591,98;17112,990;   54,580;45384,961;37,63130
 592,56;17085,896;   72,486;45642,168;37,33493
 593,14;16913,090;   45,880;45612,262;37,01679
 593,72;16779,654;   50,996;45797,711;36,56800
 594,30;16510,619;   52,581;45818,848;35,96107
 594,89;16330,066;   57,095;45617,051;35,71771
 595,47;16281,181;   52,484;45796,723;35,47703
 596,05;16280,490;   39,602;45930,805;35,38998
 596,63;16407,291;   54,302;46063,105;35,54317
 597,21;16594,516;   55,000;46049,988;35,95939
 597,79;16839,162;   45,002;46159,816;36,41815
 598,37;17163,502;   52,411;46221,414;37,06186
 598,95;17560,445;   53,800;46273,074;37,87737
 599,53;17760,037;   46,873;46082,320;38,47723
 600,11;18150,225;   57,096;46384,324;39,05506
 600,70;18224,063;   80,192;46052,746;39,46674
 601,28;18339,908;   45,494;46162,879;39,66924
 601,86;18412,346;   68,300;46300,273;39,67827
 602,44;18461,598;   36,486;46388,270;39,75060
 603,02;18549,703;   39,570;46382,832;39,94137
 603,60;18596,699;   66,176;46730,398;39,71034
 604,18;18588,375;   66,491;46584,891;39,81625
 604,76;18427,088;   58,790;46600,031;39,46671
 605,34;18124,428;   36,599;46312,227;39,08716
 605,92;17964,127;   62,486;46220,855;38,78309
 606,50;17532,514;   37,188;46309,914;37,80915
 607,08;17142,732;   43,702;46046,633;37,16944
 607,66;16899,816;   41,000;46295,488;36,44796
 608,24;16364,920;   48,503;46338,488;35,24827
 608,82;16189,321;   33,993;46369,520;34,86596
 609,40;15888,703;   64,001;46126,047;34,35519
 609,98;15748,967;   35,095;46236,750;34,01149
 610,56;15755,651;   52,784;46044,535;34,14279
 611,14;15873,142;   49,098;46042,070;34,40535
 611,72;16132,183;   64,597;46143,598;34,86965
 612,30;16417,760;   41,690;46084,242;35,56725
 612,88;16745,344;   71,478;46250,930;36,10668
 613,46;16956,014;   42,588;46000,414;36,80206
 614,04;17205,969;   50,408;46040,227;37,30295
 614,62;17393,410;   51,785;45729,809;37,96492
 615,20;17513,094;   57,905;45750,707;38,20118
 615,78;17488,844;   32,910;45702,141;38,22253
 616,36;17483,979;   47,494;45707,492;38,18766
 616,94;17428,516;   26,000;45666,988;38,12914
 617,52;17254,766;   34,005;45546,723;37,83725
 618,10;17239,932;   72,180;45702,289;37,62374
 618,68;16896,586;   25,800;45447,398;37,14265
 619,26;16822,953;   44,406;45536,379;36,88243
 619,84;16373,976;   40,491;45161,188;36,19954
 620,42;16179,754;   40,896;45357,211;35,61379
 621,00;15717,154;   39,096;45365,609;34,58916
 621,58;15228,776;   39,482;45249,020;33,59754
 622,16;14800,306;   57,014;45337,918;32,55962
 622,74;14332,916;   57,600;45236,785;31,59711
 623,32;13805,458;   44,799;45204,113;30,47136
 623,90;13445,863;   79,315;45023,992;29,74000
 624,48;13093,313;   43,688;44883,313;29,10289
 625,05;12875,514;   40,088;45065,711;28,50694
 625,63;12952,413;   57,388;45042,613;28,66502
 626,21;13110,659;   48,190;44855,445;29,15258
 626,79;13528,049;   74,903;45051,477;29,91145
 627,37;13958,071;   43,088;44755,484;31,12109
 627,95;14499,494;   71,305;44796,508;32,25964
 628,53;14915,154;   57,896;44747,512;33,24544
 629,11;15329,502;   49,879;44640,102;34,26676
 629,69;15812,898;   52,108;44879,012;35,15922
 630,27;15989,775;   84,091;44600,891;35,72962
 630,84;16219,214;   54,488;44537,711;36,33893
 631,42;16356,165;   61,005;44855,422;36,37766
 632,00;16350,561;   45,980;44578,773;36,61253
 632,58;16315,392;   61,493;44575,133;36,51442
 633,16;16334,677;   59,113;44579,633;36,55744
 633,74;16249,096;   66,096;44446,836;36,46402
 634,32;15960,539;   57,385;44291,395;35,95232
 634,90;15814,547;   61,113;44901,246;35,13244
 635,47;15296,993;   38,283;44333,266;34,44794
 636,05;14781,839;   42,085;44188,996;33,38796
 636,63;14247,554;   54,696;44344,809;32,04521
 637,21;13637,467;   62,095;44528,051;30,52981
 637,79;13163,699;   70,898;44448,043;29,50348
 638,37;12580,487;   64,468;44258,387;28,32068
 638,94;12119,341;   47,098;44318,270;27,26886
 639,52;11985,341;   42,198;44423,570;26,91026
 640,10;12027,712;   72,894;44524,383;26,89408
 640,68;12261,699;   57,694;44555,723;27,42595
 641,26;12655,286;   33,794;44602,766;28,31901
 641,84;13236,873;   54,794;44264,703;29,81702
 642,41;13896,660;   33,394;44386,445;31,25662
 642,99;14619,146;   61,194;44412,684;32,82404
 643,57;15242,934;   27,195;44380,227;34,30597
 644,15;15880,021;   34,095;44424,863;35,69644
 644,73;16326,007;   51,095;44794,105;36,37420
 645,30;16679,494;   69,595;44532,445;37,35680
 645,88;16882,080;   53,895;44571,184;37,80146
 646,46;17005,867;   57,295;44724,324;37,94426
 647,04;17083,254;   47,895;44548,164;38,28147
 647,61;17079,342;   45,795;44756,004;38,09767
 648,19;16925,527;   69,795;44812,445;37,67263
 648,77;16870,314;   32,095;44807,887;37,60563
 649,35;16664,701;   61,995;44879,125;37,04545
 649,92;16390,988;   52,995;44855,965;36,46632
 650,50;16061,176;   31,796;44722,105;35,86769
 651,08;15725,763;   47,596;44624,445;35,17110
 651,66;15334,949;   27,196;44888,984;34,12203
 652,23;14892,236;   56,496;44823,027;33,14025
 652,81;14514,522;   45,996;45074,367;32,13202
 653,39;14224,010;   69,596;45120,406;31,41878
 653,97;14072,597;   33,196;45228,348;31,06395
 654,54;13873,384;   37,096;45073,086;30,72273
 655,12;13941,070;   30,696;45271,324;30,74753
 655,70;14112,257;   49,196;45327,367;31,05925
 656,28;14381,544;   45,596;45491,605;31,54501
 656,85;14801,331;   44,896;45428,547;32,51487
 657,43;15216,918;   17,297;45216,785;33,62786
 658,01;15831,904;   21,797;45644,426;34,65409
 658,58;16455,092;   70,597;45949,367;35,71259
 659,16;16721,578;   57,397;45552,508;36,62851
 659,74;17174,164;   78,497;45746,246;37,43488
 660,32;17397,352;   79,297;45955,586;37,74947
 660,89;17572,238;   37,497;45904,125;38,22985
 661,47;17753,926;   53,597;46094,566;38,44474
 662,05;18001,512;   35,997;46285,605;38,84468
 662,62;18116,299;   73,597;46643,047;38,74364
 663,20;18034,986;   94,697;46661,586;38,52585
 663,78;18041,473;   67,397;46944,527;38,34295
 664,35;17988,260;   51,597;47161,066;38,07443
 664,93;17796,047;   64,698;47390,008;37,46695
 665,51;17630,033;   54,798;47523,445;37,02493
 666,08;17256,020;   52,598;47587,188;36,19138
 666,66;17132,008;   54,898;48219,926;35,45541
 667,23;16768,594;   73,498;48259,168;34,64743
 667,81;16343,081;   67,298;48827,809;33,37903
 668,39;16019,167;   53,798;48982,547;32,62983
 668,96;15740,154;   64,898;49249,488;31,87026
 669,54;15427,541;   52,398;49565,027;31,05297
 670,12;15348,028;   62,098;50043,266;30,58338
 670,69;15345,615;   72,198;50587,309;30,23534
 671,27;15567,901;   42,698;50804,949;30,58415
 671,84;15908,488;   52,699;50686,289;31,31476
 672,42;16477,176;   77,899;51094,227;32,14515
 673,00;17112,063;   61,099;51364,270;33,23569
 673,57;17592,350;   73,699;51056,109;34,36215
 674,15;18326,535;   76,499;51454,246;35,52129
 674,72;18839,822;   64,499;51271,988;36,66519
 675,30;19204,010;   68,499;51194,930;37,42782
 675,88;19528,297;   47,299;51369,867;37,95796
 676,45;19819,283;   68,799;51601,406;38,32619
 677,03;19854,369;   70,999;51397,750;38,54397
 677,60;19895,957;   36,999;51440,387;38,63356
 678,18;19933,744;   63,399;51741,328;38,45035
 678,76;19725,631;   39,800;51655,566;38,13918
 679,33;19602,918;   60,000;51613,008;37,90840
 679,91;19281,205;   48,100;51616,250;37,29648
 680,48;18772,990;   49,900;51590,789;36,32667
 681,06;18192,777;   53,900;51551,828;35,22254
 681,63;17427,266;   48,800;51360,969;33,86812
 682,21;16871,652;   75,100;51466,910;32,68332
 682,78;15938,938;   22,700;50943,648;31,25676
 683,36;15295,226;   54,300;51124,789;29,84292
 683,93;14643,212;   48,100;50885,328;28,70950
 684,51;13991,799;   45,600;50889,270;27,42957
 685,08;13653,586;   50,900;51123,410;26,63407
 685,66;13445,072;   59,001;51258,648;26,14485
 686,24;13576,459;   45,801;51266,789;26,41624
 686,81;13839,446;   58,201;51376,027;26,85469
 687,39;14375,933;   46,201;51314,770;27,95033
 687,96;15062,720;   54,201;51515,711;29,16455
 688,54;15848,106;   25,401;51650,148;30,64946
 689,11;16603,293;   31,501;51776,789;32,02570
 689,69;17265,480;   41,901;51664,027;33,36472
 690,26;17915,867;   60,901;52121,570;34,29646
 690,84;18210,354;   57,601;51906,211;35,01107
 691,41;18747,842;   51,001;52199,750;35,85290
 691,98;18854,828;   40,201;52310,590;35,99481
 692,56;18991,814;   37,101;52299,531;36,26833
 693,13;18983,002;   66,302;52835,871;35,84774
 693,71;18769,789;   35,502;52870,508;35,45810
 694,28;18459,074;   34,302;52895,852;34,85477
 694,86;18158,361;   51,802;53283,488;34,01463
 695,43;17694,549;   69,202;53173,031;33,19035
 696,01;17294,236;   54,302;53738,871;32,11339
 696,58;16735,922;   45,002;53627,512;31,14994
 697,16;16169,109;   49,502;53758,352;30,01294
 697,73;15739,496;   80,802;54265,191;28,89890
 698,30;15189,883;   52,702;53928,930;28,09621
 698,88;14661,770;   45,602;54095,770;27,04185
 699,45;14377,257;   40,902;54204,309;26,46871
 700,03;14195,544;   58,803;54551,648;25,94238
 700,60;14134,230;   69,203;54563,492;25,81009
 701,18;14152,917;   73,403;54806,930;25,72375
 701,75;14372,904;   75,303;55150,672;25,96006
 702,32;14589,591;   47,703;54894,012;26,51389
 702,90;15108,277;   54,703;55278,152;27,25939
 703,47;15581,864;   64,703;55434,191;28,02475
 704,05;16022,451;   82,503;55625,531;28,69838
 704,62;16485,139;   40,303;55573,270;29,61274
 705,19;16941,725;   48,703;55701,609;30,35425
 705,77;17256,512;   30,503;55980,852;30,78803
 706,34;17641,799;   65,903;55939,090;31,45676
 706,91;17954,186;   51,604;56105,730;31,93803
 707,49;18227,973;   64,904;56452,871;32,21090
 708,06;18369,459;   81,504;56656,609;32,32509
 708,64;18373,146;   41,804;56518,352;32,45833
 709,21;18466,434;   66,604;56773,191;32,44743
 709,78;18499,719;   54,904;56750,332;32,53316
 710,36;18588,307;   68,504;57047,770;32,50271
 710,93;18615,094;   69,704;57101,910;32,51740
 711,50;18563,480;   53,104;57382,551;32,28773
 712,08;18767,668;   64,704;57739,492;32,42832
 712,65;18760,453;   77,104;57507,930;32,53192
 713,22;18749,340;   88,404;57647,773;32,42033
 713,80;18783,229;   89,904;57985,113;32,28821
 714,37;18656,615;   62,705;57654,953;32,28544
 714,94;18512,301;   67,705;57721,691;31,99188
 715,52;18453,988;   58,905;57599,434;31,96892
 716,09;18402,074;   63,205;57731,973;31,80035
 716,66;18190,861;   74,205;57502,613;31,54651
 717,23;17958,148;   72,805;57685,254;31,04423
 717,81;17662,635;   58,805;57459,191;30,66849
 718,38;17285,521;   51,605;57252,332;30,12884
 718,95;17113,209;   70,805;57242,070;29,80939
 719,53;16860,096;   58,505;57111,012;29,44935
 720,10;16700,783;   78,805;56880,754;29,26304
 720,67;16616,869;   49,405;56701,691;29,24412
 721,24;16765,457;   68,006;56407,832;29,63703
 721,82;16850,844;   65,506;56337,973;29,82869
 722,39;17222,131;   63,006;56449,414;30,43131
 722,96;17744,916;   79,706;56495,953;31,31227
 723,53;18087,305;   87,306;56453,094;31,93426
 724,11;18669,490;   67,806;56521,234;32,95050
 724,68;19078,777;   69,806;56581,574;33,63719
 725,25;19666,465;   74,206;56729,711;34,58139
 725,82;20234,451;   99,706;57170,152;35,28051
 726,40;20697,838;   62,206;57214,395;36,10646
 726,97;21266,324;   67,806;57301,234;37,03870
 727,54;21486,813;   62,706;57229,973;37,47618
 728,11;21984,898;   53,607;57361,813;38,26903
 728,69;22175,086;   49,507;57573,352;38,46332
 729,26;22362,473;   58,707;57865,293;38,58343
 729,83;22431,359;   53,707;58108,832;38,54552
 730,40;22506,846;   58,407;58192,074;38,61521
 730,97;22389,434;   47,007;58596,813;38,15969
 731,55;22147,320;   47,407;58769,953;37,63446
 732,12;21821,605;  100,907;58623,992;37,11475
 732,69;21357,893;   71,407;58612,434;36,36165
 733,26;20992,180;   53,407;58592,074;35,76913
 733,83;20442,566;   50,907;58912,113;34,64363
 734,41;19894,553;   74,707;59208,754;33,51681
 734,98;19456,441;   62,607;59257,492;32,76269
 735,55;19205,727;   55,908;59487,133;32,22181
 736,12;18899,014;   72,208;59456,172;31,70352
 736,69;18830,400;   90,408;59613,313;31,48367
 737,26;19035,389;   68,108;59770,754;31,76958
 737,84;19213,574;   62,508;59579,195;32,17764
 738,41;19644,063;   59,908;59723,734;32,82417
 738,98;20109,449;   70,608;59579,676;33,67359
 739,55;20795,135;   62,008;59464,215;34,90296
 740,12;21588,723;   79,008;59831,754;35,99787
 740,69;22232,908;   71,408;59967,594;36,99985
 741,26;22854,695;   69,108;59921,535;38,06961
 741,83;23433,082;   69,208;59843,773;39,08665
 742,41;24083,770;   74,309;60309,313;39,85965
 742,98;24624,756;  103,909;60395,656;40,67032
 743,55;25060,643;   69,509;60240,496;41,53353
 744,12;25166,131;   57,709;60022,535;41,87192
 744,69;25403,617;   75,109;60194,574;42,13030
 745,26;25389,604;   46,009;59896,914;42,34455
 745,83;25433,891;   62,409;60193,254;42,19379
 746,40;25249,277;   64,009;60053,293;41,98295
 746,97;24968,863;   47,509;59961,535;41,59519
 747,55;24754,551;   72,209;60003,477;41,18441
 748,12;24571,738;   64,409;60031,316;40,86809
 748,69;23987,324;   64,109;60045,355;39,88449
 749,26;23560,111;   68,610;60145,594;39,10233
 749,83;23183,498;   62,210;60013,035;38,56709
 750,40;22729,885;  103,510;59932,074;37,81868
 750,97;22209,072;  103,510;60095,516;36,84751
 751,54;21860,959;   43,310;59869,254;36,46854
 752,11;21487,346;   67,510;59894,594;35,80291
 752,68;21338,533;  102,510;59665,434;35,65309
 753,25;21350,619;   71,610;59511,777;35,79904
 753,82;21399,207;   72,910;59701,414;35,76527
 754,39;21471,293;   76,010;59739,355;35,86001
 754,96;21803,680;   72,910;59250,297;36,72141
 755,53;22198,566;   52,210;59510,137;37,24710
 756,10;22720,953;   70,911;59313,574;38,23265
 756,67;23421,439;   81,611;59430,316;39,32660
 757,24;23784,027;   82,211;59289,656;40,03182
 757,81;24354,215;   43,711;59342,195;40,99684
 758,38;24854,900;   60,311;59341,734;41,82523
 758,95;25289,287;   84,911;59414,574;42,48191
 759,52;25493,574;   59,511;58757,516;43,33037
 760,09;25647,861;   70,811;58642,957;43,66760
 760,66;25604,348;   68,611;58366,598;43,80209
 761,23;25703,836;   85,611;58358,438;43,96256
 761,80;25593,021;   74,811;58348,176;43,79052
 762,37;25503,508;   87,411;58400,617;43,58549
 762,94;25403,195;   84,011;58434,258;43,39173
 763,51;25119,082;   59,112;58202,297;43,10044
 764,08;24870,670;   68,712;58167,637;42,68919
 764,65;24674,355;   87,212;57945,176;42,49569
 765,22;24372,043;   59,812;57632,418;42,22882
 765,79;24173,730;   79,712;57326,059;42,08831
 766,36;23818,416;   80,612;57346,598;41,45184
 766,93;23534,803;   65,712;57506,738;40,85771
 767,50;23174,990;   77,912;57339,375;40,33616
 768,07;22939,178;   77,312;57431,219;39,86104
 768,64;22628,965;   91,312;57245,355;39,43317
 769,21;22335,951;   64,112;56750,797;39,28937
 769,78;22304,938;   78,412;56606,938;39,31913
 770,34;21993,025;   44,213;56182,477;39,09778
 770,91;21968,111;   63,513;56215,117;39,00975
 771,48;21982,799;   69,513;55998,656;39,18044
 772,05;22093,186;   79,213;55701,898;39,57733
 772,62;22118,672;   51,913;55274,836;39,95942
 773,19;22545,459;   66,313;55428,477;40,60381
 773,76;22924,545;   78,913;55294,016;41,37569
 774,33;23267,932;   75,413;55158,156;42,10487
 774,90;23441,420;   60,413;54598,199;42,87121
 775,47;23720,105;   70,013;54692,637;43,29725
 776,03;23842,693;   77,913;54517,977;43,65311
 776,60;23989,080;   63,713;54224,719;44,17452
 777,17;24020,967;   66,414;54057,457;44,36764
 777,74;23945,654;   41,514;53490,098;44,72362
 778,31;23891,041;   71,414;53612,637;44,48839
 778,88;23752,727;   44,614;53275,879;44,53795
 779,45;23660,113;   91,914;53168,418;44,40420
 780,01;23444,701;   80,414;53129,656;44,04264
 780,58;23429,287;   75,314;52949,398;44,16904
 781,15;23193,574;   60,014;52661,438;43,97896
 781,72;22948,662;   74,014;52554,078;43,58731
 782,29;22930,348;   69,114;52079,219;43,95537
 782,86;22663,936;   75,114;51771,258;43,69537
 783,42;22476,121;   70,814;51617,297;43,46622
 783,99;22174,309;   66,514;51666,738;42,84438
 784,56;21972,295;   75,815;51183,078;42,84417
 785,13;21589,582;   65,615;51106,617;42,16995
 785,70;21348,170;   63,815;50902,359;41,86657
 786,26;21141,955;   80,715;50828,699;41,50163
 786,83;20921,143;   81,915;50547,141;41,29423
 787,40;20716,330;   71,915;50338,180;41,07012
 787,97;20588,016;   50,915;50082,520;41,04825
 788,54;20638,703;   76,715;50067,559;41,13151
 789,10;20504,490;   70,915;49707,098;41,16669
 789,67;20576,377;   88,815;49374,039;41,56938
 790,24;20731,564;   67,215;49515,980;41,78941
 790,81;20640,850;   85,715;48790,621;42,20342
 791,37;20839,938;   89,816;48703,758;42,68348
 791,94;21052,725;   77,416;48731,301;43,11127
 792,51;21120,012;   55,216;48281,039;43,67949
 793,08;21289,998;   78,116;48263,180;44,02170
 793,64;21338,984;   70,516;47992,719;44,38124
 794,21;21292,172;   91,216;47794,559;44,44333
 794,78;21320,158;   67,216;47492,598;44,81343
 795,35;21298,545;   74,916;47095,641;45,13675
 795,91;21243,932;   58,816;46888,879;45,23828
 796,48;21122,719;   76,616;46538,621;45,29745
 797,05;20925,406;   66,716;46539,961;44,88322
 797,62;21029,793;   57,616;46365,500;45,28857
 798,18;20888,680;   65,717;46022,840;45,30954
 798,75;20728,566;   60,917;45731,480;45,25377
 799,32;20621,754;   71,517;45653,219;45,08440
 799,88;20509,439;   71,317;45503,160;44,98634
 800,45;20165,627;   43,617;45090,801;44,66874
 801,02;19983,613;   70,617;45058,039;44,26348
 801,58;19727,500;  103,217;44902,180;43,80522
 802,15;19396,787;   78,917;44603,820;43,38666
 802,72;18998,773;   86,717;44283,559;42,79052
 803,28;18833,160;   62,217;44124,699;42,60074
 803,85;18645,447;   51,017;43840,340;42,46339
 804,42;18355,135;   86,817;43684,180;41,90235
 804,98;18086,021;  110,518;43623,922;41,31027
 805,55;17916,809;   63,118;43303,762;41,28914
 806,12;17649,496;  101,318;43094,000;40,81666
 806,68;17554,682;   75,418;42643,539;41,06186
 807,25;17598,770;  100,118;42538,480;41,23310
 807,82;17593,455;   94,218;42414,621;41,34941
 808,38;17642,742;   78,818;42374,461;41,52656
 808,95;17712,629;   71,618;42215,199;41,85931
 809,52;17831,816;   67,418;42170,340;42,19279
 810,08;18010,104;   78,418;42035,480;42,73818
 810,65;18329,090;   70,318;42062,520;43,48134
 811,21;18463,777;   81,418;42152,461;43,69361
 811,78;18744,664;  103,518;42171,902;44,31153
 812,35;18632,951;   77,619;41843,543;44,42696
 812,91;18872,736;   96,919;42028,383;44,77740
 813,48;19059,424;   73,519;41847,520;45,44909
 814,04;19022,512;   84,319;41782,961;45,41681
 814,61;19015,697;   86,119;41608,602;45,58874
 815,18;18899,984;   80,719;41371,543;45,57735
 815,74;18866,172;   85,619;41303,980;45,56356
 816,31;18671,059;   87,719;40917,621;45,51404
 816,87;18374,045;   48,519;40470,363;45,33570
 817,44;18193,031;   89,319;40395,402;44,91558
 818,00;17893,219;   56,519;40200,641;44,43166
 818,57;17728,506;   93,519;39997,082;44,19401
 819,14;17428,693;   97,720;39811,922;43,63923
 819,70;17031,680;   88,420;39535,660;42,95170
 820,27;16772,766;   77,320;39377,602;42,48175
 820,83;16424,754;   77,020;39086,941;41,90661
 821,40;16115,640;  107,520;38849,980;41,31932
 821,96;15731,026;   81,620;38601,422;40,62691
 822,53;15536,913;   83,020;38411,762;40,31933
 823,09;15286,900;  109,920;38424,301;39,61171
 823,66;15010,287;   88,420;38045,141;39,31285
 824,22;14865,574;   85,720;37912,484;39,07248
 824,79;14798,561;   84,920;37523,723;39,30051
 825,35;14763,947;   93,320;37602,664;39,11193
 825,92;14780,635;   80,021;37253,602;39,54587
 826,48;14857,321;  107,521;37167,043;39,80030
 827,05;14934,809;   99,421;36937,082;40,27234
 827,61;15127,495;   84,421;36644,523;41,14615
 828,18;15296,882;   74,121;36543,762;41,74091
 828,74;15420,669;   88,421;36346,004;42,28701
 829,31;15574,056;   99,621;36305,645;42,73995
 829,87;15695,343;   85,121;36173,883;43,25508
 830,44;15753,729;   91,621;36054,922;43,55025
 831,00;15867,916;   97,221;35964,465;43,96963
 831,57;15959,003;  113,021;35736,305;44,48209
 832,13;15936,890;   81,521;35201,441;45,14637
 832,69;15830,977;   81,021;35253,785;44,77884
 833,26;15807,264;   92,922;35075,125;44,92096
 833,82;15644,851;  103,122;34779,063;44,81992
 834,39;15553,637;   82,922;34662,203;44,73984
 834,95;15278,824;   75,222;34586,445;44,05408
 835,52;15033,211;  114,822;34573,582;43,29346
 836,08;14809,697;  102,222;34467,223;42,79783
 836,64;14539,185;   88,722;34415,863;42,09632
 837,21;14262,671;  100,422;34108,805;41,64341
 837,77;13941,358;   87,922;33973,742;40,88269
 838,34;13739,845;   80,322;33883,184;40,40937
 838,90;13394,832;   74,022;33688,023;39,62875
 839,46;13211,219;  102,722;33660,965;39,06193
 840,03;12951,506;   89,823;33589,305;38,39368
 840,59;12710,092;   98,623;33224,945;38,07084
 841,16;12594,279;  115,023;33197,586;37,72155
 841,72;12333,466;   60,623;32782,023;37,50708
 842,28;12239,253;   88,023;33006,664;36,91292
 842,85;12243,939;  111,223;32981,305;36,91112
 843,41;12247,026;  115,623;32759,645;37,16271
 843,97;12283,713;  101,523;32628,484;37,45259
 844,54;12327,900;  103,923;32606,424;37,60934
 845,10;12515,087;  101,623;32435,264;38,39179
 845,67;12670,174;   84,723;32257,805;39,11795
 846,23;12879,561;   89,623;32027,045;40,04687
 846,79;13018,747;   95,524;31792,686;40,77092
 847,36;13095,334;   74,924;31579,225;41,32899
 847,92;13312,021;   98,924;31430,064;42,17241
 848,48;13465,808;   52,124;31495,006;42,66048
 849,04;13567,995;   76,124;31293,445;43,21918
 849,61;13567,382;   69,624;31314,285;43,20021
 850,17;13560,269;   75,324;31291,824;43,19813
 850,73;13454,955;   79,824;31295,666;42,84725
 851,30;13396,342;   67,024;31085,805;42,97177
 851,86;13247,529;   82,024;30886,045;42,73957
 852,42;13181,815;   68,124;30971,785;42,43410
 852,99;13000,103;   94,224;30848,025;41,96515
 853,55;12797,989;  105,124;30691,564;41,49834
 854,11;12610,977;   74,425;30375,906;41,37274
 854,67;12479,063;   95,225;30426,945;40,82801
 855,24;12130,050;   67,225;30329,586;39,86082
 855,80;11908,437;   89,225;30332,326;39,08069
 856,36;11628,624;   86,525;30215,365;38,30914
 856,92;11330,211;   62,925;30050,506;37,57317
 857,49;11252,997;   83,025;29960,646;37,38575
 858,05;11147,685;   79,825;29911,785;37,10068
 858,61;11008,971;   66,325;29929,727;36,64233
 859,17;10873,458;   89,325;29718,566;36,39693
 859,74;10730,845;   83,025;29678,205;35,97822
 860,30;10686,231;  113,925;29483,246;35,99779
 860,86;10573,118;   68,026;29312,586;35,92153
 861,42;10651,605;   86,626;29074,326;36,44642
 861,99;10717,392;   63,326;29042,166;36,76498
 862,55;10707,779;   75,226;28893,006;36,89581
 863,11;10912,565;   91,926;29061,646;37,35155
 863,67;11001,452;   76,826;28852,586;37,96468
 864,23;11190,439;   90,526;28750,727;38,72936
 864,80;11259,727;   70,326;28544,666;39,29643
 865,36;11449,313;   65,426;28649,607;39,82583
 865,92;11515,500;  100,126;28461,146;40,25022
 866,48;11559,687;   89,526;28425,188;40,47959
 867,04;11555,773;   67,426;28159,627;40,89515
 867,60;11674,360;   91,327;28118,768;41,32748
 868,17;11598,848;  104,427;27939,207;41,29517
 868,73;11452,634;   82,127;27621,646;41,28796
 869,29;11318,721;   65,927;27596,787;40,87338
 869,85;11407,008;  113,027;27568,627;41,13544
 870,41;11215,595;   81,527;27384,168;40,78019
 870,97;11071,581;  107,827;27213,406;40,44833
 871,54;10848,368;   85,727;26980,947;40,01693
 872,10;10642,355;   88,627;26828,088;39,46874
 872,66;10433,342;   62,827;26528,428;39,18488
 873,22;10323,629;   93,127;26519,367;38,71342
 873,78;10009,216;   78,627;26172,908;38,05657
 874,34; 9885,103;  104,228;26033,547;37,72129
 874,90; 9781,202;  120,827;25783,248;37,64405
 875,46; 9551,103;   99,728;25709,348;36,90557
 876,03; 9375,603;   98,927;25420,648;36,63525
 876,59; 9215,603;   77,327;25181,547;36,40135
 877,15; 9086,902;  109,827;25149,047;35,85206
 877,71; 9056,603;  106,228;25212,648;35,64974
 878,27; 8943,402;   96,427;24989,248;35,54027
 878,83; 8950,902;  116,827;25022,148;35,47063
 879,39; 8962,603;  100,027;24973,648;35,63042
 879,95; 8948,003;   98,827;24843,648;35,76173
 880,51; 8972,902;   83,728;24936,047;35,76799
 881,07; 9077,803;   90,527;25061,848;35,99039
 881,63; 9229,902;  101,027;25156,047;36,43531
 882,19; 9372,103;   87,628;24975,447;37,30530
 882,75; 9560,902;  101,427;25261,947;37,59650
 883,31; 9673,402;  105,327;25428,648;37,78365
 883,88; 9737,702;   98,927;25336,748;38,19179
 884,44; 9786,702;   91,927;25417,947;38,27990
 885,00; 9890,503;  107,427;25761,848;38,13407
 885,56;10047,803;  107,827;25751,648;38,76168
 886,12;10078,003;  111,228;25842,648;38,73387
 886,68;10144,303;   99,228;25852,348;39,00527
 887,24;10283,402;  117,927;26350,547;38,75128
 887,80;10174,402;   90,728;26280,748;38,50197
 888,36;10245,103;  116,327;26529,848;38,34693
 888,92;10278,003;  125,728;26572,047;38,38824
 889,48;10417,003;  103,128;26954,447;38,41106
 890,04;10261,202;  109,128;26947,547;37,82665
 890,60;10320,603;  112,128;27251,248;37,61535
 891,16;10147,202;   96,628;27188,848;37,09764
 891,72;10150,803;  118,228;27260,547;36,96285
 892,28;10113,803;  134,827;27331,547;36,69183
 892,84; 9969,202;  104,728;27348,848;36,20772
 893,39; 9825,202;  123,927;27411,947;35,55141
 893,95; 9735,503;  114,228;27186,348;35,53942
 894,51; 9572,003;   76,327;26955,748;35,32694
 895,07; 9552,702;  129,727;27084,848;34,95801
 895,63; 9355,103;   77,128;26839,947;34,66740
 896,19; 9225,202;   97,128;26677,248;34,34174
 896,75; 9133,803;  124,927;26555,748;34,08474
 897,31; 9133,902;   90,728;26203,148;34,63170
 897,87; 8942,103;  101,728;25897,248;34,27097
 898,43; 8945,702;  106,527;25790,848;34,41467
 898,99; 8867,202;  117,427;25589,047;34,35107
 899,55; 8882,003;  119,927;25597,447;34,39140
 900,11; 8818,603;  108,327;25305,447;34,56853
 900,67; 8725,202;   98,527;25075,248;34,53886
 901,22; 8828,402;  119,628;24861,047;35,19917
 901,78; 8732,202;   91,628;24661,248;35,16772
 902,34; 8702,303;  111,228;24532,248;35,17902
 902,90; 8626,003;   80,827;24335,148;35,23156
 903,46; 8651,402;  105,728;24231,348;35,42158
 904,02; 8571,202;  100,527;24123,947;35,26007
 904,58; 8493,202;   90,728;23850,848;35,36377
 905,14; 8531,603;   68,527;23822,947;35,62737
 905,70; 8490,603;   83,927;23630,748;35,70195
 906,25; 8484,303;   90,628;23553,348;35,77452
 906,81; 8455,003;   94,628;23392,047;35,88541
 907,37; 8331,503;   98,827;23257,447;35,54908
 907,93; 8295,803;   89,527;23089,748;35,67912
 908,49; 8205,402;   99,628;22999,447;35,39668
 909,05; 8142,703;   97,827;22927,848;35,23814
 909,60; 8085,603;  108,228;22788,748;35,17280
 910,16; 7981,103;   74,228;22700,748;34,94517
 910,72; 7941,502;  110,427;22663,447;34,72296
 911,28; 7788,502;  102,128;22408,248;34,45859
 911,84; 7756,902;   90,628;22454,148;34,28027
 912,39; 7562,703;   78,427;22258,547;33,74317
 912,95; 7551,002;  102,728;22258,148;33,61830
 913,51; 7400,002;   98,327;22083,547;33,21174
 914,07; 7269,402;   98,728;21907,547;32,87970
 914,63; 7195,902;   76,128;21874,547;32,66189
 915,18; 7082,203;   87,628;21589,648;32,52985
 915,74; 7016,603;   80,927;21587,248;32,24947
 916,30; 6947,902;   59,528;21357,648;32,34264
 916,86; 6863,803;   93,728;21262,648;31,98120
 917,42; 6836,203;  100,228;21321,348;31,74185
 917,97; 6682,203;   77,427;21064,748;31,47031
 918,53; 6637,303;   74,927;20915,447;31,48854
 919,09; 6625,603;   98,728;20860,447;31,43706
 919,65; 6581,502;   85,527;20650,848;31,58704
 920,20; 6499,703;   73,527;20532,748;31,40968
 920,76; 6475,002;   72,027;20320,547;31,62194
 921,32; 6461,203;   82,027;20178,947;31,74205
 921,87; 6453,203;  102,728;19954,348;31,98971
 922,43; 6295,103;   77,027;19849,648;31,44790
 922,99; 6270,803;   67,427;19482,748;31,95093
 923,55; 6215,103;   70,527;19338,047;31,89085
 924,10; 6203,803;   73,027;19189,547;32,07056
 924,66; 6174,803;   87,827;18955,648;32,26115
 925,22; 6056,703;   55,228;18851,248;31,92950
 925,77; 6079,103;   82,128;18536,348;32,49650
 926,33; 6064,303;   95,927;18507,947;32,41565
 926,89; 5951,303;   71,427;18124,148;32,57058
 927,44; 5888,203;   62,327;17937,248;32,59245
 928,00; 5810,002;   71,228;17715,447;32,52496
 928,56; 5795,002;   88,827;17529,648;32,71735
 929,12; 5658,803;   87,728;17383,348;32,21090
 929,67; 5550,002;   69,527;17014,248;32,34326
 930,23; 5339,902;   56,127;16842,248;31,47705
 930,78; 5342,303;  115,628;16704,547;31,50703
 931,34; 5170,603;   72,327;16173,647;31,66371
 931,90; 5023,502;   73,128;15997,647;31,08649
 932,45; 4881,203;   83,427;15594,647;30,93100
 933,01; 4661,803;   64,728;15138,247;30,49769
 933,57; 4513,103;   74,527;14649,048;30,45435
 934,12; 4291,502;   82,628;14015,147;30,20900
 934,68; 4002,502;   64,427;13299,647;29,75451
 935,24; 3768,802;   77,027;12511,147;29,69068
 935,79; 3523,903;   75,228;11770,247;29,48841
 936,35; 3277,702;  101,827;10989,848;29,16853
 936,90; 3015,603;   84,427;10143,848;29,13861
 937,46; 2770,802;   83,728; 9403,947;28,83060
 938,02; 2544,502;   73,527; 8615,747;28,92661
 938,57; 2361,302;   81,728; 8016,047;28,73057
 939,13; 2214,603;   80,228; 7513,447;28,71400
 939,68; 2034,703;   68,628; 6973,248;28,47477
 940,24; 1959,703;   71,527; 6581,047;29,00636
 940,79; 1899,103;  110,628; 6292,447;28,93121
 941,35; 1817,402;  101,228; 6079,047;28,70904
 941,91; 1759,603;   75,527; 5851,348;29,15733
 942,46; 1728,103;   77,128; 5791,947;28,88936
 943,02; 1712,502;   79,927; 5671,348;29,19786
 943,57; 1658,203;   64,427; 5573,547;28,92976
 944,13; 1710,402;   79,027; 5648,147;29,29323
 944,68; 1740,502;   78,027; 5685,248;29,64883
 945,24; 1779,203;   90,427; 5783,147;29,66552
 945,79; 1805,203;   73,027; 5876,147;29,84903
 946,35; 1831,902;   60,627; 5994,447;29,85050
 946,90; 1924,902;  114,927; 6160,147;29,94060
 947,46; 1946,902;   64,927; 6271,248;30,32352
 948,01; 1991,402;   57,827; 6434,447;30,32288
 948,57; 2097,802;  104,827; 6687,547;30,27586
 949,12; 2115,202;   79,827; 6797,248;30,29995
 949,68; 2164,702;  103,327; 7106,647;29,43425
 950,23; 2208,603;   83,527; 7300,047;29,44737
 950,79; 2217,103;   83,327; 7497,748;28,77872
 951,34; 2276,002;  100,927; 7735,248;28,49075
 951,90; 2279,202;   70,527; 7954,848;28,01351
 952,45; 2331,403;   97,628; 8185,147;27,62003
 953,01; 2303,302;   82,628; 8326,348;26,93778
 953,56; 2339,903;   88,228; 8589,947;26,48494
 954,12; 2328,702;   52,028; 8720,447;26,26401
 954,67; 2360,202;   77,327; 8976,247;25,65339
 955,23; 2345,502;   76,927; 9148,048;25,00876
 955,78; 2396,802;   73,927; 9338,348;25,07307
 956,33; 2382,903;   63,728; 9521,548;24,52124
 956,89; 2402,403;   59,928; 9696,848;24,30730
 957,44; 2439,002;   69,628; 9882,348;24,14595
 958,00; 2441,403;   59,428;10075,548;23,78141
 958,55; 2465,403;   61,627;10222,348;23,65753
 959,10; 2468,502;   69,327;10408,747;23,20415
 959,66; 2497,502;   82,527;10609,048;22,94182
 960,21; 2504,702;   81,427;10733,147;22,75008
 960,77; 2534,502;   70,327;10817,147;22,92934
 961,32; 2567,103;   64,728;10986,548;22,91170
 961,87; 2632,903;   88,527;11049,147;23,21379
 962,43; 2637,202;   70,728;11118,048;23,23165
 962,98; 2699,302;   94,327;11290,247;23,26718
 963,54; 2694,103;   47,228;11352,147;23,41348
 964,09; 2769,603;   79,027;11395,348;23,77606
 964,64; 2804,502;   74,527;11550,747;23,78810
 965,20; 2859,903;   60,327;11524,247;24,42075
 965,75; 2910,302;   81,728;11624,447;24,50527
 966,30; 2964,502;   70,827;11653,848;24,98204
 966,86; 2997,502;   78,527;11719,247;25,07555
 967,41; 2985,802;   93,527;11768,048;24,77425
 967,96; 3012,702;   76,728;11864,647;24,90664
 968,52; 3016,702;   93,228;11930,647;24,69689
 969,07; 2967,903;   77,628;11868,348;24,51313
 969,62; 2990,002;   79,527;11967,147;24,48324
 970,18; 2967,903;   75,728;12076,747;24,09941
 970,73; 2923,403;   80,728;12023,048;23,80337
 971,28; 2893,502;   96,327;12036,348;23,42689
 971,84; 2842,103;   77,527;12048,848;23,09332
 972,39; 2797,702;  100,228;12039,548;22,59320
 972,94; 2746,202;   66,228;12109,947;22,25205
 973,49; 2707,603;   96,628;12092,447;21,76571
 974,05; 2660,802;   76,728;12000,747;21,67117
 974,60; 2597,302;   93,228;12070,048;20,90768
 975,15; 2528,002;   88,628;12097,447;20,31319
 975,71; 2468,802;   65,128;11908,548;20,29545
 976,26; 2441,403;   98,927;11977,247;19,72059
 976,81; 2404,202;   91,827;11959,048;19,48540
 977,36; 2372,403;   98,728;11983,247;19,13140
 977,92; 2364,903;   96,527;12038,848;18,99443
 978,47; 2287,802;   81,927;11925,647;18,62485
 979,02; 2291,802;   93,228;11922,548;18,58581
 979,57; 2236,903;   88,427;11895,747;18,19613
 980,13; 2240,603;   83,527;11783,147;18,43714
 980,68; 2248,802;   82,927;11805,147;18,47666
 981,23; 2273,702;   90,527;11802,247;18,64094
 981,78; 2249,502;   92,427;11735,247;18,52708
 982,33; 2246,603;   90,728;11677,848;18,60579
 982,89; 2242,103;   89,927;11703,647;18,53132
 983,44; 2261,502;   83,027;11608,947;18,90066
 983,99; 2309,603;  118,628;11622,647;19,04530
 984,54; 2310,903;   96,128;11457,247;19,49434
 985,09; 2370,502;   93,728;11413,947;20,11246
 985,65; 2349,302;   91,327;11470,747;19,84262
 986,20; 2364,903;  106,927;11419,548;19,95979
 986,75; 2370,103;  108,628;11414,447;20,00275
 987,30; 2357,202;  102,827;11258,348;20,20860
 987,85; 2347,603;   90,228;11246,747;20,23369
 988,40; 2359,302;  108,527;11213,747;20,26772
 988,96; 2327,002;  108,027;11133,947;20,12508
 989,51; 2315,403;  115,427;11038,447;20,14072
 990,06; 2300,702;  138,227;11045,147;19,82663
 990,61; 2257,802;   92,128;10938,348;19,96709
 991,16; 2239,403;  118,927;10940,048;19,59571
 991,71; 2174,002;   92,527;10792,848;19,45245
 992,26; 2117,802;  102,427;10714,848;18,99072
 992,81; 2059,403;  104,728;10660,548;18,51751
 993,37; 2046,802;  137,727;10574,647;18,29156
 993,92; 1985,302;  121,728;10458,048;18,02938
 994,47; 1951,402;  124,628;10466,848;17,66328
 995,02; 1915,402;  137,027;10490,947;17,17586
 995,57; 1851,203;  110,427;10392,848;16,92962
 996,12; 1821,002;  145,727;10300,348;16,49766
 996,67; 1761,203;  129,628;10209,147;16,18703
 997,22; 1697,402;  113,527;10126,947;15,81752
 997,77; 1705,902;  121,527;10148,647;15,80090
 998,32; 1631,603;  111,628;10071,647;15,26076
 998,87; 1629,002;  125,128; 9984,647;15,25302
 999,42; 1601,103;  127,927; 9851,147;15,15110
 999,97; 1581,902;  108,927; 9777,548;15,23459
1000,53; 1602,603;  142,727; 9784,247;15,14155
1001,08; 1539,203;  107,228; 9686,947;14,94798
1001,63; 1564,802;  153,027; 9649,647;14,86608
1002,18; 1493,002;   83,728; 9424,147;15,08792
1002,73; 1559,203;  138,327; 9412,947;15,32004
1003,28; 1527,203;  124,327; 9381,947;15,15373
1003,83; 1551,502;  125,927; 9218,247;15,67889
1004,38; 1595,402;  149,928; 9191,647;15,98673
1004,93; 1555,802;  126,027; 9120,247;15,89660
1005,48; 1551,603;  116,827; 9054,348;16,05339
1006,03; 1556,302;  117,927; 9005,947;16,18330
1006,58; 1573,802;  111,128; 8858,647;16,72102
1007,13; 1550,002;  107,927; 8851,247;16,49345
1007,68; 1566,302;  104,728; 8818,747;16,77268
1008,23; 1550,802;  133,727; 8715,848;16,51195
1008,78; 1553,802;  112,027; 8711,147;16,76654
1009,33; 1512,402;  130,327; 8604,447;16,30936
1009,88; 1507,502;   88,228; 8605,447;16,66359
1010,43; 1504,203;  124,228; 8525,848;16,42511
1010,98; 1493,802;   99,827; 8492,447;16,60953
1011,52; 1475,203;   95,827; 8398,447;16,61373
1012,07; 1502,302;  150,327; 8388,247;16,41161
1012,62; 1422,603;  104,628; 8320,747;16,04133
1013,17; 1388,902;  113,128; 8276,947;15,62718
1013,72; 1328,302;   95,728; 8223,848;15,16433
1014,27; 1324,002;  121,228; 8163,047;14,95650
1014,82; 1267,402;   95,728; 7981,147;14,85875
1015,37; 1233,002;   94,128; 7887,848;14,61273
1015,92; 1179,902;  118,427; 7731,447;13,94289
1016,47; 1133,203;  102,628; 7596,447;13,75233
1017,02; 1098,603;   93,128; 7494,047;13,58581
1017,57; 1086,103;  112,527; 7367,248;13,41988
1018,11; 1025,902;   99,827; 7284,647;12,88933
1018,66; 1043,603;  130,928; 7236,947;12,84369
1019,21; 1000,602;  112,327; 7082,447;12,74404
1019,76;  960,403;   93,628; 6976,348;12,59350
1020,31;  933,403;   98,827; 6900,348;12,27042
1020,86;  961,203;   93,927; 6846,248;12,84410
1021,41;  917,503;   94,827; 6743,047;12,37437
1021,96;  916,903;  104,128; 6702,147;12,31847
1022,50;  938,802;  133,027; 6633,047;12,39650
1023,05;  923,003;  100,128; 6498,748;12,86019
1023,60;  890,703;  102,628; 6447,947;12,41978
1024,15;  874,503;   86,927; 6297,348;12,68151
1024,70;  910,003;  117,427; 6274,447;12,87271
1025,25;  890,302;   97,728; 6228,447;12,92793
1025,79;  897,203;  122,228; 6171,147;12,81179
1026,34;  884,403;  101,427; 6090,447;13,07351
1026,89;  889,503;  114,827; 6060,147;13,03000
1027,44;  885,302;  104,827; 5966,348;13,31523
1027,99;  875,302;  103,027; 5876,547;13,37616
1028,53;  867,802;   96,728; 5813,647;13,48759
1029,08;  867,203;  116,628; 5784,147;13,24345
1029,63;  874,802;  115,327; 5690,348;13,62282
1030,18;  854,703;  103,027; 5656,147;13,53608
1030,73;  830,003;   96,027; 5543,647;13,47332
1031,27;  811,703;   96,027; 5490,147;13,26769
1031,82;  798,302;   88,827; 5398,447;13,36207
1032,37;  795,203;  108,527; 5371,147;13,04816
1032,92;  777,203;  115,827; 5293,348;12,77397
1033,46;  764,302;  100,228; 5164,647;13,11256
1034,01;  747,302;   93,927; 5108,748;13,02888
1034,56;  730,003;  117,728; 5101,348;12,28575
1035,11;  712,903;  107,128; 5004,248;12,37003
1035,65;  699,403;  101,527; 4981,547;12,25149
1036,20;  673,503;   92,927; 4950,047;11,95307
1036,75;  687,203;  122,728; 4905,848;11,80140
1037,29;  663,802;  103,927; 4828,647;11,84991
1037,84;  620,102;   94,527; 4709,147;11,38934
1038,39;  626,203;  103,827; 4639,547;11,51692
1038,94;  585,203;   75,728; 4562,848;11,35416
1039,48;  588,302;   96,628; 4571,947;10,98637
1040,03;  583,503;  112,427; 4492,248;10,75558
1040,58;  575,503;   98,128; 4393,447;11,11384
1041,12;  566,903;  107,827; 4359,547;10,79740
1041,67;  556,102;  109,128; 4320,947;10,61240
1042,22;  569,302;  120,527; 4276,447;10,79845
1042,76;  541,602;   99,827; 4151,447;10,90366
1043,31;  536,903;  110,728; 4086,548;10,71917
1043,86;  541,003;  114,628; 4037,647;10,86854
1044,40;  534,003;  110,327; 4005,847;10,87596
1044,95;  528,102;  115,228; 3962,147;10,73261
1045,50;  507,603;   84,628; 3881,548;11,13995
1046,04;  534,302;  120,628; 3843,548;11,11157
1046,59;  508,003;   97,927; 3796,548;11,08724
1047,13;  524,403;  126,128; 3766,347;10,94096
1047,68;  520,102;  119,427; 3689,948;11,22175
1048,23;  520,102;  123,228; 3670,847;11,18708
1048,77;  490,503;  105,628; 3606,948;10,99228
1049,32;  489,003;  108,228; 3568,048;11,00563
1049,86;  504,603;   99,027; 3502,847;11,91529
1050,41;  463,402;   91,527; 3451,248;11,06863
1050,96;  486,402;  113,628; 3423,347;11,26304
1051,50;  481,802;  104,927; 3366,948;11,55342
1052,05;  475,302;  119,427; 3347,448;11,02456
1052,59;  455,503;   99,827; 3256,748;11,26652
1053,14;  437,203;   95,427; 3219,948;10,93848
1053,69;  446,003;  104,128; 3185,448;11,09508
1054,23;  445,003;  118,427; 3134,748;10,82693
1054,78;  446,503;  114,628; 3053,847;11,29126
1055,32;  438,003;  130,027; 3055,548;10,52719
1055,87;  385,902;   86,128; 2966,347;10,40806
1056,41;  390,003;   96,128; 2919,548;10,40848
1056,96;  402,802;  107,728; 2911,948;10,52253
1057,50;  405,003;  124,427; 2892,048;10,13777
1058,05;  356,302;   76,527; 2784,248;10,33249
1058,59;  381,902;  112,128; 2788,548;10,07970
1059,14;  380,603;  117,527; 2774,748; 9,90038
1059,68;  353,003;   85,827; 2677,147;10,31038
1060,23;  392,302;  130,928; 2707,448;10,14450
1060,77;  363,103;  112,728; 2641,347; 9,90165
1061,32;  365,103;  122,628; 2596,847; 9,80006
1061,86;  358,703;  115,827; 2570,748; 9,89340
1062,41;  341,902;  106,128; 2522,048; 9,75922
1062,95;  342,802;  101,628; 2446,048;10,28719
1063,50;  345,003;  119,927; 2427,847; 9,75229
1064,04;  316,302;  101,128; 2392,548; 9,39046
1064,59;  340,302;  124,427; 2369,948; 9,61359
1065,13;  323,203;  122,327; 2316,948; 9,15307
1065,68;  322,103;  125,128; 2272,948; 9,17093
1066,22;  316,902;  117,427; 2267,748; 9,27653
1066,76;  347,302;  137,027; 2243,448; 9,98258
1067,31;  306,003;  105,927; 2185,248; 9,62214
1067,85;  305,302;  102,728; 2165,948; 9,81839
1068,40;  311,103;  117,927; 2147,847; 9,51639
1068,94;  306,203;  102,327; 2097,548;10,21817
1069,49;  301,103;  100,128; 2098,048;10,05921
1070,03;  300,902;  102,628; 2031,848;10,27747
1070,57;  286,503;  100,427; 2008,147; 9,75379
1071,12;  267,003;   90,327; 1958,448; 9,45737
1071,66;  331,703;  145,327; 2002,448;10,03570
1072,21;  308,802;  124,427; 1952,047;10,08826
1072,75;  294,503;  112,427; 1928,547;10,02549
1073,29;  268,103;   92,427; 1865,047; 9,91047
1073,84;  286,003;  107,728; 1884,848;10,03168
1074,38;  273,402;  104,427; 1862,448; 9,61167
1074,92;  283,103;  121,027; 1845,547; 9,39827
1075,47;  289,103;  134,327; 1822,448; 9,16848
1076,01;  301,802;  137,628; 1818,647; 9,76639
1076,56;  264,103;  102,027; 1735,848; 9,92000
1077,10;  253,602;   87,628; 1681,248;10,41497
1077,64;  266,203;   99,628; 1726,147;10,24119
1078,19;  281,603;  129,628; 1703,948; 9,65337
1078,73;  251,303;  123,527; 1661,248; 8,30938
1079,27;  273,902;  128,227; 1683,848; 9,36443
1079,81;  276,003;  136,727; 1662,547; 9,12788
1080,36;  253,402;  113,327; 1624,547; 9,26900
1080,90;  249,602;  107,228; 1608,848; 9,48143
1081,44;  238,602;  103,027; 1572,647; 9,22517
1081,99;  206,202;   81,728; 1551,748; 8,46757
1082,53;  251,303;  125,527; 1540,147; 8,89108
1083,07;  247,702;  122,827; 1522,147; 8,92398
1083,62;  252,803;  121,128; 1502,948; 9,52910
1084,16;  230,303;  112,228; 1487,248; 8,58715
1084,70;  244,902;  121,327; 1481,848; 9,08292
1085,24;  241,602;  117,527; 1450,948; 9,30502
1085,79;  235,402;  109,728; 1423,147; 9,56853
1086,33;  215,902;  100,628; 1400,047; 8,87127
1086,87;  230,202;  122,228; 1391,448; 8,50719
1087,41;  225,702;  106,827; 1360,547; 9,48178
1087,96;  252,402;  131,827; 1364,748; 9,77963
1088,50;  213,202;  102,628; 1345,848; 8,89424
1089,04;  247,503;  138,727; 1334,147; 9,09931
1089,58;  207,602;   93,427; 1286,848; 9,56704
1090,13;  214,102;  113,628; 1273,848; 8,65999
1090,67;  231,902;  114,728; 1274,948;10,09938
1091,21;  209,503;  111,228; 1250,848; 8,62349
1091,75;  218,003;  112,327; 1235,948; 9,40487
1092,29;  221,303;  121,427; 1240,647; 8,92363
1092,84;  221,503;  104,628; 1213,147;10,54334
1093,38;  249,402;  134,128; 1226,448;10,55323
1093,92;  234,803;  128,027; 1210,748; 9,86174
1094,46;  223,702;  128,527; 1207,248; 8,82296
1095,00;  213,102;  110,228; 1150,448; 9,88973
1095,54;  193,602;   92,027; 1139,547; 9,69671
1096,09;  211,803;  113,128; 1144,047; 9,57155
1096,63;  222,402;  130,527; 1128,647; 9,20481
1097,17;  199,803;  109,427; 1108,147; 9,04908
1097,71;  222,503;  126,128; 1099,248; 9,90371
1098,25;  181,402;   97,927; 1059,547; 8,68066
1098,79;  206,803;  124,728; 1078,647; 8,60397
1099,33;  198,503;  117,728; 1040,147; 8,75686
1099,88;  186,902;  118,628; 1035,848; 7,44369
1100,42;  169,803;  103,628; 1000,747; 7,37638

