C AURIGANS DESCABEZADO_T
Integration time [ms]:   8,000
Averaging Nr. [scans]: 10
Smoothing Nr. [pixels]: 0
Data measured with spectrometer [name]: 7314920SP
Wave   ;Sample   ;Dark     ;Reference;Reflectance
[nm]   ;[counts] ;[counts] ;[counts] ;[%]

 199,42;   96,531;   72,222;  210,244;17,61255
 200,02;  113,797;  102,008;  189,811;13,42604
 200,62;   82,470;   74,992;  115,875;18,29165
 201,22;  104,479;   92,709;  193,470;11,68086
 201,82;   90,378;   64,025;  211,220;17,90343
 202,42;  125,769;   95,408;  188,025;32,78158
 203,03;   73,232;   55,806;  149,594;18,58021
 203,63;   84,922;   65,404;  161,149;20,38516
 204,23;   91,191;   81,415;  188,764; 9,10670
 204,83;   81,567;   76,103;  162,076; 6,35496
 205,43;   89,231;   65,122;  182,444;20,54959
 206,03;   72,239;   56,103;  131,590;21,37644
 206,63;   82,300;   81,096;  130,910; 2,41543
 207,24;  116,098;   77,929;  242,810;23,14969
 207,84;   65,912;   57,902;  135,404;10,33452
 208,44;   68,679;   59,009;  153,170;10,26939
 209,04;   58,927;   53,697;  112,596; 8,88003
 209,64;   97,966;   72,519;  200,426;19,89471
 210,24;   66,267;   50,503;  130,176;19,78530
 210,84;   80,507;   60,310;  167,756;18,79708
 211,44;  104,416;   86,511;  189,701;17,35162
 212,05;   79,327;   61,997;  128,496;26,06078
 212,65;   87,732;   75,406;  151,694;16,15720
 213,25;  110,469;   96,208;  175,325;18,02565
 213,85;   96,737;   84,098;  157,241;17,27934
 214,45;   69,067;   59,703;  144,876;10,99356
 215,05;   58,507;   46,810;  150,056;11,32900
 215,65;   79,934;   64,010;  156,742;17,17186
 216,25;   59,267;   47,903;  131,676;13,56469
 216,85;   50,652;   45,209;  131,084; 6,33788
 217,45;   64,932;   61,406;  140,794; 4,44149
 218,05;   79,199;   56,513;  170,560;19,89204
 218,66;   53,724;   35,109;  126,597;20,34733
 219,26;   52,622;   40,904;  108,649;17,29686
 219,86;   57,036;   30,415;  147,291;22,77764
 220,46;   80,671;   62,212;  165,774;17,82444
 221,06;   78,591;   50,415;  173,264;22,93552
 221,66;   72,874;   49,317;  185,122;17,34618
 222,26;   60,166;   47,619;  163,026;10,87170
 222,86;   85,814;   70,807;  163,753;16,14627
 223,46;   67,267;   54,503;  138,276;15,23587
 224,06;   81,964;   63,215;  169,877;17,57771
 224,66;   83,154;   59,613;  169,732;21,37731
 225,26;   76,089;   55,111;  162,715;19,49558
 225,86;   71,548;   43,521;  183,285;20,05370
 226,46;   74,842;   58,307;  160,639;16,15762
 227,06;   58,654;   30,313;  143,532;25,03156
 227,66;   64,010;   58,298;  114,355;10,18878
 228,27;   50,971;   40,012;  159,574; 9,16621
 228,87;  103,726;   91,313;  208,446;10,59770
 229,47;   61,194;   37,020;  166,312;18,69694
 230,07;   37,189;   18,811;  112,215;19,67584
 230,67;   53,952;   40,209;  142,184;13,47650
 231,27;   54,971;   30,212;  143,374;21,87957
 231,87;   61,552;   40,109;  147,584;19,95132
 232,47;   83,343;   59,528;  218,437;14,98672
 233,07;   57,672;   37,496;  115,524;25,85762
 233,67;   74,332;   55,906;  155,694;18,46515
 234,27;   33,439;   20,103;  106,490;15,43802
 234,87;   59,136;   43,315;  164,991;13,00310
 235,47;   41,989;   20,211;  136,915;18,66091
 236,07;   49,847;   29,800;  113,786;23,86929
 236,67;   68,257;   59,802;  134,031;11,39065
 237,27;   64,086;   47,023;  174,316;13,40469
 237,87;   59,454;   44,213;  155,532;13,69082
 238,47;   38,497;   24,408;  124,611;14,05993
 239,07;   57,539;   26,119;  172,740;21,42914
 239,67;   80,800;   47,333;  213,158;20,18227
 240,27;   72,448;   43,621;  186,385;20,19267
 240,87;   73,013;   59,423;  199,102; 9,72970
 241,47;   63,580;   48,693;   99,120;29,52111
 242,07;   53,787;   48,007;  129,466; 7,09574
 242,67;   33,058;    5,722;  135,930;20,99433
 243,27;   36,767;   23,603;  102,476;16,68955
 243,87;   64,164;   50,915;  171,077;11,02575
 244,47;   64,191;   43,215;  154,464;18,85502
 245,07;   18,207;   13,110;  116,356; 4,93653
 245,67;   49,332;   43,706;  124,694; 6,94672
 246,27;   58,200;   36,296;  104,710;32,01584
 246,87;   50,314;   29,007;  121,153;23,12346
 247,46;   16,670;   12,792;   58,475; 8,48944
 248,06;   49,299;   21,613;  126,060;26,50746
 248,66;   57,066;   43,719;  153,526;12,15469
 249,26;   53,647;   30,300;  102,586;32,29787
 249,86;   69,048;   44,721;  160,885;20,94268
 250,46;   43,871;    4,828;  172,023;23,35138
 251,06;   45,732;   30,406;  103,194;21,05567
 251,66;   39,409;   18,014;  130,305;19,05291
 252,26;   55,002;   40,501;  110,659;20,66918
 252,86;   48,707;   26,710;  135,356;20,24621
 253,46;   15,367;   -0,997;   71,476;22,57882
 254,06;   51,820;   46,300;  117,300; 7,77438
 254,66;   50,431;   43,622;  156,244; 6,04603
 255,26;   83,976;   47,221;  183,271;27,01578
 255,86;   53,680;   53,693;   90,620;-0,03630
 256,46;   39,316;   27,311;  117,701;13,28148
 257,05;   42,781;   24,314;  137,219;16,35675
 257,65;   65,236;   55,915;  159,191; 9,02598
 258,25;   65,594;   44,920;  174,412;15,96520
 258,85;   43,307;   24,210;  114,956;21,04412
 259,45;    9,352;   13,309;  104,284;-4,34995
 260,05;   49,367;   39,503;  115,376;13,00007
 260,65;   57,202;   49,901;  110,459;12,05635
 261,25;   57,864;   35,715;  144,777;20,30838
 261,85;   26,046;    3,916;  117,036;19,56334
 262,45;   60,107;   58,110;  146,656; 2,25508
 263,04;   72,703;   54,121;  181,157;14,62741
 263,64;   50,349;   46,104;  120,435; 5,71068
 264,24;   59,619;   50,116;  169,050; 7,99011
 264,84;  100,323;   72,525;  200,347;21,74786
 265,44;   44,604;   27,105;  102,308;23,26918
 266,04;   61,265;   40,299;  110,528;29,85343
 266,64;   54,657;   46,002;  130,331;10,26358
 267,24;   46,257;   37,402;  107,331;12,66306
 267,84;   48,469;   35,308;  124,625;14,73557
 268,43;   56,659;   63,006;  136,180;-8,67374
 269,03;   60,724;   52,609;  143,797; 8,89972
 269,63;   79,874;   71,300;  125,873;15,71132
 270,23;   12,610;   18,498;   87,355;-8,55173
 270,83;   62,802;   57,001;  121,259; 9,02780
 271,43;   43,477;   42,005;  112,221; 2,09617
 272,03;   73,004;   66,705;  133,008; 9,50034
 272,62;   37,634;   31,410;  109,542; 7,96581
 273,22;   40,826;   11,613;  120,746;26,76859
 273,82;   35,220;   23,684;   41,950;63,15704
 274,42;   37,307;   31,194;   62,506;19,52452
 275,02;   50,145;   37,396;   87,038;25,68200
 275,62;   67,494;   49,620;  176,012;14,14146
 276,21;   45,444;   22,012;  119,787;23,96525
 276,81;   56,112;   46,802;  100,904;17,20732
 277,41;   55,101;   34,617;  138,809;19,66012
 278,01;   35,945;   30,596;   62,038;17,01248
 278,61;   66,079;   53,409;  127,970;16,99250
 279,20;   73,848;   66,621;  179,185; 6,42114
 279,80;    7,268;    2,887;   19,827;25,85950
 280,40;   48,947;   49,500;  111,686;-0,88940
 281,00;   -1,921;   -1,591;   79,870;-0,40545
 281,60;   43,596;   24,024;  147,561;15,84273
 282,20;   42,816;   44,011;  129,701;-1,39444
 282,79;   50,359;   32,006;  103,580;25,64216
 283,39;   24,774;   24,500;   69,873; 0,60390
 283,99;   33,572;   24,796;   62,724;23,13905
 284,59;   15,461;   11,311;   95,329; 4,94054
 285,19;   37,139;   27,803;   93,790;14,14891
 285,78;   38,616;   26,011;  114,401;14,26081
 286,38;   44,000;   46,196;   90,310;-4,97982
 286,98;   46,759;   42,206;  104,180; 7,34679
 287,58;   21,891;   10,015;  106,264;12,33881
 288,17;   34,176;   30,221;  134,771; 3,78286
 288,77;   53,508;   25,130;  160,455;20,97018
 289,37;   22,807;    7,610;  106,556;15,35860
 289,97;   46,872;   51,596;   89,824;-12,35713
 290,57;   56,656;   40,218;  142,281;16,10604
 291,16;   80,204;   62,005;  153,508;19,88906
 291,76;   32,026;    9,813;  111,846;21,77077
 292,36;   56,022;   34,804;   91,949;37,12979
 292,96;   26,121;   12,920;  112,799;13,21690
 293,55;   34,512;   24,302;   95,904;14,25866
 294,15;   41,644;   21,012;  117,487;21,38589
 294,75;   52,000;   46,296;   87,510;13,83816
 295,35;   26,304;   30,905;   87,208;-8,17208
 295,94;   41,084;   47,602;  101,718;-12,04403
 296,54;   37,142;   20,307;  102,039;20,59713
 297,14;   41,174;   35,817;  149,522; 4,71139
 297,73;   20,482;   23,498;   65,969;-7,10021
 298,33;   45,820;   41,300;   94,600; 8,47994
 298,93;   43,514;   47,607;  131,952;-4,85236
 299,53;   41,011;   21,519;  133,654;17,38307
 300,12;   16,574;    5,217;  115,922;10,25883
 300,72;   59,149;   58,004;  131,835; 1,55055
 301,32;   55,936;   37,415;  153,391;15,97024
 301,92;   18,335;   15,294;   52,693; 8,13064
 302,51;   35,194;   22,804;   94,763;17,21904
 303,11;   34,439;   21,403;   92,290;18,39045
 303,71;   35,797;   25,908;  111,711;11,52462
 304,30;   30,892;   24,399;   89,214;10,01744
 304,90;   17,420;   22,400;   83,400;-8,16413
 305,50;   39,010;   35,598;   93,655; 5,87617
 306,09;   31,347;   27,100;  107,186; 5,30293
 306,69;   51,319;   37,316;  149,950;12,43226
 307,29;   25,593;   40,383;   43,764;-437,46783
 307,88;   57,861;   51,611;  142,529; 6,87536
 308,48;   20,871;    7,612;  111,974;12,70512
 309,08;    2,715;    6,391;   47,803;-8,87637
 309,68;   41,682;   25,198;   76,769;31,96445
 310,27;   22,034;    3,310;  109,342;17,65865
 310,87;   38,442;   40,507;  113,439;-2,83236
 311,47;   59,467;   52,803;  134,376; 8,16881
 312,06;   48,055;   54,797;   99,183;-15,19111
 312,66;   64,304;   58,605;  130,408; 7,93700
 313,26;   58,609;   57,714;  154,805; 0,92146
 313,85;   54,639;   48,603;  102,090;11,28583
 314,45;   51,879;   43,309;  124,070;10,61125
 315,04;   55,155;   52,497;  102,883; 5,27410
 315,64;   42,249;   32,204;   92,535;16,64958
 316,24;   60,171;   45,412;  136,874;16,13713
 316,83;   50,147;   44,800;  109,286; 8,29157
 317,43;   48,177;   34,805;  112,521;17,20597
 318,03;   48,725;   46,992;  105,248; 2,97387
 318,62;   77,813;   83,886;  116,254;-18,76486
 319,22;   27,769;   23,508;  114,325; 4,69229
 319,82;   57,204;   41,505;  135,108;16,77197
 320,41;   59,997;   50,808;  152,511; 9,03461
 321,01;   89,910;   87,098;  148,755; 4,55995
 321,60;   84,407;   75,494;  138,706;14,10106
 322,20;   85,331;   57,422;  215,744;17,62811
 322,80;   70,649;   51,404;  154,635;18,64252
 323,39;   68,017;   51,895;  113,651;26,10587
 323,99;   76,502;   62,501;  142,359;17,53248
 324,59;   71,925;   68,792;  121,248; 5,97162
 325,18;   68,794;   47,504;  158,863;19,11893
 325,78;   69,682;   66,698;  150,369; 3,56688
 326,37;   84,832;   65,706;  177,794;17,06338
 326,97;   78,349;   72,204;  176,935; 5,86723
 327,57;   40,370;   49,692;  114,875;-14,30071
 328,16;   67,280;   66,793;  136,120; 0,70188
 328,76;   63,884;   65,802;  159,418;-2,04847
 329,35;   88,736;   70,715;  202,591;13,66560
 329,95;   51,016;   46,311;  172,301; 3,73451
 330,54;   67,967;   57,403;  166,676; 9,66711
 331,14;   50,112;   37,202;  149,004;11,54672
 331,74;   67,910;   65,898;  158,355; 2,17564
 332,33;   54,871;   36,712;  182,074;12,49248
 332,93;   62,435;   48,294;  153,293;13,46756
 333,52;   68,174;   51,300;  173,173;13,84566
 334,12;   92,824;   76,609;  216,397;11,60003
 334,71;   53,447;   55,600;  177,586;-1,76502
 335,31;   88,439;   68,403;  194,790;15,85325
 335,90;   40,405;   38,089;  116,458; 2,95503
 336,50;   34,900;   31,796;  151,710; 2,58788
 337,10;   78,734;   43,110;  224,742;19,61318
 337,69;   64,300;   58,596;  164,910; 5,36452
 338,29;   61,722;   38,604;  183,549;15,94933
 338,88;   41,914;   36,207;  199,452; 3,49611
 339,48;   77,878;   69,289;  185,372; 7,39880
 340,07;   58,029;   51,901;  214,445; 3,77016
 340,67;   69,536;   44,015;  244,991;12,69886
 341,26;   65,747;   52,500;  219,286; 7,94245
 341,86;   81,889;   73,011;  274,415; 4,40807
 342,45;   76,161;   51,411;  255,729;12,11393
 343,05;   72,861;   41,711;  268,829;13,71575
 343,64;   77,557;   62,602;  262,431; 7,48399
 344,24;   58,000;   33,096;  233,710;12,41352
 344,83;   72,372;   72,396;  265,724;-0,01234
 345,43;   46,484;   42,302;  272,018; 1,82065
 346,02;   57,352;   43,109;  299,884; 5,54674
 346,62;   72,509;   49,414;  334,805; 8,09229
 347,21;   61,082;   56,098;  304,069; 2,01009
 347,81;   66,456;   33,118;  351,481;10,47180
 348,40;   47,280;   34,893;  282,320; 5,00616
 349,00;   65,625;   60,892;  331,448; 1,74916
 349,59;   91,826;   71,813;  420,746; 5,73560
 350,19;   59,809;   44,914;  383,305; 4,40161
 350,78;   59,639;   51,303;  373,790; 2,58505
 351,38;   43,552;   30,009;  377,584; 3,89632
 351,97;   62,784;   42,702;  406,118; 5,52599
 352,57;   56,971;   52,312;  422,774; 1,25769
 353,16;   53,417;   39,295;  383,751; 4,09979
 353,76;   58,826;   46,613;  467,346; 2,90289
 354,35;   75,689;   17,411;  484,915;12,46578
 354,95;   65,244;   51,712;  515,687; 2,91657
 355,54;   54,269;   38,008;  504,925; 3,48272
 356,14;   60,589;   42,611;  534,915; 3,65181
 356,73;   60,578;   52,589;  490,871; 1,82274
 357,32;   45,397;   26,908;  533,411; 3,65022
 357,92;   60,784;   36,718;  583,967; 4,39753
 358,51;   89,411;   51,519;  631,554; 6,53280
 359,11;   75,156;   47,018;  646,981; 4,69001
 359,70;   48,081;   30,014;  629,419; 3,01425
 360,30;   72,468;   58,187;  603,727; 2,61767
 360,89;   59,014;   25,007;  639,453; 5,53462
 361,48;   95,644;   54,112;  712,987; 6,30349
 362,08;   50,277;   25,005;  677,021; 3,87595
 362,67;   53,970;   33,892;  669,375; 3,15953
 363,27;   91,594;   64,804;  752,763; 3,89422
 363,86;   65,010;   36,998;  746,555; 3,94775
 364,46;   85,780;   56,393;  812,720; 3,88544
 365,05;   96,391;   75,379;  800,115; 2,89923
 365,64;   90,283;   53,582;  858,719; 4,55839
 366,24;   87,026;   39,876;  899,498; 5,48489
 366,83;  117,549;   64,668; 1001,887; 5,64230
 367,43;  125,705;   69,837; 1018,860; 5,88696
 368,02;  138,535;   44,141; 1136,095; 8,64446
 368,61;  156,896;   63,919; 1250,365; 7,83661
 369,21;  124,211;   44,061; 1249,760; 6,64766
 369,80;  155,201;   59,322; 1383,066; 7,24297
 370,39;  189,381;   60,519; 1588,676; 8,43250
 370,99;  179,091;   42,468; 1618,624; 8,66811
 371,58;  171,313;   33,423; 1699,364; 8,27701
 372,18;  199,419;   38,200; 1809,762; 9,10042
 372,77;  164,939;   50,550; 1827,654; 6,43682
 373,36;  197,962;   52,342; 1852,343; 8,09002
 373,96;  179,082;   53,009; 1748,685; 7,43496
 374,55;  161,340;   39,534; 1728,804; 7,21056
 375,14;  150,512;   37,250; 1608,468; 7,20854
 375,74;  164,306;   73,973; 1533,970; 6,18717
 376,33;  126,690;   50,595; 1398,327; 5,64613
 376,92;  103,565;   41,936; 1361,138; 4,67173
 377,52;  185,914;   93,712; 1534,810; 6,39800
 378,11;  134,749;   61,010; 1438,393; 5,35356
 378,71;  160,435;   79,636; 1530,799; 5,56788
 379,30;  155,617;   57,953; 1617,807; 6,26106
 379,89;  163,120;   56,742; 1639,606; 6,72061
 380,49;  141,482;   31,556; 1680,725; 6,66553
 381,08;  180,636;   81,520; 1641,749; 6,35265
 381,67;  170,648;   58,726; 1650,543; 7,03109
 382,26;  137,236;   44,520; 1663,849; 5,72558
 382,86;  136,159;   51,912; 1684,538; 5,16023
 383,45;  147,783;   63,740; 1765,375; 4,93894
 384,04;  126,228;   52,739; 1794,203; 4,21993
 384,64;  137,885;   47,044; 1831,224; 5,09145
 385,23;  166,791;   71,621; 1827,321; 5,42063
 385,82;  148,415;   55,649; 1889,958; 5,05725
 386,42;  176,646;   67,274; 1996,892; 5,66804
 387,01;  136,630;   67,543; 1922,351; 3,72472
 387,60;  173,013;   76,228; 1970,060; 5,11052
 388,20;  146,682;   48,340; 2018,675; 4,99117
 388,79;  179,264;   83,357; 2123,583; 4,70081
 389,38;  135,736;   54,020; 2028,549; 4,13850
 389,97;  144,660;   58,048; 2147,386; 4,14540
 390,57;  169,767;   74,645; 2194,082; 4,48807
 391,16;  171,867;   77,945; 2258,282; 4,30768
 391,75;  136,847;   56,642; 2278,892; 3,60919
 392,34;  172,486;   65,865; 2381,022; 4,60537
 392,94;  161,319;   55,558; 2418,156; 4,47648
 393,53;  139,124;   38,151; 2418,703; 4,24161
 394,12;  159,753;   61,871; 2581,588; 3,88464
 394,72;  155,875;   73,643; 2576,379; 3,28570
 395,31;  148,715;   50,649; 2629,658; 3,80245
 395,90;  153,773;   41,475; 2732,778; 4,17265
 396,49;  170,815;   59,286; 2807,207; 4,05869
 397,09;  156,144;   56,254; 2772,993; 3,67685
 397,68;  175,883;   64,576; 2914,023; 3,90626
 398,27;  184,268;   63,382; 3016,531; 4,09346
 398,86;  160,193;   53,778; 3036,468; 3,56776
 399,45;  192,692;   61,894; 3185,318; 4,18766
 400,05;  152,866;   47,961; 3091,132; 3,44723
 400,64;  186,374;   67,859; 3225,428; 3,75337
 401,23;  177,276;   55,563; 3253,277; 3,80626
 401,82;  182,776;   63,863; 3288,777; 3,68733
 402,42;  182,714;   66,665; 3369,608; 3,51349
 403,01;  203,783;   77,976; 3502,223; 3,67400
 403,60;  210,912;   73,197; 3538,808; 3,97376
 404,19;  201,528;   80,976; 3582,651; 3,44272
 404,78;  190,234;   68,668; 3550,598; 3,49132
 405,38;  212,950;   77,499; 3734,039; 3,70433
 405,97;  172,313;   55,281; 3700,958; 3,21015
 406,56;  214,198;   76,387; 3843,565; 3,65820
 407,15;  186,917;   68,690; 3813,955; 3,15672
 407,74;  213,910;   86,793; 3924,359; 3,31244
 408,34;  190,105;   59,000; 3935,712; 3,38185
 408,93;  207,930;   64,696; 4017,449; 3,62364
 409,52;  182,927;   55,908; 4063,050; 3,16981
 410,11;  238,285;   90,297; 4169,222; 3,62811
 410,70;  193,050;   58,983; 4135,689; 3,28862
 411,29;  190,743;   65,186; 4164,293; 3,06303
 411,89;  211,009;   71,609; 4289,809; 3,30473
 412,48;  181,070;   55,186; 4249,779; 3,00110
 413,07;  221,797;   66,503; 4362,416; 3,61493
 413,66;  198,854;   69,808; 4401,236; 2,97930
 414,25;  228,866;   80,814; 4542,030; 3,31865
 414,84;  206,130;   72,596; 4521,849; 3,00126
 415,44;  224,755;   92,492; 4528,687; 2,98145
 416,03;  220,656;   72,912; 4620,185; 3,24907
 416,62;  221,986;   78,017; 4684,620; 3,12527
 417,21;  222,034;   74,205; 4680,046; 3,20961
 417,80;  221,394;   82,814; 4723,417; 2,98624
 418,39;  215,416;   83,422; 4766,355; 2,81861
 418,98;  207,224;   59,003; 4695,202; 3,19704
 419,58;  220,414;   70,002; 4754,557; 3,21082
 420,17;  204,872;   54,107; 4792,378; 3,18185
 420,76;  229,456;   82,012; 4871,985; 3,07818
 421,35;  216,037;   66,309; 4790,295; 3,16951
 421,94;  240,116;   87,322; 4907,955; 3,16958
 422,53;  211,171;   66,423; 4867,228; 3,01508
 423,12;  219,669;   78,819; 4876,579; 2,93575
 423,71;  202,009;   59,809; 4856,909; 2,96429
 424,30;  232,274;   91,611; 4912,926; 2,91752
 424,90;  189,204;   44,016; 4917,061; 2,97940
 425,49;  222,488;   83,922; 4948,069; 2,84874
 426,08;  229,788;   92,422; 5032,169; 2,78084
 426,67;  201,364;   56,110; 4951,881; 2,96693
 427,26;  223,565;   70,530; 5041,180; 3,07878
 427,85;  200,531;   69,216; 5000,047; 2,66313
 428,44;  228,328;   70,628; 5078,549; 3,14901
 429,03;  228,318;   83,027; 5133,804; 2,87662
 429,62;  229,191;   84,326; 5156,817; 2,85589
 430,21;  231,458;   89,633; 5174,883; 2,78895
 430,80;  219,415;   64,238; 5194,005; 3,02503
 431,39;  212,413;   65,134; 5275,956; 2,82641
 431,99;  210,709;   85,909; 5201,209; 2,43974
 432,58;  216,169;   86,919; 5228,879; 2,51363
 433,17;  205,054;   80,608; 5265,236; 2,40029
 433,76;  244,800;   80,944; 5403,812; 3,07834
 434,35;  245,460;   94,637; 5427,532; 2,82816
 434,94;  245,757;   87,749; 5528,633; 2,90409
 435,53;  225,548;   85,131; 5489,938; 2,59799
 436,12;  222,685;   77,833; 5530,870; 2,65635
 436,71;  239,426;   95,824; 5567,900; 2,62427
 437,30;  236,236;   92,125; 5645,645; 2,59494
 437,89;  232,033;   86,337; 5750,746; 2,57212
 438,48;  233,838;   80,830; 5726,994; 2,70995
 439,07;  219,414;   89,118; 5756,006; 2,29925
 439,66;  271,737;  106,846; 5907,443; 2,84266
 440,25;  246,585;  102,533; 5933,270; 2,47056
 440,84;  256,594;  100,151; 5953,765; 2,67260
 441,43;  253,611;   81,466; 6120,255; 2,85066
 442,02;  239,404;   70,653; 6098,910; 2,79935
 442,61;  253,113;  102,834; 6151,956; 2,48431
 443,20;  271,267;   85,351; 6266,378; 3,00785
 443,79;  236,335;   81,541; 6234,795; 2,51564
 444,38;  254,720;   97,347; 6409,602; 2,49313
 444,97;  255,398;   78,439; 6464,563; 2,77098
 445,56;  270,080;  109,241; 6579,222; 2,48593
 446,15;  262,997;   88,455; 6706,313; 2,63743
 446,74;  239,040;   69,334; 6742,643; 2,54306
 447,33;  249,035;   95,241; 6883,895; 2,26545
 447,92;  255,842;   84,855; 6996,541; 2,47388
 448,51;  270,125;  100,340; 7059,750; 2,43965
 449,10;  275,143;   94,139; 7198,291; 2,54786
 449,69;  270,859;   87,253; 7331,782; 2,53441
 450,28;  256,210;   81,345; 7420,757; 2,38254
 450,87;  262,355;   82,645; 7551,885; 2,40600
 451,46;  292,275;  109,948; 7689,475; 2,40552
 452,05;  278,394;   83,751; 7799,165; 2,52279
 452,64;  271,732;   79,053; 7949,396; 2,44816
 453,23;  325,034;  121,857; 8107,044; 2,54442
 453,82;  296,614;   84,154; 8243,854; 2,60377
 454,40;  268,732;   65,153; 8384,695; 2,44699
 454,99;  315,136;  106,662; 8574,793; 2,46187
 455,58;  296,245;   87,043; 8649,739; 2,44318
 456,17;  288,172;   80,659; 8846,976; 2,36715
 456,76;  285,242;   76,455; 9034,841; 2,33063
 457,35;  293,520;   81,647; 9159,302; 2,33400
 457,94;  297,846;   81,464; 9376,038; 2,32805
 458,53;  306,887;   61,254; 9526,168; 2,59519
 459,12;  341,133;  102,874; 9854,294; 2,44333
 459,71;  294,765;   74,246; 9828,729; 2,26069
 460,30;  318,237;   87,146;10047,144; 2,32020
 460,89;  315,042;   73,955;10215,141; 2,37731
 461,48;  337,446;   79,164;10399,538; 2,50265
 462,06;  322,049;   79,052;10532,938; 2,32447
 462,65;  296,830;   50,349;10614,747; 2,33313
 463,24;  362,886;   97,770;10972,218; 2,43797
 463,83;  307,549;   68,452;11002,037; 2,18682
 464,42;  339,157;   85,649;11187,634; 2,28345
 465,01;  329,232;   73,753;11387,596; 2,25811
 465,60;  337,404;   78,553;11587,810; 2,24907
 466,19;  359,046;   85,064;11761,938; 2,34637
 466,77;  351,997;   85,955;11897,913; 2,25230
 467,36;  347,606;   69,673;12026,008; 2,32456
 467,95;  354,824;   80,156;12155,399; 2,27464
 468,54;  365,256;   89,865;12369,683; 2,24263
 469,13;  354,107;   81,657;12434,158; 2,20562
 469,72;  366,421;   74,968;12666,501; 2,31468
 470,31;  364,876;   85,968;12844,173; 2,18611
 470,90;  364,522;   80,951;12953,451; 2,20292
 471,48;  329,361;   39,174;13142,381; 2,21462
 472,07;  394,972;  121,143;13334,026; 2,07244
 472,66;  371,454;   88,761;13472,034; 2,11229
 473,25;  367,697;   72,055;13588,813; 2,18722
 473,84;  364,139;   61,866;13773,542; 2,20449
 474,43;  383,118;   54,279;14038,502; 2,35150
 475,01;  395,884;   80,066;14139,770; 2,24626
 475,60;  370,394;   49,967;14305,914; 2,24767
 476,19;  404,226;   93,176;14422,298; 2,17075
 476,78;  397,106;   82,173;14542,208; 2,17795
 477,37;  400,094;   58,867;14636,614; 2,34074
 477,95;  414,631;   82,169;14810,445; 2,25730
 478,54;  403,436;   76,062;14981,894; 2,19628
 479,13;  404,736;   63,162;15125,093; 2,26780
 479,72;  415,001;   76,964;15232,811; 2,23041
 480,31;  414,873;   75,880;15418,174; 2,20953
 480,89;  402,784;   70,066;15522,369; 2,15319
 481,48;  401,465;   55,283;15600,078; 2,22700
 482,07;  396,256;   57,765;15750,783; 2,15695
 482,66;  394,664;   68,962;15832,380; 2,06619
 483,25;  430,265;   84,683;15929,778; 2,18101
 483,83;  414,511;   68,466;16050,655; 2,16519
 484,42;  407,246;   63,364;16126,138; 2,14087
 485,01;  416,771;   70,776;16307,025; 2,13100
 485,60;  432,307;   77,194;16445,707; 2,16949
 486,18;  423,931;   67,069;16479,246; 2,17437
 486,77;  426,334;   74,057;16525,145; 2,14136
 487,36;  439,835;   72,094;16711,293; 2,21009
 487,95;  440,303;   70,785;16813,010; 2,20710
 488,53;  449,175;   71,684;16801,322; 2,25642
 489,12;  429,797;   62,692;16952,961; 2,17347
 489,71;  415,923;   39,888;16938,100; 2,22529
 490,30;  447,420;   69,484;17113,451; 2,21742
 490,88;  467,530;   89,585;17127,195; 2,21830
 491,47;  451,025;   69,492;17224,348; 2,22405
 492,06;  448,187;   65,090;17261,617; 2,22776
 492,65;  464,185;   77,986;17233,469; 2,25117
 493,23;  449,038;   68,382;17320,291; 2,20645
 493,82;  441,009;   69,661;17342,307; 2,14992
 494,41;  451,540;   58,487;17437,141; 2,26170
 494,99;  457,539;   84,866;17518,842; 2,13762
 495,58;  474,620;   84,284;17554,650; 2,23428
 496,17;  455,186;   72,370;17509,719; 2,19538
 496,76;  453,531;   93,469;17612,945; 2,05521
 497,34;  452,988;   64,574;17624,666; 2,21191
 497,93;  457,461;   65,474;17590,080; 2,23678
 498,52;  470,828;   75,281;17695,846; 2,24480
 499,10;  482,350;   93,088;17745,086; 2,20520
 499,69;  463,583;   72,282;17776,318; 2,21024
 500,28;  434,973;   45,880;17695,674; 2,20452
 500,86;  471,868;   78,487;17817,127; 2,21765
 501,45;  477,168;   62,587;17787,127; 2,33902
 502,04;  477,523;   74,588;17819,199; 2,27074
 502,62;  480,586;   80,870;17980,617; 2,23308
 503,21;  462,141;   73,771;17892,291; 2,17959
 503,80;  479,678;   80,889;18049,971; 2,21930
 504,38;  481,238;   66,782;18081,592; 2,30064
 504,97;  474,378;   63,789;18149,771; 2,27020
 505,56;  492,591;   86,979;18184,016; 2,24132
 506,14;  496,362;   78,294;18216,379; 2,30492
 506,73;  465,000;   38,396;18106,211; 2,36112
 507,32;  496,610;   77,098;18168,154; 2,31889
 507,90;  505,865;   84,283;18161,578; 2,33211
 508,49;  501,927;   59,197;18255,996; 2,43301
 509,08;  530,580;   77,493;18383,420; 2,47508
 509,66;  502,893;   85,583;18346,564; 2,28525
 510,25;  524,458;   68,886;18430,381; 2,48113
 510,83;  528,000;   75,296;18536,609; 2,45217
 511,42;  534,442;   72,807;18572,838; 2,49532
 512,01;  523,517;   60,695;18642,652; 2,49071
 512,59;  520,478;   62,589;18756,072; 2,44946
 513,18;  548,140;   74,787;18718,840; 2,53890
 513,77;  522,378;   53,173;18818,521; 2,50038
 514,35;  549,760;   48,290;18820,730; 2,67131
 514,94;  593,450;   84,088;18969,385; 2,69713
 515,52;  602,147;   53,000;18990,287; 2,89982
 516,11;  667,872;   92,196;19062,123; 3,03468
 516,69;  637,400;   51,880;18975,660; 3,09410
 517,28;  699,598;  102,676;18976,813; 3,16265
 517,87;  735,343;   69,975;18977,738; 3,51902
 518,45;  786,853;   66,277;19035,684; 3,79862
 519,04;  857,636;   60,478;19057,742; 4,19617
 519,62;  917,487;   53,390;19135,617; 4,52828
 520,21;  993,974;   41,900;19184,572; 4,97357
 520,79; 1141,332;   57,406;19303,594; 5,63190
 521,38; 1265,248;   58,784;19330,137; 6,26040
 521,97; 1409,014;   54,407;19542,053; 6,95111
 522,55; 1567,363;   65,078;19568,729; 7,70258
 523,14; 1675,691;   34,679;19635,314; 8,37224
 523,72; 1911,975;   79,184;19741,822; 9,32119
 524,31; 2078,900;   73,996;19769,811;10,17934
 524,89; 2251,204;   55,805;20040,607;10,98534
 525,48; 2402,957;   53,902;20077,531;11,73142
 526,06; 2557,817;   75,395;20128,451;12,37927
 526,65; 2763,554;   73,913;20367,232;13,25382
 527,23; 2871,933;   49,890;20330,645;13,91488
 527,82; 3067,294;   51,304;20600,063;14,67724
 528,41; 3154,629;   68,401;20707,045;14,95364
 528,99; 3264,127;   59,097;20783,096;15,46531
 529,58; 3312,205;   47,789;20840,559;15,69976
 530,16; 3429,240;   56,887;21053,141;16,06169
 530,75; 3552,190;   76,995;21260,465;16,40522
 531,33; 3602,457;   49,602;21294,031;16,72370
 531,92; 3650,793;   56,183;21466,564;16,78910
 532,50; 3781,344;  104,412;21786,588;16,95832
 533,09; 3802,237;   83,598;21850,541;17,08388
 533,67; 3890,108;   78,678;22009,957;17,37897
 534,26; 3891,410;   70,982;22162,506;17,29364
 534,84; 3956,685;   66,086;22364,168;17,44813
 535,42; 4027,990;   63,895;22625,564;17,57004
 536,01; 4114,587;   83,690;22830,316;17,72086
 536,59; 4107,774;   54,600;22982,172;17,67817
 537,18; 4193,283;   80,682;23112,119;17,85647
 537,76; 4235,529;   66,517;23531,195;17,76718
 538,35; 4289,287;   75,907;23692,867;17,84048
 538,93; 4363,317;   89,595;23721,951;18,08420
 539,52; 4394,954;   70,313;24095,432;18,00050
 540,10; 4492,734;   75,810;24403,342;18,15607
 540,69; 4536,452;   91,093;24507,135;18,20672
 541,27; 4572,350;   82,888;24822,186;18,14709
 541,85; 4650,120;   59,400;25106,500;18,32835
 542,44; 4682,565;   67,483;25112,178;18,42739
 543,02; 4788,734;   92,310;25576,242;18,42896
 543,61; 4862,867;   96,503;25801,377;18,54264
 544,19; 4865,992;   68,999;26045,113;18,46694
 544,78; 4920,102;   69,301;26190,260;18,57053
 545,36; 4999,879;  100,009;26530,770;18,53851
 545,94; 5029,490;   66,795;26660,564;18,66112
 546,53; 5089,874;   73,917;26816,822;18,75622
 547,11; 5153,269;  105,408;27133,426;18,67640
 547,70; 5160,283;   93,082;27194,020;18,69751
 548,28; 5190,727;   45,797;27442,697;18,77924
 548,86; 5293,427;   87,897;27794,797;18,78785
 549,45; 5272,414;   46,507;27921,453;18,74769
 550,03; 5343,722;   76,004;28138,549;18,77135
 550,62; 5439,547;   70,000;28556,387;18,84952
 551,20; 5467,967;   79,903;28837,176;18,73635
 551,78; 5481,935;   71,094;28870,492;18,78803
 552,37; 5583,990;   58,995;29194,064;18,96338
 552,95; 5637,172;   59,696;29443,123;18,98171
 553,54; 5686,500;   55,296;29695,211;18,99872
 554,12; 5756,649;   74,404;29911,135;19,04446
 554,70; 5899,669;   90,408;30498,525;19,10431
 555,29; 5882,482;   74,598;30497,770;19,09033
 555,87; 6005,399;   61,613;30831,760;19,31673
 556,45; 6084,922;   62,488;31186,799;19,34962
 557,04; 6114,312;   58,902;31462,805;19,28235
 557,62; 6209,212;   63,202;31739,805;19,40236
 558,20; 6275,401;   48,717;32057,809;19,45286
 558,79; 6399,832;  104,406;32384,094;19,50275
 559,37; 6427,167;   53,403;32421,775;19,69133
 559,95; 6551,524;   58,009;32974,496;19,72724
 560,54; 6560,042;   76,907;33105,141;19,62907
 561,12; 6613,902;   61,901;33310,559;19,70606
 561,70; 6675,151;   57,109;33693,484;19,67525
 562,29; 6744,887;   74,007;34096,867;19,60705
 562,87; 6825,214;   81,807;34555,254;19,56116
 563,45; 6902,614;   82,507;34828,051;19,62873
 564,04; 6886,132;   58,590;34728,145;19,69319
 564,62; 6973,697;   63,108;35171,711;19,68346
 565,20; 7019,768;   62,387;35393,527;19,69192
 565,78; 7092,955;   81,397;35845,984;19,60475
 566,37; 7144,419;   67,400;36021,801;19,68332
 566,95; 7130,134;   73,010;36297,043;19,48188
 567,53; 7257,723;   77,488;36631,398;19,64286
 568,12; 7238,527;   61,697;36731,496;19,57150
 568,70; 7327,545;   88,396;37224,637;19,49349
 569,28; 7421,052;   72,909;37518,684;19,62342
 569,86; 7463,540;   69,103;37728,289;19,63515
 570,45; 7556,062;   75,011;38155,730;19,64525
 571,03; 7494,495;   53,588;38139,211;19,53731
 571,61; 7666,909;   57,514;38657,105;19,71367
 572,19; 7605,515;   59,991;38611,504;19,57258
 572,78; 7767,532;   75,906;39057,594;19,73138
 573,36; 7780,190;   86,495;39295,066;19,62248
 573,94; 7742,535;   61,294;39533,691;19,45978
 574,52; 7795,273;   76,080;39699,473;19,48140
 575,11; 7847,880;   48,093;39929,320;19,55754
 575,69; 7831,657;   64,102;40206,430;19,35004
 576,27; 7854,403;   59,785;40348,609;19,34685
 576,85; 7929,490;   40,795;40698,863;19,40253
 577,44; 7989,223;   48,888;40863,898;19,45445
 578,02; 7921,028;   49,881;40926,648;19,25580
 578,60; 8021,708;   62,994;41257,508;19,31984
 579,18; 8042,998;   62,292;41632,262;19,19825
 579,76; 8050,317;   50,795;41594,051;19,25589
 580,35; 8090,017;   68,111;41928,703;19,16338
 580,93; 8170,477;   76,905;42284,422;19,17566
 581,51; 8166,044;   37,412;42435,488;19,17217
 582,09; 8264,460;   66,590;42631,930;19,25950
 582,67; 8409,267;   72,803;42942,875;19,44588
 583,26; 8507,042;   35,007;43231,340;19,61286
 583,84; 8629,563;   39,694;43499,578;19,76505
 584,42; 8741,745;   68,796;43810,539;19,82763
 585,00; 8864,957;   81,602;44189,230;19,91346
 585,58; 8945,412;   37,302;44473,902;20,04678
 586,17; 8939,775;   64,784;44458,621;19,99149
 586,75; 8965,874;   19,300;44482,672;20,12122
 587,33; 9075,994;   63,604;44897,063;20,10193
 587,91; 9063,874;   91,000;45095,574;19,93769
 588,49; 9060,223;   80,188;45246,199;19,88228
 589,07; 9011,604;   60,505;45233,109;19,81533
 589,65; 8926,685;   46,902;45181,918;19,67382
 590,24; 8938,695;   58,588;45293,613;19,63104
 590,82; 8844,985;   35,086;45274,168;19,47409
 591,40; 8887,563;   58,994;45434,578;19,45665
 591,98; 8793,000;   54,580;45384,961;19,27718
 592,56; 8713,585;   72,486;45642,168;18,96239
 593,14; 8658,000;   45,880;45612,262;18,90016
 593,72; 8638,600;   50,996;45797,711;18,77207
 594,30; 8570,928;   52,581;45818,848;18,61272
 594,89; 8545,217;   57,095;45617,051;18,63066
 595,47; 8549,875;   52,484;45796,723;18,57587
 596,05; 8518,512;   39,602;45930,805;18,47611
 596,63; 8587,412;   54,302;46063,105;18,54669
 597,21; 8732,647;   55,000;46049,988;18,86651
 597,79; 8818,284;   45,002;46159,816;19,02487
 598,37; 8903,889;   52,411;46221,414;19,17191
 598,95; 9024,475;   53,800;46273,074;19,40895
 599,53; 9034,778;   46,873;46082,320;19,52388
 600,11; 9141,872;   57,096;46384,324;19,61001
 600,70; 9117,125;   80,192;46052,746;19,65723
 601,28; 9118,063;   45,494;46162,879;19,67277
 601,86; 9002,374;   68,300;46300,273;19,32445
 602,44; 9049,385;   36,486;46388,270;19,44456
 603,02; 9022,858;   39,570;46382,832;19,38424
 603,60; 8992,126;   66,176;46730,398;19,12804
 604,18; 8876,442;   66,491;46584,891;18,93864
 604,76; 8774,160;   58,790;46600,031;18,72612
 605,34; 8553,965;   36,599;46312,227;18,40573
 605,92; 8429,112;   62,486;46220,855;18,12591
 606,50; 8249,495;   37,188;46309,914;17,74762
 607,08; 8056,257;   43,702;46046,633;17,41749
 607,66; 7963,047;   41,000;46295,488;17,12709
 608,24; 7736,540;   48,503;46338,488;16,60842
 608,82; 7618,680;   33,993;46369,520;16,36905
 609,40; 7568,830;   64,001;46126,047;16,29287
 609,98; 7575,017;   35,095;46236,750;16,31959
 610,56; 7622,348;   52,784;46044,535;16,45852
 611,14; 7754,582;   49,098;46042,070;16,75361
 611,72; 7933,827;   64,597;46143,598;17,07769
 612,30; 8016,232;   41,690;46084,242;17,31994
 612,88; 8217,363;   71,478;46250,930;17,63963
 613,46; 8390,396;   42,588;46000,414;18,16406
 614,04; 8618,770;   50,408;46040,227;18,63100
 614,62; 8670,803;   51,785;45729,809;18,86907
 615,20; 8722,305;   57,905;45750,707;18,96229
 615,78; 8795,034;   32,910;45702,141;19,18606
 616,36; 8787,234;   47,494;45707,492;19,14091
 616,94; 8685,547;   26,000;45666,988;18,97318
 617,52; 8639,877;   34,005;45546,723;18,90872
 618,10; 8590,146;   72,180;45702,289;18,66742
 618,68; 8405,020;   25,800;45447,398;18,44766
 619,26; 8364,359;   44,406;45536,379;18,28884
 619,84; 8139,342;   40,491;45161,188;17,94930
 620,42; 7994,800;   40,896;45357,211;17,55196
 621,00; 7840,400;   39,096;45365,609;17,21135
 621,58; 7735,583;   39,482;45249,020;17,02318
 622,16; 7543,881;   57,014;45337,918;16,53427
 622,74; 7431,247;   57,600;45236,785;16,32089
 623,32; 7281,092;   44,799;45204,113;16,02392
 623,90; 7247,636;   79,315;45023,992;15,94921
 624,48; 7171,695;   43,688;44883,313;15,89667
 625,05; 7254,295;   40,088;45065,711;16,02245
 625,63; 7323,495;   57,388;45042,613;16,15221
 626,21; 7409,732;   48,190;44855,445;16,42935
 626,79; 7675,967;   74,903;45051,477;16,90005
 627,37; 7814,850;   43,088;44755,484;17,38167
 627,95; 8052,904;   71,305;44796,508;17,84586
 628,53; 8157,100;   57,896;44747,512;18,12323
 629,11; 8307,818;   49,879;44640,102;18,51962
 629,69; 8504,396;   52,108;44879,012;18,85539
 630,27; 8605,242;   84,091;44600,891;19,14143
 630,84; 8603,095;   54,488;44537,711;19,21760
 631,42; 8673,877;   61,005;44855,422;19,22756
 632,00; 8654,273;   45,980;44578,773;19,33023
 632,58; 8608,152;   61,493;44575,133;19,20009
 633,16; 8582,954;   59,113;44579,633;19,14587
 633,74; 8508,645;   66,096;44446,836;19,02300
 634,32; 8332,730;   57,385;44291,395;18,70811
 634,90; 8305,826;   61,113;44901,246;18,38691
 635,47; 8097,893;   38,283;44333,266;18,19531
 636,05; 7942,330;   42,085;44188,996;17,89535
 636,63; 7767,900;   54,696;44344,809;17,41518
 637,21; 7645,817;   62,095;44528,051;17,05512
 637,79; 7503,137;   70,898;44448,043;16,74790
 638,37; 7208,949;   64,468;44258,387;16,16621
 638,94; 7161,382;   47,098;44318,270;16,06979
 639,52; 7176,282;   42,198;44423,570;16,07450
 640,10; 7246,953;   72,894;44524,383;16,13907
 640,68; 7313,398;   57,694;44555,723;16,30568
 641,26; 7431,944;   33,794;44602,766;16,59933
 641,84; 7591,991;   54,794;44264,703;17,04866
 642,41; 7826,137;   33,394;44386,445;17,56980
 642,99; 8046,183;   61,194;44412,684;18,00388
 643,57; 8148,628;   27,195;44380,227;18,31089
 644,15; 8372,675;   34,095;44424,863;18,78449
 644,73; 8571,021;   51,095;44794,105;19,04191
 645,30; 8654,167;   69,595;44532,445;19,30729
 645,88; 8700,013;   53,895;44571,184;19,42193
 646,46; 8734,858;   57,295;44724,324;19,42722
 647,04; 8689,905;   47,895;44548,164;19,42013
 647,61; 8589,351;   45,795;44756,004;19,10874
 648,19; 8562,396;   69,795;44812,445;18,98100
 648,77; 8356,143;   32,095;44807,887;18,59051
 649,35; 8235,389;   61,995;44879,125;18,23721
 649,92; 8146,935;   52,995;44855,965;18,06563
 650,50; 7918,981;   31,796;44722,105;17,64854
 651,08; 7677,927;   47,596;44624,445;17,11725
 651,66; 7513,573;   27,196;44888,984;16,68765
 652,23; 7327,419;   56,496;44823,027;16,24187
 652,81; 7220,265;   45,996;45074,367;15,93278
 653,39; 7083,111;   69,596;45120,406;15,56801
 653,97; 6971,957;   33,196;45228,348;15,35289
 654,54; 7033,103;   37,096;45073,086;15,53426
 655,12; 7099,449;   30,696;45271,324;15,62479
 655,70; 7179,595;   49,196;45327,367;15,74798
 656,28; 7354,241;   45,596;45491,605;16,08204
 656,85; 7484,788;   44,896;45428,547;16,39333
 657,43; 7665,333;   17,297;45216,785;16,92063
 658,01; 8002,080;   21,797;45644,426;17,49194
 658,58; 8292,525;   70,597;45949,367;17,92099
 659,16; 8364,871;   57,397;45552,508;18,26015
 659,74; 8532,817;   78,497;45746,246;18,51267
 660,32; 8679,863;   79,297;45955,586;18,74730
 660,89; 8627,710;   37,497;45904,125;18,72868
 661,47; 8723,456;   53,597;46094,566;18,83075
 662,05; 8643,102;   35,997;46285,605;18,61011
 662,62; 8612,048;   73,597;46643,047;18,33488
 663,20; 8515,994;   94,697;46661,586;18,08430
 663,78; 8401,939;   67,397;46944,527;17,77955
 664,35; 8281,286;   51,597;47161,066;17,46929
 664,93; 8126,132;   64,698;47390,008;17,03409
 665,51; 7943,678;   54,798;47523,445;16,61914
 666,08; 7759,524;   52,598;47587,188;16,21330
 666,66; 7675,170;   54,898;48219,926;15,82117
 667,23; 7506,916;   73,498;48259,168;15,42662
 667,81; 7480,062;   67,298;48827,809;15,20239
 668,39; 7265,808;   53,798;48982,547;14,73982
 668,96; 7264,354;   64,898;49249,488;14,63762
 669,54; 7188,000;   52,398;49565,027;14,41168
 670,12; 7254,046;   62,098;50043,266;14,38932
 670,69; 7359,192;   72,198;50587,309;14,42537
 671,27; 7440,938;   42,698;50804,949;14,57429
 671,84; 7547,184;   52,699;50686,289;14,80141
 672,42; 7850,430;   77,899;51094,227;15,23538
 673,00; 8094,076;   61,099;51364,270;15,65786
 673,57; 8224,423;   73,699;51056,109;15,98733
 674,15; 8466,469;   76,499;51454,246;16,32997
 674,72; 8627,914;   64,499;51271,988;16,72297
 675,30; 8768,261;   68,499;51194,930;17,01617
 675,88; 8933,906;   47,299;51369,867;17,31520
 676,45; 8965,452;   68,799;51601,406;17,26412
 677,03; 9004,499;   70,999;51397,750;17,40515
 677,60; 9031,444;   36,999;51440,387;17,49777
 678,18; 9076,891;   63,399;51741,328;17,44166
 678,76; 8985,037;   39,800;51655,566;17,33044
 679,33; 8934,083;   60,000;51613,008;17,21351
 679,91; 8791,729;   48,100;51616,250;16,95548
 680,48; 8670,475;   49,900;51590,789;16,72570
 681,06; 8524,421;   53,900;51551,828;16,44828
 681,63; 8336,667;   48,800;51360,969;16,15185
 682,21; 8156,213;   75,100;51466,910;15,72451
 682,78; 7792,759;   22,700;50943,648;15,25906
 683,36; 7621,405;   54,300;51124,789;14,81698
 683,93; 7422,751;   48,100;50885,328;14,50640
 684,51; 7215,597;   45,600;50889,270;14,10204
 685,08; 7194,943;   50,900;51123,410;13,98804
 685,66; 7090,289;   59,001;51258,648;13,73308
 686,24; 7088,035;   45,801;51266,789;13,74873
 686,81; 7209,081;   58,201;51376,027;13,93450
 687,39; 7338,327;   46,201;51314,770;14,22339
 687,96; 7532,573;   54,201;51515,711;14,53197
 688,54; 7764,619;   25,401;51650,148;14,99130
 689,11; 8031,365;   31,501;51776,789;15,46008
 689,69; 8250,312;   41,901;51664,027;15,90095
 690,26; 8637,857;   60,901;52121,570;16,47493
 690,84; 8854,604;   57,601;51906,211;16,96671
 691,41; 9072,350;   51,001;52199,750;17,29926
 691,98; 9295,296;   40,201;52310,590;17,70619
 692,56; 9477,142;   37,101;52299,531;18,06277
 693,13; 9655,987;   66,302;52835,871;18,17276
 693,71; 9739,134;   35,502;52870,508;18,36591
 694,28; 9743,979;   34,302;52895,852;18,36813
 694,86; 9800,025;   51,802;53283,488;18,31282
 695,43; 9737,271;   69,202;53173,031;18,20597
 696,01; 9627,918;   54,302;53738,871;17,83309
 696,58; 9483,363;   45,002;53627,512;17,61463
 697,16; 9334,910;   49,502;53758,352;17,28841
 697,73; 9284,256;   80,802;54265,191;16,98543
 698,30; 8970,302;   52,702;53928,930;16,55201
 698,88; 8787,848;   45,602;54095,770;16,17432
 699,45; 8680,394;   40,902;54204,309;15,95079
 700,03; 8571,540;   58,803;54551,648;15,62175
 700,60; 8519,086;   69,203;54563,492;15,50600
 701,18; 8527,532;   73,403;54806,930;15,44598
 701,75; 8622,479;   75,303;55150,672;15,51905
 702,32; 8667,224;   47,703;54894,012;15,71577
 702,90; 8799,970;   54,703;55278,152;15,83615
 703,47; 8982,017;   64,703;55434,191;16,10510
 704,05; 9183,462;   82,503;55625,531;16,38542
 704,62; 9348,908;   40,303;55573,270;16,76230
 705,19; 9544,854;   48,703;55701,609;17,06317
 705,77; 9854,400;   30,503;55980,852;17,55824
 706,34;10116,046;   65,903;55939,090;17,98742
 706,91;10436,292;   51,604;56105,730;18,52618
 707,49;10764,538;   64,904;56452,871;18,97503
 708,06;10983,685;   81,504;56656,609;19,27028
 708,64;11081,530;   41,804;56518,352;19,54745
 709,21;11296,977;   66,604;56773,191;19,80435
 709,78;11370,723;   54,904;56750,332;19,95896
 710,36;11493,469;   68,504;57047,770;20,05109
 710,93;11445,915;   69,704;57101,910;19,94699
 711,50;11545,761;   53,104;57382,551;20,04669
 712,08;11557,007;   64,704;57739,492;19,92604
 712,65;11457,953;   77,104;57507,930;19,81662
 713,22;11382,398;   88,404;57647,773;19,62147
 713,80;11292,545;   89,904;57985,113;19,34986
 714,37;11048,190;   62,705;57654,953;19,07459
 714,94;10972,837;   67,705;57721,691;18,91479
 715,52;10836,982;   58,905;57599,434;18,73128
 716,09;10788,929;   63,205;57731,973;18,59884
 716,66;10776,675;   74,205;57502,613;18,63619
 717,23;10755,021;   72,805;57685,254;18,54151
 717,81;10686,367;   58,805;57459,191;18,51479
 718,38;10581,113;   51,605;57252,332;18,40800
 718,95;10617,959;   70,805;57242,070;18,44835
 719,53;10588,505;   58,505;57111,012;18,45668
 720,10;10586,451;   78,805;56880,754;18,49874
 720,67;10630,997;   49,405;56701,691;18,67814
 721,24;10723,843;   68,006;56407,832;18,91351
 721,82;10797,689;   65,506;56337,973;19,07182
 722,39;10969,936;   63,006;56449,414;19,34319
 722,96;11204,881;   79,706;56495,953;19,71981
 723,53;11272,928;   87,306;56453,094;19,84470
 724,11;11588,073;   67,806;56521,234;20,40667
 724,68;11717,819;   69,806;56581,574;20,61166
 725,25;11879,365;   74,206;56729,711;20,83674
 725,82;12051,012;   99,706;57170,152;20,94132
 726,40;12146,758;   62,206;57214,395;21,14451
 726,97;12212,903;   67,806;57301,234;21,22029
 727,54;12319,149;   62,706;57229,973;21,43962
 728,11;12319,796;   53,607;57361,813;21,40390
 728,69;12315,542;   49,507;57573,352;21,32339
 729,26;12306,487;   58,707;57865,293;21,18752
 729,83;12333,134;   53,707;58108,832;21,15132
 730,40;12308,979;   58,407;58192,074;21,07311
 730,97;12240,826;   47,007;58596,813;20,82640
 731,55;12127,972;   47,407;58769,953;20,57228
 732,12;12106,818;  100,907;58623,992;20,51483
 732,69;11992,464;   71,407;58612,434;20,36359
 733,26;11899,010;   53,407;58592,074;20,23552
 733,83;11821,156;   50,907;58912,113;19,99662
 734,41;11755,902;   74,707;59208,754;19,75376
 734,98;11631,848;   62,607;59257,492;19,54432
 735,55;11656,794;   55,908;59487,133;19,51985
 736,12;11640,840;   72,208;59456,172;19,48107
 736,69;11699,386;   90,408;59613,313;19,50338
 737,26;11721,433;   68,108;59770,754;19,51894
 737,84;11754,378;   62,508;59579,195;19,64469
 738,41;11924,124;   59,908;59723,734;19,88511
 738,98;12109,370;   70,608;59579,676;20,23013
 739,55;12219,217;   62,008;59464,215;20,46592
 740,12;12584,662;   79,008;59831,754;20,92900
 740,69;12822,809;   71,408;59967,594;21,28917
 741,26;12946,654;   69,108;59921,535;21,51550
 741,83;13131,400;   69,208;59843,773;21,85242
 742,41;13351,847;   74,309;60309,313;22,04289
 742,98;13513,793;  103,909;60395,656;22,24166
 743,55;13472,738;   69,509;60240,496;22,27524
 744,12;13429,284;   57,709;60022,535;22,29903
 744,69;13468,530;   75,109;60194,574;22,27801
 745,26;13414,977;   46,009;59896,914;22,33712
 745,83;13287,822;   62,409;60193,254;21,99439
 746,40;13156,969;   64,009;60053,293;21,82550
 746,97;13081,515;   47,509;59961,535;21,75451
 747,55;12961,161;   72,209;60003,477;21,50622
 748,12;12831,007;   64,409;60031,316;21,28940
 748,69;12627,553;   64,109;60045,355;20,94562
 749,26;12481,799;   68,610;60145,594;20,66214
 749,83;12330,745;   62,210;60013,035;20,46433
 750,40;12230,891;  103,510;59932,074;20,27022
 750,97;12134,938;  103,510;60095,516;20,05505
 751,54;12056,983;   43,310;59869,254;20,08104
 752,11;11971,129;   67,510;59894,594;19,89671
 752,68;11938,675;  102,510;59665,434;19,87170
 753,25;11979,621;   71,610;59511,777;20,03361
 753,82;12020,867;   72,910;59701,414;20,03732
 754,39;12150,813;   76,010;59739,355;20,23823
 754,96;12172,560;   72,910;59250,297;20,44641
 755,53;12425,306;   52,210;59510,137;20,80983
 756,10;12574,352;   70,911;59313,574;21,10547
 756,67;12872,697;   81,611;59430,316;21,55243
 757,24;13035,443;   82,211;59289,656;21,87771
 757,81;13122,789;   43,711;59342,195;22,05634
 758,38;13356,735;   60,311;59341,734;22,42933
 758,95;13499,281;   84,911;59414,574;22,60989
 759,52;13565,827;   59,511;58757,516;23,00984
 760,09;13538,674;   70,811;58642,957;22,99363
 760,66;13421,420;   68,611;58366,598;22,90441
 761,23;13241,865;   85,611;58358,438;22,57700
 761,80;13136,712;   74,811;58348,176;22,41487
 762,37;13078,458;   87,411;58400,617;22,27805
 762,94;12888,504;   84,011;58434,258;21,94420
 763,51;12748,350;   59,112;58202,297;21,82412
 764,08;12545,096;   68,712;58167,637;21,47438
 764,65;12358,542;   87,212;57945,176;21,20941
 765,22;12157,688;   59,812;57632,418;21,01325
 765,79;11991,034;   79,712;57326,059;20,80713
 766,36;11905,180;   80,612;57346,598;20,64850
 766,93;11871,826;   65,712;57506,738;20,55345
 767,50;11823,072;   77,912;57339,375;20,51146
 768,07;11778,018;   77,312;57431,219;20,40089
 768,64;11642,964;   91,312;57245,355;20,21143
 769,21;11597,811;   64,112;56750,797;20,34640
 769,78;11501,456;   78,412;56606,938;20,20757
 770,34;11467,002;   44,213;56182,477;20,34760
 770,91;11577,648;   63,513;56215,117;20,50544
 771,48;11623,294;   69,513;55998,656;20,65789
 772,05;11775,340;   79,213;55701,898;21,02762
 772,62;11813,286;   51,913;55274,836;21,29799
 773,19;12042,332;   66,313;55428,477;21,63214
 773,76;12233,878;   78,913;55294,016;22,01384
 774,33;12410,725;   75,413;55158,156;22,39415
 774,90;12494,171;   60,413;54598,199;22,79843
 775,47;12615,217;   70,013;54692,637;22,96705
 776,03;12572,063;   77,913;54517,977;22,95028
 776,60;12566,309;   63,713;54224,719;23,08413
 777,17;12543,755;   66,414;54057,457;23,11002
 777,74;12372,101;   41,514;53490,098;23,07000
 778,31;12315,146;   71,414;53612,637;22,86786
 778,88;12094,093;   44,614;53275,879;22,63609
 779,45;11934,839;   91,914;53168,418;22,31293
 780,01;11772,385;   80,414;53129,656;22,03985
 780,58;11567,031;   75,314;52949,398;21,73412
 781,15;11488,776;   60,014;52661,438;21,72710
 781,72;11345,623;   74,014;52554,078;21,47789
 782,29;11214,569;   69,114;52079,219;21,42940
 782,86;11099,415;   75,114;51771,258;21,32519
 783,42;11071,261;   70,814;51617,297;21,34083
 783,99;10956,107;   66,514;51666,738;21,10377
 784,56;10850,053;   75,815;51183,078;21,08162
 785,13;10822,399;   65,615;51106,617;21,07479
 785,70;10803,445;   63,815;50902,359;21,12498
 786,26;10725,591;   80,715;50828,699;20,97596
 786,83;10731,737;   81,915;50547,141;21,10329
 787,40;10741,583;   71,915;50338,180;21,22630
 787,97;10673,529;   50,915;50082,520;21,23181
 788,54;10737,775;   76,715;50067,559;21,32603
 789,10;10806,621;   70,915;49707,098;21,62879
 789,67;10891,867;   88,815;49374,039;21,91945
 790,24;10940,413;   67,215;49515,980;21,98882
 790,81;10985,859;   85,715;48790,621;22,37997
 791,37;11176,605;   89,816;48703,758;22,80578
 791,94;11329,052;   77,416;48731,301;23,12587
 792,51;11270,798;   55,216;48281,039;23,25638
 793,08;11292,943;   78,116;48263,180;23,27449
 793,64;11280,989;   70,516;47992,719;23,39307
 794,21;11130,735;   91,216;47794,559;23,14202
 794,78;11009,281;   67,216;47492,598;23,07217
 795,35;10896,027;   74,916;47095,641;23,01349
 795,91;10771,273;   58,816;46888,879;22,87517
 796,48;10602,020;   76,616;46538,621;22,65379
 797,05;10501,366;   66,716;46539,961;22,45303
 797,62;10348,312;   57,616;46365,500;22,22234
 798,18;10362,758;   65,717;46022,840;22,40576
 798,75;10228,204;   60,917;45731,480;22,26223
 799,32;10159,650;   71,517;45653,219;22,13198
 799,88;10114,096;   71,317;45503,160;22,10515
 800,45; 9992,942;   43,617;45090,801;22,08645
 801,02; 9955,288;   70,617;45058,039;21,97208
 801,58; 9970,934;  103,217;44902,180;22,02666
 802,15; 9869,880;   78,917;44603,820;21,98986
 802,72; 9749,826;   86,717;44283,559;21,86380
 803,28; 9704,672;   62,217;44124,699;21,88359
 803,85; 9631,618;   51,017;43840,340;21,87885
 804,42; 9645,164;   86,817;43684,180;21,92414
 804,98; 9579,311;  110,518;43623,922;21,76063
 805,55; 9450,956;   63,118;43303,762;21,71068
 806,12; 9449,202;  101,318;43094,000;21,74297
 806,68; 9490,248;   75,418;42643,539;22,11709
 807,25; 9560,294;  100,118;42538,480;22,29157
 807,82; 9610,641;   94,218;42414,621;22,48661
 808,38; 9645,986;   78,818;42374,461;22,61975
 808,95; 9691,633;   71,618;42215,199;22,82676
 809,52; 9793,879;   67,418;42170,340;23,10163
 810,08; 9776,225;   78,418;42035,480;23,11364
 810,65; 9821,371;   70,318;42062,520;23,22110
 811,21; 9875,116;   81,418;42152,461;23,27895
 811,78; 9960,063;  103,518;42171,902;23,42981
 812,35; 9810,309;   77,619;41843,543;23,30294
 812,91; 9758,354;   96,919;42028,383;23,04102
 813,48; 9731,301;   73,519;41847,520;23,11912
 814,04; 9629,146;   84,319;41782,961;22,89002
 814,61; 9480,293;   86,119;41608,602;22,62431
 815,18; 9423,339;   80,719;41371,543;22,62638
 815,74; 9373,985;   85,619;41303,980;22,53454
 816,31; 9329,231;   87,719;40917,621;22,63418
 816,87; 9162,877;   48,519;40470,363;22,54810
 817,44; 9138,823;   89,319;40395,402;22,45196
 818,00; 8949,770;   56,519;40200,641;22,15331
 818,57; 8940,515;   93,519;39997,082;22,17094
 819,14; 8882,062;   97,720;39811,922;22,11889
 819,70; 8756,907;   88,420;39535,660;21,97489
 820,27; 8677,253;   77,320;39377,602;21,88262
 820,83; 8490,600;   77,020;39086,941;21,56779
 821,40; 8423,445;  107,520;38849,980;21,46463
 821,96; 8372,191;   81,620;38601,422;21,52288
 822,53; 8308,237;   83,020;38411,762;21,45966
 823,09; 8237,583;  109,920;38424,301;21,21309
 823,66; 8203,930;   88,420;38045,141;21,38096
 824,22; 8251,375;   85,720;37912,484;21,58698
 824,79; 8262,521;   84,920;37523,723;21,84258
 825,35; 8302,668;   93,320;37602,664;21,88614
 825,92; 8346,113;   80,021;37253,602;22,23647
 826,48; 8349,960;  107,521;37167,043;22,24108
 827,05; 8454,905;   99,421;36937,082;22,68191
 827,61; 8455,052;   84,421;36644,523;22,89553
 828,18; 8409,697;   74,121;36543,762;22,85621
 828,74; 8439,044;   88,421;36346,004;23,03138
 829,31; 8352,290;   99,621;36305,645;22,79364
 829,87; 8397,235;   85,121;36173,883;23,03242
 830,44; 8314,981;   91,621;36054,922;22,86598
 831,00; 8226,728;   97,221;35964,465;22,66555
 831,57; 8201,374;  113,021;35736,305;22,70524
 832,13; 7994,120;   81,521;35201,441;22,53023
 832,69; 7904,766;   81,021;35253,785;22,24376
 833,26; 7843,412;   92,922;35075,125;22,15552
 833,82; 7737,458;  103,122;34779,063;22,01623
 834,39; 7562,104;   82,922;34662,203;21,62909
 834,95; 7537,250;   75,222;34586,445;21,62203
 835,52; 7426,596;  114,822;34573,582;21,21891
 836,08; 7377,642;  102,222;34467,223;21,17102
 836,64; 7309,888;   88,722;34415,863;21,03632
 837,21; 7206,934;  100,422;34108,805;20,89635
 837,77; 7210,980;   87,922;33973,742;21,02076
 838,34; 7099,626;   80,322;33883,184;20,76541
 838,90; 6957,772;   74,022;33688,023;20,47882
 839,46; 6976,019;  102,722;33660,965;20,48169
 840,03; 6941,364;   89,823;33589,305;20,45268
 840,59; 6949,610;   98,623;33224,945;20,68140
 841,16; 7003,656;  115,023;33197,586;20,82255
 841,72; 6919,803;   60,623;32782,023;20,96237
 842,28; 7013,148;   88,023;33006,664;21,03709
 842,85; 7098,395;  111,223;32981,305;21,25693
 843,41; 7221,541;  115,623;32759,645;21,76790
 843,97; 7215,887;  101,523;32628,484;21,87220
 844,54; 7270,533;  103,923;32606,424;22,04941
 845,10; 7252,479;  101,623;32435,264;22,11584
 845,67; 7192,325;   84,723;32257,805;22,09176
 846,23; 7186,271;   89,623;32027,045;22,22048
 846,79; 7132,517;   95,524;31792,686;22,20070
 847,36; 7050,263;   74,924;31579,225;22,14091
 847,92; 7038,809;   98,924;31430,064;22,15012
 848,48; 6938,255;   52,124;31495,006;21,90045
 849,04; 6822,601;   76,124;31293,445;21,61133
 849,61; 6738,947;   69,624;31314,285;21,34548
 850,17; 6644,393;   75,324;31291,824;21,04358
 850,73; 6574,039;   79,824;31295,666;20,80423
 851,30; 6416,585;   67,024;31085,805;20,47005
 851,86; 6343,631;   82,024;30886,045;20,32724
 852,42; 6293,177;   68,124;30971,785;20,14342
 852,99; 6267,923;   94,224;30848,025;20,07459
 853,55; 6198,769;  105,124;30691,564;19,92270
 854,11; 6120,215;   74,425;30375,906;19,95213
 854,67; 6134,961;   95,225;30426,945;19,91228
 855,24; 6021,407;   67,225;30329,586;19,67521
 855,80; 6039,053;   89,225;30332,326;19,67334
 856,36; 5987,299;   86,525;30215,365;19,58514
 856,92; 5982,345;   62,925;30050,506;19,73957
 857,49; 5997,992;   83,025;29960,646;19,79731
 858,05; 5995,538;   79,825;29911,785;19,83012
 858,61; 6025,284;   66,325;29929,727;19,95405
 859,17; 6065,030;   89,325;29718,566;20,16827
 859,74; 6101,775;   83,025;29678,205;20,33693
 860,30; 6156,222;  113,925;29483,246;20,57350
 860,86; 6161,468;   68,026;29312,586;20,83616
 861,42; 6188,714;   86,626;29074,326;21,05061
 861,99; 6253,560;   63,326;29042,166;21,36122
 862,55; 6190,406;   75,226;28893,006;21,22016
 863,11; 6216,352;   91,926;29061,646;21,14078
 863,67; 6212,198;   76,826;28852,586;21,32132
 864,23; 6134,044;   90,526;28750,727;21,08680
 864,80; 6040,390;   70,326;28544,666;20,96647
 865,36; 6039,236;   65,426;28649,607;20,89901
 865,92; 5956,282;  100,126;28461,146;20,64861
 866,48; 5830,628;   89,526;28425,188;20,26105
 867,04; 5771,274;   67,426;28159,627;20,30403
 867,60; 5704,320;   91,327;28118,768;20,02678
 868,17; 5611,766;  104,427;27939,207;19,78582
 868,73; 5494,912;   82,127;27621,646;19,65461
 869,29; 5392,558;   65,927;27596,787;19,34786
 869,85; 5402,404;  113,027;27568,627;19,26520
 870,41; 5319,750;   81,527;27384,168;19,18578
 870,97; 5265,296;  107,827;27213,406;19,02734
 871,54; 5164,642;   85,727;26980,947;18,88408
 872,10; 5179,688;   88,627;26828,088;19,03951
 872,66; 5092,834;   62,827;26528,428;19,00583
 873,22; 5131,380;   93,127;26519,367;19,06534
 873,78; 5071,327;   78,627;26172,908;19,13331
 874,34; 5116,973;  104,228;26033,547;19,33234
 874,90; 5080,973;  120,827;25783,248;19,32844
 875,46; 5064,072;   99,728;25709,348;19,38469
 876,03; 5041,672;   98,927;25420,648;19,51978
 876,59; 4981,072;   77,327;25181,547;19,53355
 877,15; 5039,072;  109,827;25149,047;19,68610
 877,71; 5067,873;  106,228;25212,648;19,76245
 878,27; 5017,072;   96,427;24989,248;19,76733
 878,83; 5012,473;  116,827;25022,148;19,65702
 879,39; 5049,272;  100,027;24973,648;19,89757
 879,95; 5027,272;   98,827;24843,648;19,91708
 880,51; 5063,772;   83,728;24936,047;20,03855
 881,07; 5046,272;   90,527;25061,848;19,84575
 881,63; 5047,072;  101,027;25156,047;19,74073
 882,19; 4968,272;   87,628;24975,447;19,61058
 882,75; 4973,473;  101,427;25261,947;19,36385
 883,31; 4993,373;  105,327;25428,648;19,30254
 883,88; 4947,873;   98,927;25336,748;19,21301
 884,44; 4933,373;   91,927;25417,947;19,11649
 885,00; 4969,973;  107,427;25761,848;18,95402
 885,56; 4898,572;  107,827;25751,648;18,68187
 886,12; 4943,072;  111,228;25842,648;18,77799
 886,68; 4893,572;   99,228;25852,348;18,61656
 887,24; 4968,873;  117,927;26350,547;18,49203
 887,80; 4877,873;   90,728;26280,748;18,27851
 888,36; 4931,272;  116,327;26529,848;18,22909
 888,92; 4941,272;  125,728;26572,047;18,20875
 889,48; 4982,973;  103,128;26954,447;18,17358
 890,04; 4958,772;  109,128;26947,547;18,06979
 890,60; 5037,572;  112,128;27251,248;18,14887
 891,16; 5051,172;   96,628;27188,848;18,28770
 891,72; 5050,172;  118,228;27260,547;18,17068
 892,28; 5046,373;  134,827;27331,547;18,05933
 892,84; 5035,672;  104,728;27348,848;18,09912
 893,39; 5078,572;  123,927;27411,947;18,15685
 893,95; 5101,772;  114,228;27186,348;18,42318
 894,51; 4999,072;   76,327;26955,748;18,31418
 895,07; 5076,973;  129,727;27084,848;18,35364
 895,63; 4956,473;   77,128;26839,947;18,23181
 896,19; 4939,373;   97,128;26677,248;18,21754
 896,75; 4925,672;  124,927;26555,748;18,16343
 897,31; 4887,572;   90,728;26203,148;18,36997
 897,87; 4837,473;  101,728;25897,248;18,35879
 898,43; 4777,473;  106,527;25790,848;18,18598
 898,99; 4761,172;  117,427;25589,047;18,23105
 899,55; 4692,873;  119,927;25597,447;17,94894
 900,11; 4669,572;  108,327;25305,447;18,10225
 900,67; 4589,873;   98,527;25075,248;17,98212
 901,22; 4522,373;  119,628;24861,047;17,79504
 901,78; 4500,672;   91,628;24661,248;17,94511
 902,34; 4468,873;  111,228;24532,248;17,84383
 902,90; 4386,672;   80,827;24335,148;17,75290
 903,46; 4316,172;  105,728;24231,348;17,45217
 904,02; 4292,172;  100,527;24123,947;17,44816
 904,58; 4223,572;   90,728;23850,848;17,39404
 905,14; 4184,473;   68,527;23822,947;17,32707
 905,70; 4196,973;   83,927;23630,748;17,46752
 906,25; 4124,172;   90,628;23553,348;17,19129
 906,81; 4117,373;   94,628;23392,047;17,26691
 907,37; 4044,373;   98,827;23257,447;17,03705
 907,93; 4026,673;   89,527;23089,748;17,11786
 908,49; 3958,873;   99,628;22999,447;16,85273
 909,05; 3976,272;   97,827;22927,848;16,98836
 909,60; 3959,873;  108,228;22788,748;16,98217
 910,16; 3831,472;   74,228;22700,748;16,60549
 910,72; 3836,772;  110,427;22663,447;16,52260
 911,28; 3804,373;  102,128;22408,248;16,59744
 911,84; 3761,972;   90,628;22454,148;16,41667
 912,39; 3705,073;   78,427;22258,547;16,35088
 912,95; 3721,272;  102,728;22258,148;16,33255
 913,51; 3720,073;   98,327;22083,547;16,47355
 914,07; 3653,873;   98,728;21907,547;16,30141
 914,63; 3659,173;   76,128;21874,547;16,43718
 915,18; 3658,472;   87,628;21589,648;16,60702
 915,74; 3621,873;   80,927;21587,248;16,46467
 916,30; 3556,673;   59,528;21357,648;16,41997
 916,86; 3603,673;   93,728;21262,648;16,58065
 917,42; 3600,673;  100,228;21321,348;16,49510
 917,97; 3543,772;   77,427;21064,748;16,51638
 918,53; 3522,573;   74,927;20915,447;16,54299
 919,09; 3506,272;   98,728;20860,447;16,41263
 919,65; 3446,573;   85,527;20650,848;16,34327
 920,20; 3396,472;   73,527;20532,748;16,24180
 920,76; 3373,472;   72,027;20320,547;16,30462
 921,32; 3337,272;   82,027;20178,947;16,19773
 921,87; 3306,373;  102,728;19954,348;16,13795
 922,43; 3221,573;   77,027;19849,648;15,90353
 922,99; 3157,873;   67,427;19482,748;15,91756
 923,55; 3131,073;   70,527;19338,047;15,88448
 924,10; 3077,673;   73,027;19189,547;15,71753
 924,66; 3037,472;   87,827;18955,648;15,63320
 925,22; 2950,873;   55,228;18851,248;15,40563
 925,77; 2898,073;   82,128;18536,348;15,25908
 926,33; 2891,573;   95,927;18507,947;15,18380
 926,89; 2812,472;   71,427;18124,148;15,18356
 927,44; 2740,373;   62,327;17937,248;14,98214
 928,00; 2676,972;   71,228;17715,447;14,76826
 928,56; 2657,673;   88,827;17529,648;14,72892
 929,12; 2580,373;   87,728;17383,348;14,41200
 929,67; 2497,173;   69,527;17014,248;14,32685
 930,23; 2468,673;   56,127;16842,248;14,37226
 930,78; 2498,472;  115,628;16704,547;14,36408
 931,34; 2394,373;   72,327;16173,647;14,42146
 931,90; 2358,972;   73,128;15997,647;14,35425
 932,45; 2341,873;   83,427;15594,647;14,56007
 933,01; 2250,972;   64,728;15138,247;14,50388
 933,57; 2170,073;   74,527;14649,048;14,37814
 934,12; 2148,272;   82,628;14015,147;14,82607
 934,68; 2015,073;   64,427;13299,647;14,73829
 935,24; 1921,573;   77,027;12511,147;14,83454
 935,79; 1845,272;   75,228;11770,247;15,13503
 936,35; 1720,272;  101,827;10989,848;14,86446
 936,90; 1627,172;   84,427;10143,848;15,33632
 937,46; 1503,172;   83,728; 9403,947;15,22974
 938,02; 1368,373;   73,527; 8615,747;15,15818
 938,57; 1297,473;   81,728; 8016,047;15,32261
 939,13; 1208,373;   80,228; 7513,447;15,17707
 939,68; 1118,672;   68,628; 6973,248;15,20786
 940,24; 1064,573;   71,527; 6581,047;15,25527
 940,79; 1042,373;  110,628; 6292,447;15,07234
 941,35;  977,773;  101,228; 6079,047;14,66329
 941,91;  909,172;   75,527; 5851,348;14,43336
 942,46;  876,573;   77,128; 5791,947;13,98898
 943,02;  878,872;   79,927; 5671,348;14,28877
 943,57;  839,573;   64,427; 5573,547;14,07022
 944,13;  858,273;   79,027; 5648,147;13,99225
 944,68;  848,773;   78,027; 5685,248;13,74558
 945,24;  846,972;   90,427; 5783,147;13,28969
 945,79;  829,073;   73,027; 5876,147;13,02825
 946,35;  826,172;   60,627; 5994,447;12,90139
 946,90;  892,073;  114,927; 6160,147;12,85553
 947,46;  857,073;   64,927; 6271,248;12,76352
 948,01;  872,372;   57,827; 6434,447;12,77393
 948,57;  926,172;  104,827; 6687,547;12,47729
 949,12;  941,372;   79,827; 6797,248;12,82553
 949,68;  963,672;  103,327; 7106,647;12,28482
 950,23;  992,273;   83,527; 7300,047;12,59257
 950,79; 1008,672;   83,327; 7497,748;12,48034
 951,34; 1063,772;  100,927; 7735,248;12,61206
 951,90; 1074,873;   70,527; 7954,848;12,73851
 952,45; 1109,672;   97,628; 8185,147;12,51366
 953,01; 1127,973;   82,628; 8326,348;12,68050
 953,56; 1161,873;   88,228; 8589,947;12,62856
 954,12; 1167,973;   52,028; 8720,447;12,87368
 954,67; 1230,172;   77,327; 8976,247;12,95489
 955,23; 1248,073;   76,927; 9148,048;12,91070
 955,78; 1267,973;   73,927; 9338,348;12,88850
 956,33; 1271,272;   63,728; 9521,548;12,76769
 956,89; 1285,672;   59,928; 9696,848;12,71926
 957,44; 1324,573;   69,628; 9882,348;12,78896
 958,00; 1312,172;   59,428;10075,548;12,50729
 958,55; 1346,373;   61,627;10222,348;12,64423
 959,10; 1358,672;   69,327;10408,747;12,47019
 959,66; 1330,573;   82,527;10609,048;11,85620
 960,21; 1338,373;   81,427;10733,147;11,80040
 960,77; 1294,272;   70,327;10817,147;11,38890
 961,32; 1300,473;   64,728;10986,548;11,31446
 961,87; 1289,873;   88,527;11049,147;10,96056
 962,43; 1289,272;   70,728;11118,048;11,03023
 962,98; 1301,672;   94,327;11290,247;10,78379
 963,54; 1238,873;   47,228;11352,147;10,54094
 964,09; 1255,973;   79,027;11395,348;10,40042
 964,64; 1272,373;   74,527;11550,747;10,43763
 965,20; 1207,172;   60,327;11524,247;10,00395
 965,75; 1242,573;   81,728;11624,447;10,05695
 966,30; 1239,073;   70,827;11653,848;10,08584
 966,86; 1242,772;   78,527;11719,247;10,00149
 967,41; 1278,772;   93,527;11768,048;10,15241
 967,96; 1239,973;   76,728;11864,647; 9,86811
 968,52; 1273,873;   93,228;11930,647; 9,97384
 969,07; 1258,573;   77,628;11868,348;10,01589
 969,62; 1281,973;   79,527;11967,147;10,11510
 970,18; 1261,073;   75,728;12076,747; 9,87704
 970,73; 1286,873;   80,728;12023,048;10,09975
 971,28; 1315,473;   96,327;12036,348;10,21058
 971,84; 1303,772;   77,527;12048,848;10,24319
 972,39; 1336,573;  100,228;12039,548;10,35524
 972,94; 1291,172;   66,228;12109,947;10,17082
 973,49; 1288,473;   96,628;12092,447; 9,93550
 974,05; 1306,073;   76,728;12000,747;10,30982
 974,60; 1324,973;   93,228;12070,048;10,28441
 975,15; 1314,373;   88,628;12097,447;10,20704
 975,71; 1289,172;   65,128;11908,548;10,33523
 976,26; 1316,672;   98,927;11977,247;10,25183
 976,81; 1282,272;   91,827;11959,048;10,03137
 977,36; 1282,473;   98,728;11983,247; 9,96039
 977,92; 1266,573;   96,527;12038,848; 9,79747
 978,47; 1240,272;   81,927;11925,647; 9,78025
 979,02; 1216,973;   93,228;11922,548; 9,49966
 979,57; 1190,172;   88,427;11895,747; 9,33103
 980,13; 1164,272;   83,527;11783,147; 9,23744
 980,68; 1123,272;   82,927;11805,147; 8,87498
 981,23; 1130,573;   90,527;11802,247; 8,88038
 981,78; 1087,573;   92,427;11735,247; 8,54729
 982,33; 1070,573;   90,728;11677,848; 8,45633
 982,89; 1063,272;   89,927;11703,647; 8,38099
 983,44; 1028,272;   83,027;11608,947; 8,20104
 983,99; 1043,272;  118,628;11622,647; 8,03758
 984,54; 1018,073;   96,128;11457,247; 8,11491
 985,09; 1025,672;   93,728;11413,947; 8,23257
 985,65;  989,273;   91,327;11470,747; 7,89096
 986,20; 1002,073;  106,927;11419,548; 7,91280
 986,75; 1008,372;  108,628;11414,447; 7,95825
 987,30;  999,672;  102,827;11258,348; 8,03947
 987,85;  998,672;   90,228;11246,747; 8,14273
 988,40;  985,672;  108,527;11213,747; 7,89849
 988,96; 1003,073;  108,027;11133,947; 8,11764
 989,51;  996,472;  115,427;11038,447; 8,06595
 990,06; 1015,872;  138,227;11045,147; 8,04668
 990,61;  975,773;   92,128;10938,348; 8,14703
 991,16;  992,672;  118,927;10940,048; 8,07444
 991,71;  947,573;   92,527;10792,848; 7,99084
 992,26;  989,372;  102,427;10714,848; 8,35761
 992,81;  945,073;  104,728;10660,548; 7,96096
 993,37;  972,372;  137,727;10574,647; 7,99704
 993,92;  964,273;  121,728;10458,048; 8,15131
 994,47;  979,273;  124,628;10466,848; 8,26365
 995,02;  968,672;  137,027;10490,947; 8,03218
 995,57;  925,472;  110,427;10392,848; 7,92659
 996,12;  953,672;  145,727;10300,348; 7,95643
 996,67;  928,972;  129,628;10209,147; 7,93039
 997,22;  886,372;  113,527;10126,947; 7,71809
 997,77;  900,172;  121,527;10148,647; 7,76539
 998,32;  860,573;  111,628;10071,647; 7,51951
 998,87;  869,073;  125,128; 9984,647; 7,54545
 999,42;  814,773;  127,927; 9851,147; 7,06397
 999,97;  796,172;  108,927; 9777,548; 7,10799
1000,53;  827,872;  142,727; 9784,247; 7,10619
1001,08;  781,172;  107,228; 9686,947; 7,03512
1001,63;  797,773;  153,027; 9649,647; 6,78921
1002,18;  731,972;   83,728; 9424,147; 6,94021
1002,73;  765,273;  138,327; 9412,947; 6,75979
1003,28;  738,172;  124,327; 9381,947; 6,63070
1003,83;  735,073;  125,927; 9218,247; 6,69956
1004,38;  756,573;  149,928; 9191,647; 6,70940
1004,93;  714,573;  126,027; 9120,247; 6,54359
1005,48;  715,573;  116,827; 9054,348; 6,69923
1006,03;  692,872;  117,927; 9005,947; 6,46876
1006,58;  701,172;  111,128; 8858,647; 6,74528
1007,13;  660,073;  107,927; 8851,247; 6,31505
1007,68;  697,172;  104,728; 8818,747; 6,79876
1008,23;  681,172;  133,727; 8715,848; 6,37890
1008,78;  651,472;  112,027; 8711,147; 6,27326
1009,33;  706,672;  130,327; 8604,447; 6,80124
1009,88;  649,872;   88,228; 8605,447; 6,59423
1010,43;  673,972;  124,228; 8525,848; 6,54332
1010,98;  669,672;   99,827; 8492,447; 6,78983
1011,52;  658,172;   95,827; 8398,447; 6,77310
1012,07;  710,573;  150,327; 8388,247; 6,80081
1012,62;  649,773;  104,628; 8320,747; 6,63507
1013,17;  659,773;  113,128; 8276,947; 6,69595
1013,72;  639,372;   95,728; 8223,848; 6,68845
1014,27;  653,273;  121,228; 8163,047; 6,61598
1014,82;  618,672;   95,728; 7981,147; 6,63180
1015,37;  598,773;   94,128; 7887,848; 6,47502
1015,92;  609,672;  118,427; 7731,447; 6,45270
1016,47;  573,872;  102,628; 7596,447; 6,28845
1017,02;  549,172;   93,128; 7494,047; 6,16200
1017,57;  575,872;  112,527; 7367,248; 6,38681
1018,11;  528,273;   99,827; 7284,647; 5,96320
1018,66;  551,972;  130,928; 7236,947; 5,92519
1019,21;  518,872;  112,327; 7082,447; 5,83268
1019,76;  502,872;   93,628; 6976,348; 5,94598
1020,31;  493,973;   98,827; 6900,348; 5,80966
1020,86;  491,973;   93,927; 6846,248; 5,89494
1021,41;  448,872;   94,827; 6743,047; 5,32541
1021,96;  488,272;  104,128; 6702,147; 5,82213
1022,50;  489,272;  133,027; 6633,047; 5,48068
1023,05;  464,372;  100,128; 6498,748; 5,69256
1023,60;  460,473;  102,628; 6447,947; 5,63951
1024,15;  434,372;   86,927; 6297,348; 5,59455
1024,70;  467,073;  117,427; 6274,447; 5,67880
1025,25;  437,973;   97,728; 6228,447; 5,54984
1025,79;  448,172;  122,228; 6171,147; 5,38848
1026,34;  430,872;  101,427; 6090,447; 5,50082
1026,89;  448,473;  114,827; 6060,147; 5,61189
1027,44;  416,573;  104,827; 5966,348; 5,31850
1027,99;  429,172;  103,027; 5876,547; 5,64898
1028,53;  414,573;   96,728; 5813,647; 5,55972
1029,08;  421,772;  116,628; 5784,147; 5,38410
1029,63;  422,573;  115,327; 5690,348; 5,51110
1030,18;  411,372;  103,027; 5656,147; 5,55264
1030,73;  394,172;   96,027; 5543,647; 5,47294
1031,27;  391,573;   96,027; 5490,147; 5,47902
1031,82;  389,772;   88,827; 5398,447; 5,66792
1032,37;  397,372;  108,527; 5371,147; 5,48862
1032,92;  402,473;  115,827; 5293,348; 5,53634
1033,46;  383,172;  100,228; 5164,647; 5,58692
1034,01;  364,272;   93,927; 5108,748; 5,39092
1034,56;  388,872;  117,728; 5101,348; 5,44072
1035,11;  373,872;  107,128; 5004,248; 5,44698
1035,65;  357,772;  101,527; 4981,547; 5,25090
1036,20;  360,872;   92,927; 4950,047; 5,51654
1036,75;  372,872;  122,728; 4905,848; 5,22975
1037,29;  344,872;  103,927; 4828,647; 5,09967
1037,84;  330,172;   94,527; 4709,147; 5,10649
1038,39;  343,372;  103,827; 4639,547; 5,28130
1038,94;  322,272;   75,728; 4562,848; 5,49450
1039,48;  322,772;   96,628; 4571,947; 5,05316
1040,03;  345,272;  112,427; 4492,248; 5,31631
1040,58;  324,872;   98,128; 4393,447; 5,27889
1041,12;  308,172;  107,827; 4359,547; 4,71209
1041,67;  316,772;  109,128; 4320,947; 4,93005
1042,22;  323,973;  120,527; 4276,447; 4,89531
1042,76;  294,772;   99,827; 4151,447; 4,81153
1043,31;  301,772;  110,728; 4086,548; 4,80517
1043,86;  306,573;  114,628; 4037,647; 4,89279
1044,40;  313,573;  110,327; 4005,847; 5,21740
1044,95;  293,672;  115,228; 3962,147; 4,63865
1045,50;  273,573;   84,628; 3881,548; 4,97627
1046,04;  299,272;  120,628; 3843,548; 4,79852
1046,59;  279,372;   97,927; 3796,548; 4,90575
1047,13;  303,272;  126,128; 3766,347; 4,86633
1047,68;  294,672;  119,427; 3689,948; 4,90811
1048,23;  283,772;  123,228; 3670,847; 4,52543
1048,77;  260,973;  105,628; 3606,948; 4,43676
1049,32;  274,473;  108,228; 3568,048; 4,80502
1049,86;  275,872;   99,027; 3502,847; 5,19549
1050,41;  259,473;   91,527; 3451,248; 4,99878
1050,96;  274,772;  113,628; 3423,347; 4,86884
1051,50;  264,573;  104,927; 3366,948; 4,89405
1052,05;  268,672;  119,427; 3347,448; 4,62342
1052,59;  255,372;   99,827; 3256,748; 4,92711
1053,14;  239,773;   95,427; 3219,948; 4,61975
1053,69;  240,273;  104,128; 3185,448; 4,41840
1054,23;  253,473;  118,427; 3134,748; 4,47714
1054,78;  243,973;  114,628; 3053,847; 4,40066
1055,32;  273,973;  130,027; 3055,548; 4,92032
1055,87;  213,572;   86,128; 2966,347; 4,42484
1056,41;  224,173;   96,128; 2919,548; 4,53510
1056,96;  232,273;  107,728; 2911,948; 4,44134
1057,50;  261,573;  124,427; 2892,048; 4,95534
1058,05;  208,673;   76,527; 2784,248; 4,88031
1058,59;  236,273;  112,128; 2788,548; 4,63847
1059,14;  233,072;  117,527; 2774,748; 4,34834
1059,68;  205,973;   85,827; 2677,147; 4,63644
1060,23;  251,572;  130,928; 2707,448; 4,68248
1060,77;  218,473;  112,728; 2641,347; 4,18193
1061,32;  230,372;  122,628; 2596,847; 4,35471
1061,86;  224,473;  115,827; 2570,748; 4,42560
1062,41;  216,273;  106,128; 2522,048; 4,55913
1062,95;  219,673;  101,628; 2446,048; 5,03515
1063,50;  216,273;  119,927; 2427,847; 4,17454
1064,04;  205,173;  101,128; 2392,548; 4,54063
1064,59;  223,372;  124,427; 2369,948; 4,40633
1065,13;  200,173;  122,327; 2316,948; 3,54708
1065,68;  200,773;  125,128; 2272,948; 3,52194
1066,22;  220,473;  117,427; 2267,748; 4,79208
1066,76;  227,372;  137,027; 2243,448; 4,28903
1067,31;  199,273;  105,927; 2185,248; 4,48921
1067,85;  186,473;  102,728; 2165,948; 4,05895
1068,40;  211,773;  117,927; 2147,847; 4,62309
1068,94;  197,072;  102,327; 2097,548; 4,74860
1069,49;  197,773;  100,128; 2098,048; 4,88733
1070,03;  200,072;  102,628; 2031,848; 5,05100
1070,57;  191,973;  100,427; 2008,147; 4,79866
1071,12;  177,273;   90,327; 1958,448; 4,65414
1071,66;  220,673;  145,327; 2002,448; 4,05709
1072,21;  206,072;  124,427; 1952,047; 4,46729
1072,75;  188,572;  112,427; 1928,547; 4,19273
1073,29;  165,572;   92,427; 1865,047; 4,12638
1073,84;  191,072;  107,728; 1884,848; 4,68989
1074,38;  174,572;  104,427; 1862,448; 3,99000
1074,92;  184,673;  121,027; 1845,547; 3,69059
1075,47;  200,372;  134,327; 1822,448; 3,91234
1076,01;  206,273;  137,628; 1818,647; 4,08353
1076,56;  173,273;  102,027; 1735,848; 4,36064
1077,10;  160,473;   87,628; 1681,248; 4,57104
1077,64;  172,773;   99,628; 1726,147; 4,49702
1078,19;  197,273;  129,628; 1703,948; 4,29678
1078,73;  184,173;  123,527; 1661,248; 3,94383
1079,27;  205,473;  128,227; 1683,848; 4,96554
1079,81;  191,372;  136,727; 1662,547; 3,58135
1080,36;  181,173;  113,327; 1624,547; 4,48942
1080,90;  180,773;  107,228; 1608,848; 4,89771
1081,44;  151,673;  103,027; 1572,647; 3,31004
1081,99;  155,872;   81,728; 1551,748; 5,04381
1082,53;  190,872;  125,527; 1540,147; 4,61926
1083,07;  174,273;  122,827; 1522,147; 3,67643
1083,62;  178,973;  121,128; 1502,948; 4,18615
1084,16;  164,673;  112,228; 1487,248; 3,81413
1084,70;  187,673;  121,327; 1481,848; 4,87644
1085,24;  173,273;  117,527; 1450,948; 4,18060
1085,79;  156,173;  109,728; 1423,147; 3,53619
1086,33;  150,973;  100,628; 1400,047; 3,87442
1086,87;  165,673;  122,228; 1391,448; 3,42297
1087,41;  153,273;  106,827; 1360,547; 3,70458
1087,96;  183,473;  131,827; 1364,748; 4,18884
1088,50;  157,773;  102,628; 1345,848; 4,43566
1089,04;  185,273;  138,727; 1334,147; 3,89361
1089,58;  149,673;   93,427; 1286,848; 4,71293
1090,13;  147,572;  113,628; 1273,848; 2,92574
1090,67;  165,872;  114,728; 1274,948; 4,40822
1091,21;  152,273;  111,228; 1250,848; 3,60164
1091,75;  148,872;  112,327; 1235,948; 3,25243
1092,29;  163,572;  121,427; 1240,647; 3,76557
1092,84;  161,473;  104,628; 1213,147; 5,12801
1093,38;  195,273;  134,128; 1226,448; 5,59772
1093,92;  179,473;  128,027; 1210,748; 4,75146
1094,46;  173,673;  128,527; 1207,248; 4,18505
1095,00;  151,773;  110,228; 1150,448; 3,99387
1095,54;  139,673;   92,027; 1139,547; 4,54836
1096,09;  159,973;  113,128; 1144,047; 4,54400
1096,63;  166,973;  130,527; 1128,647; 3,65137
1097,17;  154,673;  109,427; 1108,147; 4,53030
1097,71;  180,673;  126,128; 1099,248; 5,60517
1098,25;  150,273;   97,927; 1059,547; 5,44342
1098,79;  166,173;  124,728; 1078,647; 4,34470
1099,33;  165,673;  117,728; 1040,147; 5,19774
1099,88;  161,473;  118,628; 1035,848; 4,67118
1100,42;  131,872;  103,628; 1000,747; 3,14841

