PE UV       SUBTECH     SPECTRUM    ASCII       PEDS        4.00        
   -1
CICIMAUCR0215-3.Sample.ASC
24/06/13
11:59:15.00
24/06/13
11:59:15.00
Vinicio Soto Monge
C. cupreomarginata. Sex M. Dorsal
a
250.000000
1
Lambda 1050
1050L1511233
PerkinElmer UV WinLab 6.3.2.0749 / 2.02.05 Lambda 900 UV/VIS/NIR. Aug  7 2015 09:38:08

0
0
3350/servo 860.8/2
0
0
UV/VIS
1
1
1
DoubleDePol.CommonBeamDepol.RBeamAtt.SBeamAtt.60mm sphere. WB InGaAs Detector
0
0
0
0
Program
Program
3350/servo 860.8/2
3350/0.2 860.8/0.2
3350/0.2 860.8/0.2
0
15.00
 
 
 
0
 
860.8
319.2
860.8
Front
100
on
S:100 R:100
0
0
0
0
 
0
 
 
 
0
 
 
0
0
0
0
0
 
 
 
 
0
0


0
0
#HDR
-1
-1
#GR
nm
%R
1.0
0.0
2500.000000
-1.000000
2251
8
67.988100
5.466400

250.000000	6.631200	6.460100
251.000000	6.662950	6.441300
252.000000	6.588300	6.439000
253.000000	6.576350	6.410800
254.000000	6.571300	6.404200
255.000000	6.559250	6.375500
256.000000	6.542000	6.381800
257.000000	6.497950	6.332900
258.000000	6.488000	6.337900
259.000000	6.466500	6.286900
260.000000	6.449750	6.257000
261.000000	6.436450	6.242200
262.000000	6.392850	6.227700
263.000000	6.354900	6.187300
264.000000	6.316400	6.156500
265.000000	6.273050	6.127900
266.000000	6.249700	6.084800
267.000000	6.232800	6.034300
268.000000	6.189200	6.052400
269.000000	6.161950	6.058700
270.000000	6.159100	6.014100
271.000000	6.152800	5.954000
272.000000	6.088550	5.947500
273.000000	6.093200	5.978600
274.000000	6.099000	5.943800
275.000000	6.083850	5.923200
276.000000	6.096250	5.933800
277.000000	6.082950	5.908900
278.000000	6.045200	5.902400
279.000000	6.040800	5.905900
280.000000	6.052950	5.882600
281.000000	6.085800	5.876800
282.000000	6.065600	5.876700
283.000000	6.044550	5.865600
284.000000	6.018200	5.862200
285.000000	6.016900	5.847000
286.000000	5.976500	5.847700
287.000000	6.028600	5.851100
288.000000	6.040750	5.846900
289.000000	6.035150	5.825200
290.000000	6.016000	5.825500
291.000000	5.969500	5.843700
292.000000	5.960850	5.856700
293.000000	6.006950	5.812200
294.000000	6.017200	5.799000
295.000000	5.974150	5.823500
296.000000	5.980400	5.855000
297.000000	5.994050	5.850800
298.000000	5.963300	5.833300
299.000000	5.976000	5.837000
300.000000	6.005850	5.817900
301.000000	5.963250	5.803900
302.000000	5.932000	5.781500
303.000000	5.956950	5.775100
304.000000	5.958500	5.804000
305.000000	5.922050	5.793200
306.000000	5.933000	5.795500
307.000000	5.978400	5.810800
308.000000	5.945450	5.786100
309.000000	5.904950	5.744400
310.000000	5.905500	5.747100
311.000000	5.912500	5.747600
312.000000	5.865950	5.764400
313.000000	5.856800	5.775900
314.000000	5.890400	5.766000
315.000000	5.903750	5.768400
316.000000	5.980500	5.638000
317.000000	5.967500	5.466400
318.000000	5.979000	5.658900
319.000000	5.978000	5.834600
320.000000	5.884100	5.760200
321.000000	5.933650	5.739500
322.000000	5.868900	5.727600
323.000000	5.874150	5.751600
324.000000	5.819750	5.854600
325.000000	5.863700	5.832600
326.000000	5.874200	5.624400
327.000000	5.973400	5.615500
328.000000	5.961200	5.762900
329.000000	5.815800	5.746300
330.000000	6.011550	5.641900
331.000000	5.959200	5.682700
332.000000	5.878000	5.658200
333.000000	5.870150	5.706300
334.000000	5.813950	5.775200
335.000000	5.947300	5.775200
336.000000	6.016900	5.683300
337.000000	5.981150	5.665300
338.000000	5.881300	5.703800
339.000000	5.874350	5.718500
340.000000	5.924700	5.702900
341.000000	5.971300	5.705900
342.000000	5.993050	5.785600
343.000000	5.896900	5.795100
344.000000	5.808500	5.799300
345.000000	5.839150	5.755400
346.000000	5.895150	5.732500
347.000000	5.933900	5.769900
348.000000	5.970550	5.775600
349.000000	5.890300	5.809400
350.000000	5.876300	5.803500
351.000000	5.914600	5.776300
352.000000	5.950000	5.784600
353.000000	6.007100	5.760000
354.000000	5.939100	5.846000
355.000000	6.004500	5.917300
356.000000	6.001600	5.917400
357.000000	5.945000	5.858100
358.000000	5.995450	5.872400
359.000000	6.152550	5.904700
360.000000	6.102200	5.919100
361.000000	6.033800	5.969400
362.000000	6.096000	5.996900
363.000000	6.149000	5.938400
364.000000	6.088100	5.906900
365.000000	6.118550	5.943000
366.000000	6.190250	6.055800
367.000000	6.152250	6.045700
368.000000	6.159400	6.017100
369.000000	6.172950	6.078400
370.000000	6.138450	6.162000
371.000000	6.293550	6.080400
372.000000	6.333150	6.083300
373.000000	6.305300	6.158000
374.000000	6.246500	6.193000
375.000000	6.289300	6.148700
376.000000	6.338800	6.138300
377.000000	6.335250	6.178700
378.000000	6.353950	6.205000
379.000000	6.397450	6.232100
380.000000	6.448050	6.247000
381.000000	6.490350	6.288200
382.000000	6.490300	6.322300
383.000000	6.528400	6.352300
384.000000	6.581800	6.396500
385.000000	6.649600	6.467800
386.000000	6.690450	6.530800
387.000000	6.738350	6.580200
388.000000	6.795700	6.639800
389.000000	6.874050	6.717600
390.000000	6.944650	6.802700
391.000000	7.021050	6.871800
392.000000	7.122850	6.963100
393.000000	7.241750	7.073300
394.000000	7.351400	7.187700
395.000000	7.472050	7.324100
396.000000	7.602300	7.430700
397.000000	7.749400	7.579000
398.000000	7.891500	7.702100
399.000000	8.056850	7.883200
400.000000	8.246850	8.045500
401.000000	8.474300	8.221700
402.000000	8.667450	8.395600
403.000000	8.885350	8.621700
404.000000	9.114200	8.838200
405.000000	9.380050	9.051400
406.000000	9.609950	9.282200
407.000000	9.886100	9.531800
408.000000	10.161700	9.793500
409.000000	10.430600	10.062400
410.000000	10.705000	10.319000
411.000000	10.981400	10.616200
412.000000	11.282250	10.870000
413.000000	11.601350	11.122300
414.000000	11.908850	11.412500
415.000000	12.181750	11.713400
416.000000	12.478850	11.975200
417.000000	12.800450	12.261500
418.000000	13.102100	12.539000
419.000000	13.389400	12.776600
420.000000	13.668850	13.074500
421.000000	13.969700	13.354500
422.000000	14.234450	13.621700
423.000000	14.556250	13.863100
424.000000	14.845050	14.145300
425.000000	15.057150	14.408900
426.000000	15.332900	14.652700
427.000000	15.580350	14.883000
428.000000	15.822500	15.132700
429.000000	16.061900	15.347200
430.000000	16.290450	15.591100
431.000000	16.513800	15.819100
432.000000	16.792050	16.024400
433.000000	16.995150	16.224000
434.000000	17.198200	16.437300
435.000000	17.438050	16.647300
436.000000	17.639750	16.851400
437.000000	17.840300	17.023400
438.000000	18.038900	17.212400
439.000000	18.258750	17.395200
440.000000	18.449800	17.599700
441.000000	18.635550	17.780000
442.000000	18.814750	17.942600
443.000000	18.975850	18.093600
444.000000	19.145850	18.257900
445.000000	19.254000	18.346600
446.000000	19.376150	18.452000
447.000000	19.457950	18.554100
448.000000	19.550800	18.637800
449.000000	19.640600	18.736900
450.000000	19.703600	18.781700
451.000000	19.745800	18.840600
452.000000	19.749600	18.907800
453.000000	19.786350	18.914900
454.000000	19.779150	18.907800
455.000000	19.752500	18.915800
456.000000	19.744700	18.856600
457.000000	19.621900	18.832300
458.000000	19.535400	18.776600
459.000000	19.433750	18.719300
460.000000	19.317350	18.638800
461.000000	19.219100	18.557400
462.000000	19.070800	18.436300
463.000000	18.950450	18.404300
464.000000	18.829600	18.292300
465.000000	18.736300	18.228000
466.000000	18.685600	18.189500
467.000000	18.628300	18.166000
468.000000	18.609700	18.153600
469.000000	18.640450	18.203100
470.000000	18.697500	18.255500
471.000000	18.839250	18.356900
472.000000	19.008000	18.532700
473.000000	19.207400	18.729900
474.000000	19.496100	18.956900
475.000000	19.821200	19.221600
476.000000	20.189400	19.524800
477.000000	20.594100	19.880700
478.000000	21.040050	20.253000
479.000000	21.475800	20.651800
480.000000	21.945650	21.067300
481.000000	22.451650	21.500200
482.000000	22.948750	21.955300
483.000000	23.453650	22.463200
484.000000	23.910500	22.880000
485.000000	24.384200	23.279600
486.000000	24.858550	23.737500
487.000000	25.261950	24.139400
488.000000	25.717650	24.521700
489.000000	26.084650	24.901300
490.000000	26.523500	25.273400
491.000000	26.859900	25.647400
492.000000	27.283500	26.007100
493.000000	27.633900	26.347500
494.000000	27.949350	26.634900
495.000000	28.275450	26.970100
496.000000	28.611900	27.280100
497.000000	28.894300	27.584700
498.000000	29.183400	27.881900
499.000000	29.489100	28.154900
500.000000	29.742250	28.386500
501.000000	29.964350	28.673300
502.000000	30.188850	28.936800
503.000000	30.494400	29.169800
504.000000	30.679700	29.448900
505.000000	30.925800	29.710700
506.000000	31.186000	29.965800
507.000000	31.463000	30.268700
508.000000	31.745450	30.547100
509.000000	32.049800	30.861800
510.000000	32.399350	31.195700
511.000000	32.769150	31.549200
512.000000	33.203100	31.963000
513.000000	33.611700	32.387200
514.000000	34.084700	32.852900
515.000000	34.568750	33.341400
516.000000	35.131450	33.816200
517.000000	35.683700	34.343100
518.000000	36.215300	34.861400
519.000000	36.848700	35.410300
520.000000	37.467100	36.020500
521.000000	38.083100	36.613900
522.000000	38.751000	37.221100
523.000000	39.429550	37.858500
524.000000	40.016000	38.480300
525.000000	40.655350	39.087600
526.000000	41.299800	39.701500
527.000000	41.902750	40.297800
528.000000	42.463450	40.862400
529.000000	43.069650	41.451800
530.000000	43.635100	42.009200
531.000000	44.181100	42.594000
532.000000	44.749600	43.158800
533.000000	45.358250	43.735200
534.000000	45.907950	44.295700
535.000000	46.521550	44.872500
536.000000	47.123850	45.462100
537.000000	47.787650	46.089000
538.000000	48.478100	46.711000
539.000000	49.167350	47.335800
540.000000	49.919200	48.003000
541.000000	50.689650	48.703100
542.000000	51.479000	49.427300
543.000000	52.327250	50.166900
544.000000	53.095400	50.873700
545.000000	53.890100	51.598600
546.000000	54.696750	52.321700
547.000000	55.481750	53.026200
548.000000	56.173300	53.705700
549.000000	56.889200	54.352900
550.000000	57.609600	55.009300
551.000000	58.332750	55.627100
552.000000	58.951100	56.214700
553.000000	59.578600	56.810500
554.000000	60.212550	57.319700
555.000000	60.727800	57.784800
556.000000	61.152650	58.186500
557.000000	61.520200	58.565900
558.000000	61.795750	58.842600
559.000000	61.934800	59.049100
560.000000	62.066800	59.116000
561.000000	62.128150	59.211000
562.000000	62.080850	59.241200
563.000000	61.985950	59.227500
564.000000	61.869950	59.188500
565.000000	61.805400	59.149700
566.000000	61.707850	59.071200
567.000000	61.637400	58.974400
568.000000	61.579350	58.938100
569.000000	61.557050	58.908100
570.000000	61.619750	58.902100
571.000000	61.688400	58.944600
572.000000	61.785100	58.992000
573.000000	61.881050	59.050100
574.000000	62.049400	59.165500
575.000000	62.195650	59.262500
576.000000	62.406850	59.393800
577.000000	62.554300	59.499200
578.000000	62.647600	59.593100
579.000000	62.694050	59.682400
580.000000	62.709950	59.694200
581.000000	62.676700	59.692900
582.000000	62.573300	59.664100
583.000000	62.361950	59.563800
584.000000	62.169150	59.410700
585.000000	61.906700	59.239900
586.000000	61.739700	59.074000
587.000000	61.549950	58.918000
588.000000	61.340950	58.723100
589.000000	61.152700	58.558400
590.000000	61.064600	58.438100
591.000000	60.976650	58.356800
592.000000	60.942050	58.281300
593.000000	60.991650	58.261100
594.000000	61.023450	58.255000
595.000000	61.064500	58.287900
596.000000	61.219100	58.329600
597.000000	61.387950	58.411200
598.000000	61.527600	58.516900
599.000000	61.641950	58.555000
600.000000	61.774100	58.633200
601.000000	61.887750	58.680400
602.000000	61.942050	58.692800
603.000000	61.893700	58.713000
604.000000	61.793400	58.650000
605.000000	61.660100	58.505100
606.000000	61.438350	58.305400
607.000000	61.158900	58.102200
608.000000	60.830650	57.806400
609.000000	60.441350	57.447600
610.000000	60.026600	57.077100
611.000000	59.540350	56.670300
612.000000	59.045300	56.210900
613.000000	58.561500	55.745800
614.000000	58.016900	55.279200
615.000000	57.511950	54.812700
616.000000	57.022050	54.332300
617.000000	56.605450	53.867100
618.000000	56.155050	53.456600
619.000000	55.687400	53.041400
620.000000	55.298500	52.632600
621.000000	54.892200	52.210900
622.000000	54.476650	51.797200
623.000000	54.048800	51.391300
624.000000	53.598450	50.975200
625.000000	53.101400	50.572600
626.000000	52.594250	50.157700
627.000000	52.072050	49.718800
628.000000	51.498250	49.282500
629.000000	50.924450	48.818100
630.000000	50.302700	48.303000
631.000000	49.695550	47.824400
632.000000	49.084850	47.331800
633.000000	48.468900	46.827400
634.000000	47.912450	46.373600
635.000000	47.369700	45.942400
636.000000	46.862100	45.502700
637.000000	46.435500	45.091600
638.000000	46.097150	44.778200
639.000000	45.840600	44.509000
640.000000	45.616000	44.281600
641.000000	45.424800	44.119300
642.000000	45.304250	43.996500
643.000000	45.248300	43.991400
644.000000	45.252050	43.995600
645.000000	45.286050	44.034900
646.000000	45.310300	44.114800
647.000000	45.360000	44.181200
648.000000	45.470650	44.296800
649.000000	45.613200	44.396000
650.000000	45.707900	44.539000
651.000000	45.861550	44.726000
652.000000	46.109450	44.892600
653.000000	46.398150	45.067400
654.000000	46.635050	45.289100
655.000000	46.860850	45.564700
656.000000	47.215250	45.821600
657.000000	47.528900	46.078000
658.000000	47.864750	46.390700
659.000000	48.206250	46.711400
660.000000	48.520900	46.971200
661.000000	48.865350	47.216600
662.000000	49.209350	47.516100
663.000000	49.531800	47.806700
664.000000	49.836950	48.064700
665.000000	50.130700	48.313000
666.000000	50.416300	48.574000
667.000000	50.681600	48.842800
668.000000	50.980050	49.060800
669.000000	51.198900	49.306700
670.000000	51.419100	49.536900
671.000000	51.685300	49.730500
672.000000	51.968750	49.951800
673.000000	52.211650	50.184000
674.000000	52.435600	50.402300
675.000000	52.693600	50.604900
676.000000	52.923150	50.776500
677.000000	53.069700	50.944900
678.000000	53.259750	51.104500
679.000000	53.421400	51.255900
680.000000	53.563150	51.432300
681.000000	53.717600	51.585200
682.000000	53.845050	51.699400
683.000000	54.007000	51.846300
684.000000	54.147150	51.995200
685.000000	54.220600	52.129900
686.000000	54.349750	52.276100
687.000000	54.494200	52.407400
688.000000	54.648700	52.541100
689.000000	54.738350	52.594000
690.000000	54.821550	52.698100
691.000000	54.899300	52.763000
692.000000	54.993950	52.904800
693.000000	55.130100	53.044000
694.000000	55.276150	53.155600
695.000000	55.399900	53.272600
696.000000	55.462300	53.434600
697.000000	55.587150	53.539300
698.000000	55.750500	53.596600
699.000000	55.729050	53.690700
700.000000	55.857350	53.840800
701.000000	55.984750	53.939200
702.000000	56.031650	54.023300
703.000000	56.086850	54.158000
704.000000	56.152800	54.209500
705.000000	56.321900	54.254600
706.000000	56.294050	54.342300
707.000000	56.381500	54.451600
708.000000	56.524250	54.507100
709.000000	56.606950	54.603900
710.000000	56.703550	54.792500
711.000000	56.824400	54.898600
712.000000	56.871200	54.919900
713.000000	56.968800	55.035400
714.000000	57.140050	55.240300
715.000000	57.292050	55.369500
716.000000	57.432350	55.517100
717.000000	57.564800	55.668000
718.000000	57.712750	55.815800
719.000000	57.979500	55.970500
720.000000	58.169550	56.134900
721.000000	58.381350	56.342200
722.000000	58.461450	56.562300
723.000000	58.740300	56.600600
724.000000	58.960450	56.817100
725.000000	59.096250	57.031000
726.000000	59.271250	57.238600
727.000000	59.482450	57.345700
728.000000	59.655550	57.561400
729.000000	59.827250	57.757100
730.000000	60.119250	57.905700
731.000000	60.298450	58.044300
732.000000	60.430500	58.224800
733.000000	60.527600	58.408100
734.000000	60.677750	58.508700
735.000000	60.883600	58.685400
736.000000	60.906900	58.835400
737.000000	61.148550	58.969400
738.000000	61.132750	58.999100
739.000000	61.326200	59.140900
740.000000	61.474550	59.287400
741.000000	61.530800	59.324300
742.000000	61.636900	59.484300
743.000000	61.731950	59.528600
744.000000	61.729550	59.724400
745.000000	61.820900	59.704300
746.000000	61.918000	59.762900
747.000000	61.898000	59.845600
748.000000	61.910650	59.976500
749.000000	61.951000	60.027200
750.000000	61.974950	60.058400
751.000000	61.959750	60.143800
752.000000	62.155050	60.274400
753.000000	62.220050	60.312700
754.000000	62.314850	60.329500
755.000000	62.505200	60.490700
756.000000	62.545750	60.578000
757.000000	62.465500	60.606100
758.000000	62.662150	60.686100
759.000000	62.645250	60.723700
760.000000	62.633550	60.889200
761.000000	62.752400	61.023200
762.000000	62.909450	60.970800
763.000000	63.022450	61.118600
764.000000	63.237050	61.139900
765.000000	63.264850	61.423000
766.000000	63.380400	61.412800
767.000000	63.383350	61.504800
768.000000	63.480150	61.682800
769.000000	63.670100	61.819500
770.000000	63.781250	62.031200
771.000000	64.026900	62.081900
772.000000	63.938050	62.161800
773.000000	63.963900	62.327600
774.000000	64.278600	62.370700
775.000000	64.356450	62.467100
776.000000	64.449500	62.468100
777.000000	64.667250	62.857800
778.000000	64.736150	62.797800
779.000000	64.907900	62.909700
780.000000	64.890100	63.071500
781.000000	64.979700	63.247900
782.000000	65.169100	63.451300
783.000000	65.227450	63.487100
784.000000	65.695250	63.770200
785.000000	65.644150	63.709200
786.000000	65.709800	64.016300
787.000000	65.841350	64.140900
788.000000	66.039600	64.242200
789.000000	66.041650	64.354500
790.000000	66.303850	64.338700
791.000000	66.528650	64.657400
792.000000	66.728400	64.674800
793.000000	66.583300	64.799700
794.000000	66.825150	64.986200
795.000000	66.915650	65.076400
796.000000	66.967250	65.329300
797.000000	67.360200	65.399000
798.000000	67.210200	65.528400
799.000000	67.387900	65.491400
800.000000	67.538000	65.775600
801.000000	67.905150	65.752900
802.000000	67.797200	65.864900
803.000000	67.831800	66.006200
804.000000	68.012700	66.245300
805.000000	68.305300	66.402300
806.000000	68.136100	66.305500
807.000000	68.478400	66.557000
808.000000	68.529800	66.560500
809.000000	68.542350	66.710300
810.000000	68.446150	66.701700
811.000000	68.761650	67.045600
812.000000	68.913350	67.087900
813.000000	68.787750	67.050500
814.000000	69.047100	67.137200
815.000000	69.015100	67.136900
816.000000	68.805800	67.279800
817.000000	69.064350	67.148700
818.000000	68.851050	67.247100
819.000000	69.075550	67.416700
820.000000	68.962350	67.669500
821.000000	69.094900	67.389700
822.000000	69.272300	67.398900
823.000000	69.182350	67.454600
824.000000	69.260750	67.342800
825.000000	69.099750	67.601200
826.000000	69.160400	67.429300
827.000000	69.178450	67.521100
828.000000	69.236850	67.398000
829.000000	69.429650	67.197100
830.000000	69.167200	67.485700
831.000000	69.371750	67.539100
832.000000	69.599150	67.648900
833.000000	69.323850	67.776100
834.000000	69.212650	67.454600
835.000000	69.328450	67.636300
836.000000	69.249950	67.717500
837.000000	69.310100	67.575100
838.000000	69.374600	67.685200
839.000000	69.479100	67.901500
840.000000	69.342300	67.641000
841.000000	69.276500	67.508200
842.000000	69.092550	67.725500
843.000000	69.143250	67.732900
844.000000	69.474900	67.707300
845.000000	69.283250	67.480500
846.000000	68.891150	67.772900
847.000000	69.060750	67.988100
848.000000	68.903200	67.458200
849.000000	69.311700	67.697200
850.000000	69.017350	67.592100
851.000000	68.514550	67.986800
852.000000	68.750600	67.501600
853.000000	69.234300	67.359000
854.000000	68.928500	67.178400
855.000000	69.037800	67.317100
856.000000	69.269900	67.280500
857.000000	68.098150	66.619300
858.000000	68.801950	67.072300
859.000000	68.701974	66.984908
860.000000	68.593111	66.876399
861.000000	68.516089	66.775627
862.000000	68.378572	66.668164
863.000000	68.257024	66.557669
864.000000	68.111013	66.440275
865.000000	67.983682	66.319954
866.000000	67.875523	66.207055
867.000000	67.738843	66.080044
868.000000	67.598426	65.930139
869.000000	67.445752	65.798319
870.000000	67.320310	65.658659
871.000000	67.150192	65.536561
872.000000	67.005597	65.427948
873.000000	66.851352	65.390002
874.000000	66.712629	65.405891
875.000000	66.556939	65.400560
876.000000	66.396890	65.329894
877.000000	66.264425	65.277730
878.000000	66.122010	65.222430
879.000000	65.970745	65.161172
880.000000	65.855806	65.071794
881.000000	65.718325	64.982207
882.000000	65.603055	64.893769
883.000000	65.466804	64.800941
884.000000	65.343300	64.706754
885.000000	65.210927	64.604936
886.000000	65.094921	64.510645
887.000000	64.991997	64.427434
888.000000	64.885172	64.323107
889.000000	64.771563	64.221289
890.000000	64.665042	64.150936
891.000000	64.561791	64.058526
892.000000	64.453026	63.983051
893.000000	64.345561	63.893673
894.000000	64.235996	63.802727
895.000000	64.116461	63.701327
896.000000	64.034029	63.626688
897.000000	63.970668	63.557694
898.000000	63.904951	63.488805
899.000000	63.837741	63.424411
900.000000	63.781735	63.353326
901.000000	63.725583	63.301476
902.000000	63.670830	63.257362
903.000000	63.603623	63.201122
904.000000	63.542846	63.146763
905.000000	63.490109	63.097213
906.000000	63.417984	63.060835
907.000000	63.351221	63.007521
908.000000	63.301601	62.965393
909.000000	63.246474	62.926192
910.000000	63.170773	62.881869
911.000000	63.100462	62.823747
912.000000	63.028534	62.775556
913.000000	62.967258	62.715448
914.000000	62.888797	62.655130
915.000000	62.813190	62.589900
916.000000	62.717004	62.521220
917.000000	62.623181	62.451180
918.000000	62.523817	62.379469
919.000000	62.438147	62.288836
920.000000	62.345528	62.201026
921.000000	62.227611	62.122206
922.000000	62.115839	62.041399
923.000000	62.009953	61.949826
924.000000	61.896915	61.838077
925.000000	61.790440	61.743263
926.000000	61.681002	61.648657
927.000000	61.557073	61.554157
928.000000	61.448408	61.462897
929.000000	61.343474	61.351880
930.000000	61.233158	61.236054
931.000000	61.108419	61.132249
932.000000	60.985874	61.023427
933.000000	60.872823	60.903420
934.000000	60.761566	60.791044
935.000000	60.648668	60.689017
936.000000	60.546664	60.587930
937.000000	60.453267	60.508901
938.000000	60.373931	60.428095
939.000000	60.308662	60.332549
940.000000	60.237277	60.268468
941.000000	60.167930	60.217873
942.000000	60.119791	60.163305
943.000000	60.072633	60.104974
944.000000	60.011640	60.051451
945.000000	59.964713	60.008801
946.000000	59.928987	59.960087
947.000000	59.887898	59.913568
948.000000	59.855820	59.897470
949.000000	59.836175	59.867050
950.000000	59.818925	59.837675
951.000000	59.794872	59.824713
952.000000	59.775853	59.818336
953.000000	59.757801	59.798265
954.000000	59.739788	59.790320
955.000000	59.727070	59.783839
956.000000	59.725603	59.751433
957.000000	59.728219	59.766800
958.000000	59.702855	59.782689
959.000000	59.685175	59.764814
960.000000	59.692508	59.770563
961.000000	59.678431	59.784257
962.000000	59.660887	59.803701
963.000000	59.660571	59.802969
964.000000	59.648211	59.780076
965.000000	59.640649	59.780912
966.000000	59.630546	59.784676
967.000000	59.611180	59.782689
968.000000	59.594223	59.782271
969.000000	59.574349	59.784257
970.000000	59.561788	59.786139
971.000000	59.545851	59.784153
972.000000	59.516803	59.766173
973.000000	59.491957	59.749865
974.000000	59.472286	59.755405
975.000000	59.431165	59.737739
976.000000	59.401854	59.714950
977.000000	59.377913	59.699792
978.000000	59.340055	59.676585
979.000000	59.305890	59.661428
980.000000	59.265017	59.641775
981.000000	59.217928	59.602887
982.000000	59.179712	59.573304
983.000000	59.146175	59.556892
984.000000	59.112280	59.517272
985.000000	59.088244	59.486016
986.000000	59.045240	59.453610
987.000000	58.999315	59.430089
988.000000	58.984730	59.413155
989.000000	58.954633	59.389425
990.000000	58.937246	59.372699
991.000000	58.922618	59.357855
992.000000	58.888952	59.338098
993.000000	58.876154	59.334021
994.000000	58.862890	59.305064
995.000000	58.853124	59.295133
996.000000	58.841330	59.296910
997.000000	58.843805	59.295133
998.000000	58.841379	59.280289
999.000000	58.842176	59.292102
1000.000000	58.849007	59.294402
1001.000000	58.854450	59.308514
1002.000000	58.874038	59.317190
1003.000000	58.873978	59.318758
1004.000000	58.893286	59.343324
1005.000000	58.922039	59.343638
1006.000000	58.944474	59.359318
1007.000000	58.959505	59.396011
1008.000000	58.980832	59.413677
1009.000000	59.020510	59.445456
1010.000000	59.054555	59.474517
1011.000000	59.089895	59.510687
1012.000000	59.143002	59.565673
1013.000000	59.173045	59.612191
1014.000000	59.241697	59.653483
1015.000000	59.308138	59.715159
1016.000000	59.361269	59.789171
1017.000000	59.419250	59.854087
1018.000000	59.498804	59.904265
1019.000000	59.563210	59.974722
1020.000000	59.650412	60.078735
1021.000000	59.722720	60.152747
1022.000000	59.789600	60.226967
1023.000000	59.888932	60.300665
1024.000000	59.960361	60.392343
1025.000000	60.030815	60.481199
1026.000000	60.120987	60.549252
1027.000000	60.200941	60.633404
1028.000000	60.265057	60.696021
1029.000000	60.335228	60.789789
1030.000000	60.414774	60.857947
1031.000000	60.472571	60.947221
1032.000000	60.551462	61.028550
1033.000000	60.629428	61.100470
1034.000000	60.686841	61.138522
1035.000000	60.742034	61.239712
1036.000000	60.804419	61.294594
1037.000000	60.872192	61.369337
1038.000000	60.924283	61.424950
1039.000000	60.982282	61.492794
1040.000000	61.026880	61.578409
1041.000000	61.087978	61.625973
1042.000000	61.125246	61.693712
1043.000000	61.177160	61.745353
1044.000000	61.234884	61.805880
1045.000000	61.278255	61.879787
1046.000000	61.327990	61.902784
1047.000000	61.367357	61.964461
1048.000000	61.414205	62.014220
1049.000000	61.459471	62.061679
1050.000000	61.500630	62.121997
1051.000000	61.529137	62.183568
1052.000000	61.588837	62.223815
1053.000000	61.635619	62.297513
1054.000000	61.668604	62.345913
1055.000000	61.715406	62.404244
1056.000000	61.769521	62.453376
1057.000000	61.808893	62.498849
1058.000000	61.841245	62.522474
1059.000000	61.862002	62.585927
1060.000000	61.917590	62.623456
1061.000000	61.953633	62.656907
1062.000000	61.985001	62.708653
1063.000000	62.018785	62.739073
1064.000000	62.046334	62.787577
1065.000000	62.072422	62.808380
1066.000000	62.099246	62.861484
1067.000000	62.126280	62.878628
1068.000000	62.145686	62.945427
1069.000000	62.182141	62.934451
1070.000000	62.210724	62.985778
1071.000000	62.252575	63.013793
1072.000000	62.253147	63.054040
1073.000000	62.296447	63.083205
1074.000000	62.320084	63.087282
1075.000000	62.337745	63.109026
1076.000000	62.365494	63.151990
1077.000000	62.383842	63.180110
1078.000000	62.400790	63.199031
1079.000000	62.427005	63.231542
1080.000000	62.468766	63.243041
1081.000000	62.482841	63.304613
1082.000000	62.505670	63.312557
1083.000000	62.524128	63.358135
1084.000000	62.539503	63.355103
1085.000000	62.582343	63.398695
1086.000000	62.594264	63.416362
1087.000000	62.624516	63.467480
1088.000000	62.660231	63.470720
1089.000000	62.671830	63.493509
1090.000000	62.689752	63.510862
1091.000000	62.718831	63.547032
1092.000000	62.732464	63.564280
1093.000000	62.751081	63.569507
1094.000000	62.768286	63.614353
1095.000000	62.782929	63.639546
1096.000000	62.805095	63.641637
1097.000000	62.831985	63.643205
1098.000000	62.837915	63.651045
1099.000000	62.851283	63.710630
1100.000000	62.858202	63.705717
1101.000000	62.887802	63.709272
1102.000000	62.899597	63.730074
1103.000000	62.900754	63.729552
1104.000000	62.925071	63.784747
1105.000000	62.943376	63.787360
1106.000000	62.960015	63.805236
1107.000000	62.973546	63.817989
1108.000000	62.994426	63.834715
1109.000000	63.002600	63.848409
1110.000000	63.023104	63.859699
1111.000000	63.046602	63.899632
1112.000000	63.059003	63.909981
1113.000000	63.068529	63.920852
1114.000000	63.085508	63.935801
1115.000000	63.108922	63.965907
1116.000000	63.129148	64.002286
1117.000000	63.138826	63.988487
1118.000000	63.138882	63.996746
1119.000000	63.132480	63.989951
1120.000000	63.122777	63.979079
1121.000000	63.122943	63.992669
1122.000000	63.102161	63.964758
1123.000000	63.063781	63.932456
1124.000000	63.002046	63.899841
1125.000000	62.961787	63.863462
1126.000000	62.884311	63.796873
1127.000000	62.806609	63.729656
1128.000000	62.691586	63.631497
1129.000000	62.551395	63.514625
1130.000000	62.386688	63.373084
1131.000000	62.204459	63.195059
1132.000000	62.018771	63.038255
1133.000000	61.847102	62.842250
1134.000000	61.618035	62.662448
1135.000000	61.374490	62.433827
1136.000000	61.117250	62.201026
1137.000000	60.862963	61.962265
1138.000000	60.635045	61.734063
1139.000000	60.423553	61.511402
1140.000000	60.208344	61.317069
1141.000000	60.007153	61.124618
1142.000000	59.810263	60.925268
1143.000000	59.629629	60.758847
1144.000000	59.492143	60.613960
1145.000000	59.360787	60.477331
1146.000000	59.254738	60.360042
1147.000000	59.160863	60.261882
1148.000000	59.087964	60.168741
1149.000000	59.021934	60.100270
1150.000000	58.941645	60.029708
1151.000000	58.870067	59.952874
1152.000000	58.772267	59.854401
1153.000000	58.657195	59.728435
1154.000000	58.520674	59.583235
1155.000000	58.356489	59.431239
1156.000000	58.169549	59.279244
1157.000000	57.972843	59.080834
1158.000000	57.756665	58.884098
1159.000000	57.545204	58.679416
1160.000000	57.316561	58.448182
1161.000000	57.098111	58.264513
1162.000000	56.875199	58.049796
1163.000000	56.637757	57.824939
1164.000000	56.402208	57.600813
1165.000000	56.183536	57.413589
1166.000000	55.953294	57.207653
1167.000000	55.743060	57.017189
1168.000000	55.538795	56.812298
1169.000000	55.321813	56.600299
1170.000000	55.111866	56.419243
1171.000000	54.912825	56.258257
1172.000000	54.715299	56.074274
1173.000000	54.535686	55.887259
1174.000000	54.347580	55.726169
1175.000000	54.145195	55.544903
1176.000000	53.930476	55.354125
1177.000000	53.700604	55.151116
1178.000000	53.432823	54.926468
1179.000000	53.163617	54.668892
1180.000000	52.889822	54.424591
1181.000000	52.623765	54.188235
1182.000000	52.404418	53.976654
1183.000000	52.228319	53.806678
1184.000000	52.124851	53.709773
1185.000000	52.097048	53.678935
1186.000000	52.142524	53.702142
1187.000000	52.243509	53.772286
1188.000000	52.407200	53.890516
1189.000000	52.602226	54.053383
1190.000000	52.826126	54.239562
1191.000000	53.067668	54.447589
1192.000000	53.280221	54.638262
1193.000000	53.473326	54.797680
1194.000000	53.636868	54.934622
1195.000000	53.769015	55.061111
1196.000000	53.872699	55.166065
1197.000000	53.949714	55.244467
1198.000000	54.020772	55.306666
1199.000000	54.079805	55.370851
1200.000000	54.124146	55.434513
1201.000000	54.166097	55.472774
1202.000000	54.215393	55.515320
1203.000000	54.262443	55.560584
1204.000000	54.318719	55.609820
1205.000000	54.376463	55.668988
1206.000000	54.447289	55.724601
1207.000000	54.525650	55.782618
1208.000000	54.605496	55.871683
1209.000000	54.701171	55.954371
1210.000000	54.795189	56.038732
1211.000000	54.869051	56.137414
1212.000000	54.953280	56.226792
1213.000000	55.049234	56.305298
1214.000000	55.153247	56.386105
1215.000000	55.257059	56.478410
1216.000000	55.349464	56.569775
1217.000000	55.446860	56.663230
1218.000000	55.554999	56.761285
1219.000000	55.672444	56.865925
1220.000000	55.786302	56.962098
1221.000000	55.896081	57.067680
1222.000000	56.011905	57.178906
1223.000000	56.127308	57.263058
1224.000000	56.242044	57.366444
1225.000000	56.355477	57.480492
1226.000000	56.458295	57.569139
1227.000000	56.573068	57.658935
1228.000000	56.685689	57.752286
1229.000000	56.783157	57.841874
1230.000000	56.888479	57.943901
1231.000000	56.997612	58.043523
1232.000000	57.103859	58.124121
1233.000000	57.205069	58.209527
1234.000000	57.296322	58.305700
1235.000000	57.380720	58.388597
1236.000000	57.468152	58.457382
1237.000000	57.548917	58.535052
1238.000000	57.631931	58.610841
1239.000000	57.715394	58.675444
1240.000000	57.794311	58.756355
1241.000000	57.875777	58.838729
1242.000000	57.953752	58.913681
1243.000000	58.030951	58.986752
1244.000000	58.104274	59.037138
1245.000000	58.158437	59.107491
1246.000000	58.220686	59.181189
1247.000000	58.282432	59.221749
1248.000000	58.340184	59.297747
1249.000000	58.389106	59.360991
1250.000000	58.431453	59.398310
1251.000000	58.481898	59.436675
1252.000000	58.503845	59.463123
1253.000000	58.530880	59.487898
1254.000000	58.561292	59.524799
1255.000000	58.585820	59.550724
1256.000000	58.612690	59.564941
1257.000000	58.634322	59.594211
1258.000000	58.645193	59.612087
1259.000000	58.659458	59.625154
1260.000000	58.678564	59.639370
1261.000000	58.685750	59.654215
1262.000000	58.696915	59.664250
1263.000000	58.697430	59.665191
1264.000000	58.703381	59.672299
1265.000000	58.705602	59.677003
1266.000000	58.711401	59.674913
1267.000000	58.718109	59.677317
1268.000000	58.719065	59.684216
1269.000000	58.717588	59.680976
1270.000000	58.711501	59.663518
1271.000000	58.704216	59.653587
1272.000000	58.705124	59.668641
1273.000000	58.700378	59.664877
1274.000000	58.709759	59.658396
1275.000000	58.718762	59.665714
1276.000000	58.716378	59.662055
1277.000000	58.725331	59.663309
1278.000000	58.739545	59.685471
1279.000000	58.752102	59.679721
1280.000000	58.755752	59.672090
1281.000000	58.772922	59.679512
1282.000000	58.787385	59.708469
1283.000000	58.790323	59.712232
1284.000000	58.798233	59.709932
1285.000000	58.805577	59.702719
1286.000000	58.811279	59.714532
1287.000000	58.801904	59.726240
1288.000000	58.797923	59.703242
1289.000000	58.795601	59.689966
1290.000000	58.787404	59.664668
1291.000000	58.772312	59.657664
1292.000000	58.757390	59.647106
1293.000000	58.738153	59.625990
1294.000000	58.716046	59.595883
1295.000000	58.686482	59.569749
1296.000000	58.669692	59.536193
1297.000000	58.634847	59.519259
1298.000000	58.594862	59.471590
1299.000000	58.569805	59.417231
1300.000000	58.529502	59.387648
1301.000000	58.479818	59.337575
1302.000000	58.445199	59.296074
1303.000000	58.401471	59.250392
1304.000000	58.341771	59.189447
1305.000000	58.306692	59.131430
1306.000000	58.244036	59.083971
1307.000000	58.193215	59.012782
1308.000000	58.125539	58.944310
1309.000000	58.064247	58.871553
1310.000000	57.987144	58.805800
1311.000000	57.906237	58.733566
1312.000000	57.833360	58.640424
1313.000000	57.757152	58.543415
1314.000000	57.674819	58.444733
1315.000000	57.581373	58.371453
1316.000000	57.505699	58.256777
1317.000000	57.397831	58.167921
1318.000000	57.293852	58.081679
1319.000000	57.201591	57.963763
1320.000000	57.115182	57.840305
1321.000000	57.005772	57.743505
1322.000000	56.905283	57.642314
1323.000000	56.798913	57.498055
1324.000000	56.678816	57.394564
1325.000000	56.552768	57.270689
1326.000000	56.433167	57.134165
1327.000000	56.315365	57.008303
1328.000000	56.178959	56.864462
1329.000000	56.047591	56.728774
1330.000000	55.901757	56.570506
1331.000000	55.759631	56.427187
1332.000000	55.614740	56.271847
1333.000000	55.446465	56.097585
1334.000000	55.278763	55.944127
1335.000000	55.136707	55.769551
1336.000000	54.961991	55.606684
1337.000000	54.797055	55.428555
1338.000000	54.614300	55.250425
1339.000000	54.455058	55.060902
1340.000000	54.259724	54.877336
1341.000000	54.061746	54.689799
1342.000000	53.869021	54.512924
1343.000000	53.705974	54.322982
1344.000000	53.467230	54.127290
1345.000000	53.266028	53.898252
1346.000000	53.089939	53.715837
1347.000000	52.868965	53.524222
1348.000000	52.649948	53.297692
1349.000000	52.387095	53.066877
1350.000000	52.126873	52.810241
1351.000000	51.859600	52.550574
1352.000000	51.564533	52.310350
1353.000000	51.382589	52.091869
1354.000000	51.175977	51.916458
1355.000000	50.991413	51.717212
1356.000000	50.860171	51.567412
1357.000000	50.760661	51.484724
1358.000000	50.692780	51.401514
1359.000000	50.594187	51.336492
1360.000000	50.622231	51.290601
1361.000000	50.536322	51.222339
1362.000000	50.435829	51.132856
1363.000000	50.278706	50.940719
1364.000000	50.173844	50.883538
1365.000000	50.006609	50.719207
1366.000000	49.885671	50.582474
1367.000000	49.711733	50.459644
1368.000000	49.526269	50.266357
1369.000000	49.325837	50.045577
1370.000000	49.130173	49.855426
1371.000000	48.908214	49.656598
1372.000000	48.678753	49.483068
1373.000000	48.466620	49.203644
1374.000000	48.299596	49.050394
1375.000000	48.148918	48.892126
1376.000000	48.012344	48.739817
1377.000000	47.840649	48.537436
1378.000000	47.716080	48.389203
1379.000000	47.519870	48.162987
1380.000000	47.341158	47.932904
1381.000000	47.057917	47.720591
1382.000000	46.721778	47.369454
1383.000000	46.327498	46.956119
1384.000000	45.948640	46.553237
1385.000000	45.532466	46.103210
1386.000000	45.170953	45.698446
1387.000000	44.818041	45.334765
1388.000000	44.472623	44.927493
1389.000000	44.117394	44.454990
1390.000000	43.837676	44.129569
1391.000000	43.551333	43.777910
1392.000000	43.262723	43.439109
1393.000000	43.015718	43.070201
1394.000000	42.809220	42.806875
1395.000000	42.529368	42.475391
1396.000000	42.166579	42.053589
1397.000000	41.855897	41.634817
1398.000000	41.608914	41.328631
1399.000000	41.357826	41.071159
1400.000000	41.059978	40.704133
1401.000000	40.635328	40.288602
1402.000000	40.273742	39.833662
1403.000000	39.922736	39.494547
1404.000000	39.606005	39.132120
1405.000000	39.260821	38.714812
1406.000000	38.914972	38.326461
1407.000000	38.607227	37.984001
1408.000000	38.277121	37.608926
1409.000000	37.946466	37.276919
1410.000000	37.608241	36.875292
1411.000000	37.299244	36.517883
1412.000000	37.065058	36.227378
1413.000000	36.825990	35.955584
1414.000000	36.567920	35.650025
1415.000000	36.275297	35.333804
1416.000000	36.027541	35.040267
1417.000000	35.824956	34.777881
1418.000000	35.585832	34.562537
1419.000000	35.383730	34.312069
1420.000000	35.125485	34.022817
1421.000000	34.897690	33.775590
1422.000000	34.729557	33.551151
1423.000000	34.538615	33.340824
1424.000000	34.334265	33.121508
1425.000000	34.130768	32.908673
1426.000000	33.947290	32.703573
1427.000000	33.790982	32.533388
1428.000000	33.620210	32.374807
1429.000000	33.462852	32.183611
1430.000000	33.334296	32.014367
1431.000000	33.205135	31.869271
1432.000000	33.077358	31.747486
1433.000000	32.944536	31.579497
1434.000000	32.822829	31.457712
1435.000000	32.694463	31.306867
1436.000000	32.583816	31.177033
1437.000000	32.485790	31.081905
1438.000000	32.369360	30.950399
1439.000000	32.248670	30.824956
1440.000000	32.143979	30.715402
1441.000000	32.047658	30.617452
1442.000000	31.935640	30.491172
1443.000000	31.844424	30.395836
1444.000000	31.764983	30.305725
1445.000000	31.679695	30.227637
1446.000000	31.580827	30.126551
1447.000000	31.473120	30.028496
1448.000000	31.379397	29.934204
1449.000000	31.320781	29.869079
1450.000000	31.257869	29.807193
1451.000000	31.164398	29.725551
1452.000000	31.092300	29.653421
1453.000000	31.010776	29.572614
1454.000000	30.943096	29.512715
1455.000000	30.877203	29.442258
1456.000000	30.815905	29.383613
1457.000000	30.759529	29.318696
1458.000000	30.713314	29.277300
1459.000000	30.674609	29.236949
1460.000000	30.629076	29.216774
1461.000000	30.587780	29.174437
1462.000000	30.546425	29.140567
1463.000000	30.513820	29.125723
1464.000000	30.499022	29.107638
1465.000000	30.488668	29.094989
1466.000000	30.467331	29.085058
1467.000000	30.454445	29.080250
1468.000000	30.436709	29.089972
1469.000000	30.430142	29.101993
1470.000000	30.437796	29.100948
1471.000000	30.439160	29.111715
1472.000000	30.432300	29.117046
1473.000000	30.423228	29.128545
1474.000000	30.416059	29.133563
1475.000000	30.420205	29.136386
1476.000000	30.432414	29.166910
1477.000000	30.442196	29.206738
1478.000000	30.458958	29.235172
1479.000000	30.475020	29.263188
1480.000000	30.492707	29.289949
1481.000000	30.519819	29.337095
1482.000000	30.533841	29.381522
1483.000000	30.556415	29.422292
1484.000000	30.594265	29.475187
1485.000000	30.633950	29.525782
1486.000000	30.669177	29.581082
1487.000000	30.696581	29.642026
1488.000000	30.728851	29.696280
1489.000000	30.770103	29.737363
1490.000000	30.808950	29.795172
1491.000000	30.848813	29.855384
1492.000000	30.889829	29.915074
1493.000000	30.936267	29.984382
1494.000000	30.982551	30.043863
1495.000000	31.025026	30.112647
1496.000000	31.075289	30.187077
1497.000000	31.140225	30.254816
1498.000000	31.196934	30.332278
1499.000000	31.257167	30.408171
1500.000000	31.323349	30.492845
1501.000000	31.387366	30.578146
1502.000000	31.457771	30.668675
1503.000000	31.522748	30.748854
1504.000000	31.597368	30.828615
1505.000000	31.675997	30.927192
1506.000000	31.741317	31.018557
1507.000000	31.812486	31.113371
1508.000000	31.884701	31.209126
1509.000000	31.961989	31.299445
1510.000000	32.039902	31.385687
1511.000000	32.107593	31.465553
1512.000000	32.173316	31.561621
1513.000000	32.245723	31.646191
1514.000000	32.314304	31.735987
1515.000000	32.379954	31.829024
1516.000000	32.436854	31.906381
1517.000000	32.497836	31.988442
1518.000000	32.567975	32.072593
1519.000000	32.622670	32.151414
1520.000000	32.680643	32.221662
1521.000000	32.744613	32.298809
1522.000000	32.801367	32.375852
1523.000000	32.849226	32.448819
1524.000000	32.903127	32.513840
1525.000000	32.960475	32.581997
1526.000000	33.014573	32.650573
1527.000000	33.059984	32.723226
1528.000000	33.107378	32.791697
1529.000000	33.155182	32.851073
1530.000000	33.190311	32.912958
1531.000000	33.229720	32.970453
1532.000000	33.274327	33.025335
1533.000000	33.313098	33.085861
1534.000000	33.348365	33.131961
1535.000000	33.384844	33.183498
1536.000000	33.415682	33.234093
1537.000000	33.434896	33.284480
1538.000000	33.461292	33.324726
1539.000000	33.483914	33.371976
1540.000000	33.517004	33.414418
1541.000000	33.543942	33.451214
1542.000000	33.568822	33.482262
1543.000000	33.592886	33.534216
1544.000000	33.622125	33.593593
1545.000000	33.665019	33.629135
1546.000000	33.702905	33.689138
1547.000000	33.735169	33.749560
1548.000000	33.775720	33.792420
1549.000000	33.815217	33.847511
1550.000000	33.848144	33.909605
1551.000000	33.893085	33.962500
1552.000000	33.916002	34.012259
1553.000000	33.946540	34.047697
1554.000000	33.979712	34.098606
1555.000000	34.000242	34.152129
1556.000000	34.012265	34.195825
1557.000000	34.024538	34.209623
1558.000000	34.047477	34.242970
1559.000000	34.058138	34.272868
1560.000000	34.061737	34.291161
1561.000000	34.062022	34.306006
1562.000000	34.064887	34.333603
1563.000000	34.056748	34.355242
1564.000000	34.052283	34.360992
1565.000000	34.047410	34.383989
1566.000000	34.032336	34.385976
1567.000000	34.024281	34.387962
1568.000000	34.029194	34.388694
1569.000000	34.025307	34.396638
1570.000000	34.021456	34.419218
1571.000000	34.016187	34.441275
1572.000000	34.013403	34.444934
1573.000000	34.020437	34.451833
1574.000000	34.022121	34.476922
1575.000000	34.033873	34.493230
1576.000000	34.047985	34.527726
1577.000000	34.067170	34.565150
1578.000000	34.084523	34.593898
1579.000000	34.098416	34.618464
1580.000000	34.118800	34.663728
1581.000000	34.164012	34.697075
1582.000000	34.191459	34.726449
1583.000000	34.212301	34.782481
1584.000000	34.251723	34.819068
1585.000000	34.286998	34.859837
1586.000000	34.325321	34.908342
1587.000000	34.355929	34.957160
1588.000000	34.397424	34.997093
1589.000000	34.430190	35.044239
1590.000000	34.465367	35.097657
1591.000000	34.504125	35.140099
1592.000000	34.547111	35.198952
1593.000000	34.603903	35.252788
1594.000000	34.647835	35.293453
1595.000000	34.681212	35.338299
1596.000000	34.731341	35.390985
1597.000000	34.785577	35.444716
1598.000000	34.832454	35.503570
1599.000000	34.896011	35.567442
1600.000000	34.939238	35.635808
1601.000000	34.993207	35.686822
1602.000000	35.056725	35.738358
1603.000000	35.100756	35.789581
1604.000000	35.156697	35.853766
1605.000000	35.212321	35.918892
1606.000000	35.251914	35.985168
1607.000000	35.315355	36.044440
1608.000000	35.372794	36.092840
1609.000000	35.405872	36.153262
1610.000000	35.466946	36.193090
1611.000000	35.512829	36.228841
1612.000000	35.567227	36.284245
1613.000000	35.605953	36.340486
1614.000000	35.662872	36.386795
1615.000000	35.698434	36.454012
1616.000000	35.762229	36.483073
1617.000000	35.802771	36.551858
1618.000000	35.861124	36.605485
1619.000000	35.913533	36.650226
1620.000000	35.955164	36.693713
1621.000000	36.012601	36.757375
1622.000000	36.065923	36.783823
1623.000000	36.110384	36.836718
1624.000000	36.186642	36.911880
1625.000000	36.233944	36.951394
1626.000000	36.284225	37.028228
1627.000000	36.340469	37.092100
1628.000000	36.419784	37.141023
1629.000000	36.468126	37.211480
1630.000000	36.529569	37.249008
1631.000000	36.571522	37.308385
1632.000000	36.641663	37.363057
1633.000000	36.693355	37.413234
1634.000000	36.731588	37.441250
1635.000000	36.774015	37.504703
1636.000000	36.827185	37.556135
1637.000000	36.872787	37.621679
1638.000000	36.912045	37.650113
1639.000000	36.960594	37.703113
1640.000000	36.980805	37.724647
1641.000000	37.034565	37.768761
1642.000000	37.065040	37.805767
1643.000000	37.104161	37.817580
1644.000000	37.135909	37.858244
1645.000000	37.164383	37.897341
1646.000000	37.200319	37.931629
1647.000000	37.241173	37.962885
1648.000000	37.255906	37.979297
1649.000000	37.272524	38.006790
1650.000000	37.299850	38.033656
1651.000000	37.312625	38.039510
1652.000000	37.322435	38.066898
1653.000000	37.320272	38.045364
1654.000000	37.302633	38.036896
1655.000000	37.301291	38.057072
1656.000000	37.280429	38.027802
1657.000000	37.268484	38.016721
1658.000000	37.223771	37.968216
1659.000000	37.187773	37.945636
1660.000000	37.137230	37.877583
1661.000000	37.071420	37.834201
1662.000000	37.018711	37.784442
1663.000000	36.949125	37.692659
1664.000000	36.854927	37.620529
1665.000000	36.759152	37.554463
1666.000000	36.658406	37.459335
1667.000000	36.559920	37.360444
1668.000000	36.447569	37.222352
1669.000000	36.312950	37.087605
1670.000000	36.145585	36.963834
1671.000000	35.977244	36.792918
1672.000000	35.766167	36.609980
1673.000000	35.547201	36.416170
1674.000000	35.293926	36.190267
1675.000000	35.008395	35.927777
1676.000000	34.683998	35.630268
1677.000000	34.338503	35.335581
1678.000000	33.974004	35.012774
1679.000000	33.587439	34.692998
1680.000000	33.252201	34.378031
1681.000000	32.954074	34.100801
1682.000000	32.718747	33.891938
1683.000000	32.569347	33.726458
1684.000000	32.467030	33.609796
1685.000000	32.405478	33.517908
1686.000000	32.358604	33.433966
1687.000000	32.309673	33.389329
1688.000000	32.242020	33.323785
1689.000000	32.170040	33.263886
1690.000000	32.066871	33.196460
1691.000000	31.982186	33.122240
1692.000000	31.912328	33.057532
1693.000000	31.869982	33.037252
1694.000000	31.864394	33.035997
1695.000000	31.899900	33.066940
1696.000000	31.969610	33.125794
1697.000000	32.058308	33.218517
1698.000000	32.175083	33.314168
1699.000000	32.296363	33.405323
1700.000000	32.409690	33.506723
1701.000000	32.520134	33.614291
1702.000000	32.607254	33.674503
1703.000000	32.652532	33.736180
1704.000000	32.707152	33.778203
1705.000000	32.742291	33.796497
1706.000000	32.777325	33.818136
1707.000000	32.774005	33.824826
1708.000000	32.776019	33.817927
1709.000000	32.744632	33.786566
1710.000000	32.716534	33.751860
1711.000000	32.663557	33.686211
1712.000000	32.592021	33.616695
1713.000000	32.522331	33.531185
1714.000000	32.432310	33.432189
1715.000000	32.344403	33.344065
1716.000000	32.256956	33.225939
1717.000000	32.177840	33.156736
1718.000000	32.097873	33.059936
1719.000000	32.048466	32.975262
1720.000000	31.991257	32.904282
1721.000000	31.943044	32.840306
1722.000000	31.904831	32.790547
1723.000000	31.875076	32.735770
1724.000000	31.823550	32.680157
1725.000000	31.764559	32.634579
1726.000000	31.705839	32.582102
1727.000000	31.642215	32.514990
1728.000000	31.586508	32.464394
1729.000000	31.526910	32.421744
1730.000000	31.476743	32.399896
1731.000000	31.457898	32.378466
1732.000000	31.462522	32.385156
1733.000000	31.489155	32.412963
1734.000000	31.554063	32.474743
1735.000000	31.644246	32.565690
1736.000000	31.761409	32.644301
1737.000000	31.912335	32.759709
1738.000000	32.062252	32.894665
1739.000000	32.220053	33.024603
1740.000000	32.378889	33.145238
1741.000000	32.525371	33.273608
1742.000000	32.658165	33.399051
1743.000000	32.780013	33.494388
1744.000000	32.875408	33.576135
1745.000000	32.967197	33.640007
1746.000000	33.029080	33.690916
1747.000000	33.078838	33.745170
1748.000000	33.107417	33.777785
1749.000000	33.139791	33.781235
1750.000000	33.165805	33.780817
1751.000000	33.162478	33.780921
1752.000000	33.150309	33.770363
1753.000000	33.146687	33.754787
1754.000000	33.112224	33.712345
1755.000000	33.068422	33.674713
1756.000000	33.029297	33.628508
1757.000000	32.979043	33.562232
1758.000000	32.926058	33.521567
1759.000000	32.882959	33.478185
1760.000000	32.834783	33.437416
1761.000000	32.820844	33.407518
1762.000000	32.826443	33.392256
1763.000000	32.830869	33.399992
1764.000000	32.860956	33.412536
1765.000000	32.908140	33.448392
1766.000000	32.970076	33.494074
1767.000000	33.038085	33.543624
1768.000000	33.114256	33.612723
1769.000000	33.188187	33.681821
1770.000000	33.265156	33.740152
1771.000000	33.341996	33.798588
1772.000000	33.423847	33.859950
1773.000000	33.498917	33.914309
1774.000000	33.566610	33.967204
1775.000000	33.627832	34.028044
1776.000000	33.689316	34.086271
1777.000000	33.750433	34.123799
1778.000000	33.810050	34.164464
1779.000000	33.855069	34.206696
1780.000000	33.896733	34.238266
1781.000000	33.931322	34.287712
1782.000000	33.976139	34.327017
1783.000000	34.023011	34.360887
1784.000000	34.070768	34.393502
1785.000000	34.105806	34.420263
1786.000000	34.127663	34.451624
1787.000000	34.157998	34.476817
1788.000000	34.191507	34.507551
1789.000000	34.221428	34.532744
1790.000000	34.248336	34.551456
1791.000000	34.274857	34.577590
1792.000000	34.305990	34.609996
1793.000000	34.338882	34.642612
1794.000000	34.368179	34.664355
1795.000000	34.390580	34.683799
1796.000000	34.415378	34.700838
1797.000000	34.442197	34.727913
1798.000000	34.473742	34.761783
1799.000000	34.507894	34.789589
1800.000000	34.545443	34.831090
1801.000000	34.577064	34.862974
1802.000000	34.596319	34.893289
1803.000000	34.626170	34.913360
1804.000000	34.651629	34.926113
1805.000000	34.682484	34.968973
1806.000000	34.712896	35.000125
1807.000000	34.732619	35.011101
1808.000000	34.749113	35.039639
1809.000000	34.772502	35.064101
1810.000000	34.801932	35.084381
1811.000000	34.813080	35.105602
1812.000000	34.818533	35.126300
1813.000000	34.830925	35.124941
1814.000000	34.842889	35.122432
1815.000000	34.841009	35.133095
1816.000000	34.838793	35.132363
1817.000000	34.835773	35.145430
1818.000000	34.860644	35.176163
1819.000000	34.908568	35.195607
1820.000000	34.928310	35.210347
1821.000000	34.926875	35.226445
1822.000000	34.908631	35.203552
1823.000000	34.907112	35.188917
1824.000000	34.935807	35.215678
1825.000000	34.976056	35.236794
1826.000000	34.994198	35.272755
1827.000000	35.044963	35.311538
1828.000000	35.106462	35.349066
1829.000000	35.136431	35.384922
1830.000000	35.164429	35.403111
1831.000000	35.189976	35.417014
1832.000000	35.230831	35.436667
1833.000000	35.272593	35.493535
1834.000000	35.320594	35.554375
1835.000000	35.370756	35.595144
1836.000000	35.389978	35.621069
1837.000000	35.417834	35.632359
1838.000000	35.451174	35.644589
1839.000000	35.477302	35.669260
1840.000000	35.484252	35.678564
1841.000000	35.460266	35.652430
1842.000000	35.421180	35.601416
1843.000000	35.418598	35.568905
1844.000000	35.441854	35.586572
1845.000000	35.486676	35.613960
1846.000000	35.517148	35.661211
1847.000000	35.514627	35.650339
1848.000000	35.513650	35.605806
1849.000000	35.487740	35.557615
1850.000000	35.452425	35.515487
1851.000000	35.420204	35.474091
1852.000000	35.408895	35.431754
1853.000000	35.394782	35.412624
1854.000000	35.342714	35.352411
1855.000000	35.293871	35.264078
1856.000000	35.262360	35.202820
1857.000000	35.194935	35.137171
1858.000000	35.112082	35.022809
1859.000000	35.020430	34.901547
1860.000000	34.899245	34.765860
1861.000000	34.767655	34.605606
1862.000000	34.636105	34.431553
1863.000000	34.529696	34.272868
1864.000000	34.424900	34.137284
1865.000000	34.304102	34.000447
1866.000000	34.172948	33.862355
1867.000000	34.018072	33.693424
1868.000000	33.828626	33.476826
1869.000000	33.580898	33.196147
1870.000000	33.337218	32.883897
1871.000000	33.049885	32.560568
1872.000000	32.732983	32.194901
1873.000000	32.389799	31.805190
1874.000000	32.037759	31.388091
1875.000000	31.670053	30.962107
1876.000000	31.284911	30.526296
1877.000000	30.886997	30.101880
1878.000000	30.467080	29.597703
1879.000000	30.067746	29.133040
1880.000000	29.637677	28.684267
1881.000000	29.189795	28.191589
1882.000000	28.717944	27.665145
1883.000000	28.233711	27.137448
1884.000000	27.756239	26.562499
1885.000000	27.313570	25.992151
1886.000000	26.867152	25.475534
1887.000000	26.470329	24.961112
1888.000000	26.038801	24.493418
1889.000000	25.664053	23.990809
1890.000000	25.256790	23.508270
1891.000000	24.802323	22.977123
1892.000000	24.374964	22.426741
1893.000000	24.011924	21.951102
1894.000000	23.665779	21.541112
1895.000000	23.374505	21.145861
1896.000000	23.079057	20.785316
1897.000000	22.731628	20.422890
1898.000000	22.388168	20.043737
1899.000000	22.012031	19.635733
1900.000000	21.645388	19.234524
1901.000000	21.366466	18.841887
1902.000000	21.057982	18.501099
1903.000000	20.771111	18.174320
1904.000000	20.451573	17.893118
1905.000000	20.133432	17.544386
1906.000000	19.808079	17.195235
1907.000000	19.535573	16.869292
1908.000000	19.306365	16.634086
1909.000000	19.114796	16.411529
1910.000000	18.922951	16.221378
1911.000000	18.722233	16.001120
1912.000000	18.458042	15.784208
1913.000000	18.194133	15.534994
1914.000000	17.963933	15.314528
1915.000000	17.775213	15.100438
1916.000000	17.643904	14.910601
1917.000000	17.493709	14.761532
1918.000000	17.309669	14.600651
1919.000000	17.169538	14.451269
1920.000000	17.011386	14.309205
1921.000000	16.836233	14.156269
1922.000000	16.671852	14.010963
1923.000000	16.536395	13.855100
1924.000000	16.454479	13.749519
1925.000000	16.366968	13.653555
1926.000000	16.255885	13.598360
1927.000000	16.166932	13.492569
1928.000000	16.053457	13.403609
1929.000000	15.980925	13.337124
1930.000000	15.931487	13.272521
1931.000000	15.865738	13.181575
1932.000000	15.828885	13.155963
1933.000000	15.796822	13.126484
1934.000000	15.782851	13.126693
1935.000000	15.764421	13.104532
1936.000000	15.767693	13.078189
1937.000000	15.766428	13.088224
1938.000000	15.768505	13.107563
1939.000000	15.789341	13.107772
1940.000000	15.817678	13.127425
1941.000000	15.829998	13.149273
1942.000000	15.858923	13.167462
1943.000000	15.898977	13.209590
1944.000000	15.933188	13.244819
1945.000000	16.000535	13.299909
1946.000000	16.057922	13.351864
1947.000000	16.120635	13.413122
1948.000000	16.188929	13.453996
1949.000000	16.242577	13.515672
1950.000000	16.332241	13.590311
1951.000000	16.403383	13.644878
1952.000000	16.483212	13.733002
1953.000000	16.561949	13.824262
1954.000000	16.631663	13.890120
1955.000000	16.718433	13.969254
1956.000000	16.797561	14.049955
1957.000000	16.893532	14.133271
1958.000000	16.969820	14.212091
1959.000000	17.053450	14.307428
1960.000000	17.138495	14.396388
1961.000000	17.224270	14.474999
1962.000000	17.313414	14.556851
1963.000000	17.400032	14.653024
1964.000000	17.486822	14.743970
1965.000000	17.564695	14.848820
1966.000000	17.649910	14.918754
1967.000000	17.745021	15.013568
1968.000000	17.831955	15.126886
1969.000000	17.918874	15.193161
1970.000000	17.999220	15.315887
1971.000000	18.099880	15.411746
1972.000000	18.199663	15.487117
1973.000000	18.287051	15.603883
1974.000000	18.384513	15.690648
1975.000000	18.474324	15.798320
1976.000000	18.572599	15.903902
1977.000000	18.659686	16.006452
1978.000000	18.753377	16.107538
1979.000000	18.857117	16.208729
1980.000000	18.967885	16.302916
1981.000000	19.050109	16.398148
1982.000000	19.141239	16.512301
1983.000000	19.232124	16.598648
1984.000000	19.323882	16.719074
1985.000000	19.432046	16.821833
1986.000000	19.520146	16.933686
1987.000000	19.608146	17.035191
1988.000000	19.703793	17.126346
1989.000000	19.783248	17.233809
1990.000000	19.878313	17.306566
1991.000000	19.957397	17.411729
1992.000000	20.022517	17.500794
1993.000000	20.110202	17.589859
1994.000000	20.202678	17.684882
1995.000000	20.265980	17.774469
1996.000000	20.332126	17.857680
1997.000000	20.404960	17.946640
1998.000000	20.464286	18.019397
1999.000000	20.518777	18.104176
