PE UV       SUBTECH     SPECTRUM    ASCII       PEDS        4.00        
   -1
CICIMAUCR0212-3.ASC
24/06/06
17:34:18.00
24/06/06
17:34:18.00
Vinicio Soto Monge
C. resplendens. Sex F. Dorsal
250,000000
1
Lambda 1050
1050L1511233
PerkinElmer UV WinLab 6.3.2.0749 / 2.02.05 Lambda 900 UV/VIS/NIR, Aug  7 2015 09:38:08

0
0
3350/servo 860,8/2
0
0
UV/VIS
1
1
1
DoubleDePol,CommonBeamDepol,RBeamAtt,SBeamAtt,60mm sphere, WB InGaAs Detector
0
0
0
0
Program
Program
3350/servo 860,8/2
3350/0,2 860,8/0,2
3350/0,2 860,8/0,2
0
15.00
 
 
 
0
 
860,8
319,2
860,8
Front
100
on
S:100 R:100
0
0
0
0
 
0
 
 
 
0
 
 
0
0
0
0
0
 
 
 
 
0
0


0
0
#HDR
-1
-1
#GR
nm
%R
1.0
0.0
2500,000000
-1,000000
2251
8
89,566500
5,313500
#DATA
250.000000	2232.000000	6.032100
251.000000	2231.000000	6.007133
252.000000	2230.000000	6.004300
253.000000	2229.000000	5.978200
254.000000	2228.000000	5.990933
255.000000	2227.000000	5.979767
256.000000	2226.000000	5.976300
257.000000	2225.000000	5.946033
258.000000	2224.000000	5.935367
259.000000	2223.000000	5.908100
260.000000	2222.000000	5.876633
261.000000	2221.000000	5.884900
262.000000	2220.000000	5.873367
263.000000	2219.000000	5.829933
264.000000	2218.000000	5.801133
265.000000	2217.000000	5.790100
266.000000	2216.000000	5.766567
267.000000	2215.000000	5.765933
268.000000	2214.000000	5.736800
269.000000	2213.000000	5.711400
270.000000	2212.000000	5.695167
271.000000	2211.000000	5.699733
272.000000	2210.000000	5.674400
273.000000	2209.000000	5.663400
274.000000	2208.000000	5.662033
275.000000	2207.000000	5.643233
276.000000	2206.000000	5.632700
277.000000	2205.000000	5.613933
278.000000	2204.000000	5.579333
279.000000	2203.000000	5.561167
280.000000	2202.000000	5.549633
281.000000	2201.000000	5.540800
282.000000	2200.000000	5.520767
283.000000	2199.000000	5.532567
284.000000	2198.000000	5.519800
285.000000	2197.000000	5.496333
286.000000	2196.000000	5.489033
287.000000	2195.000000	5.478533
288.000000	2194.000000	5.449700
289.000000	2193.000000	5.449833
290.000000	2192.000000	5.466333
291.000000	2191.000000	5.451500
292.000000	2190.000000	5.427433
293.000000	2189.000000	5.409033
294.000000	2188.000000	5.407667
295.000000	2187.000000	5.404133
296.000000	2186.000000	5.378600
297.000000	2185.000000	5.383633
298.000000	2184.000000	5.382200
299.000000	2183.000000	5.377133
300.000000	2182.000000	5.373033
301.000000	2181.000000	5.371467
302.000000	2180.000000	5.350333
303.000000	2179.000000	5.342700
304.000000	2178.000000	5.313967
305.000000	2177.000000	5.301367
306.000000	2176.000000	5.318967
307.000000	2175.000000	5.316667
308.000000	2174.000000	5.318800
309.000000	2173.000000	5.326267
310.000000	2172.000000	5.321733
311.000000	2171.000000	5.330400
312.000000	2170.000000	5.318433
313.000000	2169.000000	5.290033
314.000000	2168.000000	5.287167
315.000000	2167.000000	5.286333
316.000000	2166.000000	5.585900
317.000000	2165.000000	5.768833
318.000000	2164.000000	5.606800
319.000000	2163.000000	5.661467
320.000000	2162.000000	5.613300
321.000000	2161.000000	5.632867
322.000000	2160.000000	5.674600
323.000000	2159.000000	5.654867
324.000000	2158.000000	5.695900
325.000000	2157.000000	5.701500
326.000000	2156.000000	5.539433
327.000000	2155.000000	5.580633
328.000000	2154.000000	5.609433
329.000000	2153.000000	5.550100
330.000000	2152.000000	5.498500
331.000000	2151.000000	5.522000
332.000000	2150.000000	5.482167
333.000000	2149.000000	5.496133
334.000000	2148.000000	5.551267
335.000000	2147.000000	5.546033
336.000000	2146.000000	5.557000
337.000000	2145.000000	5.660667
338.000000	2144.000000	5.662400
339.000000	2143.000000	5.622800
340.000000	2142.000000	5.657100
341.000000	2141.000000	5.668500
342.000000	2140.000000	5.673800
343.000000	2139.000000	5.670667
344.000000	2138.000000	5.703033
345.000000	2137.000000	5.760167
346.000000	2136.000000	5.798400
347.000000	2135.000000	5.756933
348.000000	2134.000000	5.702633
349.000000	2133.000000	5.719867
350.000000	2132.000000	5.850200
351.000000	2131.000000	5.917767
352.000000	2130.000000	5.866333
353.000000	2129.000000	5.926233
354.000000	2128.000000	5.923900
355.000000	2127.000000	5.956700
356.000000	2126.000000	6.027033
357.000000	2125.000000	6.055667
358.000000	2124.000000	6.085567
359.000000	2123.000000	6.144200
360.000000	2122.000000	6.225700
361.000000	2121.000000	6.285833
362.000000	2120.000000	6.340867
363.000000	2119.000000	6.376000
364.000000	2118.000000	6.415367
365.000000	2117.000000	6.520733
366.000000	2116.000000	6.601267
367.000000	2115.000000	6.631700
368.000000	2114.000000	6.677233
369.000000	2113.000000	6.721967
370.000000	2112.000000	6.844800
371.000000	2111.000000	6.952467
372.000000	2110.000000	7.011900
373.000000	2109.000000	7.025967
374.000000	2108.000000	7.117567
375.000000	2107.000000	7.292000
376.000000	2106.000000	7.545933
377.000000	2105.000000	7.746067
378.000000	2104.000000	7.913033
379.000000	2103.000000	8.100767
380.000000	2102.000000	8.293700
381.000000	2101.000000	8.498067
382.000000	2100.000000	8.732167
383.000000	2099.000000	8.953400
384.000000	2098.000000	9.202200
385.000000	2097.000000	9.482367
386.000000	2096.000000	9.762033
387.000000	2095.000000	10.067400
388.000000	2094.000000	10.365633
389.000000	2093.000000	10.671333
390.000000	2092.000000	11.021100
391.000000	2091.000000	11.358333
392.000000	2090.000000	11.731033
393.000000	2089.000000	12.080433
394.000000	2088.000000	12.448533
395.000000	2087.000000	12.829700
396.000000	2086.000000	13.227467
397.000000	2085.000000	13.633267
398.000000	2084.000000	14.011467
399.000000	2083.000000	14.398900
400.000000	2082.000000	14.794233
401.000000	2081.000000	15.206700
402.000000	2080.000000	15.592900
403.000000	2079.000000	15.988400
404.000000	2078.000000	16.359267
405.000000	2077.000000	16.750767
406.000000	2076.000000	17.132533
407.000000	2075.000000	17.483400
408.000000	2074.000000	17.861533
409.000000	2073.000000	18.203367
410.000000	2072.000000	18.539200
411.000000	2071.000000	18.882300
412.000000	2070.000000	19.206600
413.000000	2069.000000	19.534033
414.000000	2068.000000	19.830267
415.000000	2067.000000	20.110567
416.000000	2066.000000	20.380333
417.000000	2065.000000	20.642933
418.000000	2064.000000	20.916767
419.000000	2063.000000	21.133033
420.000000	2062.000000	21.356967
421.000000	2061.000000	21.611067
422.000000	2060.000000	21.793867
423.000000	2059.000000	21.977767
424.000000	2058.000000	22.145967
425.000000	2057.000000	22.320700
426.000000	2056.000000	22.478567
427.000000	2055.000000	22.615500
428.000000	2054.000000	22.736067
429.000000	2053.000000	22.858500
430.000000	2052.000000	22.955033
431.000000	2051.000000	23.028333
432.000000	2050.000000	23.113167
433.000000	2049.000000	23.202733
434.000000	2048.000000	23.267700
435.000000	2047.000000	23.282233
436.000000	2046.000000	23.305500
437.000000	2045.000000	23.338633
438.000000	2044.000000	23.366967
439.000000	2043.000000	23.366067
440.000000	2042.000000	23.378033
441.000000	2041.000000	23.375067
442.000000	2040.000000	23.367600
443.000000	2039.000000	23.338967
444.000000	2038.000000	23.327300
445.000000	2037.000000	23.306200
446.000000	2036.000000	23.303267
447.000000	2035.000000	23.298867
448.000000	2034.000000	23.304300
449.000000	2033.000000	23.325433
450.000000	2032.000000	23.338733
451.000000	2031.000000	23.369633
452.000000	2030.000000	23.444433
453.000000	2029.000000	23.523867
454.000000	2028.000000	23.605700
455.000000	2027.000000	23.725100
456.000000	2026.000000	23.875800
457.000000	2025.000000	24.009700
458.000000	2024.000000	24.170933
459.000000	2023.000000	24.364133
460.000000	2022.000000	24.573667
461.000000	2021.000000	24.777333
462.000000	2020.000000	25.031033
463.000000	2019.000000	25.257167
464.000000	2018.000000	25.517067
465.000000	2017.000000	25.801800
466.000000	2016.000000	26.067133
467.000000	2015.000000	26.355300
468.000000	2014.000000	26.637833
469.000000	2013.000000	26.923700
470.000000	2012.000000	27.222933
471.000000	2011.000000	27.495633
472.000000	2010.000000	27.799533
473.000000	2009.000000	28.076900
474.000000	2008.000000	28.365300
475.000000	2007.000000	28.668467
476.000000	2006.000000	28.939367
477.000000	2005.000000	29.224433
478.000000	2004.000000	29.486033
479.000000	2003.000000	29.752833
480.000000	2002.000000	30.013800
481.000000	2001.000000	30.289033
482.000000	2000.000000	30.537067
483.000000	1999.000000	30.775100
484.000000	1998.000000	31.009133
485.000000	1997.000000	31.271300
486.000000	1996.000000	31.528100
487.000000	1995.000000	31.809733
488.000000	1994.000000	32.055833
489.000000	1993.000000	32.402600
490.000000	1992.000000	32.721267
491.000000	1991.000000	33.114833
492.000000	1990.000000	33.509767
493.000000	1989.000000	33.934500
494.000000	1988.000000	34.408867
495.000000	1987.000000	34.915033
496.000000	1986.000000	35.473967
497.000000	1985.000000	36.069867
498.000000	1984.000000	36.724400
499.000000	1983.000000	37.446533
500.000000	1982.000000	38.199400
501.000000	1981.000000	39.019067
502.000000	1980.000000	39.939500
503.000000	1979.000000	40.883467
504.000000	1978.000000	41.896567
505.000000	1977.000000	43.020733
506.000000	1976.000000	44.114200
507.000000	1975.000000	45.307600
508.000000	1974.000000	46.571633
509.000000	1973.000000	47.885233
510.000000	1972.000000	49.236667
511.000000	1971.000000	50.621133
512.000000	1970.000000	52.047967
513.000000	1969.000000	53.497267
514.000000	1968.000000	54.957967
515.000000	1967.000000	56.414567
516.000000	1966.000000	57.870367
517.000000	1965.000000	59.295067
518.000000	1964.000000	60.700700
519.000000	1963.000000	62.078900
520.000000	1962.000000	63.454900
521.000000	1961.000000	64.789933
522.000000	1960.000000	66.071500
523.000000	1959.000000	67.346933
524.000000	1958.000000	68.570967
525.000000	1957.000000	69.722567
526.000000	1956.000000	70.819300
527.000000	1955.000000	71.904367
528.000000	1954.000000	72.938800
529.000000	1953.000000	73.931600
530.000000	1952.000000	74.887100
531.000000	1951.000000	75.804900
532.000000	1950.000000	76.683800
533.000000	1949.000000	77.540233
534.000000	1948.000000	78.328800
535.000000	1947.000000	79.109333
536.000000	1946.000000	79.817033
537.000000	1945.000000	80.512567
538.000000	1944.000000	81.154300
539.000000	1943.000000	81.773667
540.000000	1942.000000	82.369400
541.000000	1941.000000	82.912367
542.000000	1940.000000	83.474000
543.000000	1939.000000	83.962200
544.000000	1938.000000	84.438267
545.000000	1937.000000	84.897100
546.000000	1936.000000	85.328733
547.000000	1935.000000	85.745600
548.000000	1934.000000	86.139967
549.000000	1933.000000	86.547500
550.000000	1932.000000	86.913367
551.000000	1931.000000	87.271600
552.000000	1930.000000	87.618333
553.000000	1929.000000	87.919433
554.000000	1928.000000	88.203133
555.000000	1927.000000	88.490300
556.000000	1926.000000	88.739767
557.000000	1925.000000	88.981433
558.000000	1924.000000	89.197700
559.000000	1923.000000	89.399067
560.000000	1922.000000	89.599633
561.000000	1921.000000	89.750433
562.000000	1920.000000	89.905600
563.000000	1919.000000	90.059000
564.000000	1918.000000	90.181233
565.000000	1917.000000	90.293567
566.000000	1916.000000	90.379167
567.000000	1915.000000	90.467100
568.000000	1914.000000	90.528533
569.000000	1913.000000	90.583633
570.000000	1912.000000	90.625633
571.000000	1911.000000	90.662933
572.000000	1910.000000	90.678967
573.000000	1909.000000	90.661667
574.000000	1908.000000	90.633233
575.000000	1907.000000	90.589700
576.000000	1906.000000	90.525867
577.000000	1905.000000	90.441367
578.000000	1904.000000	90.307267
579.000000	1903.000000	90.176700
580.000000	1902.000000	90.031933
581.000000	1901.000000	89.831733
582.000000	1900.000000	89.643400
583.000000	1899.000000	89.367467
584.000000	1898.000000	89.094100
585.000000	1897.000000	88.813267
586.000000	1896.000000	88.503033
587.000000	1895.000000	88.157000
588.000000	1894.000000	87.785300
589.000000	1893.000000	87.391033
590.000000	1892.000000	86.949367
591.000000	1891.000000	86.470900
592.000000	1890.000000	85.978967
593.000000	1889.000000	85.452600
594.000000	1888.000000	84.895300
595.000000	1887.000000	84.312333
596.000000	1886.000000	83.705700
597.000000	1885.000000	83.063733
598.000000	1884.000000	82.393533
599.000000	1883.000000	81.699600
600.000000	1882.000000	80.974133
601.000000	1881.000000	80.239733
602.000000	1880.000000	79.444567
603.000000	1879.000000	78.637833
604.000000	1878.000000	77.805167
605.000000	1877.000000	76.951833
606.000000	1876.000000	76.087667
607.000000	1875.000000	75.209267
608.000000	1874.000000	74.318900
609.000000	1873.000000	73.411400
610.000000	1872.000000	72.509267
611.000000	1871.000000	71.567667
612.000000	1870.000000	70.631967
613.000000	1869.000000	69.721800
614.000000	1868.000000	68.806400
615.000000	1867.000000	67.923467
616.000000	1866.000000	67.072400
617.000000	1865.000000	66.250567
618.000000	1864.000000	65.421500
619.000000	1863.000000	64.655933
620.000000	1862.000000	63.978567
621.000000	1861.000000	63.326333
622.000000	1860.000000	62.742733
623.000000	1859.000000	62.228200
624.000000	1858.000000	61.782367
625.000000	1857.000000	61.419133
626.000000	1856.000000	61.124767
627.000000	1855.000000	60.909500
628.000000	1854.000000	60.772267
629.000000	1853.000000	60.730333
630.000000	1852.000000	60.752200
631.000000	1851.000000	60.863533
632.000000	1850.000000	61.065833
633.000000	1849.000000	61.328200
634.000000	1848.000000	61.687900
635.000000	1847.000000	62.086633
636.000000	1846.000000	62.538500
637.000000	1845.000000	63.062767
638.000000	1844.000000	63.612767
639.000000	1843.000000	64.207100
640.000000	1842.000000	64.811200
641.000000	1841.000000	65.460633
642.000000	1840.000000	66.116633
643.000000	1839.000000	66.754233
644.000000	1838.000000	67.390467
645.000000	1837.000000	68.006600
646.000000	1836.000000	68.619500
647.000000	1835.000000	69.214567
648.000000	1834.000000	69.763800
649.000000	1833.000000	70.298733
650.000000	1832.000000	70.802333
651.000000	1831.000000	71.284167
652.000000	1830.000000	71.749000
653.000000	1829.000000	72.172933
654.000000	1828.000000	72.596267
655.000000	1827.000000	72.986500
656.000000	1826.000000	73.331933
657.000000	1825.000000	73.646867
658.000000	1824.000000	73.970633
659.000000	1823.000000	74.282933
660.000000	1822.000000	74.526333
661.000000	1821.000000	74.767267
662.000000	1820.000000	75.015467
663.000000	1819.000000	75.220400
664.000000	1818.000000	75.363567
665.000000	1817.000000	75.489767
666.000000	1816.000000	75.659367
667.000000	1815.000000	75.787900
668.000000	1814.000000	75.901567
669.000000	1813.000000	76.015867
670.000000	1812.000000	76.092267
671.000000	1811.000000	76.160033
672.000000	1810.000000	76.255700
673.000000	1809.000000	76.346100
674.000000	1808.000000	76.395667
675.000000	1807.000000	76.481700
676.000000	1806.000000	76.544000
677.000000	1805.000000	76.609600
678.000000	1804.000000	76.700733
679.000000	1803.000000	76.783733
680.000000	1802.000000	76.867167
681.000000	1801.000000	76.947100
682.000000	1800.000000	77.025733
683.000000	1799.000000	77.109033
684.000000	1798.000000	77.237033
685.000000	1797.000000	77.368633
686.000000	1796.000000	77.497667
687.000000	1795.000000	77.605933
688.000000	1794.000000	77.768967
689.000000	1793.000000	77.950300
690.000000	1792.000000	78.140467
691.000000	1791.000000	78.320933
692.000000	1790.000000	78.530700
693.000000	1789.000000	78.761900
694.000000	1788.000000	79.044200
695.000000	1787.000000	79.326733
696.000000	1786.000000	79.586933
697.000000	1785.000000	79.849267
698.000000	1784.000000	80.154900
699.000000	1783.000000	80.496400
700.000000	1782.000000	80.859733
701.000000	1781.000000	81.182133
702.000000	1780.000000	81.530033
703.000000	1779.000000	81.886233
704.000000	1778.000000	82.271300
705.000000	1777.000000	82.673567
706.000000	1776.000000	83.011367
707.000000	1775.000000	83.371967
708.000000	1774.000000	83.758700
709.000000	1773.000000	84.123367
710.000000	1772.000000	84.533067
711.000000	1771.000000	84.925567
712.000000	1770.000000	85.227767
713.000000	1769.000000	85.602600
714.000000	1768.000000	85.963900
715.000000	1767.000000	86.275833
716.000000	1766.000000	86.595600
717.000000	1765.000000	86.837767
718.000000	1764.000000	87.111100
719.000000	1763.000000	87.456100
720.000000	1762.000000	87.719133
721.000000	1761.000000	87.912033
722.000000	1760.000000	88.118000
723.000000	1759.000000	88.405633
724.000000	1758.000000	88.531567
725.000000	1757.000000	88.782700
726.000000	1756.000000	88.925900
727.000000	1755.000000	89.073233
728.000000	1754.000000	89.215167
729.000000	1753.000000	89.316667
730.000000	1752.000000	89.355933
731.000000	1751.000000	89.473500
732.000000	1750.000000	89.550567
733.000000	1749.000000	89.608367
734.000000	1748.000000	89.670600
735.000000	1747.000000	89.646767
736.000000	1746.000000	89.743867
737.000000	1745.000000	89.765367
738.000000	1744.000000	89.768167
739.000000	1743.000000	89.835500
740.000000	1742.000000	89.911500
741.000000	1741.000000	89.960667
742.000000	1740.000000	90.030933
743.000000	1739.000000	89.976733
744.000000	1738.000000	90.031300
745.000000	1737.000000	90.048467
746.000000	1736.000000	90.109767
747.000000	1735.000000	90.163767
748.000000	1734.000000	90.224267
749.000000	1733.000000	90.176467
750.000000	1732.000000	90.228167
751.000000	1731.000000	90.228300
752.000000	1730.000000	90.233733
753.000000	1729.000000	90.286233
754.000000	1728.000000	90.343300
755.000000	1727.000000	90.226600
756.000000	1726.000000	90.315167
757.000000	1725.000000	90.352567
758.000000	1724.000000	90.285700
759.000000	1723.000000	90.354767
760.000000	1722.000000	90.346633
761.000000	1721.000000	90.351200
762.000000	1720.000000	90.317833
763.000000	1719.000000	90.282133
764.000000	1718.000000	90.233200
765.000000	1717.000000	90.184267
766.000000	1716.000000	90.127633
767.000000	1715.000000	90.091000
768.000000	1714.000000	89.975833
769.000000	1713.000000	89.841433
770.000000	1712.000000	89.791067
771.000000	1711.000000	89.676333
772.000000	1710.000000	89.656800
773.000000	1709.000000	89.514667
774.000000	1708.000000	89.478933
775.000000	1707.000000	89.322333
776.000000	1706.000000	89.228300
777.000000	1705.000000	89.165733
778.000000	1704.000000	88.992633
779.000000	1703.000000	88.932133
780.000000	1702.000000	88.782867
781.000000	1701.000000	88.679967
782.000000	1700.000000	88.558300
783.000000	1699.000000	88.434833
784.000000	1698.000000	88.340300
785.000000	1697.000000	88.193800
786.000000	1696.000000	88.117000
787.000000	1695.000000	88.153367
788.000000	1694.000000	87.888367
789.000000	1693.000000	87.872700
790.000000	1692.000000	87.706033
791.000000	1691.000000	87.557667
792.000000	1690.000000	87.549933
793.000000	1689.000000	87.272867
794.000000	1688.000000	87.123933
795.000000	1687.000000	86.931933
796.000000	1686.000000	86.898200
797.000000	1685.000000	86.704500
798.000000	1684.000000	86.500933
799.000000	1683.000000	86.436533
800.000000	1682.000000	86.209600
801.000000	1681.000000	86.206767
802.000000	1680.000000	86.001533
803.000000	1679.000000	85.671300
804.000000	1678.000000	85.400800
805.000000	1677.000000	85.290467
806.000000	1676.000000	85.066400
807.000000	1675.000000	84.746067
808.000000	1674.000000	84.597467
809.000000	1673.000000	84.304567
810.000000	1672.000000	84.283733
811.000000	1671.000000	83.899200
812.000000	1670.000000	83.642633
813.000000	1669.000000	83.431133
814.000000	1668.000000	83.184700
815.000000	1667.000000	82.898300
816.000000	1666.000000	82.817067
817.000000	1665.000000	82.682400
818.000000	1664.000000	82.379833
819.000000	1663.000000	82.120800
820.000000	1662.000000	81.890867
821.000000	1661.000000	81.682600
822.000000	1660.000000	81.453700
823.000000	1659.000000	81.370567
824.000000	1658.000000	81.253667
825.000000	1657.000000	80.898433
826.000000	1656.000000	80.663800
827.000000	1655.000000	80.429700
828.000000	1654.000000	80.408533
829.000000	1653.000000	80.188967
830.000000	1652.000000	80.004333
831.000000	1651.000000	79.804133
832.000000	1650.000000	79.673867
833.000000	1649.000000	79.376767
834.000000	1648.000000	79.270000
835.000000	1647.000000	79.135500
836.000000	1646.000000	78.868067
837.000000	1645.000000	78.817767
838.000000	1644.000000	78.740267
839.000000	1643.000000	78.348667
840.000000	1642.000000	78.323833
841.000000	1641.000000	78.104900
842.000000	1640.000000	77.882000
843.000000	1639.000000	77.764200
844.000000	1638.000000	77.467700
845.000000	1637.000000	77.510067
846.000000	1636.000000	77.148267
847.000000	1635.000000	77.107233
848.000000	1634.000000	77.092767
849.000000	1633.000000	76.799700
850.000000	1632.000000	76.770767
851.000000	1631.000000	76.547167
852.000000	1630.000000	76.551067
853.000000	1629.000000	76.401667
854.000000	1628.000000	76.100500
855.000000	1627.000000	75.798467
856.000000	1626.000000	75.761833
857.000000	1625.000000	74.716400
858.000000	1624.000000	75.425567
859.000000	1623.000000	75.267067
860.000000	1622.000000	75.106530
861.000000	1621.000000	74.946120
862.000000	1620.000000	74.773510
863.000000	1619.000000	74.623874
864.000000	1618.000000	74.453398
865.000000	1617.000000	74.301876
866.000000	1616.000000	74.135727
867.000000	1615.000000	73.966430
868.000000	1614.000000	73.784303
869.000000	1613.000000	73.624937
870.000000	1612.000000	73.514143
871.000000	1611.000000	73.529719
872.000000	1610.000000	73.653849
873.000000	1609.000000	73.788535
874.000000	1608.000000	73.904661
875.000000	1607.000000	73.970699
876.000000	1606.000000	74.040868
877.000000	1605.000000	74.083273
878.000000	1604.000000	74.126893
879.000000	1603.000000	74.112519
880.000000	1602.000000	74.091068
881.000000	1601.000000	74.066576
882.000000	1600.000000	74.032722
883.000000	1599.000000	73.994886
884.000000	1598.000000	73.935719
885.000000	1597.000000	73.867936
886.000000	1596.000000	73.815034
887.000000	1595.000000	73.732583
888.000000	1594.000000	73.626733
889.000000	1593.000000	73.525203
890.000000	1592.000000	73.443811
891.000000	1591.000000	73.353729
892.000000	1590.000000	73.246536
893.000000	1589.000000	73.119889
894.000000	1588.000000	72.996103
895.000000	1587.000000	72.870844
896.000000	1586.000000	72.738571
897.000000	1585.000000	72.595195
898.000000	1584.000000	72.451064
899.000000	1583.000000	72.317555
900.000000	1582.000000	72.173593
901.000000	1581.000000	72.037562
902.000000	1580.000000	71.902159
903.000000	1579.000000	71.770695
904.000000	1578.000000	71.645633
905.000000	1577.000000	71.515418
906.000000	1576.000000	71.405283
907.000000	1575.000000	71.299147
908.000000	1574.000000	71.197735
909.000000	1573.000000	71.110512
910.000000	1572.000000	71.032522
911.000000	1571.000000	70.953850
912.000000	1570.000000	70.878532
913.000000	1569.000000	70.786997
914.000000	1568.000000	70.707311
915.000000	1567.000000	70.622558
916.000000	1566.000000	70.536712
917.000000	1565.000000	70.457772
918.000000	1564.000000	70.379126
919.000000	1563.000000	70.285322
920.000000	1562.000000	70.188413
921.000000	1561.000000	70.103031
922.000000	1560.000000	70.006187
923.000000	1559.000000	69.894691
924.000000	1558.000000	69.787077
925.000000	1557.000000	69.683884
926.000000	1556.000000	69.587155
927.000000	1555.000000	69.498291
928.000000	1554.000000	69.390603
929.000000	1553.000000	69.283733
930.000000	1552.000000	69.199462
931.000000	1551.000000	69.094983
932.000000	1550.000000	68.978103
933.000000	1549.000000	68.878300
934.000000	1548.000000	68.780911
935.000000	1547.000000	68.684332
936.000000	1546.000000	68.588177
937.000000	1545.000000	68.481772
938.000000	1544.000000	68.384590
939.000000	1543.000000	68.300943
940.000000	1542.000000	68.218893
941.000000	1541.000000	68.126815
942.000000	1540.000000	68.030953
943.000000	1539.000000	67.949821
944.000000	1538.000000	67.856293
945.000000	1537.000000	67.752099
946.000000	1536.000000	67.666286
947.000000	1535.000000	67.587130
948.000000	1534.000000	67.496836
949.000000	1533.000000	67.395259
950.000000	1532.000000	67.310083
951.000000	1531.000000	67.226795
952.000000	1530.000000	67.131438
953.000000	1529.000000	67.048081
954.000000	1528.000000	66.959540
955.000000	1527.000000	66.863813
956.000000	1526.000000	66.785483
957.000000	1525.000000	66.692412
958.000000	1524.000000	66.598381
959.000000	1523.000000	66.509053
960.000000	1522.000000	66.414098
961.000000	1521.000000	66.332818
962.000000	1520.000000	66.242168
963.000000	1519.000000	66.140196
964.000000	1518.000000	66.064406
965.000000	1517.000000	65.994159
966.000000	1516.000000	65.923181
967.000000	1515.000000	65.848743
968.000000	1514.000000	65.789569
969.000000	1513.000000	65.737548
970.000000	1512.000000	65.681089
971.000000	1511.000000	65.609253
972.000000	1510.000000	65.539674
973.000000	1509.000000	65.492427
974.000000	1508.000000	65.439003
975.000000	1507.000000	65.373779
976.000000	1506.000000	65.306782
977.000000	1505.000000	65.260558
978.000000	1504.000000	65.213689
979.000000	1503.000000	65.160440
980.000000	1502.000000	65.104499
981.000000	1501.000000	65.065044
982.000000	1500.000000	65.010790
983.000000	1499.000000	64.962600
984.000000	1498.000000	64.910147
985.000000	1497.000000	64.869305
986.000000	1496.000000	64.825038
987.000000	1495.000000	64.779219
988.000000	1494.000000	64.743276
989.000000	1493.000000	64.726856
990.000000	1492.000000	64.698341
991.000000	1491.000000	64.664041
992.000000	1490.000000	64.638500
993.000000	1489.000000	64.628782
994.000000	1488.000000	64.616280
995.000000	1487.000000	64.596221
996.000000	1486.000000	64.584502
997.000000	1485.000000	64.576347
998.000000	1484.000000	64.572526
999.000000	1483.000000	64.572366
1000.000000	1482.000000	64.571260
1001.000000	1481.000000	64.569005
1002.000000	1480.000000	64.569121
1003.000000	1479.000000	64.570573
1004.000000	1478.000000	64.572807
1005.000000	1477.000000	64.574129
1006.000000	1476.000000	64.573231
1007.000000	1475.000000	64.574675
1008.000000	1474.000000	64.577815
1009.000000	1473.000000	64.593313
1010.000000	1472.000000	64.604921
1011.000000	1471.000000	64.644526
1012.000000	1470.000000	64.666343
1013.000000	1469.000000	64.702926
1014.000000	1468.000000	64.760991
1015.000000	1467.000000	64.815244
1016.000000	1466.000000	64.871905
1017.000000	1465.000000	64.947475
1018.000000	1464.000000	65.019779
1019.000000	1463.000000	65.101000
1020.000000	1462.000000	65.182180
1021.000000	1461.000000	65.263523
1022.000000	1460.000000	65.356478
1023.000000	1459.000000	65.444714
1024.000000	1458.000000	65.523404
1025.000000	1457.000000	65.604079
1026.000000	1456.000000	65.695921
1027.000000	1455.000000	65.767016
1028.000000	1454.000000	65.852189
1029.000000	1453.000000	65.935339
1030.000000	1452.000000	65.998659
1031.000000	1451.000000	66.061124
1032.000000	1450.000000	66.140229
1033.000000	1449.000000	66.207328
1034.000000	1448.000000	66.264012
1035.000000	1447.000000	66.336485
1036.000000	1446.000000	66.406394
1037.000000	1445.000000	66.455276
1038.000000	1444.000000	66.508270
1039.000000	1443.000000	66.554527
1040.000000	1442.000000	66.625127
1041.000000	1441.000000	66.670629
1042.000000	1440.000000	66.714345
1043.000000	1439.000000	66.778123
1044.000000	1438.000000	66.840264
1045.000000	1437.000000	66.879210
1046.000000	1436.000000	66.924479
1047.000000	1435.000000	66.984662
1048.000000	1434.000000	67.040213
1049.000000	1433.000000	67.083689
1050.000000	1432.000000	67.152104
1051.000000	1431.000000	67.222640
1052.000000	1430.000000	67.277301
1053.000000	1429.000000	67.339927
1054.000000	1428.000000	67.397962
1055.000000	1427.000000	67.471033
1056.000000	1426.000000	67.545574
1057.000000	1425.000000	67.600591
1058.000000	1424.000000	67.658468
1059.000000	1423.000000	67.733454
1060.000000	1422.000000	67.786443
1061.000000	1421.000000	67.838701
1062.000000	1420.000000	67.897705
1063.000000	1419.000000	67.951761
1064.000000	1418.000000	68.007674
1065.000000	1417.000000	68.067002
1066.000000	1416.000000	68.116118
1067.000000	1415.000000	68.173641
1068.000000	1414.000000	68.220502
1069.000000	1413.000000	68.259734
1070.000000	1412.000000	68.301205
1071.000000	1411.000000	68.368051
1072.000000	1410.000000	68.400328
1073.000000	1409.000000	68.459606
1074.000000	1408.000000	68.516919
1075.000000	1407.000000	68.556446
1076.000000	1406.000000	68.608984
1077.000000	1405.000000	68.647418
1078.000000	1404.000000	68.703848
1079.000000	1403.000000	68.764760
1080.000000	1402.000000	68.792708
1081.000000	1401.000000	68.847865
1082.000000	1400.000000	68.903232
1083.000000	1399.000000	68.952289
1084.000000	1398.000000	68.986369
1085.000000	1397.000000	69.035782
1086.000000	1396.000000	69.092990
1087.000000	1395.000000	69.131248
1088.000000	1394.000000	69.168722
1089.000000	1393.000000	69.202623
1090.000000	1392.000000	69.241596
1091.000000	1391.000000	69.283717
1092.000000	1390.000000	69.311979
1093.000000	1389.000000	69.354632
1094.000000	1388.000000	69.370568
1095.000000	1387.000000	69.406692
1096.000000	1386.000000	69.414899
1097.000000	1385.000000	69.424021
1098.000000	1384.000000	69.433389
1099.000000	1383.000000	69.436719
1100.000000	1382.000000	69.456252
1101.000000	1381.000000	69.466591
1102.000000	1380.000000	69.460256
1103.000000	1379.000000	69.459792
1104.000000	1378.000000	69.468195
1105.000000	1377.000000	69.476831
1106.000000	1376.000000	69.474628
1107.000000	1375.000000	69.465266
1108.000000	1374.000000	69.458925
1109.000000	1373.000000	69.459519
1110.000000	1372.000000	69.454524
1111.000000	1371.000000	69.455788
1112.000000	1370.000000	69.445314
1113.000000	1369.000000	69.441559
1114.000000	1368.000000	69.442253
1115.000000	1367.000000	69.420005
1116.000000	1366.000000	69.403933
1117.000000	1365.000000	69.376202
1118.000000	1364.000000	69.324935
1119.000000	1363.000000	69.275271
1120.000000	1362.000000	69.202573
1121.000000	1361.000000	69.126333
1122.000000	1360.000000	69.035650
1123.000000	1359.000000	68.918407
1124.000000	1358.000000	68.794222
1125.000000	1357.000000	68.648376
1126.000000	1356.000000	68.469736
1127.000000	1355.000000	68.254110
1128.000000	1354.000000	67.978576
1129.000000	1353.000000	67.655628
1130.000000	1352.000000	67.283383
1131.000000	1351.000000	66.868107
1132.000000	1350.000000	66.435843
1133.000000	1349.000000	65.988473
1134.000000	1348.000000	65.446633
1135.000000	1347.000000	64.898551
1136.000000	1346.000000	64.354719
1137.000000	1345.000000	63.859957
1138.000000	1344.000000	63.361716
1139.000000	1343.000000	62.891931
1140.000000	1342.000000	62.441358
1141.000000	1341.000000	61.985253
1142.000000	1340.000000	61.564544
1143.000000	1339.000000	61.185703
1144.000000	1338.000000	60.867752
1145.000000	1337.000000	60.612516
1146.000000	1336.000000	60.430473
1147.000000	1335.000000	60.299024
1148.000000	1334.000000	60.200970
1149.000000	1333.000000	60.117895
1150.000000	1332.000000	60.024842
1151.000000	1331.000000	59.909549
1152.000000	1330.000000	59.758442
1153.000000	1329.000000	59.557591
1154.000000	1328.000000	59.303115
1155.000000	1327.000000	58.996945
1156.000000	1326.000000	58.643379
1157.000000	1325.000000	58.268813
1158.000000	1324.000000	57.875284
1159.000000	1323.000000	57.458507
1160.000000	1322.000000	57.047633
1161.000000	1321.000000	56.627404
1162.000000	1320.000000	56.185427
1163.000000	1319.000000	55.753133
1164.000000	1318.000000	55.333960
1165.000000	1317.000000	54.928392
1166.000000	1316.000000	54.517052
1167.000000	1315.000000	54.120327
1168.000000	1314.000000	53.739820
1169.000000	1313.000000	53.365192
1170.000000	1312.000000	52.971635
1171.000000	1311.000000	52.601144
1172.000000	1310.000000	52.234358
1173.000000	1309.000000	51.888457
1174.000000	1308.000000	51.521767
1175.000000	1307.000000	51.129669
1176.000000	1306.000000	50.705594
1177.000000	1305.000000	50.243632
1178.000000	1304.000000	49.705939
1179.000000	1303.000000	49.119463
1180.000000	1302.000000	48.559130
1181.000000	1301.000000	48.020964
1182.000000	1300.000000	47.572931
1183.000000	1299.000000	47.265853
1184.000000	1298.000000	47.109506
1185.000000	1297.000000	47.091345
1186.000000	1296.000000	47.225401
1187.000000	1295.000000	47.486248
1188.000000	1294.000000	47.864164
1189.000000	1293.000000	48.322348
1190.000000	1292.000000	48.817951
1191.000000	1291.000000	49.310380
1192.000000	1290.000000	49.750133
1193.000000	1289.000000	50.117690
1194.000000	1288.000000	50.419056
1195.000000	1287.000000	50.652991
1196.000000	1286.000000	50.832373
1197.000000	1285.000000	50.968357
1198.000000	1284.000000	51.060101
1199.000000	1283.000000	51.128056
1200.000000	1282.000000	51.189082
1201.000000	1281.000000	51.228074
1202.000000	1280.000000	51.259648
1203.000000	1279.000000	51.306033
1204.000000	1278.000000	51.359720
1205.000000	1277.000000	51.438964
1206.000000	1276.000000	51.529977
1207.000000	1275.000000	51.642137
1208.000000	1274.000000	51.768865
1209.000000	1273.000000	51.898740
1210.000000	1272.000000	52.039074
1211.000000	1271.000000	52.191603
1212.000000	1270.000000	52.352085
1213.000000	1269.000000	52.513200
1214.000000	1268.000000	52.682314
1215.000000	1267.000000	52.853145
1216.000000	1266.000000	53.029988
1217.000000	1265.000000	53.221962
1218.000000	1264.000000	53.421087
1219.000000	1263.000000	53.619311
1220.000000	1262.000000	53.827344
1221.000000	1261.000000	54.044764
1222.000000	1260.000000	54.252532
1223.000000	1259.000000	54.465897
1224.000000	1258.000000	54.687545
1225.000000	1257.000000	54.900156
1226.000000	1256.000000	55.107819
1227.000000	1255.000000	55.321695
1228.000000	1254.000000	55.527687
1229.000000	1253.000000	55.728354
1230.000000	1252.000000	55.932071
1231.000000	1251.000000	56.131784
1232.000000	1250.000000	56.323368
1233.000000	1249.000000	56.512731
1234.000000	1248.000000	56.699321
1235.000000	1247.000000	56.878784
1236.000000	1246.000000	57.050815
1237.000000	1245.000000	57.217013
1238.000000	1244.000000	57.377439
1239.000000	1243.000000	57.536541
1240.000000	1242.000000	57.697248
1241.000000	1241.000000	57.855859
1242.000000	1240.000000	58.008996
1243.000000	1239.000000	58.137325
1244.000000	1238.000000	58.263136
1245.000000	1237.000000	58.391951
1246.000000	1236.000000	58.497202
1247.000000	1235.000000	58.613091
1248.000000	1234.000000	58.722099
1249.000000	1233.000000	58.806391
1250.000000	1232.000000	58.900231
1251.000000	1231.000000	58.997587
1252.000000	1230.000000	59.073851
1253.000000	1229.000000	59.153322
1254.000000	1228.000000	59.235624
1255.000000	1227.000000	59.300633
1256.000000	1226.000000	59.369729
1257.000000	1225.000000	59.441556
1258.000000	1224.000000	59.499783
1259.000000	1223.000000	59.562034
1260.000000	1222.000000	59.620707
1261.000000	1221.000000	59.673661
1262.000000	1220.000000	59.727798
1263.000000	1219.000000	59.785366
1264.000000	1218.000000	59.837779
1265.000000	1217.000000	59.901991
1266.000000	1216.000000	59.959789
1267.000000	1215.000000	60.009422
1268.000000	1214.000000	60.055510
1269.000000	1213.000000	60.100085
1270.000000	1212.000000	60.142496
1271.000000	1211.000000	60.185975
1272.000000	1210.000000	60.232592
1273.000000	1209.000000	60.279263
1274.000000	1208.000000	60.327486
1275.000000	1207.000000	60.378954
1276.000000	1206.000000	60.433203
1277.000000	1205.000000	60.493583
1278.000000	1204.000000	60.551525
1279.000000	1203.000000	60.606068
1280.000000	1202.000000	60.660260
1281.000000	1201.000000	60.724098
1282.000000	1200.000000	60.782634
1283.000000	1199.000000	60.820606
1284.000000	1198.000000	60.869206
1285.000000	1197.000000	60.910200
1286.000000	1196.000000	60.944463
1287.000000	1195.000000	60.967528
1288.000000	1194.000000	60.982437
1289.000000	1193.000000	60.996911
1290.000000	1192.000000	61.003529
1291.000000	1191.000000	61.011379
1292.000000	1190.000000	61.000423
1293.000000	1189.000000	60.980123
1294.000000	1188.000000	60.959559
1295.000000	1187.000000	60.941396
1296.000000	1186.000000	60.906401
1297.000000	1185.000000	60.868851
1298.000000	1184.000000	60.828750
1299.000000	1183.000000	60.778051
1300.000000	1182.000000	60.736496
1301.000000	1181.000000	60.687206
1302.000000	1180.000000	60.626338
1303.000000	1179.000000	60.554220
1304.000000	1178.000000	60.471883
1305.000000	1177.000000	60.389195
1306.000000	1176.000000	60.291575
1307.000000	1175.000000	60.189777
1308.000000	1174.000000	60.074386
1309.000000	1173.000000	59.953823
1310.000000	1172.000000	59.828679
1311.000000	1171.000000	59.692655
1312.000000	1170.000000	59.549177
1313.000000	1169.000000	59.383841
1314.000000	1168.000000	59.235144
1315.000000	1167.000000	59.070660
1316.000000	1166.000000	58.907589
1317.000000	1165.000000	58.730515
1318.000000	1164.000000	58.545176
1319.000000	1163.000000	58.350271
1320.000000	1162.000000	58.150615
1321.000000	1161.000000	57.943588
1322.000000	1160.000000	57.734937
1323.000000	1159.000000	57.514710
1324.000000	1158.000000	57.287167
1325.000000	1157.000000	57.058108
1326.000000	1156.000000	56.806027
1327.000000	1155.000000	56.547307
1328.000000	1154.000000	56.276810
1329.000000	1153.000000	56.007298
1330.000000	1152.000000	55.716746
1331.000000	1151.000000	55.423848
1332.000000	1150.000000	55.117088
1333.000000	1149.000000	54.795434
1334.000000	1148.000000	54.484568
1335.000000	1147.000000	54.178778
1336.000000	1146.000000	53.847117
1337.000000	1145.000000	53.514196
1338.000000	1144.000000	53.164318
1339.000000	1143.000000	52.820939
1340.000000	1142.000000	52.465161
1341.000000	1141.000000	52.104298
1342.000000	1140.000000	51.759700
1343.000000	1139.000000	51.393387
1344.000000	1138.000000	50.982928
1345.000000	1137.000000	50.610517
1346.000000	1136.000000	50.235854
1347.000000	1135.000000	49.819940
1348.000000	1134.000000	49.364191
1349.000000	1133.000000	48.886599
1350.000000	1132.000000	48.360959
1351.000000	1131.000000	47.802391
1352.000000	1130.000000	47.288349
1353.000000	1129.000000	46.832008
1354.000000	1128.000000	46.352552
1355.000000	1127.000000	46.013122
1356.000000	1126.000000	45.786669
1357.000000	1125.000000	45.630137
1358.000000	1124.000000	45.521729
1359.000000	1123.000000	45.449116
1360.000000	1122.000000	45.318528
1361.000000	1121.000000	45.125885
1362.000000	1120.000000	44.908781
1363.000000	1119.000000	44.683645
1364.000000	1118.000000	44.467124
1365.000000	1117.000000	44.215053
1366.000000	1116.000000	43.930012
1367.000000	1115.000000	43.621759
1368.000000	1114.000000	43.267092
1369.000000	1113.000000	42.911976
1370.000000	1112.000000	42.528334
1371.000000	1111.000000	42.094787
1372.000000	1110.000000	41.686043
1373.000000	1109.000000	41.336992
1374.000000	1108.000000	41.038304
1375.000000	1107.000000	40.787636
1376.000000	1106.000000	40.571879
1377.000000	1105.000000	40.321498
1378.000000	1104.000000	40.066765
1379.000000	1103.000000	39.675865
1380.000000	1102.000000	39.376482
1381.000000	1101.000000	38.840516
1382.000000	1100.000000	38.221948
1383.000000	1099.000000	37.542551
1384.000000	1098.000000	36.889830
1385.000000	1097.000000	36.318854
1386.000000	1096.000000	35.776272
1387.000000	1095.000000	35.265065
1388.000000	1094.000000	34.743606
1389.000000	1093.000000	34.337762
1390.000000	1092.000000	33.955915
1391.000000	1091.000000	33.576222
1392.000000	1090.000000	33.190869
1393.000000	1089.000000	32.886537
1394.000000	1088.000000	32.588968
1395.000000	1087.000000	32.181381
1396.000000	1086.000000	31.736041
1397.000000	1085.000000	31.365338
1398.000000	1084.000000	31.076986
1399.000000	1083.000000	30.682030
1400.000000	1082.000000	30.230318
1401.000000	1081.000000	29.731830
1402.000000	1080.000000	29.331734
1403.000000	1079.000000	28.873512
1404.000000	1078.000000	28.457769
1405.000000	1077.000000	28.011649
1406.000000	1076.000000	27.612671
1407.000000	1075.000000	27.218664
1408.000000	1074.000000	26.825118
1409.000000	1073.000000	26.443030
1410.000000	1072.000000	26.083499
1411.000000	1071.000000	25.772096
1412.000000	1070.000000	25.519538
1413.000000	1069.000000	25.237360
1414.000000	1068.000000	24.950151
1415.000000	1067.000000	24.671818
1416.000000	1066.000000	24.427140
1417.000000	1065.000000	24.191610
1418.000000	1064.000000	23.963788
1419.000000	1063.000000	23.713783
1420.000000	1062.000000	23.467652
1421.000000	1061.000000	23.238179
1422.000000	1060.000000	23.036163
1423.000000	1059.000000	22.860914
1424.000000	1058.000000	22.642170
1425.000000	1057.000000	22.456537
1426.000000	1056.000000	22.284946
1427.000000	1055.000000	22.112613
1428.000000	1054.000000	21.946942
1429.000000	1053.000000	21.802031
1430.000000	1052.000000	21.671042
1431.000000	1051.000000	21.540909
1432.000000	1050.000000	21.415790
1433.000000	1049.000000	21.287908
1434.000000	1048.000000	21.167288
1435.000000	1047.000000	21.053167
1436.000000	1046.000000	20.944631
1437.000000	1045.000000	20.848298
1438.000000	1044.000000	20.724562
1439.000000	1043.000000	20.626836
1440.000000	1042.000000	20.530368
1441.000000	1041.000000	20.420955
1442.000000	1040.000000	20.324347
1443.000000	1039.000000	20.246589
1444.000000	1038.000000	20.163049
1445.000000	1037.000000	20.079764
1446.000000	1036.000000	19.980372
1447.000000	1035.000000	19.892974
1448.000000	1034.000000	19.809653
1449.000000	1033.000000	19.762866
1450.000000	1032.000000	19.698921
1451.000000	1031.000000	19.625172
1452.000000	1030.000000	19.546003
1453.000000	1029.000000	19.482468
1454.000000	1028.000000	19.423586
1455.000000	1027.000000	19.371860
1456.000000	1026.000000	19.322825
1457.000000	1025.000000	19.283678
1458.000000	1024.000000	19.255596
1459.000000	1023.000000	19.229233
1460.000000	1022.000000	19.194894
1461.000000	1021.000000	19.155370
1462.000000	1020.000000	19.141871
1463.000000	1019.000000	19.133487
1464.000000	1018.000000	19.121055
1465.000000	1017.000000	19.128880
1466.000000	1016.000000	19.132244
1467.000000	1015.000000	19.132023
1468.000000	1014.000000	19.140960
1469.000000	1013.000000	19.156139
1470.000000	1012.000000	19.167240
1471.000000	1011.000000	19.182721
1472.000000	1010.000000	19.185773
1473.000000	1009.000000	19.196877
1474.000000	1008.000000	19.204331
1475.000000	1007.000000	19.219954
1476.000000	1006.000000	19.233860
1477.000000	1005.000000	19.249384
1478.000000	1004.000000	19.275966
1479.000000	1003.000000	19.305521
1480.000000	1002.000000	19.335015
1481.000000	1001.000000	19.360046
1482.000000	1000.000000	19.384647
1483.000000	999.000000	19.423426
1484.000000	998.000000	19.460184
1485.000000	997.000000	19.493781
1486.000000	996.000000	19.528270
1487.000000	995.000000	19.565638
1488.000000	994.000000	19.612852
1489.000000	993.000000	19.652030
1490.000000	992.000000	19.694623
1491.000000	991.000000	19.733612
1492.000000	990.000000	19.772630
1493.000000	989.000000	19.817435
1494.000000	988.000000	19.862539
1495.000000	987.000000	19.919559
1496.000000	986.000000	19.974968
1497.000000	985.000000	20.021432
1498.000000	984.000000	20.072175
1499.000000	983.000000	20.127074
1500.000000	982.000000	20.178402
1501.000000	981.000000	20.242307
1502.000000	980.000000	20.301709
1503.000000	979.000000	20.348101
1504.000000	978.000000	20.406578
1505.000000	977.000000	20.470252
1506.000000	976.000000	20.531574
1507.000000	975.000000	20.596657
1508.000000	974.000000	20.652854
1509.000000	973.000000	20.701406
1510.000000	972.000000	20.760347
1511.000000	971.000000	20.813919
1512.000000	970.000000	20.872406
1513.000000	969.000000	20.935408
1514.000000	968.000000	20.992277
1515.000000	967.000000	21.038736
1516.000000	966.000000	21.091714
1517.000000	965.000000	21.149327
1518.000000	964.000000	21.188968
1519.000000	963.000000	21.241368
1520.000000	962.000000	21.302685
1521.000000	961.000000	21.342543
1522.000000	960.000000	21.384525
1523.000000	959.000000	21.433063
1524.000000	958.000000	21.469067
1525.000000	957.000000	21.516047
1526.000000	956.000000	21.568087
1527.000000	955.000000	21.609703
1528.000000	954.000000	21.645141
1529.000000	953.000000	21.677144
1530.000000	952.000000	21.716282
1531.000000	951.000000	21.756391
1532.000000	950.000000	21.787022
1533.000000	949.000000	21.819654
1534.000000	948.000000	21.846489
1535.000000	947.000000	21.868863
1536.000000	946.000000	21.893995
1537.000000	945.000000	21.916650
1538.000000	944.000000	21.946499
1539.000000	943.000000	21.967049
1540.000000	942.000000	21.986749
1541.000000	941.000000	22.013589
1542.000000	940.000000	22.035223
1543.000000	939.000000	22.059236
1544.000000	938.000000	22.082784
1545.000000	937.000000	22.103417
1546.000000	936.000000	22.124587
1547.000000	935.000000	22.144921
1548.000000	934.000000	22.178025
1549.000000	933.000000	22.197820
1550.000000	932.000000	22.222523
1551.000000	931.000000	22.249742
1552.000000	930.000000	22.265057
1553.000000	929.000000	22.284989
1554.000000	928.000000	22.314316
1555.000000	927.000000	22.338131
1556.000000	926.000000	22.345692
1557.000000	925.000000	22.361287
1558.000000	924.000000	22.371441
1559.000000	923.000000	22.379731
1560.000000	922.000000	22.389783
1561.000000	921.000000	22.398467
1562.000000	920.000000	22.404471
1563.000000	919.000000	22.419033
1564.000000	918.000000	22.410758
1565.000000	917.000000	22.417711
1566.000000	916.000000	22.436040
1567.000000	915.000000	22.444088
1568.000000	914.000000	22.451771
1569.000000	913.000000	22.465152
1570.000000	912.000000	22.477335
1571.000000	911.000000	22.487890
1572.000000	910.000000	22.509945
1573.000000	909.000000	22.532501
1574.000000	908.000000	22.559043
1575.000000	907.000000	22.582501
1576.000000	906.000000	22.611892
1577.000000	905.000000	22.644851
1578.000000	904.000000	22.686547
1579.000000	903.000000	22.711781
1580.000000	902.000000	22.759154
1581.000000	901.000000	22.794366
1582.000000	900.000000	22.848285
1583.000000	899.000000	22.889249
1584.000000	898.000000	22.937384
1585.000000	897.000000	22.990407
1586.000000	896.000000	23.043335
1587.000000	895.000000	23.093436
1588.000000	894.000000	23.149557
1589.000000	893.000000	23.214689
1590.000000	892.000000	23.273034
1591.000000	891.000000	23.327207
1592.000000	890.000000	23.391476
1593.000000	889.000000	23.445751
1594.000000	888.000000	23.509713
1595.000000	887.000000	23.590581
1596.000000	886.000000	23.651431
1597.000000	885.000000	23.720218
1598.000000	884.000000	23.788682
1599.000000	883.000000	23.856044
1600.000000	882.000000	23.937991
1601.000000	881.000000	24.004410
1602.000000	880.000000	24.069702
1603.000000	879.000000	24.150819
1604.000000	878.000000	24.215707
1605.000000	877.000000	24.291234
1606.000000	876.000000	24.366723
1607.000000	875.000000	24.425029
1608.000000	874.000000	24.505893
1609.000000	873.000000	24.578340
1610.000000	872.000000	24.653005
1611.000000	871.000000	24.723385
1612.000000	870.000000	24.798101
1613.000000	869.000000	24.874073
1614.000000	868.000000	24.951542
1615.000000	867.000000	25.036434
1616.000000	866.000000	25.103717
1617.000000	865.000000	25.185053
1618.000000	864.000000	25.275643
1619.000000	863.000000	25.342899
1620.000000	862.000000	25.428663
1621.000000	861.000000	25.501453
1622.000000	860.000000	25.587343
1623.000000	859.000000	25.679480
1624.000000	858.000000	25.768813
1625.000000	857.000000	25.859374
1626.000000	856.000000	25.952003
1627.000000	855.000000	26.030068
1628.000000	854.000000	26.131737
1629.000000	853.000000	26.218141
1630.000000	852.000000	26.308348
1631.000000	851.000000	26.384474
1632.000000	850.000000	26.472269
1633.000000	849.000000	26.549322
1634.000000	848.000000	26.632946
1635.000000	847.000000	26.705527
1636.000000	846.000000	26.782208
1637.000000	845.000000	26.849243
1638.000000	844.000000	26.919894
1639.000000	843.000000	26.996881
1640.000000	842.000000	27.065291
1641.000000	841.000000	27.135121
1642.000000	840.000000	27.201263
1643.000000	839.000000	27.262910
1644.000000	838.000000	27.321479
1645.000000	837.000000	27.382334
1646.000000	836.000000	27.427621
1647.000000	835.000000	27.473871
1648.000000	834.000000	27.520885
1649.000000	833.000000	27.561002
1650.000000	832.000000	27.602789
1651.000000	831.000000	27.633521
1652.000000	830.000000	27.652839
1653.000000	829.000000	27.678041
1654.000000	828.000000	27.688011
1655.000000	827.000000	27.705448
1656.000000	826.000000	27.718415
1657.000000	825.000000	27.698064
1658.000000	824.000000	27.675914
1659.000000	823.000000	27.661992
1660.000000	822.000000	27.624073
1661.000000	821.000000	27.595924
1662.000000	820.000000	27.540945
1663.000000	819.000000	27.467075
1664.000000	818.000000	27.397823
1665.000000	817.000000	27.307151
1666.000000	816.000000	27.202763
1667.000000	815.000000	27.094818
1668.000000	814.000000	26.939381
1669.000000	813.000000	26.768927
1670.000000	812.000000	26.564012
1671.000000	811.000000	26.323997
1672.000000	810.000000	26.039645
1673.000000	809.000000	25.706122
1674.000000	808.000000	25.311146
1675.000000	807.000000	24.875226
1676.000000	806.000000	24.375321
1677.000000	805.000000	23.825554
1678.000000	804.000000	23.273936
1679.000000	803.000000	22.749216
1680.000000	802.000000	22.289845
1681.000000	801.000000	21.939754
1682.000000	800.000000	21.708621
1683.000000	799.000000	21.563116
1684.000000	798.000000	21.503481
1685.000000	797.000000	21.463232
1686.000000	796.000000	21.423342
1687.000000	795.000000	21.359291
1688.000000	794.000000	21.228942
1689.000000	793.000000	21.068190
1690.000000	792.000000	20.907361
1691.000000	791.000000	20.746807
1692.000000	790.000000	20.589259
1693.000000	789.000000	20.506936
1694.000000	788.000000	20.490344
1695.000000	787.000000	20.529989
1696.000000	786.000000	20.625842
1697.000000	785.000000	20.775206
1698.000000	784.000000	20.943449
1699.000000	783.000000	21.118886
1700.000000	782.000000	21.259065
1701.000000	781.000000	21.399365
1702.000000	780.000000	21.510276
1703.000000	779.000000	21.589232
1704.000000	778.000000	21.661511
1705.000000	777.000000	21.735050
1706.000000	776.000000	21.785532
1707.000000	775.000000	21.819407
1708.000000	774.000000	21.841530
1709.000000	773.000000	21.844679
1710.000000	772.000000	21.841735
1711.000000	771.000000	21.799782
1712.000000	770.000000	21.758238
1713.000000	769.000000	21.699174
1714.000000	768.000000	21.639813
1715.000000	767.000000	21.595028
1716.000000	766.000000	21.550593
1717.000000	765.000000	21.525600
1718.000000	764.000000	21.510120
1719.000000	763.000000	21.502426
1720.000000	762.000000	21.475039
1721.000000	761.000000	21.457108
1722.000000	760.000000	21.415613
1723.000000	759.000000	21.365060
1724.000000	758.000000	21.272274
1725.000000	757.000000	21.167423
1726.000000	756.000000	21.049473
1727.000000	755.000000	20.918920
1728.000000	754.000000	20.800363
1729.000000	753.000000	20.679860
1730.000000	752.000000	20.586381
1731.000000	751.000000	20.519863
1732.000000	750.000000	20.499856
1733.000000	749.000000	20.537598
1734.000000	748.000000	20.604925
1735.000000	747.000000	20.735897
1736.000000	746.000000	20.894604
1737.000000	745.000000	21.081030
1738.000000	744.000000	21.301196
1739.000000	743.000000	21.517083
1740.000000	742.000000	21.720424
1741.000000	741.000000	21.911363
1742.000000	740.000000	22.082131
1743.000000	739.000000	22.219795
1744.000000	738.000000	22.344221
1745.000000	737.000000	22.442619
1746.000000	736.000000	22.514431
1747.000000	735.000000	22.554839
1748.000000	734.000000	22.590751
1749.000000	733.000000	22.625785
1750.000000	732.000000	22.633669
1751.000000	731.000000	22.618506
1752.000000	730.000000	22.601163
1753.000000	729.000000	22.565143
1754.000000	728.000000	22.512080
1755.000000	727.000000	22.443895
1756.000000	726.000000	22.365112
1757.000000	725.000000	22.279445
1758.000000	724.000000	22.188331
1759.000000	723.000000	22.119986
1760.000000	722.000000	22.061284
1761.000000	721.000000	22.024378
1762.000000	720.000000	22.011179
1763.000000	719.000000	22.024229
1764.000000	718.000000	22.072260
1765.000000	717.000000	22.141466
1766.000000	716.000000	22.222770
1767.000000	715.000000	22.321108
1768.000000	714.000000	22.429249
1769.000000	713.000000	22.533991
1770.000000	712.000000	22.643981
1771.000000	711.000000	22.763716
1772.000000	710.000000	22.876071
1773.000000	709.000000	22.979513
1774.000000	708.000000	23.083182
1775.000000	707.000000	23.187336
1776.000000	706.000000	23.271460
1777.000000	705.000000	23.346833
1778.000000	704.000000	23.425224
1779.000000	703.000000	23.507267
1780.000000	702.000000	23.581702
1781.000000	701.000000	23.650552
1782.000000	700.000000	23.726020
1783.000000	699.000000	23.805287
1784.000000	698.000000	23.886263
1785.000000	697.000000	23.952735
1786.000000	696.000000	24.026165
1787.000000	695.000000	24.100647
1788.000000	694.000000	24.161455
1789.000000	693.000000	24.224558
1790.000000	692.000000	24.283951
1791.000000	691.000000	24.335772
1792.000000	690.000000	24.395590
1793.000000	689.000000	24.450342
1794.000000	688.000000	24.510758
1795.000000	687.000000	24.562121
1796.000000	686.000000	24.612233
1797.000000	685.000000	24.675453
1798.000000	684.000000	24.729109
1799.000000	683.000000	24.786066
1800.000000	682.000000	24.849181
1801.000000	681.000000	24.903960
1802.000000	680.000000	24.951866
1803.000000	679.000000	24.997381
1804.000000	678.000000	25.049811
1805.000000	677.000000	25.115085
1806.000000	676.000000	25.161731
1807.000000	675.000000	25.202053
1808.000000	674.000000	25.249351
1809.000000	673.000000	25.292198
1810.000000	672.000000	25.324548
1811.000000	671.000000	25.349732
1812.000000	670.000000	25.375937
1813.000000	669.000000	25.391699
1814.000000	668.000000	25.411132
1815.000000	667.000000	25.424383
1816.000000	666.000000	25.433740
1817.000000	665.000000	25.453203
1818.000000	664.000000	25.496647
1819.000000	663.000000	25.545375
1820.000000	662.000000	25.589805
1821.000000	661.000000	25.618403
1822.000000	660.000000	25.640030
1823.000000	659.000000	25.677296
1824.000000	658.000000	25.732195
1825.000000	657.000000	25.809787
1826.000000	656.000000	25.871126
1827.000000	655.000000	25.951442
1828.000000	654.000000	26.039629
1829.000000	653.000000	26.105692
1830.000000	652.000000	26.170283
1831.000000	651.000000	26.227023
1832.000000	650.000000	26.283863
1833.000000	649.000000	26.349869
1834.000000	648.000000	26.416003
1835.000000	647.000000	26.467278
1836.000000	646.000000	26.497016
1837.000000	645.000000	26.530205
1838.000000	644.000000	26.562830
1839.000000	643.000000	26.581347
1840.000000	642.000000	26.599553
1841.000000	641.000000	26.593834
1842.000000	640.000000	26.585758
1843.000000	639.000000	26.603481
1844.000000	638.000000	26.640498
1845.000000	637.000000	26.685462
1846.000000	636.000000	26.722531
1847.000000	635.000000	26.722190
1848.000000	634.000000	26.724006
1849.000000	633.000000	26.713847
1850.000000	632.000000	26.722085
1851.000000	631.000000	26.708091
1852.000000	630.000000	26.699016
1853.000000	629.000000	26.677609
1854.000000	628.000000	26.616115
1855.000000	627.000000	26.570309
1856.000000	626.000000	26.513698
1857.000000	625.000000	26.425985
1858.000000	624.000000	26.314852
1859.000000	623.000000	26.179687
1860.000000	622.000000	26.030484
1861.000000	621.000000	25.856368
1862.000000	620.000000	25.682214
1863.000000	619.000000	25.527638
1864.000000	618.000000	25.343603
1865.000000	617.000000	25.136091
1866.000000	616.000000	24.921686
1867.000000	615.000000	24.653581
1868.000000	614.000000	24.341823
1869.000000	613.000000	23.968092
1870.000000	612.000000	23.590422
1871.000000	611.000000	23.177348
1872.000000	610.000000	22.737126
1873.000000	609.000000	22.271980
1874.000000	608.000000	21.800903
1875.000000	607.000000	21.305264
1876.000000	606.000000	20.816618
1877.000000	605.000000	20.305657
1878.000000	604.000000	19.767938
1879.000000	603.000000	19.261187
1880.000000	602.000000	18.745187
1881.000000	601.000000	18.204329
1882.000000	600.000000	17.672782
1883.000000	599.000000	17.139898
1884.000000	598.000000	16.636025
1885.000000	597.000000	16.203111
1886.000000	596.000000	15.786676
1887.000000	595.000000	15.416699
1888.000000	594.000000	15.046943
1889.000000	593.000000	14.723285
1890.000000	592.000000	14.405107
1891.000000	591.000000	14.072809
1892.000000	590.000000	13.757767
1893.000000	589.000000	13.489613
1894.000000	588.000000	13.251836
1895.000000	587.000000	13.022861
1896.000000	586.000000	12.796955
1897.000000	585.000000	12.557796
1898.000000	584.000000	12.319181
1899.000000	583.000000	12.099523
1900.000000	582.000000	11.864746
1901.000000	581.000000	11.662791
1902.000000	580.000000	11.471629
1903.000000	579.000000	11.288024
1904.000000	578.000000	11.110793
1905.000000	577.000000	10.895124
1906.000000	576.000000	10.702923
1907.000000	575.000000	10.550090
1908.000000	574.000000	10.418188
1909.000000	573.000000	10.281281
1910.000000	572.000000	10.151049
1911.000000	571.000000	10.018090
1912.000000	570.000000	9.865566
1913.000000	569.000000	9.726511
1914.000000	568.000000	9.573647
1915.000000	567.000000	9.467243
1916.000000	566.000000	9.363880
1917.000000	565.000000	9.279399
1918.000000	564.000000	9.164651
1919.000000	563.000000	9.076194
1920.000000	562.000000	8.972109
1921.000000	561.000000	8.877742
1922.000000	560.000000	8.787997
1923.000000	559.000000	8.733407
1924.000000	558.000000	8.659242
1925.000000	557.000000	8.601730
1926.000000	556.000000	8.543066
1927.000000	555.000000	8.491522
1928.000000	554.000000	8.436733
1929.000000	553.000000	8.397194
1930.000000	552.000000	8.357505
1931.000000	551.000000	8.319072
1932.000000	550.000000	8.309025
1933.000000	549.000000	8.278306
1934.000000	548.000000	8.269125
1935.000000	547.000000	8.263190
1936.000000	546.000000	8.250534
1937.000000	545.000000	8.253182
1938.000000	544.000000	8.241802
1939.000000	543.000000	8.258513
1940.000000	542.000000	8.262887
1941.000000	541.000000	8.269810
1942.000000	540.000000	8.295071
1943.000000	539.000000	8.308702
1944.000000	538.000000	8.328469
1945.000000	537.000000	8.349627
1946.000000	536.000000	8.378629
1947.000000	535.000000	8.420040
1948.000000	534.000000	8.459161
1949.000000	533.000000	8.483509
1950.000000	532.000000	8.514539
1951.000000	531.000000	8.568583
1952.000000	530.000000	8.595394
1953.000000	529.000000	8.639224
1954.000000	528.000000	8.685635
1955.000000	527.000000	8.732389
1956.000000	526.000000	8.784616
1957.000000	525.000000	8.820725
1958.000000	524.000000	8.856940
1959.000000	523.000000	8.915567
1960.000000	522.000000	8.966426
1961.000000	521.000000	9.023644
1962.000000	520.000000	9.069514
1963.000000	519.000000	9.106501
1964.000000	518.000000	9.162359
1965.000000	517.000000	9.216689
1966.000000	516.000000	9.273766
1967.000000	515.000000	9.338013
1968.000000	514.000000	9.383107
1969.000000	513.000000	9.433041
1970.000000	512.000000	9.500338
1971.000000	511.000000	9.566772
1972.000000	510.000000	9.611008
1973.000000	509.000000	9.679699
1974.000000	508.000000	9.732558
1975.000000	507.000000	9.797938
1976.000000	506.000000	9.871304
1977.000000	505.000000	9.926226
1978.000000	504.000000	9.982000
1979.000000	503.000000	10.054832
1980.000000	502.000000	10.114140
1981.000000	501.000000	10.178622
1982.000000	500.000000	10.256435
1983.000000	499.000000	10.313447
1984.000000	498.000000	10.382149
1985.000000	497.000000	10.437546
1986.000000	496.000000	10.500719
1987.000000	495.000000	10.566874
1988.000000	494.000000	10.629207
1989.000000	493.000000	10.701302
1990.000000	492.000000	10.755119
1991.000000	491.000000	10.815089
1992.000000	490.000000	10.863609
1993.000000	489.000000	10.931410
1994.000000	488.000000	10.985655
1995.000000	487.000000	11.040219
1996.000000	486.000000	11.089699
1997.000000	485.000000	11.135770
1998.000000	484.000000	11.187198
1999.000000	483.000000	11.239041
