PE UV       SUBTECH     SPECTRUM    ASCII       PEDS        4.00        
   -1
CICIMAUCR0248-3.Sample.ASC
24/06/24
17:40:12.00
24/06/24
17:40:12.00
Vinicio Soto Monge
C. resplendens. Sex F.Dorsal.  
250,000000
1
Lambda 1050
1050L1511233
PerkinElmer UV WinLab 6.3.2.0749 / 2.02.05 Lambda 900 UV/VIS/NIR, Aug  7 2015 09:38:08

0
0
3350/servo 860,8/2
0
0
UV/VIS
1
1
1
DoubleDePol,CommonBeamDepol,RBeamAtt,SBeamAtt,60mm sphere, WB InGaAs Detector
0
0
0
0
Program
Program
3350/servo 860,8/2
3350/0,2 860,8/0,2
3350/0,2 860,8/0,2
0
15.00
 
 
 
0
 
860,8
319,2
860,8
Front
100
on
S:100 R:100
0
0
0
0
 
0
 
 
 
0
 
 
0
0
0
0
0
 
 
 
 
0
0


0
0
#HDR
-1
-1
#GR
nm
%R
1.0
0.0
2500,000000
-1,000000
2251
8
91,661300
5,768300
#DATA
250.000000	2232.000000	6.535667
251.000000	2231.000000	6.529233
252.000000	2230.000000	6.519067
253.000000	2229.000000	6.503300
254.000000	2228.000000	6.480267
255.000000	2227.000000	6.455767
256.000000	2226.000000	6.436600
257.000000	2225.000000	6.445833
258.000000	2224.000000	6.419467
259.000000	2223.000000	6.394100
260.000000	2222.000000	6.385333
261.000000	2221.000000	6.359567
262.000000	2220.000000	6.329700
263.000000	2219.000000	6.294700
264.000000	2218.000000	6.277833
265.000000	2217.000000	6.258467
266.000000	2216.000000	6.233600
267.000000	2215.000000	6.201600
268.000000	2214.000000	6.173233
269.000000	2213.000000	6.167233
270.000000	2212.000000	6.134333
271.000000	2211.000000	6.109367
272.000000	2210.000000	6.104933
273.000000	2209.000000	6.071200
274.000000	2208.000000	6.070533
275.000000	2207.000000	6.061633
276.000000	2206.000000	6.055733
277.000000	2205.000000	6.050100
278.000000	2204.000000	6.031100
279.000000	2203.000000	6.015667
280.000000	2202.000000	6.013267
281.000000	2201.000000	6.005067
282.000000	2200.000000	5.994900
283.000000	2199.000000	5.978833
284.000000	2198.000000	5.953733
285.000000	2197.000000	5.959467
286.000000	2196.000000	5.959067
287.000000	2195.000000	5.955833
288.000000	2194.000000	5.949000
289.000000	2193.000000	5.948967
290.000000	2192.000000	5.920900
291.000000	2191.000000	5.909533
292.000000	2190.000000	5.910867
293.000000	2189.000000	5.898800
294.000000	2188.000000	5.878800
295.000000	2187.000000	5.886033
296.000000	2186.000000	5.886100
297.000000	2185.000000	5.886833
298.000000	2184.000000	5.881600
299.000000	2183.000000	5.873600
300.000000	2182.000000	5.860767
301.000000	2181.000000	5.849700
302.000000	2180.000000	5.856567
303.000000	2179.000000	5.861667
304.000000	2178.000000	5.853533
305.000000	2177.000000	5.841467
306.000000	2176.000000	5.834067
307.000000	2175.000000	5.810700
308.000000	2174.000000	5.804500
309.000000	2173.000000	5.795633
310.000000	2172.000000	5.805067
311.000000	2171.000000	5.797167
312.000000	2170.000000	5.821667
313.000000	2169.000000	5.824533
314.000000	2168.000000	5.796233
315.000000	2167.000000	5.799800
316.000000	2166.000000	5.892333
317.000000	2165.000000	6.016533
318.000000	2164.000000	5.919467
319.000000	2163.000000	5.856267
320.000000	2162.000000	5.985500
321.000000	2161.000000	5.933233
322.000000	2160.000000	5.794600
323.000000	2159.000000	5.720333
324.000000	2158.000000	5.734367
325.000000	2157.000000	5.833333
326.000000	2156.000000	5.882967
327.000000	2155.000000	5.892000
328.000000	2154.000000	5.806733
329.000000	2153.000000	5.762800
330.000000	2152.000000	5.851200
331.000000	2151.000000	5.841600
332.000000	2150.000000	5.746167
333.000000	2149.000000	5.695200
334.000000	2148.000000	5.725867
335.000000	2147.000000	5.716333
336.000000	2146.000000	5.703300
337.000000	2145.000000	5.707667
338.000000	2144.000000	5.738133
339.000000	2143.000000	5.778167
340.000000	2142.000000	5.742767
341.000000	2141.000000	5.768433
342.000000	2140.000000	5.754700
343.000000	2139.000000	5.749533
344.000000	2138.000000	5.799733
345.000000	2137.000000	5.816933
346.000000	2136.000000	5.805167
347.000000	2135.000000	5.786533
348.000000	2134.000000	5.799867
349.000000	2133.000000	5.829367
350.000000	2132.000000	5.815467
351.000000	2131.000000	5.818933
352.000000	2130.000000	5.860900
353.000000	2129.000000	5.894100
354.000000	2128.000000	5.936633
355.000000	2127.000000	5.960733
356.000000	2126.000000	6.000167
357.000000	2125.000000	6.047267
358.000000	2124.000000	6.040933
359.000000	2123.000000	5.979133
360.000000	2122.000000	6.025867
361.000000	2121.000000	6.066367
362.000000	2120.000000	6.060133
363.000000	2119.000000	6.098367
364.000000	2118.000000	6.167467
365.000000	2117.000000	6.187033
366.000000	2116.000000	6.167967
367.000000	2115.000000	6.188167
368.000000	2114.000000	6.200700
369.000000	2113.000000	6.224233
370.000000	2112.000000	6.296000
371.000000	2111.000000	6.285533
372.000000	2110.000000	6.318667
373.000000	2109.000000	6.288067
374.000000	2108.000000	6.326233
375.000000	2107.000000	6.399267
376.000000	2106.000000	6.439200
377.000000	2105.000000	6.473467
378.000000	2104.000000	6.494333
379.000000	2103.000000	6.523300
380.000000	2102.000000	6.546067
381.000000	2101.000000	6.580600
382.000000	2100.000000	6.618467
383.000000	2099.000000	6.645500
384.000000	2098.000000	6.679133
385.000000	2097.000000	6.717267
386.000000	2096.000000	6.744333
387.000000	2095.000000	6.772467
388.000000	2094.000000	6.813167
389.000000	2093.000000	6.845833
390.000000	2092.000000	6.883167
391.000000	2091.000000	6.924900
392.000000	2090.000000	6.971767
393.000000	2089.000000	7.011633
394.000000	2088.000000	7.042633
395.000000	2087.000000	7.079467
396.000000	2086.000000	7.128800
397.000000	2085.000000	7.181000
398.000000	2084.000000	7.224967
399.000000	2083.000000	7.284633
400.000000	2082.000000	7.342800
401.000000	2081.000000	7.400600
402.000000	2080.000000	7.467500
403.000000	2079.000000	7.559567
404.000000	2078.000000	7.639500
405.000000	2077.000000	7.725600
406.000000	2076.000000	7.825700
407.000000	2075.000000	7.937233
408.000000	2074.000000	8.060667
409.000000	2073.000000	8.188567
410.000000	2072.000000	8.339233
411.000000	2071.000000	8.513500
412.000000	2070.000000	8.696567
413.000000	2069.000000	8.899067
414.000000	2068.000000	9.117433
415.000000	2067.000000	9.366067
416.000000	2066.000000	9.620233
417.000000	2065.000000	9.889200
418.000000	2064.000000	10.195733
419.000000	2063.000000	10.539967
420.000000	2062.000000	10.886433
421.000000	2061.000000	11.283867
422.000000	2060.000000	11.689833
423.000000	2059.000000	12.115267
424.000000	2058.000000	12.557667
425.000000	2057.000000	13.065700
426.000000	2056.000000	13.580033
427.000000	2055.000000	14.093033
428.000000	2054.000000	14.644500
429.000000	2053.000000	15.206667
430.000000	2052.000000	15.793967
431.000000	2051.000000	16.398100
432.000000	2050.000000	16.979200
433.000000	2049.000000	17.599633
434.000000	2048.000000	18.225400
435.000000	2047.000000	18.838933
436.000000	2046.000000	19.444667
437.000000	2045.000000	20.057367
438.000000	2044.000000	20.668300
439.000000	2043.000000	21.215800
440.000000	2042.000000	21.796233
441.000000	2041.000000	22.366000
442.000000	2040.000000	22.906867
443.000000	2039.000000	23.443667
444.000000	2038.000000	23.942667
445.000000	2037.000000	24.415967
446.000000	2036.000000	24.875500
447.000000	2035.000000	25.299500
448.000000	2034.000000	25.718367
449.000000	2033.000000	26.100333
450.000000	2032.000000	26.493633
451.000000	2031.000000	26.843633
452.000000	2030.000000	27.183867
453.000000	2029.000000	27.513767
454.000000	2028.000000	27.811600
455.000000	2027.000000	28.089400
456.000000	2026.000000	28.352867
457.000000	2025.000000	28.639633
458.000000	2024.000000	28.857233
459.000000	2023.000000	29.103467
460.000000	2022.000000	29.326600
461.000000	2021.000000	29.557800
462.000000	2020.000000	29.763367
463.000000	2019.000000	29.949433
464.000000	2018.000000	30.165600
465.000000	2017.000000	30.336733
466.000000	2016.000000	30.527067
467.000000	2015.000000	30.692367
468.000000	2014.000000	30.861133
469.000000	2013.000000	31.016833
470.000000	2012.000000	31.188900
471.000000	2011.000000	31.344067
472.000000	2010.000000	31.511133
473.000000	2009.000000	31.644533
474.000000	2008.000000	31.792133
475.000000	2007.000000	31.923200
476.000000	2006.000000	32.050833
477.000000	2005.000000	32.175100
478.000000	2004.000000	32.303533
479.000000	2003.000000	32.401067
480.000000	2002.000000	32.485167
481.000000	2001.000000	32.576100
482.000000	2000.000000	32.644400
483.000000	1999.000000	32.715333
484.000000	1998.000000	32.740400
485.000000	1997.000000	32.748400
486.000000	1996.000000	32.745967
487.000000	1995.000000	32.691967
488.000000	1994.000000	32.664433
489.000000	1993.000000	32.616500
490.000000	1992.000000	32.555633
491.000000	1991.000000	32.491933
492.000000	1990.000000	32.399067
493.000000	1989.000000	32.288200
494.000000	1988.000000	32.209333
495.000000	1987.000000	32.134433
496.000000	1986.000000	32.087033
497.000000	1985.000000	32.037167
498.000000	1984.000000	32.014333
499.000000	1983.000000	32.032067
500.000000	1982.000000	32.084667
501.000000	1981.000000	32.197133
502.000000	1980.000000	32.367700
503.000000	1979.000000	32.562367
504.000000	1978.000000	32.839167
505.000000	1977.000000	33.170800
506.000000	1976.000000	33.549867
507.000000	1975.000000	33.962567
508.000000	1974.000000	34.417567
509.000000	1973.000000	34.909500
510.000000	1972.000000	35.456833
511.000000	1971.000000	36.010300
512.000000	1970.000000	36.614267
513.000000	1969.000000	37.240000
514.000000	1968.000000	37.870767
515.000000	1967.000000	38.536000
516.000000	1966.000000	39.186800
517.000000	1965.000000	39.854633
518.000000	1964.000000	40.526867
519.000000	1963.000000	41.215333
520.000000	1962.000000	41.965700
521.000000	1961.000000	42.723900
522.000000	1960.000000	43.486200
523.000000	1959.000000	44.293700
524.000000	1958.000000	45.117600
525.000000	1957.000000	45.972300
526.000000	1956.000000	46.820300
527.000000	1955.000000	47.704033
528.000000	1954.000000	48.633867
529.000000	1953.000000	49.588600
530.000000	1952.000000	50.573867
531.000000	1951.000000	51.604933
532.000000	1950.000000	52.648000
533.000000	1949.000000	53.737467
534.000000	1948.000000	54.809100
535.000000	1947.000000	55.933100
536.000000	1946.000000	57.077367
537.000000	1945.000000	58.233133
538.000000	1944.000000	59.414567
539.000000	1943.000000	60.639500
540.000000	1942.000000	61.863533
541.000000	1941.000000	63.126867
542.000000	1940.000000	64.382667
543.000000	1939.000000	65.656233
544.000000	1938.000000	66.889233
545.000000	1937.000000	68.113867
546.000000	1936.000000	69.307733
547.000000	1935.000000	70.478967
548.000000	1934.000000	71.598967
549.000000	1933.000000	72.674000
550.000000	1932.000000	73.724367
551.000000	1931.000000	74.755433
552.000000	1930.000000	75.723800
553.000000	1929.000000	76.650800
554.000000	1928.000000	77.492033
555.000000	1927.000000	78.302667
556.000000	1926.000000	79.061733
557.000000	1925.000000	79.776433
558.000000	1924.000000	80.463433
559.000000	1923.000000	81.111567
560.000000	1922.000000	81.801400
561.000000	1921.000000	82.379267
562.000000	1920.000000	82.917700
563.000000	1919.000000	83.414400
564.000000	1918.000000	83.907367
565.000000	1917.000000	84.340867
566.000000	1916.000000	84.772700
567.000000	1915.000000	85.170700
568.000000	1914.000000	85.542300
569.000000	1913.000000	85.895700
570.000000	1912.000000	86.258533
571.000000	1911.000000	86.582767
572.000000	1910.000000	86.905833
573.000000	1909.000000	87.215967
574.000000	1908.000000	87.519667
575.000000	1907.000000	87.813467
576.000000	1906.000000	88.071833
577.000000	1905.000000	88.349233
578.000000	1904.000000	88.584933
579.000000	1903.000000	88.820700
580.000000	1902.000000	89.045467
581.000000	1901.000000	89.252867
582.000000	1900.000000	89.464733
583.000000	1899.000000	89.659167
584.000000	1898.000000	89.833867
585.000000	1897.000000	89.958467
586.000000	1896.000000	90.100633
587.000000	1895.000000	90.205567
588.000000	1894.000000	90.302500
589.000000	1893.000000	90.382400
590.000000	1892.000000	90.449067
591.000000	1891.000000	90.488633
592.000000	1890.000000	90.508700
593.000000	1889.000000	90.534833
594.000000	1888.000000	90.528767
595.000000	1887.000000	90.517067
596.000000	1886.000000	90.488600
597.000000	1885.000000	90.447433
598.000000	1884.000000	90.376567
599.000000	1883.000000	90.337900
600.000000	1882.000000	90.269400
601.000000	1881.000000	90.172200
602.000000	1880.000000	90.079733
603.000000	1879.000000	89.961500
604.000000	1878.000000	89.820833
605.000000	1877.000000	89.672500
606.000000	1876.000000	89.517400
607.000000	1875.000000	89.365400
608.000000	1874.000000	89.178833
609.000000	1873.000000	88.968633
610.000000	1872.000000	88.755633
611.000000	1871.000000	88.524900
612.000000	1870.000000	88.264433
613.000000	1869.000000	87.987333
614.000000	1868.000000	87.659633
615.000000	1867.000000	87.336600
616.000000	1866.000000	86.980967
617.000000	1865.000000	86.616733
618.000000	1864.000000	86.194000
619.000000	1863.000000	85.750900
620.000000	1862.000000	85.311733
621.000000	1861.000000	84.831900
622.000000	1860.000000	84.333000
623.000000	1859.000000	83.805167
624.000000	1858.000000	83.232400
625.000000	1857.000000	82.663333
626.000000	1856.000000	82.086667
627.000000	1855.000000	81.484833
628.000000	1854.000000	80.832800
629.000000	1853.000000	80.150700
630.000000	1852.000000	79.461367
631.000000	1851.000000	78.739367
632.000000	1850.000000	77.991167
633.000000	1849.000000	77.221300
634.000000	1848.000000	76.418600
635.000000	1847.000000	75.601200
636.000000	1846.000000	74.751033
637.000000	1845.000000	73.890667
638.000000	1844.000000	73.015933
639.000000	1843.000000	72.095800
640.000000	1842.000000	71.163033
641.000000	1841.000000	70.236900
642.000000	1840.000000	69.299500
643.000000	1839.000000	68.357467
644.000000	1838.000000	67.423667
645.000000	1837.000000	66.498533
646.000000	1836.000000	65.626867
647.000000	1835.000000	64.778667
648.000000	1834.000000	63.948767
649.000000	1833.000000	63.160633
650.000000	1832.000000	62.410133
651.000000	1831.000000	61.723267
652.000000	1830.000000	61.075533
653.000000	1829.000000	60.453033
654.000000	1828.000000	59.901500
655.000000	1827.000000	59.421767
656.000000	1826.000000	58.987400
657.000000	1825.000000	58.612100
658.000000	1824.000000	58.286300
659.000000	1823.000000	58.010333
660.000000	1822.000000	57.820167
661.000000	1821.000000	57.709300
662.000000	1820.000000	57.669200
663.000000	1819.000000	57.717067
664.000000	1818.000000	57.831267
665.000000	1817.000000	58.017167
666.000000	1816.000000	58.295200
667.000000	1815.000000	58.650133
668.000000	1814.000000	59.068367
669.000000	1813.000000	59.522167
670.000000	1812.000000	60.035033
671.000000	1811.000000	60.629567
672.000000	1810.000000	61.204100
673.000000	1809.000000	61.842967
674.000000	1808.000000	62.475400
675.000000	1807.000000	63.102667
676.000000	1806.000000	63.732833
677.000000	1805.000000	64.368500
678.000000	1804.000000	64.976700
679.000000	1803.000000	65.570033
680.000000	1802.000000	66.162633
681.000000	1801.000000	66.712933
682.000000	1800.000000	67.252833
683.000000	1799.000000	67.775100
684.000000	1798.000000	68.316200
685.000000	1797.000000	68.824200
686.000000	1796.000000	69.314733
687.000000	1795.000000	69.756733
688.000000	1794.000000	70.202800
689.000000	1793.000000	70.647233
690.000000	1792.000000	71.054400
691.000000	1791.000000	71.495633
692.000000	1790.000000	71.884900
693.000000	1789.000000	72.263900
694.000000	1788.000000	72.643833
695.000000	1787.000000	72.980100
696.000000	1786.000000	73.261400
697.000000	1785.000000	73.538300
698.000000	1784.000000	73.811267
699.000000	1783.000000	74.115367
700.000000	1782.000000	74.339567
701.000000	1781.000000	74.492400
702.000000	1780.000000	74.684467
703.000000	1779.000000	74.874800
704.000000	1778.000000	75.033833
705.000000	1777.000000	75.143367
706.000000	1776.000000	75.271500
707.000000	1775.000000	75.330633
708.000000	1774.000000	75.400367
709.000000	1773.000000	75.462033
710.000000	1772.000000	75.478433
711.000000	1771.000000	75.551067
712.000000	1770.000000	75.583700
713.000000	1769.000000	75.577833
714.000000	1768.000000	75.603567
715.000000	1767.000000	75.594400
716.000000	1766.000000	75.565167
717.000000	1765.000000	75.582633
718.000000	1764.000000	75.564800
719.000000	1763.000000	75.507900
720.000000	1762.000000	75.482533
721.000000	1761.000000	75.469967
722.000000	1760.000000	75.466933
723.000000	1759.000000	75.483867
724.000000	1758.000000	75.506000
725.000000	1757.000000	75.559433
726.000000	1756.000000	75.606533
727.000000	1755.000000	75.703633
728.000000	1754.000000	75.744900
729.000000	1753.000000	75.880100
730.000000	1752.000000	75.978633
731.000000	1751.000000	76.096333
732.000000	1750.000000	76.256633
733.000000	1749.000000	76.417100
734.000000	1748.000000	76.546100
735.000000	1747.000000	76.819833
736.000000	1746.000000	77.038500
737.000000	1745.000000	77.234200
738.000000	1744.000000	77.428433
739.000000	1743.000000	77.632133
740.000000	1742.000000	77.887633
741.000000	1741.000000	78.120233
742.000000	1740.000000	78.401300
743.000000	1739.000000	78.637533
744.000000	1738.000000	78.974133
745.000000	1737.000000	79.173600
746.000000	1736.000000	79.405767
747.000000	1735.000000	79.677133
748.000000	1734.000000	79.957200
749.000000	1733.000000	80.262300
750.000000	1732.000000	80.557133
751.000000	1731.000000	80.735900
752.000000	1730.000000	80.968767
753.000000	1729.000000	81.143933
754.000000	1728.000000	81.468200
755.000000	1727.000000	81.752067
756.000000	1726.000000	82.021500
757.000000	1725.000000	82.218533
758.000000	1724.000000	82.420333
759.000000	1723.000000	82.656300
760.000000	1722.000000	82.897133
761.000000	1721.000000	83.127467
762.000000	1720.000000	83.399667
763.000000	1719.000000	83.536333
764.000000	1718.000000	83.778633
765.000000	1717.000000	83.904867
766.000000	1716.000000	84.056400
767.000000	1715.000000	84.144400
768.000000	1714.000000	84.270167
769.000000	1713.000000	84.301833
770.000000	1712.000000	84.529900
771.000000	1711.000000	84.619867
772.000000	1710.000000	84.721233
773.000000	1709.000000	84.674767
774.000000	1708.000000	84.831567
775.000000	1707.000000	84.837700
776.000000	1706.000000	84.878900
777.000000	1705.000000	84.945567
778.000000	1704.000000	84.922633
779.000000	1703.000000	84.872867
780.000000	1702.000000	84.927433
781.000000	1701.000000	84.959133
782.000000	1700.000000	84.911333
783.000000	1699.000000	84.976367
784.000000	1698.000000	85.012400
785.000000	1697.000000	85.084900
786.000000	1696.000000	85.017433
787.000000	1695.000000	85.086667
788.000000	1694.000000	85.038667
789.000000	1693.000000	85.173567
790.000000	1692.000000	85.199933
791.000000	1691.000000	85.256500
792.000000	1690.000000	85.395867
793.000000	1689.000000	85.433267
794.000000	1688.000000	85.475600
795.000000	1687.000000	85.534900
796.000000	1686.000000	85.664600
797.000000	1685.000000	85.690067
798.000000	1684.000000	85.787600
799.000000	1683.000000	85.859433
800.000000	1682.000000	85.818833
801.000000	1681.000000	86.060667
802.000000	1680.000000	85.969633
803.000000	1679.000000	85.997933
804.000000	1678.000000	85.980467
805.000000	1677.000000	86.056167
806.000000	1676.000000	86.005467
807.000000	1675.000000	85.957967
808.000000	1674.000000	85.887600
809.000000	1673.000000	85.900500
810.000000	1672.000000	85.904267
811.000000	1671.000000	85.886933
812.000000	1670.000000	85.708567
813.000000	1669.000000	85.623033
814.000000	1668.000000	85.540400
815.000000	1667.000000	85.444267
816.000000	1666.000000	85.448367
817.000000	1665.000000	85.248133
818.000000	1664.000000	85.089933
819.000000	1663.000000	85.007100
820.000000	1662.000000	84.932133
821.000000	1661.000000	84.843400
822.000000	1660.000000	84.725200
823.000000	1659.000000	84.556533
824.000000	1658.000000	84.628767
825.000000	1657.000000	84.484467
826.000000	1656.000000	84.483033
827.000000	1655.000000	84.452933
828.000000	1654.000000	84.403133
829.000000	1653.000000	84.355133
830.000000	1652.000000	84.374367
831.000000	1651.000000	84.373200
832.000000	1650.000000	84.403333
833.000000	1649.000000	84.374300
834.000000	1648.000000	84.430400
835.000000	1647.000000	84.440467
836.000000	1646.000000	84.528767
837.000000	1645.000000	84.308500
838.000000	1644.000000	84.097767
839.000000	1643.000000	84.217100
840.000000	1642.000000	84.047733
841.000000	1641.000000	84.028333
842.000000	1640.000000	83.888367
843.000000	1639.000000	84.053433
844.000000	1638.000000	83.859200
845.000000	1637.000000	83.737933
846.000000	1636.000000	83.666400
847.000000	1635.000000	83.597067
848.000000	1634.000000	83.422500
849.000000	1633.000000	82.872200
850.000000	1632.000000	82.956633
851.000000	1631.000000	82.675733
852.000000	1630.000000	82.544567
853.000000	1629.000000	81.938067
854.000000	1628.000000	81.875133
855.000000	1627.000000	82.039000
856.000000	1626.000000	81.504033
857.000000	1625.000000	81.034567
858.000000	1624.000000	81.525867
859.000000	1623.000000	81.314889
860.000000	1622.000000	81.133961
861.000000	1621.000000	80.924271
862.000000	1620.000000	80.734792
863.000000	1619.000000	80.525189
864.000000	1618.000000	80.326658
865.000000	1617.000000	80.141459
866.000000	1616.000000	79.958966
867.000000	1615.000000	79.755182
868.000000	1614.000000	79.570139
869.000000	1613.000000	79.365647
870.000000	1612.000000	79.177856
871.000000	1611.000000	79.038710
872.000000	1610.000000	78.967835
873.000000	1609.000000	78.944955
874.000000	1608.000000	78.921014
875.000000	1607.000000	78.850973
876.000000	1606.000000	78.783788
877.000000	1605.000000	78.708767
878.000000	1604.000000	78.630526
879.000000	1603.000000	78.537872
880.000000	1602.000000	78.412188
881.000000	1601.000000	78.287017
882.000000	1600.000000	78.169623
883.000000	1599.000000	78.061616
884.000000	1598.000000	77.932594
885.000000	1597.000000	77.815336
886.000000	1596.000000	77.690067
887.000000	1595.000000	77.558990
888.000000	1594.000000	77.439901
889.000000	1593.000000	77.324550
890.000000	1592.000000	77.201889
891.000000	1591.000000	77.078119
892.000000	1590.000000	76.961533
893.000000	1589.000000	76.851357
894.000000	1588.000000	76.735107
895.000000	1587.000000	76.615865
896.000000	1586.000000	76.508805
897.000000	1585.000000	76.401213
898.000000	1584.000000	76.287394
899.000000	1583.000000	76.168911
900.000000	1582.000000	76.057849
901.000000	1581.000000	75.946675
902.000000	1580.000000	75.836345
903.000000	1579.000000	75.734984
904.000000	1578.000000	75.645988
905.000000	1577.000000	75.549238
906.000000	1576.000000	75.455886
907.000000	1575.000000	75.364067
908.000000	1574.000000	75.278636
909.000000	1573.000000	75.193277
910.000000	1572.000000	75.112121
911.000000	1571.000000	75.025996
912.000000	1570.000000	74.944047
913.000000	1569.000000	74.855407
914.000000	1568.000000	74.764316
915.000000	1567.000000	74.677973
916.000000	1566.000000	74.579600
917.000000	1565.000000	74.482837
918.000000	1564.000000	74.387287
919.000000	1563.000000	74.292271
920.000000	1562.000000	74.193247
921.000000	1561.000000	74.073221
922.000000	1560.000000	73.947620
923.000000	1559.000000	73.834912
924.000000	1558.000000	73.725113
925.000000	1557.000000	73.606704
926.000000	1556.000000	73.494275
927.000000	1555.000000	73.372892
928.000000	1554.000000	73.250534
929.000000	1553.000000	73.145510
930.000000	1552.000000	73.031319
931.000000	1551.000000	72.906106
932.000000	1550.000000	72.772857
933.000000	1549.000000	72.640082
934.000000	1548.000000	72.523887
935.000000	1547.000000	72.390451
936.000000	1546.000000	72.252170
937.000000	1545.000000	72.121288
938.000000	1544.000000	71.993689
939.000000	1543.000000	71.858503
940.000000	1542.000000	71.718084
941.000000	1541.000000	71.579731
942.000000	1540.000000	71.439385
943.000000	1539.000000	71.304969
944.000000	1538.000000	71.174485
945.000000	1537.000000	71.030685
946.000000	1536.000000	70.889186
947.000000	1535.000000	70.752694
948.000000	1534.000000	70.608059
949.000000	1533.000000	70.461268
950.000000	1532.000000	70.319351
951.000000	1531.000000	70.168393
952.000000	1530.000000	70.015964
953.000000	1529.000000	69.870812
954.000000	1528.000000	69.722266
955.000000	1527.000000	69.561573
956.000000	1526.000000	69.406301
957.000000	1525.000000	69.250756
958.000000	1524.000000	69.095469
959.000000	1523.000000	68.941415
960.000000	1522.000000	68.783773
961.000000	1521.000000	68.632110
962.000000	1520.000000	68.485778
963.000000	1519.000000	68.342765
964.000000	1518.000000	68.196300
965.000000	1517.000000	68.055474
966.000000	1516.000000	67.924042
967.000000	1515.000000	67.804295
968.000000	1514.000000	67.679321
969.000000	1513.000000	67.549039
970.000000	1512.000000	67.425283
971.000000	1511.000000	67.311336
972.000000	1510.000000	67.194553
973.000000	1509.000000	67.079639
974.000000	1508.000000	66.975978
975.000000	1507.000000	66.861256
976.000000	1506.000000	66.751919
977.000000	1505.000000	66.644188
978.000000	1504.000000	66.525796
979.000000	1503.000000	66.414298
980.000000	1502.000000	66.305180
981.000000	1501.000000	66.195104
982.000000	1500.000000	66.089519
983.000000	1499.000000	65.988258
984.000000	1498.000000	65.885579
985.000000	1497.000000	65.784934
986.000000	1496.000000	65.679803
987.000000	1495.000000	65.591226
988.000000	1494.000000	65.498060
989.000000	1493.000000	65.403126
990.000000	1492.000000	65.304820
991.000000	1491.000000	65.213470
992.000000	1490.000000	65.120344
993.000000	1489.000000	65.036329
994.000000	1488.000000	64.941579
995.000000	1487.000000	64.845865
996.000000	1486.000000	64.756610
997.000000	1485.000000	64.664969
998.000000	1484.000000	64.567886
999.000000	1483.000000	64.481382
1000.000000	1482.000000	64.398436
1001.000000	1481.000000	64.311959
1002.000000	1480.000000	64.221180
1003.000000	1479.000000	64.139890
1004.000000	1478.000000	64.054087
1005.000000	1477.000000	63.984991
1006.000000	1476.000000	63.906909
1007.000000	1475.000000	63.833681
1008.000000	1474.000000	63.763843
1009.000000	1473.000000	63.713596
1010.000000	1472.000000	63.662002
1011.000000	1471.000000	63.612270
1012.000000	1470.000000	63.569206
1013.000000	1469.000000	63.525200
1014.000000	1468.000000	63.505286
1015.000000	1467.000000	63.480343
1016.000000	1466.000000	63.458599
1017.000000	1465.000000	63.432037
1018.000000	1464.000000	63.414667
1019.000000	1463.000000	63.405893
1020.000000	1462.000000	63.404644
1021.000000	1461.000000	63.396429
1022.000000	1460.000000	63.392312
1023.000000	1459.000000	63.388134
1024.000000	1458.000000	63.387180
1025.000000	1457.000000	63.384184
1026.000000	1456.000000	63.390990
1027.000000	1455.000000	63.393611
1028.000000	1454.000000	63.381777
1029.000000	1453.000000	63.389772
1030.000000	1452.000000	63.388338
1031.000000	1451.000000	63.387250
1032.000000	1450.000000	63.378869
1033.000000	1449.000000	63.371639
1034.000000	1448.000000	63.364185
1035.000000	1447.000000	63.356963
1036.000000	1446.000000	63.336832
1037.000000	1445.000000	63.327552
1038.000000	1444.000000	63.311760
1039.000000	1443.000000	63.287031
1040.000000	1442.000000	63.259474
1041.000000	1441.000000	63.253755
1042.000000	1440.000000	63.231175
1043.000000	1439.000000	63.221770
1044.000000	1438.000000	63.194247
1045.000000	1437.000000	63.178403
1046.000000	1436.000000	63.162833
1047.000000	1435.000000	63.137704
1048.000000	1434.000000	63.123826
1049.000000	1433.000000	63.111327
1050.000000	1432.000000	63.093709
1051.000000	1431.000000	63.089271
1052.000000	1430.000000	63.090554
1053.000000	1429.000000	63.088326
1054.000000	1428.000000	63.077398
1055.000000	1427.000000	63.091143
1056.000000	1426.000000	63.096860
1057.000000	1425.000000	63.104056
1058.000000	1424.000000	63.111593
1059.000000	1423.000000	63.114980
1060.000000	1422.000000	63.121572
1061.000000	1421.000000	63.138625
1062.000000	1420.000000	63.146535
1063.000000	1419.000000	63.146711
1064.000000	1418.000000	63.165010
1065.000000	1417.000000	63.175209
1066.000000	1416.000000	63.197051
1067.000000	1415.000000	63.213592
1068.000000	1414.000000	63.226281
1069.000000	1413.000000	63.237932
1070.000000	1412.000000	63.245193
1071.000000	1411.000000	63.267506
1072.000000	1410.000000	63.289787
1073.000000	1409.000000	63.304968
1074.000000	1408.000000	63.323287
1075.000000	1407.000000	63.333995
1076.000000	1406.000000	63.350920
1077.000000	1405.000000	63.373642
1078.000000	1404.000000	63.379253
1079.000000	1403.000000	63.409694
1080.000000	1402.000000	63.409874
1081.000000	1401.000000	63.425426
1082.000000	1400.000000	63.442060
1083.000000	1399.000000	63.459808
1084.000000	1398.000000	63.469911
1085.000000	1397.000000	63.476073
1086.000000	1396.000000	63.483521
1087.000000	1395.000000	63.493431
1088.000000	1394.000000	63.509626
1089.000000	1393.000000	63.496323
1090.000000	1392.000000	63.498365
1091.000000	1391.000000	63.517678
1092.000000	1390.000000	63.506926
1093.000000	1389.000000	63.502065
1094.000000	1388.000000	63.499030
1095.000000	1387.000000	63.496195
1096.000000	1386.000000	63.485395
1097.000000	1385.000000	63.483236
1098.000000	1384.000000	63.476255
1099.000000	1383.000000	63.457667
1100.000000	1382.000000	63.443340
1101.000000	1381.000000	63.430960
1102.000000	1380.000000	63.421549
1103.000000	1379.000000	63.404992
1104.000000	1378.000000	63.387867
1105.000000	1377.000000	63.371632
1106.000000	1376.000000	63.356127
1107.000000	1375.000000	63.346399
1108.000000	1374.000000	63.338750
1109.000000	1373.000000	63.320367
1110.000000	1372.000000	63.313339
1111.000000	1371.000000	63.307087
1112.000000	1370.000000	63.283575
1113.000000	1369.000000	63.272147
1114.000000	1368.000000	63.250631
1115.000000	1367.000000	63.248461
1116.000000	1366.000000	63.215825
1117.000000	1365.000000	63.201147
1118.000000	1364.000000	63.174445
1119.000000	1363.000000	63.130820
1120.000000	1362.000000	63.091766
1121.000000	1361.000000	63.037326
1122.000000	1360.000000	62.971785
1123.000000	1359.000000	62.901112
1124.000000	1358.000000	62.794085
1125.000000	1357.000000	62.700882
1126.000000	1356.000000	62.568854
1127.000000	1355.000000	62.441846
1128.000000	1354.000000	62.268043
1129.000000	1353.000000	62.064626
1130.000000	1352.000000	61.834211
1131.000000	1351.000000	61.568906
1132.000000	1350.000000	61.290449
1133.000000	1349.000000	61.032269
1134.000000	1348.000000	60.724847
1135.000000	1347.000000	60.373112
1136.000000	1346.000000	60.017325
1137.000000	1345.000000	59.677696
1138.000000	1344.000000	59.356516
1139.000000	1343.000000	59.059730
1140.000000	1342.000000	58.780407
1141.000000	1341.000000	58.489720
1142.000000	1340.000000	58.231695
1143.000000	1339.000000	57.993302
1144.000000	1338.000000	57.797775
1145.000000	1337.000000	57.616175
1146.000000	1336.000000	57.452732
1147.000000	1335.000000	57.309043
1148.000000	1334.000000	57.187399
1149.000000	1333.000000	57.069619
1150.000000	1332.000000	56.948866
1151.000000	1331.000000	56.818450
1152.000000	1330.000000	56.679777
1153.000000	1329.000000	56.518776
1154.000000	1328.000000	56.332946
1155.000000	1327.000000	56.130684
1156.000000	1326.000000	55.902087
1157.000000	1325.000000	55.667286
1158.000000	1324.000000	55.425635
1159.000000	1323.000000	55.177409
1160.000000	1322.000000	54.919718
1161.000000	1321.000000	54.674759
1162.000000	1320.000000	54.418203
1163.000000	1319.000000	54.173039
1164.000000	1318.000000	53.935449
1165.000000	1317.000000	53.698601
1166.000000	1316.000000	53.465380
1167.000000	1315.000000	53.237322
1168.000000	1314.000000	53.023324
1169.000000	1313.000000	52.818835
1170.000000	1312.000000	52.616092
1171.000000	1311.000000	52.417152
1172.000000	1310.000000	52.229390
1173.000000	1309.000000	52.051099
1174.000000	1308.000000	51.858326
1175.000000	1307.000000	51.657765
1176.000000	1306.000000	51.437260
1177.000000	1305.000000	51.197966
1178.000000	1304.000000	50.939096
1179.000000	1303.000000	50.658208
1180.000000	1302.000000	50.388155
1181.000000	1301.000000	50.141823
1182.000000	1300.000000	49.924877
1183.000000	1299.000000	49.765260
1184.000000	1298.000000	49.680501
1185.000000	1297.000000	49.671032
1186.000000	1296.000000	49.724761
1187.000000	1295.000000	49.835271
1188.000000	1294.000000	49.997501
1189.000000	1293.000000	50.204486
1190.000000	1292.000000	50.430635
1191.000000	1291.000000	50.650623
1192.000000	1290.000000	50.851473
1193.000000	1289.000000	51.030273
1194.000000	1288.000000	51.187165
1195.000000	1287.000000	51.312251
1196.000000	1286.000000	51.411130
1197.000000	1285.000000	51.495448
1198.000000	1284.000000	51.561340
1199.000000	1283.000000	51.617753
1200.000000	1282.000000	51.662619
1201.000000	1281.000000	51.694690
1202.000000	1280.000000	51.739467
1203.000000	1279.000000	51.797610
1204.000000	1278.000000	51.848206
1205.000000	1277.000000	51.900239
1206.000000	1276.000000	51.965540
1207.000000	1275.000000	52.047145
1208.000000	1274.000000	52.129679
1209.000000	1273.000000	52.212930
1210.000000	1272.000000	52.299802
1211.000000	1271.000000	52.387048
1212.000000	1270.000000	52.476789
1213.000000	1269.000000	52.568416
1214.000000	1268.000000	52.662611
1215.000000	1267.000000	52.759532
1216.000000	1266.000000	52.861480
1217.000000	1265.000000	52.971159
1218.000000	1264.000000	53.075408
1219.000000	1263.000000	53.180164
1220.000000	1262.000000	53.296028
1221.000000	1261.000000	53.413674
1222.000000	1260.000000	53.524731
1223.000000	1259.000000	53.639927
1224.000000	1258.000000	53.759273
1225.000000	1257.000000	53.874575
1226.000000	1256.000000	53.985394
1227.000000	1255.000000	54.102494
1228.000000	1254.000000	54.216056
1229.000000	1253.000000	54.323795
1230.000000	1252.000000	54.434285
1231.000000	1251.000000	54.541858
1232.000000	1250.000000	54.639831
1233.000000	1249.000000	54.743737
1234.000000	1248.000000	54.846618
1235.000000	1247.000000	54.943193
1236.000000	1246.000000	55.037085
1237.000000	1245.000000	55.132550
1238.000000	1244.000000	55.226983
1239.000000	1243.000000	55.316475
1240.000000	1242.000000	55.402032
1241.000000	1241.000000	55.487017
1242.000000	1240.000000	55.574356
1243.000000	1239.000000	55.663314
1244.000000	1238.000000	55.756764
1245.000000	1237.000000	55.829380
1246.000000	1236.000000	55.902161
1247.000000	1235.000000	55.980130
1248.000000	1234.000000	56.046742
1249.000000	1233.000000	56.107412
1250.000000	1232.000000	56.160261
1251.000000	1231.000000	56.210896
1252.000000	1230.000000	56.259751
1253.000000	1229.000000	56.310427
1254.000000	1228.000000	56.356010
1255.000000	1227.000000	56.379063
1256.000000	1226.000000	56.418040
1257.000000	1225.000000	56.449934
1258.000000	1224.000000	56.472138
1259.000000	1223.000000	56.495015
1260.000000	1222.000000	56.523127
1261.000000	1221.000000	56.558078
1262.000000	1220.000000	56.584108
1263.000000	1219.000000	56.607890
1264.000000	1218.000000	56.624827
1265.000000	1217.000000	56.650070
1266.000000	1216.000000	56.679080
1267.000000	1215.000000	56.694680
1268.000000	1214.000000	56.708384
1269.000000	1213.000000	56.723310
1270.000000	1212.000000	56.739858
1271.000000	1211.000000	56.750557
1272.000000	1210.000000	56.766368
1273.000000	1209.000000	56.795738
1274.000000	1208.000000	56.814325
1275.000000	1207.000000	56.831509
1276.000000	1206.000000	56.849712
1277.000000	1205.000000	56.876517
1278.000000	1204.000000	56.898989
1279.000000	1203.000000	56.924739
1280.000000	1202.000000	56.948247
1281.000000	1201.000000	56.977321
1282.000000	1200.000000	57.004809
1283.000000	1199.000000	57.025776
1284.000000	1198.000000	57.046896
1285.000000	1197.000000	57.072221
1286.000000	1196.000000	57.084618
1287.000000	1195.000000	57.090937
1288.000000	1194.000000	57.093087
1289.000000	1193.000000	57.088694
1290.000000	1192.000000	57.090401
1291.000000	1191.000000	57.083931
1292.000000	1190.000000	57.068605
1293.000000	1189.000000	57.047886
1294.000000	1188.000000	57.026201
1295.000000	1187.000000	57.001285
1296.000000	1186.000000	56.976714
1297.000000	1185.000000	56.943232
1298.000000	1184.000000	56.893441
1299.000000	1183.000000	56.856456
1300.000000	1182.000000	56.811681
1301.000000	1181.000000	56.763580
1302.000000	1180.000000	56.700565
1303.000000	1179.000000	56.643257
1304.000000	1178.000000	56.579168
1305.000000	1177.000000	56.505608
1306.000000	1176.000000	56.441563
1307.000000	1175.000000	56.370621
1308.000000	1174.000000	56.270304
1309.000000	1173.000000	56.177632
1310.000000	1172.000000	56.079626
1311.000000	1171.000000	55.976160
1312.000000	1170.000000	55.866985
1313.000000	1169.000000	55.765448
1314.000000	1168.000000	55.651276
1315.000000	1167.000000	55.513889
1316.000000	1166.000000	55.391733
1317.000000	1165.000000	55.253319
1318.000000	1164.000000	55.122830
1319.000000	1163.000000	54.992959
1320.000000	1162.000000	54.859153
1321.000000	1161.000000	54.705105
1322.000000	1160.000000	54.543861
1323.000000	1159.000000	54.391720
1324.000000	1158.000000	54.223535
1325.000000	1157.000000	54.058056
1326.000000	1156.000000	53.883804
1327.000000	1155.000000	53.711815
1328.000000	1154.000000	53.529763
1329.000000	1153.000000	53.340069
1330.000000	1152.000000	53.136309
1331.000000	1151.000000	52.941478
1332.000000	1150.000000	52.730324
1333.000000	1149.000000	52.523180
1334.000000	1148.000000	52.304501
1335.000000	1147.000000	52.085310
1336.000000	1146.000000	51.872386
1337.000000	1145.000000	51.631010
1338.000000	1144.000000	51.398900
1339.000000	1143.000000	51.176906
1340.000000	1142.000000	50.928306
1341.000000	1141.000000	50.680392
1342.000000	1140.000000	50.446941
1343.000000	1139.000000	50.219595
1344.000000	1138.000000	49.965381
1345.000000	1137.000000	49.698761
1346.000000	1136.000000	49.447069
1347.000000	1135.000000	49.198525
1348.000000	1134.000000	48.915811
1349.000000	1133.000000	48.641414
1350.000000	1132.000000	48.338344
1351.000000	1131.000000	48.037992
1352.000000	1130.000000	47.739696
1353.000000	1129.000000	47.510211
1354.000000	1128.000000	47.302615
1355.000000	1127.000000	47.098415
1356.000000	1126.000000	46.917247
1357.000000	1125.000000	46.807433
1358.000000	1124.000000	46.722011
1359.000000	1123.000000	46.618710
1360.000000	1122.000000	46.594023
1361.000000	1121.000000	46.474018
1362.000000	1120.000000	46.324455
1363.000000	1119.000000	46.147234
1364.000000	1118.000000	46.018006
1365.000000	1117.000000	45.840894
1366.000000	1116.000000	45.680096
1367.000000	1115.000000	45.495731
1368.000000	1114.000000	45.274347
1369.000000	1113.000000	45.028326
1370.000000	1112.000000	44.817137
1371.000000	1111.000000	44.557194
1372.000000	1110.000000	44.302043
1373.000000	1109.000000	44.055331
1374.000000	1108.000000	43.838374
1375.000000	1107.000000	43.643334
1376.000000	1106.000000	43.455479
1377.000000	1105.000000	43.259770
1378.000000	1104.000000	43.071045
1379.000000	1103.000000	42.840725
1380.000000	1102.000000	42.590439
1381.000000	1101.000000	42.246664
1382.000000	1100.000000	41.825514
1383.000000	1099.000000	41.353641
1384.000000	1098.000000	40.897640
1385.000000	1097.000000	40.384465
1386.000000	1096.000000	39.945033
1387.000000	1095.000000	39.504717
1388.000000	1094.000000	39.045147
1389.000000	1093.000000	38.564321
1390.000000	1092.000000	38.210383
1391.000000	1091.000000	37.835184
1392.000000	1090.000000	37.452553
1393.000000	1089.000000	37.103261
1394.000000	1088.000000	36.782778
1395.000000	1087.000000	36.430374
1396.000000	1086.000000	35.988527
1397.000000	1085.000000	35.609526
1398.000000	1084.000000	35.304506
1399.000000	1083.000000	35.001247
1400.000000	1082.000000	34.619554
1401.000000	1081.000000	34.166453
1402.000000	1080.000000	33.765445
1403.000000	1079.000000	33.408517
1404.000000	1078.000000	33.055464
1405.000000	1077.000000	32.682760
1406.000000	1076.000000	32.306154
1407.000000	1075.000000	31.965421
1408.000000	1074.000000	31.610699
1409.000000	1073.000000	31.253077
1410.000000	1072.000000	30.895926
1411.000000	1071.000000	30.566623
1412.000000	1070.000000	30.305463
1413.000000	1069.000000	30.035345
1414.000000	1068.000000	29.756014
1415.000000	1067.000000	29.448319
1416.000000	1066.000000	29.174016
1417.000000	1065.000000	28.964942
1418.000000	1064.000000	28.735043
1419.000000	1063.000000	28.520982
1420.000000	1062.000000	28.270601
1421.000000	1061.000000	28.033387
1422.000000	1060.000000	27.830133
1423.000000	1059.000000	27.653743
1424.000000	1058.000000	27.447631
1425.000000	1057.000000	27.250654
1426.000000	1056.000000	27.074526
1427.000000	1055.000000	26.932319
1428.000000	1054.000000	26.770050
1429.000000	1053.000000	26.602195
1430.000000	1052.000000	26.470256
1431.000000	1051.000000	26.333633
1432.000000	1050.000000	26.205492
1433.000000	1049.000000	26.078824
1434.000000	1048.000000	25.953038
1435.000000	1047.000000	25.832512
1436.000000	1046.000000	25.715708
1437.000000	1045.000000	25.603901
1438.000000	1044.000000	25.502515
1439.000000	1043.000000	25.396584
1440.000000	1042.000000	25.292972
1441.000000	1041.000000	25.208087
1442.000000	1040.000000	25.118181
1443.000000	1039.000000	25.029223
1444.000000	1038.000000	24.959933
1445.000000	1037.000000	24.889706
1446.000000	1036.000000	24.797056
1447.000000	1035.000000	24.696279
1448.000000	1034.000000	24.624051
1449.000000	1033.000000	24.569255
1450.000000	1032.000000	24.508062
1451.000000	1031.000000	24.440593
1452.000000	1030.000000	24.364165
1453.000000	1029.000000	24.290298
1454.000000	1028.000000	24.230704
1455.000000	1027.000000	24.167930
1456.000000	1026.000000	24.110173
1457.000000	1025.000000	24.065183
1458.000000	1024.000000	24.018331
1459.000000	1023.000000	23.977008
1460.000000	1022.000000	23.944628
1461.000000	1021.000000	23.912881
1462.000000	1020.000000	23.880652
1463.000000	1019.000000	23.864035
1464.000000	1018.000000	23.843027
1465.000000	1017.000000	23.837746
1466.000000	1016.000000	23.824538
1467.000000	1015.000000	23.804467
1468.000000	1014.000000	23.795745
1469.000000	1013.000000	23.803275
1470.000000	1012.000000	23.804439
1471.000000	1011.000000	23.801007
1472.000000	1010.000000	23.798945
1473.000000	1009.000000	23.793455
1474.000000	1008.000000	23.784953
1475.000000	1007.000000	23.790559
1476.000000	1006.000000	23.802865
1477.000000	1005.000000	23.822583
1478.000000	1004.000000	23.839848
1479.000000	1003.000000	23.854747
1480.000000	1002.000000	23.884528
1481.000000	1001.000000	23.919622
1482.000000	1000.000000	23.953700
1483.000000	999.000000	23.978846
1484.000000	998.000000	24.016151
1485.000000	997.000000	24.059705
1486.000000	996.000000	24.098099
1487.000000	995.000000	24.143558
1488.000000	994.000000	24.191118
1489.000000	993.000000	24.232311
1490.000000	992.000000	24.278782
1491.000000	991.000000	24.333040
1492.000000	990.000000	24.383250
1493.000000	989.000000	24.426318
1494.000000	988.000000	24.475628
1495.000000	987.000000	24.530152
1496.000000	986.000000	24.585160
1497.000000	985.000000	24.641282
1498.000000	984.000000	24.702659
1499.000000	983.000000	24.769765
1500.000000	982.000000	24.833823
1501.000000	981.000000	24.896514
1502.000000	980.000000	24.965982
1503.000000	979.000000	25.033750
1504.000000	978.000000	25.099425
1505.000000	977.000000	25.177232
1506.000000	976.000000	25.252832
1507.000000	975.000000	25.325089
1508.000000	974.000000	25.398018
1509.000000	973.000000	25.468400
1510.000000	972.000000	25.539373
1511.000000	971.000000	25.606674
1512.000000	970.000000	25.682867
1513.000000	969.000000	25.751458
1514.000000	968.000000	25.821391
1515.000000	967.000000	25.892127
1516.000000	966.000000	25.958378
1517.000000	965.000000	26.021310
1518.000000	964.000000	26.089172
1519.000000	963.000000	26.154764
1520.000000	962.000000	26.216262
1521.000000	961.000000	26.277441
1522.000000	960.000000	26.336775
1523.000000	959.000000	26.395801
1524.000000	958.000000	26.453707
1525.000000	957.000000	26.511144
1526.000000	956.000000	26.564954
1527.000000	955.000000	26.621457
1528.000000	954.000000	26.671510
1529.000000	953.000000	26.718159
1530.000000	952.000000	26.763162
1531.000000	951.000000	26.814864
1532.000000	950.000000	26.863165
1533.000000	949.000000	26.899630
1534.000000	948.000000	26.941170
1535.000000	947.000000	26.985097
1536.000000	946.000000	27.025188
1537.000000	945.000000	27.067885
1538.000000	944.000000	27.101266
1539.000000	943.000000	27.140722
1540.000000	942.000000	27.179521
1541.000000	941.000000	27.224059
1542.000000	940.000000	27.269066
1543.000000	939.000000	27.316371
1544.000000	938.000000	27.359050
1545.000000	937.000000	27.411920
1546.000000	936.000000	27.464938
1547.000000	935.000000	27.511506
1548.000000	934.000000	27.567821
1549.000000	933.000000	27.627325
1550.000000	932.000000	27.679553
1551.000000	931.000000	27.734112
1552.000000	930.000000	27.789768
1553.000000	929.000000	27.829471
1554.000000	928.000000	27.864544
1555.000000	927.000000	27.913905
1556.000000	926.000000	27.956953
1557.000000	925.000000	27.984259
1558.000000	924.000000	28.016127
1559.000000	923.000000	28.051952
1560.000000	922.000000	28.072663
1561.000000	921.000000	28.093177
1562.000000	920.000000	28.109338
1563.000000	919.000000	28.128717
1564.000000	918.000000	28.146356
1565.000000	917.000000	28.159572
1566.000000	916.000000	28.185002
1567.000000	915.000000	28.200233
1568.000000	914.000000	28.214241
1569.000000	913.000000	28.232733
1570.000000	912.000000	28.247923
1571.000000	911.000000	28.267892
1572.000000	910.000000	28.296747
1573.000000	909.000000	28.319828
1574.000000	908.000000	28.352060
1575.000000	907.000000	28.384189
1576.000000	906.000000	28.418971
1577.000000	905.000000	28.454054
1578.000000	904.000000	28.505334
1579.000000	903.000000	28.555292
1580.000000	902.000000	28.597712
1581.000000	901.000000	28.644118
1582.000000	900.000000	28.697161
1583.000000	899.000000	28.765161
1584.000000	898.000000	28.815268
1585.000000	897.000000	28.868616
1586.000000	896.000000	28.936261
1587.000000	895.000000	28.993384
1588.000000	894.000000	29.046448
1589.000000	893.000000	29.110728
1590.000000	892.000000	29.165074
1591.000000	891.000000	29.223851
1592.000000	890.000000	29.286701
1593.000000	889.000000	29.345234
1594.000000	888.000000	29.415657
1595.000000	887.000000	29.475817
1596.000000	886.000000	29.537588
1597.000000	885.000000	29.611873
1598.000000	884.000000	29.675263
1599.000000	883.000000	29.746122
1600.000000	882.000000	29.821709
1601.000000	881.000000	29.878134
1602.000000	880.000000	29.965050
1603.000000	879.000000	30.034437
1604.000000	878.000000	30.113097
1605.000000	877.000000	30.186728
1606.000000	876.000000	30.251444
1607.000000	875.000000	30.321603
1608.000000	874.000000	30.387229
1609.000000	873.000000	30.453896
1610.000000	872.000000	30.522754
1611.000000	871.000000	30.595150
1612.000000	870.000000	30.654618
1613.000000	869.000000	30.711391
1614.000000	868.000000	30.777200
1615.000000	867.000000	30.844110
1616.000000	866.000000	30.892664
1617.000000	865.000000	30.975126
1618.000000	864.000000	31.033103
1619.000000	863.000000	31.083141
1620.000000	862.000000	31.147256
1621.000000	861.000000	31.219597
1622.000000	860.000000	31.277073
1623.000000	859.000000	31.352321
1624.000000	858.000000	31.405068
1625.000000	857.000000	31.472793
1626.000000	856.000000	31.550875
1627.000000	855.000000	31.618417
1628.000000	854.000000	31.685953
1629.000000	853.000000	31.747458
1630.000000	852.000000	31.824202
1631.000000	851.000000	31.871767
1632.000000	850.000000	31.930899
1633.000000	849.000000	31.989400
1634.000000	848.000000	32.045621
1635.000000	847.000000	32.095763
1636.000000	846.000000	32.154123
1637.000000	845.000000	32.193743
1638.000000	844.000000	32.243129
1639.000000	843.000000	32.282240
1640.000000	842.000000	32.323176
1641.000000	841.000000	32.364848
1642.000000	840.000000	32.404995
1643.000000	839.000000	32.437986
1644.000000	838.000000	32.476677
1645.000000	837.000000	32.499181
1646.000000	836.000000	32.533686
1647.000000	835.000000	32.561943
1648.000000	834.000000	32.591037
1649.000000	833.000000	32.619428
1650.000000	832.000000	32.633879
1651.000000	831.000000	32.643502
1652.000000	830.000000	32.659069
1653.000000	829.000000	32.644954
1654.000000	828.000000	32.634747
1655.000000	827.000000	32.633795
1656.000000	826.000000	32.607946
1657.000000	825.000000	32.573425
1658.000000	824.000000	32.563040
1659.000000	823.000000	32.512351
1660.000000	822.000000	32.470298
1661.000000	821.000000	32.385094
1662.000000	820.000000	32.338382
1663.000000	819.000000	32.253893
1664.000000	818.000000	32.164529
1665.000000	817.000000	32.079552
1666.000000	816.000000	31.978444
1667.000000	815.000000	31.881227
1668.000000	814.000000	31.785434
1669.000000	813.000000	31.644025
1670.000000	812.000000	31.490005
1671.000000	811.000000	31.309922
1672.000000	810.000000	31.129339
1673.000000	809.000000	30.913308
1674.000000	808.000000	30.694478
1675.000000	807.000000	30.435725
1676.000000	806.000000	30.146923
1677.000000	805.000000	29.858542
1678.000000	804.000000	29.535733
1679.000000	803.000000	29.229885
1680.000000	802.000000	28.933913
1681.000000	801.000000	28.677662
1682.000000	800.000000	28.478901
1683.000000	799.000000	28.327670
1684.000000	798.000000	28.210266
1685.000000	797.000000	28.146406
1686.000000	796.000000	28.070785
1687.000000	795.000000	28.003570
1688.000000	794.000000	27.951524
1689.000000	793.000000	27.880007
1690.000000	792.000000	27.813398
1691.000000	791.000000	27.753351
1692.000000	790.000000	27.709470
1693.000000	789.000000	27.688328
1694.000000	788.000000	27.697471
1695.000000	787.000000	27.734536
1696.000000	786.000000	27.794271
1697.000000	785.000000	27.871012
1698.000000	784.000000	27.958969
1699.000000	783.000000	28.044573
1700.000000	782.000000	28.135339
1701.000000	781.000000	28.197012
1702.000000	780.000000	28.254213
1703.000000	779.000000	28.298125
1704.000000	778.000000	28.328009
1705.000000	777.000000	28.330441
1706.000000	776.000000	28.328886
1707.000000	775.000000	28.313241
1708.000000	774.000000	28.288272
1709.000000	773.000000	28.243041
1710.000000	772.000000	28.183846
1711.000000	771.000000	28.108986
1712.000000	770.000000	28.022532
1713.000000	769.000000	27.922864
1714.000000	768.000000	27.804779
1715.000000	767.000000	27.691630
1716.000000	766.000000	27.585827
1717.000000	765.000000	27.481478
1718.000000	764.000000	27.375866
1719.000000	763.000000	27.290398
1720.000000	762.000000	27.208547
1721.000000	761.000000	27.126770
1722.000000	760.000000	27.052265
1723.000000	759.000000	26.995046
1724.000000	758.000000	26.939655
1725.000000	757.000000	26.887692
1726.000000	756.000000	26.835965
1727.000000	755.000000	26.781511
1728.000000	754.000000	26.729013
1729.000000	753.000000	26.699104
1730.000000	752.000000	26.677741
1731.000000	751.000000	26.672403
1732.000000	750.000000	26.699928
1733.000000	749.000000	26.749497
1734.000000	748.000000	26.823811
1735.000000	747.000000	26.929258
1736.000000	746.000000	27.060547
1737.000000	745.000000	27.203400
1738.000000	744.000000	27.352210
1739.000000	743.000000	27.496178
1740.000000	742.000000	27.649153
1741.000000	741.000000	27.772360
1742.000000	740.000000	27.881661
1743.000000	739.000000	27.973847
1744.000000	738.000000	28.065829
1745.000000	737.000000	28.134201
1746.000000	736.000000	28.181407
1747.000000	735.000000	28.213231
1748.000000	734.000000	28.231122
1749.000000	733.000000	28.247749
1750.000000	732.000000	28.244000
1751.000000	731.000000	28.233701
1752.000000	730.000000	28.206011
1753.000000	729.000000	28.166748
1754.000000	728.000000	28.122365
1755.000000	727.000000	28.069665
1756.000000	726.000000	28.019835
1757.000000	725.000000	27.962449
1758.000000	724.000000	27.916642
1759.000000	723.000000	27.876161
1760.000000	722.000000	27.835586
1761.000000	721.000000	27.807379
1762.000000	720.000000	27.795485
1763.000000	719.000000	27.801001
1764.000000	718.000000	27.827091
1765.000000	717.000000	27.870311
1766.000000	716.000000	27.928524
1767.000000	715.000000	27.992682
1768.000000	714.000000	28.064414
1769.000000	713.000000	28.149567
1770.000000	712.000000	28.227800
1771.000000	711.000000	28.303464
1772.000000	710.000000	28.376967
1773.000000	709.000000	28.448929
1774.000000	708.000000	28.513084
1775.000000	707.000000	28.568846
1776.000000	706.000000	28.632919
1777.000000	705.000000	28.681431
1778.000000	704.000000	28.733675
1779.000000	703.000000	28.787382
1780.000000	702.000000	28.831373
1781.000000	701.000000	28.876313
1782.000000	700.000000	28.918277
1783.000000	699.000000	28.963432
1784.000000	698.000000	29.007184
1785.000000	697.000000	29.043382
1786.000000	696.000000	29.076964
1787.000000	695.000000	29.106299
1788.000000	694.000000	29.136037
1789.000000	693.000000	29.161695
1790.000000	692.000000	29.198226
1791.000000	691.000000	29.244712
1792.000000	690.000000	29.280612
1793.000000	689.000000	29.308236
1794.000000	688.000000	29.343774
1795.000000	687.000000	29.384362
1796.000000	686.000000	29.413633
1797.000000	685.000000	29.451653
1798.000000	684.000000	29.484042
1799.000000	683.000000	29.520582
1800.000000	682.000000	29.580315
1801.000000	681.000000	29.625096
1802.000000	680.000000	29.654249
1803.000000	679.000000	29.683190
1804.000000	678.000000	29.716963
1805.000000	677.000000	29.760411
1806.000000	676.000000	29.797533
1807.000000	675.000000	29.823566
1808.000000	674.000000	29.849921
1809.000000	673.000000	29.881924
1810.000000	672.000000	29.929238
1811.000000	671.000000	29.964840
1812.000000	670.000000	29.979602
1813.000000	669.000000	29.994029
1814.000000	668.000000	30.017943
1815.000000	667.000000	30.040428
1816.000000	666.000000	30.045864
1817.000000	665.000000	30.053719
1818.000000	664.000000	30.087243
1819.000000	663.000000	30.137055
1820.000000	662.000000	30.171954
1821.000000	661.000000	30.189623
1822.000000	660.000000	30.174561
1823.000000	659.000000	30.169174
1824.000000	658.000000	30.197511
1825.000000	657.000000	30.238091
1826.000000	656.000000	30.279721
1827.000000	655.000000	30.334576
1828.000000	654.000000	30.381403
1829.000000	653.000000	30.421452
1830.000000	652.000000	30.465756
1831.000000	651.000000	30.487950
1832.000000	650.000000	30.508947
1833.000000	649.000000	30.553802
1834.000000	648.000000	30.603029
1835.000000	647.000000	30.652106
1836.000000	646.000000	30.685798
1837.000000	645.000000	30.715773
1838.000000	644.000000	30.727254
1839.000000	643.000000	30.745173
1840.000000	642.000000	30.762114
1841.000000	641.000000	30.774587
1842.000000	640.000000	30.749883
1843.000000	639.000000	30.709046
1844.000000	638.000000	30.715641
1845.000000	637.000000	30.726751
1846.000000	636.000000	30.772077
1847.000000	635.000000	30.786423
1848.000000	634.000000	30.762689
1849.000000	633.000000	30.716944
1850.000000	632.000000	30.668116
1851.000000	631.000000	30.630602
1852.000000	630.000000	30.592332
1853.000000	629.000000	30.556952
1854.000000	628.000000	30.495326
1855.000000	627.000000	30.416185
1856.000000	626.000000	30.349073
1857.000000	625.000000	30.266143
1858.000000	624.000000	30.163299
1859.000000	623.000000	30.043347
1860.000000	622.000000	29.894900
1861.000000	621.000000	29.728806
1862.000000	620.000000	29.556815
1863.000000	619.000000	29.410844
1864.000000	618.000000	29.260972
1865.000000	617.000000	29.098896
1866.000000	616.000000	28.943774
1867.000000	615.000000	28.748152
1868.000000	614.000000	28.524924
1869.000000	613.000000	28.231276
1870.000000	612.000000	27.950787
1871.000000	611.000000	27.619187
1872.000000	610.000000	27.273675
1873.000000	609.000000	26.884389
1874.000000	608.000000	26.492550
1875.000000	607.000000	26.081548
1876.000000	606.000000	25.665800
1877.000000	605.000000	25.234532
1878.000000	604.000000	24.789522
1879.000000	603.000000	24.346423
1880.000000	602.000000	23.905547
1881.000000	601.000000	23.434450
1882.000000	600.000000	22.951038
1883.000000	599.000000	22.432310
1884.000000	598.000000	21.892070
1885.000000	597.000000	21.387907
1886.000000	596.000000	20.911122
1887.000000	595.000000	20.446912
1888.000000	594.000000	20.007348
1889.000000	593.000000	19.527523
1890.000000	592.000000	19.089536
1891.000000	591.000000	18.607830
1892.000000	590.000000	18.130493
1893.000000	589.000000	17.731758
1894.000000	588.000000	17.353257
1895.000000	587.000000	17.013538
1896.000000	586.000000	16.690934
1897.000000	585.000000	16.363802
1898.000000	584.000000	16.018160
1899.000000	583.000000	15.662329
1900.000000	582.000000	15.316235
1901.000000	581.000000	15.009188
1902.000000	580.000000	14.717803
1903.000000	579.000000	14.460300
1904.000000	578.000000	14.187546
1905.000000	577.000000	13.891658
1906.000000	576.000000	13.604447
1907.000000	575.000000	13.360569
1908.000000	574.000000	13.155087
1909.000000	573.000000	12.980129
1910.000000	572.000000	12.800159
1911.000000	571.000000	12.618007
1912.000000	570.000000	12.442611
1913.000000	569.000000	12.226148
1914.000000	568.000000	12.046236
1915.000000	567.000000	11.885711
1916.000000	566.000000	11.743614
1917.000000	565.000000	11.617537
1918.000000	564.000000	11.473794
1919.000000	563.000000	11.366260
1920.000000	562.000000	11.236499
1921.000000	561.000000	11.113197
1922.000000	560.000000	10.996094
1923.000000	559.000000	10.884073
1924.000000	558.000000	10.802661
1925.000000	557.000000	10.729826
1926.000000	556.000000	10.652534
1927.000000	555.000000	10.579369
1928.000000	554.000000	10.514515
1929.000000	553.000000	10.456607
1930.000000	552.000000	10.397527
1931.000000	551.000000	10.361796
1932.000000	550.000000	10.318903
1933.000000	549.000000	10.287378
1934.000000	548.000000	10.274552
1935.000000	547.000000	10.268973
1936.000000	546.000000	10.273451
1937.000000	545.000000	10.256323
1938.000000	544.000000	10.250371
1939.000000	543.000000	10.254845
1940.000000	542.000000	10.262987
1941.000000	541.000000	10.282896
1942.000000	540.000000	10.290126
1943.000000	539.000000	10.322560
1944.000000	538.000000	10.346728
1945.000000	537.000000	10.381840
1946.000000	536.000000	10.416833
1947.000000	535.000000	10.452019
1948.000000	534.000000	10.494888
1949.000000	533.000000	10.548552
1950.000000	532.000000	10.589474
1951.000000	531.000000	10.632819
1952.000000	530.000000	10.693649
1953.000000	529.000000	10.754091
1954.000000	528.000000	10.809490
1955.000000	527.000000	10.860589
1956.000000	526.000000	10.918841
1957.000000	525.000000	10.986915
1958.000000	524.000000	11.040416
1959.000000	523.000000	11.101574
1960.000000	522.000000	11.176515
1961.000000	521.000000	11.231069
1962.000000	520.000000	11.295428
1963.000000	519.000000	11.367380
1964.000000	518.000000	11.428862
1965.000000	517.000000	11.501916
1966.000000	516.000000	11.579851
1967.000000	515.000000	11.638036
1968.000000	514.000000	11.709899
1969.000000	513.000000	11.769965
1970.000000	512.000000	11.844427
1971.000000	511.000000	11.927909
1972.000000	510.000000	12.011209
1973.000000	509.000000	12.087380
1974.000000	508.000000	12.159509
1975.000000	507.000000	12.245036
1976.000000	506.000000	12.322647
1977.000000	505.000000	12.404256
1978.000000	504.000000	12.486290
1979.000000	503.000000	12.572783
1980.000000	502.000000	12.649323
1981.000000	501.000000	12.736585
1982.000000	500.000000	12.821780
1983.000000	499.000000	12.887018
1984.000000	498.000000	12.982959
1985.000000	497.000000	13.070422
1986.000000	496.000000	13.135083
1987.000000	495.000000	13.217976
1988.000000	494.000000	13.310722
1989.000000	493.000000	13.376301
1990.000000	492.000000	13.450446
1991.000000	491.000000	13.530439
1992.000000	490.000000	13.607757
1993.000000	489.000000	13.680041
1994.000000	488.000000	13.753184
1995.000000	487.000000	13.833650
1996.000000	486.000000	13.896744
1997.000000	485.000000	13.963356
1998.000000	484.000000	14.029571
1999.000000	483.000000	14.088497
