PE UV       SUBTECH     SPECTRUM    ASCII       PEDS        4.00        
   -1
CICIMAUCR0209-3.ASC
24/06/06
17:01:56.00
24/06/06
17:01:56.00
Vinicio Soto Monge
C. cupreomarginata. Sex F. Dorsal
250,000000
1
Lambda 1050
1050L1511233
PerkinElmer UV WinLab 6.3.2.0749 / 2.02.05 Lambda 900 UV/VIS/NIR, Aug  7 2015 09:38:08

0
0
3350/servo 860,8/2
0
0
UV/VIS
1
1
1
DoubleDePol,CommonBeamDepol,RBeamAtt,SBeamAtt,60mm sphere, WB InGaAs Detector
0
0
0
0
Program
Program
3350/servo 860,8/2
3350/0,2 860,8/0,2
3350/0,2 860,8/0,2
0
15.00
 
 
 
0
 
860,8
319,2
860,8
Front
100
on
S:100 R:100
0
0
0
0
 
0
 
 
 
0
 
 
0
0
0
0
0
 
 
 
 
0
0


0
0
#HDR
-1
-1
#GR
nm
%R
1.0
0.0
2500,000000
-1,000000
2251
8
73,477300
5,040500
#DATA
250.000000	2232.000000	6.031700
251.000000	2231.000000	6.023000
252.000000	2230.000000	6.005300
253.000000	2229.000000	5.989200
254.000000	2228.000000	5.941067
255.000000	2227.000000	5.956000
256.000000	2226.000000	5.928700
257.000000	2225.000000	5.919700
258.000000	2224.000000	5.879500
259.000000	2223.000000	5.911500
260.000000	2222.000000	5.889900
261.000000	2221.000000	5.862167
262.000000	2220.000000	5.830100
263.000000	2219.000000	5.808867
264.000000	2218.000000	5.790433
265.000000	2217.000000	5.737967
266.000000	2216.000000	5.735400
267.000000	2215.000000	5.690567
268.000000	2214.000000	5.659633
269.000000	2213.000000	5.647467
270.000000	2212.000000	5.644000
271.000000	2211.000000	5.641800
272.000000	2210.000000	5.614633
273.000000	2209.000000	5.584833
274.000000	2208.000000	5.588733
275.000000	2207.000000	5.588333
276.000000	2206.000000	5.566500
277.000000	2205.000000	5.533500
278.000000	2204.000000	5.507333
279.000000	2203.000000	5.501567
280.000000	2202.000000	5.478033
281.000000	2201.000000	5.486133
282.000000	2200.000000	5.483033
283.000000	2199.000000	5.468433
284.000000	2198.000000	5.463600
285.000000	2197.000000	5.432333
286.000000	2196.000000	5.402100
287.000000	2195.000000	5.390567
288.000000	2194.000000	5.374433
289.000000	2193.000000	5.378833
290.000000	2192.000000	5.380700
291.000000	2191.000000	5.377833
292.000000	2190.000000	5.361767
293.000000	2189.000000	5.347767
294.000000	2188.000000	5.335500
295.000000	2187.000000	5.323067
296.000000	2186.000000	5.293900
297.000000	2185.000000	5.305067
298.000000	2184.000000	5.300433
299.000000	2183.000000	5.264100
300.000000	2182.000000	5.263067
301.000000	2181.000000	5.274000
302.000000	2180.000000	5.277233
303.000000	2179.000000	5.277367
304.000000	2178.000000	5.249033
305.000000	2177.000000	5.257600
306.000000	2176.000000	5.246733
307.000000	2175.000000	5.232767
308.000000	2174.000000	5.242067
309.000000	2173.000000	5.223033
310.000000	2172.000000	5.215267
311.000000	2171.000000	5.206900
312.000000	2170.000000	5.198233
313.000000	2169.000000	5.188300
314.000000	2168.000000	5.200200
315.000000	2167.000000	5.210967
316.000000	2166.000000	5.652100
317.000000	2165.000000	6.258400
318.000000	2164.000000	6.133633
319.000000	2163.000000	5.823167
320.000000	2162.000000	5.674400
321.000000	2161.000000	5.567400
322.000000	2160.000000	5.440567
323.000000	2159.000000	5.513400
324.000000	2158.000000	5.587800
325.000000	2157.000000	5.510733
326.000000	2156.000000	5.646200
327.000000	2155.000000	5.673533
328.000000	2154.000000	5.414433
329.000000	2153.000000	5.402933
330.000000	2152.000000	5.491900
331.000000	2151.000000	5.393167
332.000000	2150.000000	5.374700
333.000000	2149.000000	5.350433
334.000000	2148.000000	5.298300
335.000000	2147.000000	5.229033
336.000000	2146.000000	5.217333
337.000000	2145.000000	5.288000
338.000000	2144.000000	5.346400
339.000000	2143.000000	5.492767
340.000000	2142.000000	5.469167
341.000000	2141.000000	5.329767
342.000000	2140.000000	5.369933
343.000000	2139.000000	5.414067
344.000000	2138.000000	5.486367
345.000000	2137.000000	5.454200
346.000000	2136.000000	5.262033
347.000000	2135.000000	5.267633
348.000000	2134.000000	5.331500
349.000000	2133.000000	5.386433
350.000000	2132.000000	5.414967
351.000000	2131.000000	5.306000
352.000000	2130.000000	5.317400
353.000000	2129.000000	5.395800
354.000000	2128.000000	5.386033
355.000000	2127.000000	5.349533
356.000000	2126.000000	5.328667
357.000000	2125.000000	5.347267
358.000000	2124.000000	5.374067
359.000000	2123.000000	5.400900
360.000000	2122.000000	5.404100
361.000000	2121.000000	5.381400
362.000000	2120.000000	5.470400
363.000000	2119.000000	5.487933
364.000000	2118.000000	5.380900
365.000000	2117.000000	5.454000
366.000000	2116.000000	5.481700
367.000000	2115.000000	5.464833
368.000000	2114.000000	5.503567
369.000000	2113.000000	5.525933
370.000000	2112.000000	5.431467
371.000000	2111.000000	5.409733
372.000000	2110.000000	5.495300
373.000000	2109.000000	5.553967
374.000000	2108.000000	5.470700
375.000000	2107.000000	5.593933
376.000000	2106.000000	5.704433
377.000000	2105.000000	5.715000
378.000000	2104.000000	5.735100
379.000000	2103.000000	5.758567
380.000000	2102.000000	5.782733
381.000000	2101.000000	5.825167
382.000000	2100.000000	5.842000
383.000000	2099.000000	5.865600
384.000000	2098.000000	5.901833
385.000000	2097.000000	5.941833
386.000000	2096.000000	5.967333
387.000000	2095.000000	5.999067
388.000000	2094.000000	6.021400
389.000000	2093.000000	6.043867
390.000000	2092.000000	6.076800
391.000000	2091.000000	6.104100
392.000000	2090.000000	6.131500
393.000000	2089.000000	6.167433
394.000000	2088.000000	6.207900
395.000000	2087.000000	6.246367
396.000000	2086.000000	6.272333
397.000000	2085.000000	6.306100
398.000000	2084.000000	6.337667
399.000000	2083.000000	6.371033
400.000000	2082.000000	6.407433
401.000000	2081.000000	6.447367
402.000000	2080.000000	6.479300
403.000000	2079.000000	6.512233
404.000000	2078.000000	6.553000
405.000000	2077.000000	6.591867
406.000000	2076.000000	6.624867
407.000000	2075.000000	6.662833
408.000000	2074.000000	6.699700
409.000000	2073.000000	6.745833
410.000000	2072.000000	6.777467
411.000000	2071.000000	6.828733
412.000000	2070.000000	6.880067
413.000000	2069.000000	6.926400
414.000000	2068.000000	6.981433
415.000000	2067.000000	7.032933
416.000000	2066.000000	7.084333
417.000000	2065.000000	7.148367
418.000000	2064.000000	7.208667
419.000000	2063.000000	7.258400
420.000000	2062.000000	7.340867
421.000000	2061.000000	7.415867
422.000000	2060.000000	7.486333
423.000000	2059.000000	7.556200
424.000000	2058.000000	7.646433
425.000000	2057.000000	7.730967
426.000000	2056.000000	7.815300
427.000000	2055.000000	7.919167
428.000000	2054.000000	8.017300
429.000000	2053.000000	8.111733
430.000000	2052.000000	8.204900
431.000000	2051.000000	8.314000
432.000000	2050.000000	8.443100
433.000000	2049.000000	8.556967
434.000000	2048.000000	8.667200
435.000000	2047.000000	8.791167
436.000000	2046.000000	8.925667
437.000000	2045.000000	9.050133
438.000000	2044.000000	9.180133
439.000000	2043.000000	9.322333
440.000000	2042.000000	9.457800
441.000000	2041.000000	9.587000
442.000000	2040.000000	9.736533
443.000000	2039.000000	9.886733
444.000000	2038.000000	10.018933
445.000000	2037.000000	10.158267
446.000000	2036.000000	10.313400
447.000000	2035.000000	10.463533
448.000000	2034.000000	10.614433
449.000000	2033.000000	10.763867
450.000000	2032.000000	10.906300
451.000000	2031.000000	11.067967
452.000000	2030.000000	11.211500
453.000000	2029.000000	11.352900
454.000000	2028.000000	11.506067
455.000000	2027.000000	11.662700
456.000000	2026.000000	11.815300
457.000000	2025.000000	11.957400
458.000000	2024.000000	12.103667
459.000000	2023.000000	12.274133
460.000000	2022.000000	12.416567
461.000000	2021.000000	12.574067
462.000000	2020.000000	12.748833
463.000000	2019.000000	12.910800
464.000000	2018.000000	13.065300
465.000000	2017.000000	13.232433
466.000000	2016.000000	13.400400
467.000000	2015.000000	13.559500
468.000000	2014.000000	13.756967
469.000000	2013.000000	13.912633
470.000000	2012.000000	14.083400
471.000000	2011.000000	14.249500
472.000000	2010.000000	14.431667
473.000000	2009.000000	14.609567
474.000000	2008.000000	14.813900
475.000000	2007.000000	15.004267
476.000000	2006.000000	15.170700
477.000000	2005.000000	15.356200
478.000000	2004.000000	15.550333
479.000000	2003.000000	15.738433
480.000000	2002.000000	15.934067
481.000000	2001.000000	16.125733
482.000000	2000.000000	16.319400
483.000000	1999.000000	16.512600
484.000000	1998.000000	16.703633
485.000000	1997.000000	16.897533
486.000000	1996.000000	17.090867
487.000000	1995.000000	17.271067
488.000000	1994.000000	17.485533
489.000000	1993.000000	17.683200
490.000000	1992.000000	17.863700
491.000000	1991.000000	18.084000
492.000000	1990.000000	18.300967
493.000000	1989.000000	18.503200
494.000000	1988.000000	18.710167
495.000000	1987.000000	18.971867
496.000000	1986.000000	19.184967
497.000000	1985.000000	19.424267
498.000000	1984.000000	19.650033
499.000000	1983.000000	19.910733
500.000000	1982.000000	20.173133
501.000000	1981.000000	20.435400
502.000000	1980.000000	20.698267
503.000000	1979.000000	20.992167
504.000000	1978.000000	21.270100
505.000000	1977.000000	21.581167
506.000000	1976.000000	21.884100
507.000000	1975.000000	22.221867
508.000000	1974.000000	22.547233
509.000000	1973.000000	22.892700
510.000000	1972.000000	23.270000
511.000000	1971.000000	23.636300
512.000000	1970.000000	24.022800
513.000000	1969.000000	24.423900
514.000000	1968.000000	24.831967
515.000000	1967.000000	25.250533
516.000000	1966.000000	25.699367
517.000000	1965.000000	26.159267
518.000000	1964.000000	26.631133
519.000000	1963.000000	27.118033
520.000000	1962.000000	27.621567
521.000000	1961.000000	28.118700
522.000000	1960.000000	28.648400
523.000000	1959.000000	29.196967
524.000000	1958.000000	29.782867
525.000000	1957.000000	30.386500
526.000000	1956.000000	30.992133
527.000000	1955.000000	31.624233
528.000000	1954.000000	32.255667
529.000000	1953.000000	32.922767
530.000000	1952.000000	33.599900
531.000000	1951.000000	34.318800
532.000000	1950.000000	35.043167
533.000000	1949.000000	35.789333
534.000000	1948.000000	36.557133
535.000000	1947.000000	37.341300
536.000000	1946.000000	38.129367
537.000000	1945.000000	38.922600
538.000000	1944.000000	39.717233
539.000000	1943.000000	40.536967
540.000000	1942.000000	41.376267
541.000000	1941.000000	42.221000
542.000000	1940.000000	43.080200
543.000000	1939.000000	43.931467
544.000000	1938.000000	44.812233
545.000000	1937.000000	45.657333
546.000000	1936.000000	46.480233
547.000000	1935.000000	47.290233
548.000000	1934.000000	48.068133
549.000000	1933.000000	48.841200
550.000000	1932.000000	49.590567
551.000000	1931.000000	50.314700
552.000000	1930.000000	51.050467
553.000000	1929.000000	51.736567
554.000000	1928.000000	52.391200
555.000000	1927.000000	52.998367
556.000000	1926.000000	53.588033
557.000000	1925.000000	54.133033
558.000000	1924.000000	54.628533
559.000000	1923.000000	55.118267
560.000000	1922.000000	55.644333
561.000000	1921.000000	56.093500
562.000000	1920.000000	56.506833
563.000000	1919.000000	56.882100
564.000000	1918.000000	57.236467
565.000000	1917.000000	57.570033
566.000000	1916.000000	57.873833
567.000000	1915.000000	58.169000
568.000000	1914.000000	58.445233
569.000000	1913.000000	58.715400
570.000000	1912.000000	58.976967
571.000000	1911.000000	59.210633
572.000000	1910.000000	59.426800
573.000000	1909.000000	59.624100
574.000000	1908.000000	59.819667
575.000000	1907.000000	59.976933
576.000000	1906.000000	60.114900
577.000000	1905.000000	60.225833
578.000000	1904.000000	60.327767
579.000000	1903.000000	60.426167
580.000000	1902.000000	60.509567
581.000000	1901.000000	60.574100
582.000000	1900.000000	60.625600
583.000000	1899.000000	60.689933
584.000000	1898.000000	60.732833
585.000000	1897.000000	60.761067
586.000000	1896.000000	60.803133
587.000000	1895.000000	60.831567
588.000000	1894.000000	60.851567
589.000000	1893.000000	60.866500
590.000000	1892.000000	60.862100
591.000000	1891.000000	60.853900
592.000000	1890.000000	60.819400
593.000000	1889.000000	60.764667
594.000000	1888.000000	60.707967
595.000000	1887.000000	60.612500
596.000000	1886.000000	60.516233
597.000000	1885.000000	60.374867
598.000000	1884.000000	60.225933
599.000000	1883.000000	60.062133
600.000000	1882.000000	59.889167
601.000000	1881.000000	59.699800
602.000000	1880.000000	59.491567
603.000000	1879.000000	59.279300
604.000000	1878.000000	59.044200
605.000000	1877.000000	58.816167
606.000000	1876.000000	58.563067
607.000000	1875.000000	58.315600
608.000000	1874.000000	58.081800
609.000000	1873.000000	57.828233
610.000000	1872.000000	57.559133
611.000000	1871.000000	57.286200
612.000000	1870.000000	57.006800
613.000000	1869.000000	56.690100
614.000000	1868.000000	56.338333
615.000000	1867.000000	55.981800
616.000000	1866.000000	55.642000
617.000000	1865.000000	55.269567
618.000000	1864.000000	54.888700
619.000000	1863.000000	54.527467
620.000000	1862.000000	54.140433
621.000000	1861.000000	53.723667
622.000000	1860.000000	53.304933
623.000000	1859.000000	52.892600
624.000000	1858.000000	52.468400
625.000000	1857.000000	52.052900
626.000000	1856.000000	51.645567
627.000000	1855.000000	51.228500
628.000000	1854.000000	50.827867
629.000000	1853.000000	50.443867
630.000000	1852.000000	50.065900
631.000000	1851.000000	49.704067
632.000000	1850.000000	49.339300
633.000000	1849.000000	48.990833
634.000000	1848.000000	48.670633
635.000000	1847.000000	48.369067
636.000000	1846.000000	48.082133
637.000000	1845.000000	47.821867
638.000000	1844.000000	47.585267
639.000000	1843.000000	47.361067
640.000000	1842.000000	47.175533
641.000000	1841.000000	47.012900
642.000000	1840.000000	46.882667
643.000000	1839.000000	46.785233
644.000000	1838.000000	46.699600
645.000000	1837.000000	46.665467
646.000000	1836.000000	46.666100
647.000000	1835.000000	46.664067
648.000000	1834.000000	46.694800
649.000000	1833.000000	46.758867
650.000000	1832.000000	46.831567
651.000000	1831.000000	46.940667
652.000000	1830.000000	47.047367
653.000000	1829.000000	47.147467
654.000000	1828.000000	47.265233
655.000000	1827.000000	47.389467
656.000000	1826.000000	47.517867
657.000000	1825.000000	47.644833
658.000000	1824.000000	47.761400
659.000000	1823.000000	47.887733
660.000000	1822.000000	47.996033
661.000000	1821.000000	48.073767
662.000000	1820.000000	48.140200
663.000000	1819.000000	48.213000
664.000000	1818.000000	48.272900
665.000000	1817.000000	48.314967
666.000000	1816.000000	48.334767
667.000000	1815.000000	48.360267
668.000000	1814.000000	48.378700
669.000000	1813.000000	48.353633
670.000000	1812.000000	48.323000
671.000000	1811.000000	48.268367
672.000000	1810.000000	48.209467
673.000000	1809.000000	48.152400
674.000000	1808.000000	48.037967
675.000000	1807.000000	47.948333
676.000000	1806.000000	47.866100
677.000000	1805.000000	47.764200
678.000000	1804.000000	47.661500
679.000000	1803.000000	47.536933
680.000000	1802.000000	47.412967
681.000000	1801.000000	47.309233
682.000000	1800.000000	47.224800
683.000000	1799.000000	47.105733
684.000000	1798.000000	46.998633
685.000000	1797.000000	46.866533
686.000000	1796.000000	46.747367
687.000000	1795.000000	46.643467
688.000000	1794.000000	46.531133
689.000000	1793.000000	46.455800
690.000000	1792.000000	46.344600
691.000000	1791.000000	46.286000
692.000000	1790.000000	46.222567
693.000000	1789.000000	46.155233
694.000000	1788.000000	46.124633
695.000000	1787.000000	46.094033
696.000000	1786.000000	46.037567
697.000000	1785.000000	46.015733
698.000000	1784.000000	46.017667
699.000000	1783.000000	46.039500
700.000000	1782.000000	46.055200
701.000000	1781.000000	46.100300
702.000000	1780.000000	46.160400
703.000000	1779.000000	46.230300
704.000000	1778.000000	46.288800
705.000000	1777.000000	46.402233
706.000000	1776.000000	46.497167
707.000000	1775.000000	46.609433
708.000000	1774.000000	46.719500
709.000000	1773.000000	46.847033
710.000000	1772.000000	46.962633
711.000000	1771.000000	47.096067
712.000000	1770.000000	47.243600
713.000000	1769.000000	47.387400
714.000000	1768.000000	47.565800
715.000000	1767.000000	47.730033
716.000000	1766.000000	47.870833
717.000000	1765.000000	48.019733
718.000000	1764.000000	48.158767
719.000000	1763.000000	48.348267
720.000000	1762.000000	48.510233
721.000000	1761.000000	48.672467
722.000000	1760.000000	48.786133
723.000000	1759.000000	48.926900
724.000000	1758.000000	49.106433
725.000000	1757.000000	49.239633
726.000000	1756.000000	49.412500
727.000000	1755.000000	49.497333
728.000000	1754.000000	49.665133
729.000000	1753.000000	49.825400
730.000000	1752.000000	49.951133
731.000000	1751.000000	50.101767
732.000000	1750.000000	50.260833
733.000000	1749.000000	50.386833
734.000000	1748.000000	50.506367
735.000000	1747.000000	50.658600
736.000000	1746.000000	50.844633
737.000000	1745.000000	50.961700
738.000000	1744.000000	51.067767
739.000000	1743.000000	51.215467
740.000000	1742.000000	51.385500
741.000000	1741.000000	51.485467
742.000000	1740.000000	51.651000
743.000000	1739.000000	51.772933
744.000000	1738.000000	51.915367
745.000000	1737.000000	52.113533
746.000000	1736.000000	52.244233
747.000000	1735.000000	52.400200
748.000000	1734.000000	52.593467
749.000000	1733.000000	52.691833
750.000000	1732.000000	52.923200
751.000000	1731.000000	53.109400
752.000000	1730.000000	53.228167
753.000000	1729.000000	53.467567
754.000000	1728.000000	53.658333
755.000000	1727.000000	53.815500
756.000000	1726.000000	53.997200
757.000000	1725.000000	54.160100
758.000000	1724.000000	54.417933
759.000000	1723.000000	54.605633
760.000000	1722.000000	54.742933
761.000000	1721.000000	54.927833
762.000000	1720.000000	55.107267
763.000000	1719.000000	55.365467
764.000000	1718.000000	55.540200
765.000000	1717.000000	55.730533
766.000000	1716.000000	55.884033
767.000000	1715.000000	56.144533
768.000000	1714.000000	56.395267
769.000000	1713.000000	56.559733
770.000000	1712.000000	56.799267
771.000000	1711.000000	56.995700
772.000000	1710.000000	57.192867
773.000000	1709.000000	57.369133
774.000000	1708.000000	57.660800
775.000000	1707.000000	57.857767
776.000000	1706.000000	58.042167
777.000000	1705.000000	58.267067
778.000000	1704.000000	58.472133
779.000000	1703.000000	58.650800
780.000000	1702.000000	58.890900
781.000000	1701.000000	59.099567
782.000000	1700.000000	59.408333
783.000000	1699.000000	59.563167
784.000000	1698.000000	59.710500
785.000000	1697.000000	60.029700
786.000000	1696.000000	60.129867
787.000000	1695.000000	60.385400
788.000000	1694.000000	60.628067
789.000000	1693.000000	60.808833
790.000000	1692.000000	61.020300
791.000000	1691.000000	61.116700
792.000000	1690.000000	61.381733
793.000000	1689.000000	61.597033
794.000000	1688.000000	61.824367
795.000000	1687.000000	61.968167
796.000000	1686.000000	62.087767
797.000000	1685.000000	62.248800
798.000000	1684.000000	62.432600
799.000000	1683.000000	62.652567
800.000000	1682.000000	62.802033
801.000000	1681.000000	62.909500
802.000000	1680.000000	63.130867
803.000000	1679.000000	63.324733
804.000000	1678.000000	63.439433
805.000000	1677.000000	63.609667
806.000000	1676.000000	63.794233
807.000000	1675.000000	63.844767
808.000000	1674.000000	64.116233
809.000000	1673.000000	64.157467
810.000000	1672.000000	64.336733
811.000000	1671.000000	64.573867
812.000000	1670.000000	64.710533
813.000000	1669.000000	64.954167
814.000000	1668.000000	64.960367
815.000000	1667.000000	65.099233
816.000000	1666.000000	65.354000
817.000000	1665.000000	65.531300
818.000000	1664.000000	65.721867
819.000000	1663.000000	65.790533
820.000000	1662.000000	65.824500
821.000000	1661.000000	66.042033
822.000000	1660.000000	66.225933
823.000000	1659.000000	66.369633
824.000000	1658.000000	66.521767
825.000000	1657.000000	66.694367
826.000000	1656.000000	66.711867
827.000000	1655.000000	66.890500
828.000000	1654.000000	67.177900
829.000000	1653.000000	67.246600
830.000000	1652.000000	67.323700
831.000000	1651.000000	67.629867
832.000000	1650.000000	67.795067
833.000000	1649.000000	67.862467
834.000000	1648.000000	68.005033
835.000000	1647.000000	68.186200
836.000000	1646.000000	68.223000
837.000000	1645.000000	68.425967
838.000000	1644.000000	68.680167
839.000000	1643.000000	68.888000
840.000000	1642.000000	68.859733
841.000000	1641.000000	69.064233
842.000000	1640.000000	69.080300
843.000000	1639.000000	69.139300
844.000000	1638.000000	69.222800
845.000000	1637.000000	69.500667
846.000000	1636.000000	69.585267
847.000000	1635.000000	69.792567
848.000000	1634.000000	69.922600
849.000000	1633.000000	69.844133
850.000000	1632.000000	70.204633
851.000000	1631.000000	70.273100
852.000000	1630.000000	70.328500
853.000000	1629.000000	70.587567
854.000000	1628.000000	70.858733
855.000000	1627.000000	70.707567
856.000000	1626.000000	70.890300
857.000000	1625.000000	71.320133
858.000000	1624.000000	70.972667
859.000000	1623.000000	71.021594
860.000000	1622.000000	71.081274
861.000000	1621.000000	71.143646
862.000000	1620.000000	71.186368
863.000000	1619.000000	71.236836
864.000000	1618.000000	71.287652
865.000000	1617.000000	71.339494
866.000000	1616.000000	71.363495
867.000000	1615.000000	71.392193
868.000000	1614.000000	71.394003
869.000000	1613.000000	71.428540
870.000000	1612.000000	71.472333
871.000000	1611.000000	71.559157
872.000000	1610.000000	71.704655
873.000000	1609.000000	71.843248
874.000000	1608.000000	71.942864
875.000000	1607.000000	72.018006
876.000000	1606.000000	72.068247
877.000000	1605.000000	72.105437
878.000000	1604.000000	72.132182
879.000000	1603.000000	72.136587
880.000000	1602.000000	72.137693
881.000000	1601.000000	72.138413
882.000000	1600.000000	72.130570
883.000000	1599.000000	72.129611
884.000000	1598.000000	72.115718
885.000000	1597.000000	72.100497
886.000000	1596.000000	72.078451
887.000000	1595.000000	72.064602
888.000000	1594.000000	72.035504
889.000000	1593.000000	72.002046
890.000000	1592.000000	71.971951
891.000000	1591.000000	71.939847
892.000000	1590.000000	71.902971
893.000000	1589.000000	71.871514
894.000000	1588.000000	71.822595
895.000000	1587.000000	71.768455
896.000000	1586.000000	71.712458
897.000000	1585.000000	71.662497
898.000000	1584.000000	71.616102
899.000000	1583.000000	71.551539
900.000000	1582.000000	71.487942
901.000000	1581.000000	71.429235
902.000000	1580.000000	71.367253
903.000000	1579.000000	71.307832
904.000000	1578.000000	71.248916
905.000000	1577.000000	71.192573
906.000000	1576.000000	71.145080
907.000000	1575.000000	71.098352
908.000000	1574.000000	71.055613
909.000000	1573.000000	71.011371
910.000000	1572.000000	70.963466
911.000000	1571.000000	70.924999
912.000000	1570.000000	70.884764
913.000000	1569.000000	70.843100
914.000000	1568.000000	70.807756
915.000000	1567.000000	70.761337
916.000000	1566.000000	70.720508
917.000000	1565.000000	70.675849
918.000000	1564.000000	70.624332
919.000000	1563.000000	70.564379
920.000000	1562.000000	70.503864
921.000000	1561.000000	70.447116
922.000000	1560.000000	70.384180
923.000000	1559.000000	70.316849
924.000000	1558.000000	70.247083
925.000000	1557.000000	70.177831
926.000000	1556.000000	70.113552
927.000000	1555.000000	70.045683
928.000000	1554.000000	69.981758
929.000000	1553.000000	69.905809
930.000000	1552.000000	69.826739
931.000000	1551.000000	69.752494
932.000000	1550.000000	69.672174
933.000000	1549.000000	69.590178
934.000000	1548.000000	69.502986
935.000000	1547.000000	69.411148
936.000000	1546.000000	69.327438
937.000000	1545.000000	69.238623
938.000000	1544.000000	69.146044
939.000000	1543.000000	69.057590
940.000000	1542.000000	68.966815
941.000000	1541.000000	68.873042
942.000000	1540.000000	68.782111
943.000000	1539.000000	68.686507
944.000000	1538.000000	68.583438
945.000000	1537.000000	68.483920
946.000000	1536.000000	68.376147
947.000000	1535.000000	68.271048
948.000000	1534.000000	68.166523
949.000000	1533.000000	68.053730
950.000000	1532.000000	67.941732
951.000000	1531.000000	67.831548
952.000000	1530.000000	67.715243
953.000000	1529.000000	67.599686
954.000000	1528.000000	67.485064
955.000000	1527.000000	67.365522
956.000000	1526.000000	67.255498
957.000000	1525.000000	67.148187
958.000000	1524.000000	67.030004
959.000000	1523.000000	66.908677
960.000000	1522.000000	66.795411
961.000000	1521.000000	66.683187
962.000000	1520.000000	66.571881
963.000000	1519.000000	66.456398
964.000000	1518.000000	66.344605
965.000000	1517.000000	66.248555
966.000000	1516.000000	66.146260
967.000000	1515.000000	66.045273
968.000000	1514.000000	65.949263
969.000000	1513.000000	65.850249
970.000000	1512.000000	65.755135
971.000000	1511.000000	65.665011
972.000000	1510.000000	65.571354
973.000000	1509.000000	65.481443
974.000000	1508.000000	65.390260
975.000000	1507.000000	65.303368
976.000000	1506.000000	65.223098
977.000000	1505.000000	65.129167
978.000000	1504.000000	65.046118
979.000000	1503.000000	64.964715
980.000000	1502.000000	64.880895
981.000000	1501.000000	64.801852
982.000000	1500.000000	64.726709
983.000000	1499.000000	64.644611
984.000000	1498.000000	64.560251
985.000000	1497.000000	64.489724
986.000000	1496.000000	64.426962
987.000000	1495.000000	64.358607
988.000000	1494.000000	64.287926
989.000000	1493.000000	64.222173
990.000000	1492.000000	64.156814
991.000000	1491.000000	64.106872
992.000000	1490.000000	64.052195
993.000000	1489.000000	63.993359
994.000000	1488.000000	63.936554
995.000000	1487.000000	63.889214
996.000000	1486.000000	63.843099
997.000000	1485.000000	63.798955
998.000000	1484.000000	63.751552
999.000000	1483.000000	63.710318
1000.000000	1482.000000	63.668819
1001.000000	1481.000000	63.640575
1002.000000	1480.000000	63.590360
1003.000000	1479.000000	63.546669
1004.000000	1478.000000	63.509568
1005.000000	1477.000000	63.475780
1006.000000	1476.000000	63.439420
1007.000000	1475.000000	63.393160
1008.000000	1474.000000	63.361390
1009.000000	1473.000000	63.341076
1010.000000	1472.000000	63.315890
1011.000000	1471.000000	63.286593
1012.000000	1470.000000	63.276758
1013.000000	1469.000000	63.268442
1014.000000	1468.000000	63.265507
1015.000000	1467.000000	63.268088
1016.000000	1466.000000	63.266206
1017.000000	1465.000000	63.282059
1018.000000	1464.000000	63.299688
1019.000000	1463.000000	63.323501
1020.000000	1462.000000	63.336975
1021.000000	1461.000000	63.366698
1022.000000	1460.000000	63.390972
1023.000000	1459.000000	63.416693
1024.000000	1458.000000	63.445505
1025.000000	1457.000000	63.467631
1026.000000	1456.000000	63.499650
1027.000000	1455.000000	63.522932
1028.000000	1454.000000	63.547587
1029.000000	1453.000000	63.571357
1030.000000	1452.000000	63.592789
1031.000000	1451.000000	63.617858
1032.000000	1450.000000	63.629366
1033.000000	1449.000000	63.647399
1034.000000	1448.000000	63.673350
1035.000000	1447.000000	63.688286
1036.000000	1446.000000	63.714675
1037.000000	1445.000000	63.736774
1038.000000	1444.000000	63.747088
1039.000000	1443.000000	63.759705
1040.000000	1442.000000	63.770492
1041.000000	1441.000000	63.785218
1042.000000	1440.000000	63.794632
1043.000000	1439.000000	63.805647
1044.000000	1438.000000	63.822570
1045.000000	1437.000000	63.838115
1046.000000	1436.000000	63.856402
1047.000000	1435.000000	63.870946
1048.000000	1434.000000	63.890905
1049.000000	1433.000000	63.904781
1050.000000	1432.000000	63.937028
1051.000000	1431.000000	63.959219
1052.000000	1430.000000	63.994231
1053.000000	1429.000000	64.009784
1054.000000	1428.000000	64.048272
1055.000000	1427.000000	64.074246
1056.000000	1426.000000	64.102953
1057.000000	1425.000000	64.129045
1058.000000	1424.000000	64.177709
1059.000000	1423.000000	64.208670
1060.000000	1422.000000	64.233311
1061.000000	1421.000000	64.266801
1062.000000	1420.000000	64.296439
1063.000000	1419.000000	64.326241
1064.000000	1418.000000	64.356597
1065.000000	1417.000000	64.383911
1066.000000	1416.000000	64.417848
1067.000000	1415.000000	64.434362
1068.000000	1414.000000	64.466132
1069.000000	1413.000000	64.493398
1070.000000	1412.000000	64.529614
1071.000000	1411.000000	64.550055
1072.000000	1410.000000	64.572012
1073.000000	1409.000000	64.615200
1074.000000	1408.000000	64.649979
1075.000000	1407.000000	64.680919
1076.000000	1406.000000	64.712056
1077.000000	1405.000000	64.724368
1078.000000	1404.000000	64.762535
1079.000000	1403.000000	64.782118
1080.000000	1402.000000	64.825869
1081.000000	1401.000000	64.858814
1082.000000	1400.000000	64.875447
1083.000000	1399.000000	64.910743
1084.000000	1398.000000	64.947171
1085.000000	1397.000000	64.968972
1086.000000	1396.000000	64.996076
1087.000000	1395.000000	65.025206
1088.000000	1394.000000	65.041940
1089.000000	1393.000000	65.074505
1090.000000	1392.000000	65.099780
1091.000000	1391.000000	65.106451
1092.000000	1390.000000	65.131592
1093.000000	1389.000000	65.149841
1094.000000	1388.000000	65.167674
1095.000000	1387.000000	65.175089
1096.000000	1386.000000	65.180255
1097.000000	1385.000000	65.187363
1098.000000	1384.000000	65.190156
1099.000000	1383.000000	65.185718
1100.000000	1382.000000	65.189664
1101.000000	1381.000000	65.188739
1102.000000	1380.000000	65.195376
1103.000000	1379.000000	65.187052
1104.000000	1378.000000	65.196141
1105.000000	1377.000000	65.189636
1106.000000	1376.000000	65.192391
1107.000000	1375.000000	65.186581
1108.000000	1374.000000	65.175943
1109.000000	1373.000000	65.173093
1110.000000	1372.000000	65.174448
1111.000000	1371.000000	65.165466
1112.000000	1370.000000	65.161088
1113.000000	1369.000000	65.156477
1114.000000	1368.000000	65.153587
1115.000000	1367.000000	65.127975
1116.000000	1366.000000	65.115269
1117.000000	1365.000000	65.088958
1118.000000	1364.000000	65.044417
1119.000000	1363.000000	65.004868
1120.000000	1362.000000	64.957212
1121.000000	1361.000000	64.898567
1122.000000	1360.000000	64.831168
1123.000000	1359.000000	64.743615
1124.000000	1358.000000	64.628575
1125.000000	1357.000000	64.513376
1126.000000	1356.000000	64.375387
1127.000000	1355.000000	64.202101
1128.000000	1354.000000	64.004115
1129.000000	1353.000000	63.763726
1130.000000	1352.000000	63.483159
1131.000000	1351.000000	63.189442
1132.000000	1350.000000	62.864918
1133.000000	1349.000000	62.552281
1134.000000	1348.000000	62.181606
1135.000000	1347.000000	61.783227
1136.000000	1346.000000	61.395764
1137.000000	1345.000000	61.017985
1138.000000	1344.000000	60.670705
1139.000000	1343.000000	60.334604
1140.000000	1342.000000	60.012504
1141.000000	1341.000000	59.692478
1142.000000	1340.000000	59.404236
1143.000000	1339.000000	59.136592
1144.000000	1338.000000	58.911147
1145.000000	1337.000000	58.718812
1146.000000	1336.000000	58.573058
1147.000000	1335.000000	58.443947
1148.000000	1334.000000	58.343998
1149.000000	1333.000000	58.232314
1150.000000	1332.000000	58.125649
1151.000000	1331.000000	58.004079
1152.000000	1330.000000	57.864698
1153.000000	1329.000000	57.684419
1154.000000	1328.000000	57.471426
1155.000000	1327.000000	57.235036
1156.000000	1326.000000	56.975257
1157.000000	1325.000000	56.695253
1158.000000	1324.000000	56.394641
1159.000000	1323.000000	56.093347
1160.000000	1322.000000	55.790465
1161.000000	1321.000000	55.474247
1162.000000	1320.000000	55.163925
1163.000000	1319.000000	54.850476
1164.000000	1318.000000	54.554101
1165.000000	1317.000000	54.256550
1166.000000	1316.000000	53.970093
1167.000000	1315.000000	53.687745
1168.000000	1314.000000	53.409859
1169.000000	1313.000000	53.143121
1170.000000	1312.000000	52.886709
1171.000000	1311.000000	52.625402
1172.000000	1310.000000	52.386405
1173.000000	1309.000000	52.134636
1174.000000	1308.000000	51.889706
1175.000000	1307.000000	51.627325
1176.000000	1306.000000	51.352715
1177.000000	1305.000000	51.026603
1178.000000	1304.000000	50.673937
1179.000000	1303.000000	50.295142
1180.000000	1302.000000	49.925519
1181.000000	1301.000000	49.593149
1182.000000	1300.000000	49.311626
1183.000000	1299.000000	49.119373
1184.000000	1298.000000	49.026736
1185.000000	1297.000000	49.020630
1186.000000	1296.000000	49.103813
1187.000000	1295.000000	49.268770
1188.000000	1294.000000	49.502648
1189.000000	1293.000000	49.784940
1190.000000	1292.000000	50.099921
1191.000000	1291.000000	50.407965
1192.000000	1290.000000	50.677650
1193.000000	1289.000000	50.913548
1194.000000	1288.000000	51.105636
1195.000000	1287.000000	51.251774
1196.000000	1286.000000	51.372001
1197.000000	1285.000000	51.469603
1198.000000	1284.000000	51.538952
1199.000000	1283.000000	51.589331
1200.000000	1282.000000	51.629074
1201.000000	1281.000000	51.674897
1202.000000	1280.000000	51.712344
1203.000000	1279.000000	51.752913
1204.000000	1278.000000	51.809748
1205.000000	1277.000000	51.867582
1206.000000	1276.000000	51.945364
1207.000000	1275.000000	52.031849
1208.000000	1274.000000	52.117048
1209.000000	1273.000000	52.209929
1210.000000	1272.000000	52.314160
1211.000000	1271.000000	52.419390
1212.000000	1270.000000	52.521625
1213.000000	1269.000000	52.625229
1214.000000	1268.000000	52.735174
1215.000000	1267.000000	52.853369
1216.000000	1266.000000	52.972315
1217.000000	1265.000000	53.094284
1218.000000	1264.000000	53.223574
1219.000000	1263.000000	53.358702
1220.000000	1262.000000	53.493496
1221.000000	1261.000000	53.630690
1222.000000	1260.000000	53.774096
1223.000000	1259.000000	53.911300
1224.000000	1258.000000	54.048868
1225.000000	1257.000000	54.192494
1226.000000	1256.000000	54.331158
1227.000000	1255.000000	54.464428
1228.000000	1254.000000	54.595724
1229.000000	1253.000000	54.726672
1230.000000	1252.000000	54.853743
1231.000000	1251.000000	54.985845
1232.000000	1250.000000	55.108336
1233.000000	1249.000000	55.224858
1234.000000	1248.000000	55.346517
1235.000000	1247.000000	55.460113
1236.000000	1246.000000	55.566486
1237.000000	1245.000000	55.676353
1238.000000	1244.000000	55.780780
1239.000000	1243.000000	55.882938
1240.000000	1242.000000	55.985051
1241.000000	1241.000000	56.084281
1242.000000	1240.000000	56.175842
1243.000000	1239.000000	56.266699
1244.000000	1238.000000	56.353597
1245.000000	1237.000000	56.439385
1246.000000	1236.000000	56.527301
1247.000000	1235.000000	56.595767
1248.000000	1234.000000	56.665608
1249.000000	1233.000000	56.721351
1250.000000	1232.000000	56.778876
1251.000000	1231.000000	56.840951
1252.000000	1230.000000	56.893245
1253.000000	1229.000000	56.932070
1254.000000	1228.000000	56.969748
1255.000000	1227.000000	57.002208
1256.000000	1226.000000	57.033760
1257.000000	1225.000000	57.065859
1258.000000	1224.000000	57.091293
1259.000000	1223.000000	57.121814
1260.000000	1222.000000	57.150132
1261.000000	1221.000000	57.168867
1262.000000	1220.000000	57.191573
1263.000000	1219.000000	57.217168
1264.000000	1218.000000	57.239218
1265.000000	1217.000000	57.267994
1266.000000	1216.000000	57.292921
1267.000000	1215.000000	57.309281
1268.000000	1214.000000	57.327258
1269.000000	1213.000000	57.352458
1270.000000	1212.000000	57.371642
1271.000000	1211.000000	57.386352
1272.000000	1210.000000	57.402428
1273.000000	1209.000000	57.427762
1274.000000	1208.000000	57.458842
1275.000000	1207.000000	57.481832
1276.000000	1206.000000	57.513927
1277.000000	1205.000000	57.545329
1278.000000	1204.000000	57.573866
1279.000000	1203.000000	57.604547
1280.000000	1202.000000	57.647804
1281.000000	1201.000000	57.682065
1282.000000	1200.000000	57.716963
1283.000000	1199.000000	57.747368
1284.000000	1198.000000	57.774373
1285.000000	1197.000000	57.802128
1286.000000	1196.000000	57.831656
1287.000000	1195.000000	57.843613
1288.000000	1194.000000	57.865499
1289.000000	1193.000000	57.876398
1290.000000	1192.000000	57.873973
1291.000000	1191.000000	57.867442
1292.000000	1190.000000	57.858358
1293.000000	1189.000000	57.850787
1294.000000	1188.000000	57.834249
1295.000000	1187.000000	57.819732
1296.000000	1186.000000	57.785757
1297.000000	1185.000000	57.756509
1298.000000	1184.000000	57.729531
1299.000000	1183.000000	57.685547
1300.000000	1182.000000	57.644062
1301.000000	1181.000000	57.600675
1302.000000	1180.000000	57.553806
1303.000000	1179.000000	57.493677
1304.000000	1178.000000	57.428403
1305.000000	1177.000000	57.359233
1306.000000	1176.000000	57.283919
1307.000000	1175.000000	57.207670
1308.000000	1174.000000	57.122861
1309.000000	1173.000000	57.030994
1310.000000	1172.000000	56.936868
1311.000000	1171.000000	56.829770
1312.000000	1170.000000	56.726135
1313.000000	1169.000000	56.606805
1314.000000	1168.000000	56.482608
1315.000000	1167.000000	56.361246
1316.000000	1166.000000	56.230909
1317.000000	1165.000000	56.099574
1318.000000	1164.000000	55.972025
1319.000000	1163.000000	55.821903
1320.000000	1162.000000	55.671637
1321.000000	1161.000000	55.517339
1322.000000	1160.000000	55.358227
1323.000000	1159.000000	55.194702
1324.000000	1158.000000	55.023536
1325.000000	1157.000000	54.852690
1326.000000	1156.000000	54.673773
1327.000000	1155.000000	54.480161
1328.000000	1154.000000	54.282519
1329.000000	1153.000000	54.083607
1330.000000	1152.000000	53.865163
1331.000000	1151.000000	53.649269
1332.000000	1150.000000	53.418123
1333.000000	1149.000000	53.183686
1334.000000	1148.000000	52.955413
1335.000000	1147.000000	52.717789
1336.000000	1146.000000	52.466993
1337.000000	1145.000000	52.208337
1338.000000	1144.000000	51.957276
1339.000000	1143.000000	51.698644
1340.000000	1142.000000	51.435099
1341.000000	1141.000000	51.168524
1342.000000	1140.000000	50.893908
1343.000000	1139.000000	50.622887
1344.000000	1138.000000	50.310476
1345.000000	1137.000000	50.013934
1346.000000	1136.000000	49.724616
1347.000000	1135.000000	49.425425
1348.000000	1134.000000	49.082054
1349.000000	1133.000000	48.742525
1350.000000	1132.000000	48.358493
1351.000000	1131.000000	47.987038
1352.000000	1130.000000	47.604128
1353.000000	1129.000000	47.319963
1354.000000	1128.000000	47.014864
1355.000000	1127.000000	46.784083
1356.000000	1126.000000	46.613610
1357.000000	1125.000000	46.486377
1358.000000	1124.000000	46.383736
1359.000000	1123.000000	46.305580
1360.000000	1122.000000	46.255345
1361.000000	1121.000000	46.095672
1362.000000	1120.000000	45.925996
1363.000000	1119.000000	45.758838
1364.000000	1118.000000	45.583277
1365.000000	1117.000000	45.372824
1366.000000	1116.000000	45.183007
1367.000000	1115.000000	44.941047
1368.000000	1114.000000	44.685742
1369.000000	1113.000000	44.427696
1370.000000	1112.000000	44.156272
1371.000000	1111.000000	43.843586
1372.000000	1110.000000	43.541982
1373.000000	1109.000000	43.268617
1374.000000	1108.000000	43.048399
1375.000000	1107.000000	42.845820
1376.000000	1106.000000	42.648286
1377.000000	1105.000000	42.440355
1378.000000	1104.000000	42.247697
1379.000000	1103.000000	41.905359
1380.000000	1102.000000	41.703597
1381.000000	1101.000000	41.309134
1382.000000	1100.000000	40.851337
1383.000000	1099.000000	40.337723
1384.000000	1098.000000	39.811340
1385.000000	1097.000000	39.317196
1386.000000	1096.000000	38.858375
1387.000000	1095.000000	38.435242
1388.000000	1094.000000	37.973440
1389.000000	1093.000000	37.558076
1390.000000	1092.000000	37.218813
1391.000000	1091.000000	36.875310
1392.000000	1090.000000	36.516528
1393.000000	1089.000000	36.222674
1394.000000	1088.000000	35.955259
1395.000000	1087.000000	35.617627
1396.000000	1086.000000	35.224606
1397.000000	1085.000000	34.867796
1398.000000	1084.000000	34.590134
1399.000000	1083.000000	34.282660
1400.000000	1082.000000	33.924812
1401.000000	1081.000000	33.484392
1402.000000	1080.000000	33.081572
1403.000000	1079.000000	32.700512
1404.000000	1078.000000	32.370460
1405.000000	1077.000000	31.992592
1406.000000	1076.000000	31.636556
1407.000000	1075.000000	31.281306
1408.000000	1074.000000	30.943436
1409.000000	1073.000000	30.608278
1410.000000	1072.000000	30.265661
1411.000000	1071.000000	29.950098
1412.000000	1070.000000	29.714865
1413.000000	1069.000000	29.467348
1414.000000	1068.000000	29.206885
1415.000000	1067.000000	28.933920
1416.000000	1066.000000	28.678951
1417.000000	1065.000000	28.489995
1418.000000	1064.000000	28.286606
1419.000000	1063.000000	28.076288
1420.000000	1062.000000	27.851818
1421.000000	1061.000000	27.629408
1422.000000	1060.000000	27.463810
1423.000000	1059.000000	27.289752
1424.000000	1058.000000	27.106201
1425.000000	1057.000000	26.929924
1426.000000	1056.000000	26.779156
1427.000000	1055.000000	26.634561
1428.000000	1054.000000	26.490058
1429.000000	1053.000000	26.351864
1430.000000	1052.000000	26.233429
1431.000000	1051.000000	26.117008
1432.000000	1050.000000	26.011337
1433.000000	1049.000000	25.890271
1434.000000	1048.000000	25.781920
1435.000000	1047.000000	25.682762
1436.000000	1046.000000	25.580512
1437.000000	1045.000000	25.504383
1438.000000	1044.000000	25.418826
1439.000000	1043.000000	25.321674
1440.000000	1042.000000	25.232891
1441.000000	1041.000000	25.150959
1442.000000	1040.000000	25.068303
1443.000000	1039.000000	24.991574
1444.000000	1038.000000	24.927610
1445.000000	1037.000000	24.867753
1446.000000	1036.000000	24.773797
1447.000000	1035.000000	24.689597
1448.000000	1034.000000	24.623860
1449.000000	1033.000000	24.579735
1450.000000	1032.000000	24.529953
1451.000000	1031.000000	24.455469
1452.000000	1030.000000	24.385867
1453.000000	1029.000000	24.325546
1454.000000	1028.000000	24.273706
1455.000000	1027.000000	24.229312
1456.000000	1026.000000	24.164993
1457.000000	1025.000000	24.118838
1458.000000	1024.000000	24.088884
1459.000000	1023.000000	24.058335
1460.000000	1022.000000	24.011733
1461.000000	1021.000000	23.982494
1462.000000	1020.000000	23.960706
1463.000000	1019.000000	23.938346
1464.000000	1018.000000	23.922621
1465.000000	1017.000000	23.917187
1466.000000	1016.000000	23.901490
1467.000000	1015.000000	23.889357
1468.000000	1014.000000	23.875792
1469.000000	1013.000000	23.878817
1470.000000	1012.000000	23.884555
1471.000000	1011.000000	23.880866
1472.000000	1010.000000	23.881404
1473.000000	1009.000000	23.866257
1474.000000	1008.000000	23.852061
1475.000000	1007.000000	23.853917
1476.000000	1006.000000	23.864050
1477.000000	1005.000000	23.876849
1478.000000	1004.000000	23.889926
1479.000000	1003.000000	23.914493
1480.000000	1002.000000	23.933708
1481.000000	1001.000000	23.955138
1482.000000	1000.000000	23.975471
1483.000000	999.000000	23.992846
1484.000000	998.000000	24.024747
1485.000000	997.000000	24.065267
1486.000000	996.000000	24.110123
1487.000000	995.000000	24.140656
1488.000000	994.000000	24.162303
1489.000000	993.000000	24.197353
1490.000000	992.000000	24.233969
1491.000000	991.000000	24.273999
1492.000000	990.000000	24.311860
1493.000000	989.000000	24.350762
1494.000000	988.000000	24.394621
1495.000000	987.000000	24.441084
1496.000000	986.000000	24.484901
1497.000000	985.000000	24.533311
1498.000000	984.000000	24.583744
1499.000000	983.000000	24.637770
1500.000000	982.000000	24.690572
1501.000000	981.000000	24.752114
1502.000000	980.000000	24.816429
1503.000000	979.000000	24.881129
1504.000000	978.000000	24.939982
1505.000000	977.000000	24.996487
1506.000000	976.000000	25.064049
1507.000000	975.000000	25.129179
1508.000000	974.000000	25.193548
1509.000000	973.000000	25.254466
1510.000000	972.000000	25.319258
1511.000000	971.000000	25.381068
1512.000000	970.000000	25.439930
1513.000000	969.000000	25.498290
1514.000000	968.000000	25.557035
1515.000000	967.000000	25.619006
1516.000000	966.000000	25.678314
1517.000000	965.000000	25.737645
1518.000000	964.000000	25.790128
1519.000000	963.000000	25.842518
1520.000000	962.000000	25.896065
1521.000000	961.000000	25.944395
1522.000000	960.000000	25.994225
1523.000000	959.000000	26.050057
1524.000000	958.000000	26.097960
1525.000000	957.000000	26.144120
1526.000000	956.000000	26.190860
1527.000000	955.000000	26.236480
1528.000000	954.000000	26.280427
1529.000000	953.000000	26.331468
1530.000000	952.000000	26.372169
1531.000000	951.000000	26.410639
1532.000000	950.000000	26.453050
1533.000000	949.000000	26.490897
1534.000000	948.000000	26.531355
1535.000000	947.000000	26.556783
1536.000000	946.000000	26.589841
1537.000000	945.000000	26.625077
1538.000000	944.000000	26.647979
1539.000000	943.000000	26.684111
1540.000000	942.000000	26.716974
1541.000000	941.000000	26.751694
1542.000000	940.000000	26.791099
1543.000000	939.000000	26.829037
1544.000000	938.000000	26.868419
1545.000000	937.000000	26.911038
1546.000000	936.000000	26.965507
1547.000000	935.000000	27.014639
1548.000000	934.000000	27.061352
1549.000000	933.000000	27.103658
1550.000000	932.000000	27.143877
1551.000000	931.000000	27.182184
1552.000000	930.000000	27.225314
1553.000000	929.000000	27.268783
1554.000000	928.000000	27.303625
1555.000000	927.000000	27.334524
1556.000000	926.000000	27.359344
1557.000000	925.000000	27.397712
1558.000000	924.000000	27.409620
1559.000000	923.000000	27.423941
1560.000000	922.000000	27.447022
1561.000000	921.000000	27.453708
1562.000000	920.000000	27.467698
1563.000000	919.000000	27.475659
1564.000000	918.000000	27.480083
1565.000000	917.000000	27.490698
1566.000000	916.000000	27.501929
1567.000000	915.000000	27.501542
1568.000000	914.000000	27.518098
1569.000000	913.000000	27.533470
1570.000000	912.000000	27.542117
1571.000000	911.000000	27.556233
1572.000000	910.000000	27.580140
1573.000000	909.000000	27.603633
1574.000000	908.000000	27.629115
1575.000000	907.000000	27.640790
1576.000000	906.000000	27.686429
1577.000000	905.000000	27.719365
1578.000000	904.000000	27.756072
1579.000000	903.000000	27.795022
1580.000000	902.000000	27.842587
1581.000000	901.000000	27.886509
1582.000000	900.000000	27.939664
1583.000000	899.000000	27.996972
1584.000000	898.000000	28.043698
1585.000000	897.000000	28.100208
1586.000000	896.000000	28.159263
1587.000000	895.000000	28.220978
1588.000000	894.000000	28.277019
1589.000000	893.000000	28.340397
1590.000000	892.000000	28.399613
1591.000000	891.000000	28.456321
1592.000000	890.000000	28.511178
1593.000000	889.000000	28.578928
1594.000000	888.000000	28.644992
1595.000000	887.000000	28.710406
1596.000000	886.000000	28.767159
1597.000000	885.000000	28.837236
1598.000000	884.000000	28.925438
1599.000000	883.000000	28.989613
1600.000000	882.000000	29.067632
1601.000000	881.000000	29.141826
1602.000000	880.000000	29.215503
1603.000000	879.000000	29.293221
1604.000000	878.000000	29.375928
1605.000000	877.000000	29.441451
1606.000000	876.000000	29.535279
1607.000000	875.000000	29.608714
1608.000000	874.000000	29.673759
1609.000000	873.000000	29.745700
1610.000000	872.000000	29.822639
1611.000000	871.000000	29.901898
1612.000000	870.000000	29.973785
1613.000000	869.000000	30.041744
1614.000000	868.000000	30.115351
1615.000000	867.000000	30.186675
1616.000000	866.000000	30.257287
1617.000000	865.000000	30.328564
1618.000000	864.000000	30.405453
1619.000000	863.000000	30.466224
1620.000000	862.000000	30.540565
1621.000000	861.000000	30.612751
1622.000000	860.000000	30.683010
1623.000000	859.000000	30.763856
1624.000000	858.000000	30.836056
1625.000000	857.000000	30.905735
1626.000000	856.000000	30.984065
1627.000000	855.000000	31.060289
1628.000000	854.000000	31.137076
1629.000000	853.000000	31.212914
1630.000000	852.000000	31.289166
1631.000000	851.000000	31.341867
1632.000000	850.000000	31.417733
1633.000000	849.000000	31.491669
1634.000000	848.000000	31.542384
1635.000000	847.000000	31.598487
1636.000000	846.000000	31.657384
1637.000000	845.000000	31.724864
1638.000000	844.000000	31.777861
1639.000000	843.000000	31.827856
1640.000000	842.000000	31.869063
1641.000000	841.000000	31.916653
1642.000000	840.000000	31.970480
1643.000000	839.000000	32.009763
1644.000000	838.000000	32.042025
1645.000000	837.000000	32.084088
1646.000000	836.000000	32.119375
1647.000000	835.000000	32.158932
1648.000000	834.000000	32.189011
1649.000000	833.000000	32.214723
1650.000000	832.000000	32.230545
1651.000000	831.000000	32.246013
1652.000000	830.000000	32.255856
1653.000000	829.000000	32.259356
1654.000000	828.000000	32.261061
1655.000000	827.000000	32.232256
1656.000000	826.000000	32.215333
1657.000000	825.000000	32.186002
1658.000000	824.000000	32.142277
1659.000000	823.000000	32.098113
1660.000000	822.000000	32.033636
1661.000000	821.000000	31.968718
1662.000000	820.000000	31.892328
1663.000000	819.000000	31.804723
1664.000000	818.000000	31.705860
1665.000000	817.000000	31.605627
1666.000000	816.000000	31.484085
1667.000000	815.000000	31.357349
1668.000000	814.000000	31.243174
1669.000000	813.000000	31.063938
1670.000000	812.000000	30.888113
1671.000000	811.000000	30.683550
1672.000000	810.000000	30.433031
1673.000000	809.000000	30.172439
1674.000000	808.000000	29.869820
1675.000000	807.000000	29.530900
1676.000000	806.000000	29.159475
1677.000000	805.000000	28.756965
1678.000000	804.000000	28.347782
1679.000000	803.000000	27.951960
1680.000000	802.000000	27.591068
1681.000000	801.000000	27.306049
1682.000000	800.000000	27.076651
1683.000000	799.000000	26.912571
1684.000000	798.000000	26.808284
1685.000000	797.000000	26.727097
1686.000000	796.000000	26.672148
1687.000000	795.000000	26.603942
1688.000000	794.000000	26.523598
1689.000000	793.000000	26.417019
1690.000000	792.000000	26.310519
1691.000000	791.000000	26.219532
1692.000000	790.000000	26.140095
1693.000000	789.000000	26.096595
1694.000000	788.000000	26.088064
1695.000000	787.000000	26.129171
1696.000000	786.000000	26.180782
1697.000000	785.000000	26.266064
1698.000000	784.000000	26.373494
1699.000000	783.000000	26.469744
1700.000000	782.000000	26.565624
1701.000000	781.000000	26.636264
1702.000000	780.000000	26.696737
1703.000000	779.000000	26.738005
1704.000000	778.000000	26.753610
1705.000000	777.000000	26.766420
1706.000000	776.000000	26.750693
1707.000000	775.000000	26.741359
1708.000000	774.000000	26.713434
1709.000000	773.000000	26.657827
1710.000000	772.000000	26.599323
1711.000000	771.000000	26.520061
1712.000000	770.000000	26.418798
1713.000000	769.000000	26.309209
1714.000000	768.000000	26.206047
1715.000000	767.000000	26.083012
1716.000000	766.000000	25.974740
1717.000000	765.000000	25.870191
1718.000000	764.000000	25.773618
1719.000000	763.000000	25.695905
1720.000000	762.000000	25.608750
1721.000000	761.000000	25.534056
1722.000000	760.000000	25.471204
1723.000000	759.000000	25.406665
1724.000000	758.000000	25.336544
1725.000000	757.000000	25.264494
1726.000000	756.000000	25.191906
1727.000000	755.000000	25.118375
1728.000000	754.000000	25.043504
1729.000000	753.000000	24.988771
1730.000000	752.000000	24.945023
1731.000000	751.000000	24.929593
1732.000000	750.000000	24.958298
1733.000000	749.000000	25.030922
1734.000000	748.000000	25.122945
1735.000000	747.000000	25.247407
1736.000000	746.000000	25.395299
1737.000000	745.000000	25.578582
1738.000000	744.000000	25.769224
1739.000000	743.000000	25.955186
1740.000000	742.000000	26.122453
1741.000000	741.000000	26.293331
1742.000000	740.000000	26.438388
1743.000000	739.000000	26.546775
1744.000000	738.000000	26.647634
1745.000000	737.000000	26.732615
1746.000000	736.000000	26.795761
1747.000000	735.000000	26.838586
1748.000000	734.000000	26.868244
1749.000000	733.000000	26.883239
1750.000000	732.000000	26.883274
1751.000000	731.000000	26.871124
1752.000000	730.000000	26.845269
1753.000000	729.000000	26.811318
1754.000000	728.000000	26.761640
1755.000000	727.000000	26.705454
1756.000000	726.000000	26.646719
1757.000000	725.000000	26.576120
1758.000000	724.000000	26.516781
1759.000000	723.000000	26.470836
1760.000000	722.000000	26.436726
1761.000000	721.000000	26.411095
1762.000000	720.000000	26.408847
1763.000000	719.000000	26.429539
1764.000000	718.000000	26.472106
1765.000000	717.000000	26.540482
1766.000000	716.000000	26.622797
1767.000000	715.000000	26.714259
1768.000000	714.000000	26.822710
1769.000000	713.000000	26.922007
1770.000000	712.000000	27.020677
1771.000000	711.000000	27.127186
1772.000000	710.000000	27.218501
1773.000000	709.000000	27.308595
1774.000000	708.000000	27.398938
1775.000000	707.000000	27.476860
1776.000000	706.000000	27.555458
1777.000000	705.000000	27.633848
1778.000000	704.000000	27.708938
1779.000000	703.000000	27.771521
1780.000000	702.000000	27.829876
1781.000000	701.000000	27.890665
1782.000000	700.000000	27.948497
1783.000000	699.000000	28.014007
1784.000000	698.000000	28.074447
1785.000000	697.000000	28.121293
1786.000000	696.000000	28.171717
1787.000000	695.000000	28.219214
1788.000000	694.000000	28.262857
1789.000000	693.000000	28.308217
1790.000000	692.000000	28.354784
1791.000000	691.000000	28.401532
1792.000000	690.000000	28.449282
1793.000000	689.000000	28.496842
1794.000000	688.000000	28.545661
1795.000000	687.000000	28.588078
1796.000000	686.000000	28.624421
1797.000000	685.000000	28.670473
1798.000000	684.000000	28.723601
1799.000000	683.000000	28.781158
1800.000000	682.000000	28.839541
1801.000000	681.000000	28.893621
1802.000000	680.000000	28.932175
1803.000000	679.000000	28.966145
1804.000000	678.000000	29.012406
1805.000000	677.000000	29.064733
1806.000000	676.000000	29.116068
1807.000000	675.000000	29.157540
1808.000000	674.000000	29.186851
1809.000000	673.000000	29.225802
1810.000000	672.000000	29.273239
1811.000000	671.000000	29.308111
1812.000000	670.000000	29.334395
1813.000000	669.000000	29.344761
1814.000000	668.000000	29.363721
1815.000000	667.000000	29.377820
1816.000000	666.000000	29.389188
1817.000000	665.000000	29.414627
1818.000000	664.000000	29.452476
1819.000000	663.000000	29.514049
1820.000000	662.000000	29.558458
1821.000000	661.000000	29.572496
1822.000000	660.000000	29.569755
1823.000000	659.000000	29.578269
1824.000000	658.000000	29.615517
1825.000000	657.000000	29.679064
1826.000000	656.000000	29.733338
1827.000000	655.000000	29.806630
1828.000000	654.000000	29.876768
1829.000000	653.000000	29.930506
1830.000000	652.000000	29.971890
1831.000000	651.000000	30.007607
1832.000000	650.000000	30.050039
1833.000000	649.000000	30.109941
1834.000000	648.000000	30.170658
1835.000000	647.000000	30.228975
1836.000000	646.000000	30.270824
1837.000000	645.000000	30.314433
1838.000000	644.000000	30.345612
1839.000000	643.000000	30.377743
1840.000000	642.000000	30.402308
1841.000000	641.000000	30.402450
1842.000000	640.000000	30.374864
1843.000000	639.000000	30.357617
1844.000000	638.000000	30.380023
1845.000000	637.000000	30.415277
1846.000000	636.000000	30.468847
1847.000000	635.000000	30.501547
1848.000000	634.000000	30.493904
1849.000000	633.000000	30.455416
1850.000000	632.000000	30.419019
1851.000000	631.000000	30.372851
1852.000000	630.000000	30.356581
1853.000000	629.000000	30.355260
1854.000000	628.000000	30.304209
1855.000000	627.000000	30.247874
1856.000000	626.000000	30.185796
1857.000000	625.000000	30.102566
1858.000000	624.000000	30.005156
1859.000000	623.000000	29.889597
1860.000000	622.000000	29.736606
1861.000000	621.000000	29.587281
1862.000000	620.000000	29.419797
1863.000000	619.000000	29.266296
1864.000000	618.000000	29.117177
1865.000000	617.000000	28.952852
1866.000000	616.000000	28.796996
1867.000000	615.000000	28.600470
1868.000000	614.000000	28.364468
1869.000000	613.000000	28.073702
1870.000000	612.000000	27.779357
1871.000000	611.000000	27.430530
1872.000000	610.000000	27.070701
1873.000000	609.000000	26.674638
1874.000000	608.000000	26.256331
1875.000000	607.000000	25.830421
1876.000000	606.000000	25.393491
1877.000000	605.000000	24.935776
1878.000000	604.000000	24.467055
1879.000000	603.000000	24.010891
1880.000000	602.000000	23.546439
1881.000000	601.000000	23.050533
1882.000000	600.000000	22.570080
1883.000000	599.000000	22.050771
1884.000000	598.000000	21.548464
1885.000000	597.000000	21.081194
1886.000000	596.000000	20.627446
1887.000000	595.000000	20.210776
1888.000000	594.000000	19.775663
1889.000000	593.000000	19.387685
1890.000000	592.000000	18.988680
1891.000000	591.000000	18.562850
1892.000000	590.000000	18.150512
1893.000000	589.000000	17.794617
1894.000000	588.000000	17.465594
1895.000000	587.000000	17.157465
1896.000000	586.000000	16.856094
1897.000000	585.000000	16.564026
1898.000000	584.000000	16.231693
1899.000000	583.000000	15.926749
1900.000000	582.000000	15.626845
1901.000000	581.000000	15.363800
1902.000000	580.000000	15.099502
1903.000000	579.000000	14.845387
1904.000000	578.000000	14.592357
1905.000000	577.000000	14.331094
1906.000000	576.000000	14.083185
1907.000000	575.000000	13.866347
1908.000000	574.000000	13.657206
1909.000000	573.000000	13.460072
1910.000000	572.000000	13.284953
1911.000000	571.000000	13.119609
1912.000000	570.000000	12.925868
1913.000000	569.000000	12.752951
1914.000000	568.000000	12.581416
1915.000000	567.000000	12.438996
1916.000000	566.000000	12.292548
1917.000000	565.000000	12.161982
1918.000000	564.000000	12.029863
1919.000000	563.000000	11.911960
1920.000000	562.000000	11.793854
1921.000000	561.000000	11.684861
1922.000000	560.000000	11.576787
1923.000000	559.000000	11.474375
1924.000000	558.000000	11.379297
1925.000000	557.000000	11.309624
1926.000000	556.000000	11.240507
1927.000000	555.000000	11.169584
1928.000000	554.000000	11.102903
1929.000000	553.000000	11.061737
1930.000000	552.000000	10.991525
1931.000000	551.000000	10.950885
1932.000000	550.000000	10.920131
1933.000000	549.000000	10.885415
1934.000000	548.000000	10.860003
1935.000000	547.000000	10.855203
1936.000000	546.000000	10.848509
1937.000000	545.000000	10.851779
1938.000000	544.000000	10.864566
1939.000000	543.000000	10.879713
1940.000000	542.000000	10.879841
1941.000000	541.000000	10.890977
1942.000000	540.000000	10.909487
1943.000000	539.000000	10.933799
1944.000000	538.000000	10.966139
1945.000000	537.000000	10.999296
1946.000000	536.000000	11.036868
1947.000000	535.000000	11.083176
1948.000000	534.000000	11.124235
1949.000000	533.000000	11.169138
1950.000000	532.000000	11.223801
1951.000000	531.000000	11.268290
1952.000000	530.000000	11.321473
1953.000000	529.000000	11.391498
1954.000000	528.000000	11.449605
1955.000000	527.000000	11.510434
1956.000000	526.000000	11.567579
1957.000000	525.000000	11.621705
1958.000000	524.000000	11.693071
1959.000000	523.000000	11.759733
1960.000000	522.000000	11.823494
1961.000000	521.000000	11.896661
1962.000000	520.000000	11.951282
1963.000000	519.000000	12.024756
1964.000000	518.000000	12.089519
1965.000000	517.000000	12.155742
1966.000000	516.000000	12.212256
1967.000000	515.000000	12.301540
1968.000000	514.000000	12.363162
1969.000000	513.000000	12.442467
1970.000000	512.000000	12.509308
1971.000000	511.000000	12.594274
1972.000000	510.000000	12.658678
1973.000000	509.000000	12.738523
1974.000000	508.000000	12.802113
1975.000000	507.000000	12.888870
1976.000000	506.000000	12.959933
1977.000000	505.000000	13.038951
1978.000000	504.000000	13.132947
1979.000000	503.000000	13.202845
1980.000000	502.000000	13.291532
1981.000000	501.000000	13.370482
1982.000000	500.000000	13.452138
1983.000000	499.000000	13.522307
1984.000000	498.000000	13.612355
1985.000000	497.000000	13.692211
1986.000000	496.000000	13.774188
1987.000000	495.000000	13.849907
1988.000000	494.000000	13.922343
1989.000000	493.000000	14.006906
1990.000000	492.000000	14.068650
1991.000000	491.000000	14.139734
1992.000000	490.000000	14.208445
1993.000000	489.000000	14.276883
1994.000000	488.000000	14.359157
1995.000000	487.000000	14.414807
1996.000000	486.000000	14.475481
1997.000000	485.000000	14.532728
1998.000000	484.000000	14.591235
1999.000000	483.000000	14.637801
