PE UV       SUBTECH     SPECTRUM    ASCII       PEDS        4.00        
   -1
CICIMAUCR0232-3.Sample.ASC
24/06/13
17:20:27.00
24/06/13
17:20:27.00
Vinicio Soto Monge
C. resplendens. Sex M. Dorsal.
250,000000
1
Lambda 1050
1050L1511233
PerkinElmer UV WinLab 6.3.2.0749 / 2.02.05 Lambda 900 UV/VIS/NIR, Aug  7 2015 09:38:08

0
0
3350/servo 860,8/2
0
0
UV/VIS
1
1
1
DoubleDePol,CommonBeamDepol,RBeamAtt,SBeamAtt,60mm sphere, WB InGaAs Detector
0
0
0
0
Program
Program
3350/servo 860,8/2
3350/0,2 860,8/0,2
3350/0,2 860,8/0,2
0
15.00
 
 
 
0
 
860,8
319,2
860,8
Front
100
on
S:100 R:100
0
0
0
0
 
0
 
 
 
0
 
 
0
0
0
0
0
 
 
 
 
0
0


0
0
#HDR
-1
-1
#GR
nm
%R
1.0
0.0
2500,000000
-1,000000
2251
8
94,018800
5,873500
#DATA
250.000000	2232.000000	6.354400
251.000000	2231.000000	6.346733
252.000000	2230.000000	6.331600
253.000000	2229.000000	6.297467
254.000000	2228.000000	6.280100
255.000000	2227.000000	6.299600
256.000000	2226.000000	6.288133
257.000000	2225.000000	6.271200
258.000000	2224.000000	6.276000
259.000000	2223.000000	6.246200
260.000000	2222.000000	6.218367
261.000000	2221.000000	6.195833
262.000000	2220.000000	6.189467
263.000000	2219.000000	6.184567
264.000000	2218.000000	6.159133
265.000000	2217.000000	6.128767
266.000000	2216.000000	6.094967
267.000000	2215.000000	6.074500
268.000000	2214.000000	6.057600
269.000000	2213.000000	6.042800
270.000000	2212.000000	6.045333
271.000000	2211.000000	6.025367
272.000000	2210.000000	6.014700
273.000000	2209.000000	5.983800
274.000000	2208.000000	5.991967
275.000000	2207.000000	5.966333
276.000000	2206.000000	5.959733
277.000000	2205.000000	5.973333
278.000000	2204.000000	5.957400
279.000000	2203.000000	5.959833
280.000000	2202.000000	5.941300
281.000000	2201.000000	5.953600
282.000000	2200.000000	5.951100
283.000000	2199.000000	5.934567
284.000000	2198.000000	5.944200
285.000000	2197.000000	5.944700
286.000000	2196.000000	5.948500
287.000000	2195.000000	5.934633
288.000000	2194.000000	5.922500
289.000000	2193.000000	5.947867
290.000000	2192.000000	5.920400
291.000000	2191.000000	5.916700
292.000000	2190.000000	5.906300
293.000000	2189.000000	5.908367
294.000000	2188.000000	5.893200
295.000000	2187.000000	5.906100
296.000000	2186.000000	5.918200
297.000000	2185.000000	5.909000
298.000000	2184.000000	5.867567
299.000000	2183.000000	5.882933
300.000000	2182.000000	5.873767
301.000000	2181.000000	5.871400
302.000000	2180.000000	5.896800
303.000000	2179.000000	5.895067
304.000000	2178.000000	5.882267
305.000000	2177.000000	5.874167
306.000000	2176.000000	5.872167
307.000000	2175.000000	5.866967
308.000000	2174.000000	5.854667
309.000000	2173.000000	5.837067
310.000000	2172.000000	5.840533
311.000000	2171.000000	5.855000
312.000000	2170.000000	5.847500
313.000000	2169.000000	5.837333
314.000000	2168.000000	5.854900
315.000000	2167.000000	5.864533
316.000000	2166.000000	6.185800
317.000000	2165.000000	6.617267
318.000000	2164.000000	6.812900
319.000000	2163.000000	6.987267
320.000000	2162.000000	6.763433
321.000000	2161.000000	6.458433
322.000000	2160.000000	6.299567
323.000000	2159.000000	6.169333
324.000000	2158.000000	6.257700
325.000000	2157.000000	6.486700
326.000000	2156.000000	6.366567
327.000000	2155.000000	6.178333
328.000000	2154.000000	6.124533
329.000000	2153.000000	6.147167
330.000000	2152.000000	6.078567
331.000000	2151.000000	6.243467
332.000000	2150.000000	6.266633
333.000000	2149.000000	6.194800
334.000000	2148.000000	6.163133
335.000000	2147.000000	6.014867
336.000000	2146.000000	5.970500
337.000000	2145.000000	6.018800
338.000000	2144.000000	6.056300
339.000000	2143.000000	6.095267
340.000000	2142.000000	6.109800
341.000000	2141.000000	6.019200
342.000000	2140.000000	6.011633
343.000000	2139.000000	6.013033
344.000000	2138.000000	6.019567
345.000000	2137.000000	6.031933
346.000000	2136.000000	5.983200
347.000000	2135.000000	5.955833
348.000000	2134.000000	5.977700
349.000000	2133.000000	6.051133
350.000000	2132.000000	6.061367
351.000000	2131.000000	6.021567
352.000000	2130.000000	6.003167
353.000000	2129.000000	6.077667
354.000000	2128.000000	6.045867
355.000000	2127.000000	6.007300
356.000000	2126.000000	6.082667
357.000000	2125.000000	6.185000
358.000000	2124.000000	6.216767
359.000000	2123.000000	6.195567
360.000000	2122.000000	6.200000
361.000000	2121.000000	6.197867
362.000000	2120.000000	6.285333
363.000000	2119.000000	6.295567
364.000000	2118.000000	6.276333
365.000000	2117.000000	6.332100
366.000000	2116.000000	6.334267
367.000000	2115.000000	6.380467
368.000000	2114.000000	6.351200
369.000000	2113.000000	6.447433
370.000000	2112.000000	6.448800
371.000000	2111.000000	6.378933
372.000000	2110.000000	6.353133
373.000000	2109.000000	6.371400
374.000000	2108.000000	6.321433
375.000000	2107.000000	6.455767
376.000000	2106.000000	6.657367
377.000000	2105.000000	6.752233
378.000000	2104.000000	6.807067
379.000000	2103.000000	6.860500
380.000000	2102.000000	6.921467
381.000000	2101.000000	6.974200
382.000000	2100.000000	7.037000
383.000000	2099.000000	7.099367
384.000000	2098.000000	7.166200
385.000000	2097.000000	7.245000
386.000000	2096.000000	7.315233
387.000000	2095.000000	7.393267
388.000000	2094.000000	7.473733
389.000000	2093.000000	7.567067
390.000000	2092.000000	7.655400
391.000000	2091.000000	7.761500
392.000000	2090.000000	7.869333
393.000000	2089.000000	7.963433
394.000000	2088.000000	8.092533
395.000000	2087.000000	8.232567
396.000000	2086.000000	8.356933
397.000000	2085.000000	8.521367
398.000000	2084.000000	8.673100
399.000000	2083.000000	8.842567
400.000000	2082.000000	9.044333
401.000000	2081.000000	9.253067
402.000000	2080.000000	9.472833
403.000000	2079.000000	9.702267
404.000000	2078.000000	9.979100
405.000000	2077.000000	10.255333
406.000000	2076.000000	10.560067
407.000000	2075.000000	10.885433
408.000000	2074.000000	11.209233
409.000000	2073.000000	11.583133
410.000000	2072.000000	11.965367
411.000000	2071.000000	12.377900
412.000000	2070.000000	12.826867
413.000000	2069.000000	13.285567
414.000000	2068.000000	13.757033
415.000000	2067.000000	14.271267
416.000000	2066.000000	14.774467
417.000000	2065.000000	15.280700
418.000000	2064.000000	15.827767
419.000000	2063.000000	16.380867
420.000000	2062.000000	16.937067
421.000000	2061.000000	17.520933
422.000000	2060.000000	18.085800
423.000000	2059.000000	18.647933
424.000000	2058.000000	19.200033
425.000000	2057.000000	19.761933
426.000000	2056.000000	20.295233
427.000000	2055.000000	20.823333
428.000000	2054.000000	21.332033
429.000000	2053.000000	21.844300
430.000000	2052.000000	22.356100
431.000000	2051.000000	22.809500
432.000000	2050.000000	23.281567
433.000000	2049.000000	23.730200
434.000000	2048.000000	24.157567
435.000000	2047.000000	24.570333
436.000000	2046.000000	24.962467
437.000000	2045.000000	25.334400
438.000000	2044.000000	25.701500
439.000000	2043.000000	26.049833
440.000000	2042.000000	26.373367
441.000000	2041.000000	26.701867
442.000000	2040.000000	27.018467
443.000000	2039.000000	27.307533
444.000000	2038.000000	27.603700
445.000000	2037.000000	27.862533
446.000000	2036.000000	28.096467
447.000000	2035.000000	28.346133
448.000000	2034.000000	28.561200
449.000000	2033.000000	28.764700
450.000000	2032.000000	28.957433
451.000000	2031.000000	29.144500
452.000000	2030.000000	29.321300
453.000000	2029.000000	29.486967
454.000000	2028.000000	29.627200
455.000000	2027.000000	29.753333
456.000000	2026.000000	29.883733
457.000000	2025.000000	29.960033
458.000000	2024.000000	30.075500
459.000000	2023.000000	30.127300
460.000000	2022.000000	30.207667
461.000000	2021.000000	30.259367
462.000000	2020.000000	30.269467
463.000000	2019.000000	30.299300
464.000000	2018.000000	30.302567
465.000000	2017.000000	30.290967
466.000000	2016.000000	30.238767
467.000000	2015.000000	30.197167
468.000000	2014.000000	30.149467
469.000000	2013.000000	30.085233
470.000000	2012.000000	30.016533
471.000000	2011.000000	29.946133
472.000000	2010.000000	29.839833
473.000000	2009.000000	29.775167
474.000000	2008.000000	29.698533
475.000000	2007.000000	29.632867
476.000000	2006.000000	29.586967
477.000000	2005.000000	29.567533
478.000000	2004.000000	29.552900
479.000000	2003.000000	29.566867
480.000000	2002.000000	29.629833
481.000000	2001.000000	29.726867
482.000000	2000.000000	29.860433
483.000000	1999.000000	30.031233
484.000000	1998.000000	30.250800
485.000000	1997.000000	30.514467
486.000000	1996.000000	30.807100
487.000000	1995.000000	31.122967
488.000000	1994.000000	31.502933
489.000000	1993.000000	31.923933
490.000000	1992.000000	32.385033
491.000000	1991.000000	32.865533
492.000000	1990.000000	33.339400
493.000000	1989.000000	33.855500
494.000000	1988.000000	34.348167
495.000000	1987.000000	34.863367
496.000000	1986.000000	35.355100
497.000000	1985.000000	35.818900
498.000000	1984.000000	36.256267
499.000000	1983.000000	36.645900
500.000000	1982.000000	37.011733
501.000000	1981.000000	37.321467
502.000000	1980.000000	37.621133
503.000000	1979.000000	37.872100
504.000000	1978.000000	38.097300
505.000000	1977.000000	38.290200
506.000000	1976.000000	38.477300
507.000000	1975.000000	38.621267
508.000000	1974.000000	38.775667
509.000000	1973.000000	38.906700
510.000000	1972.000000	39.068933
511.000000	1971.000000	39.290767
512.000000	1970.000000	39.504100
513.000000	1969.000000	39.777900
514.000000	1968.000000	40.158667
515.000000	1967.000000	40.597800
516.000000	1966.000000	41.133967
517.000000	1965.000000	41.753267
518.000000	1964.000000	42.483033
519.000000	1963.000000	43.324100
520.000000	1962.000000	44.292233
521.000000	1961.000000	45.348533
522.000000	1960.000000	46.518333
523.000000	1959.000000	47.757967
524.000000	1958.000000	49.100633
525.000000	1957.000000	50.493067
526.000000	1956.000000	51.906000
527.000000	1955.000000	53.370367
528.000000	1954.000000	54.846033
529.000000	1953.000000	56.329800
530.000000	1952.000000	57.805700
531.000000	1951.000000	59.250467
532.000000	1950.000000	60.687333
533.000000	1949.000000	62.072800
534.000000	1948.000000	63.393533
535.000000	1947.000000	64.681567
536.000000	1946.000000	65.876767
537.000000	1945.000000	67.029433
538.000000	1944.000000	68.118200
539.000000	1943.000000	69.144900
540.000000	1942.000000	70.097700
541.000000	1941.000000	71.051900
542.000000	1940.000000	71.939600
543.000000	1939.000000	72.758333
544.000000	1938.000000	73.505033
545.000000	1937.000000	74.231800
546.000000	1936.000000	74.915867
547.000000	1935.000000	75.574400
548.000000	1934.000000	76.181767
549.000000	1933.000000	76.802500
550.000000	1932.000000	77.414600
551.000000	1931.000000	78.009833
552.000000	1930.000000	78.607567
553.000000	1929.000000	79.190033
554.000000	1928.000000	79.759467
555.000000	1927.000000	80.288967
556.000000	1926.000000	80.791933
557.000000	1925.000000	81.276500
558.000000	1924.000000	81.737533
559.000000	1923.000000	82.128267
560.000000	1922.000000	82.571233
561.000000	1921.000000	82.929167
562.000000	1920.000000	83.264267
563.000000	1919.000000	83.593733
564.000000	1918.000000	83.908800
565.000000	1917.000000	84.209367
566.000000	1916.000000	84.528867
567.000000	1915.000000	84.814700
568.000000	1914.000000	85.088800
569.000000	1913.000000	85.402567
570.000000	1912.000000	85.654467
571.000000	1911.000000	85.944300
572.000000	1910.000000	86.224533
573.000000	1909.000000	86.491067
574.000000	1908.000000	86.722700
575.000000	1907.000000	86.956533
576.000000	1906.000000	87.139300
577.000000	1905.000000	87.326233
578.000000	1904.000000	87.502233
579.000000	1903.000000	87.649967
580.000000	1902.000000	87.796833
581.000000	1901.000000	87.906567
582.000000	1900.000000	87.972767
583.000000	1899.000000	88.024700
584.000000	1898.000000	88.119667
585.000000	1897.000000	88.222067
586.000000	1896.000000	88.264367
587.000000	1895.000000	88.325733
588.000000	1894.000000	88.379333
589.000000	1893.000000	88.417167
590.000000	1892.000000	88.463167
591.000000	1891.000000	88.499033
592.000000	1890.000000	88.517067
593.000000	1889.000000	88.505200
594.000000	1888.000000	88.475567
595.000000	1887.000000	88.434400
596.000000	1886.000000	88.366433
597.000000	1885.000000	88.267167
598.000000	1884.000000	88.151400
599.000000	1883.000000	87.997033
600.000000	1882.000000	87.809500
601.000000	1881.000000	87.609367
602.000000	1880.000000	87.385067
603.000000	1879.000000	87.158567
604.000000	1878.000000	86.920700
605.000000	1877.000000	86.643567
606.000000	1876.000000	86.367067
607.000000	1875.000000	86.061000
608.000000	1874.000000	85.738333
609.000000	1873.000000	85.403300
610.000000	1872.000000	85.034000
611.000000	1871.000000	84.630367
612.000000	1870.000000	84.178767
613.000000	1869.000000	83.702533
614.000000	1868.000000	83.174500
615.000000	1867.000000	82.599167
616.000000	1866.000000	81.990967
617.000000	1865.000000	81.359400
618.000000	1864.000000	80.681400
619.000000	1863.000000	80.004000
620.000000	1862.000000	79.322733
621.000000	1861.000000	78.627667
622.000000	1860.000000	77.933333
623.000000	1859.000000	77.196367
624.000000	1858.000000	76.490033
625.000000	1857.000000	75.760000
626.000000	1856.000000	74.992067
627.000000	1855.000000	74.205800
628.000000	1854.000000	73.379433
629.000000	1853.000000	72.492200
630.000000	1852.000000	71.539600
631.000000	1851.000000	70.544000
632.000000	1850.000000	69.481567
633.000000	1849.000000	68.372633
634.000000	1848.000000	67.263867
635.000000	1847.000000	66.136700
636.000000	1846.000000	65.013967
637.000000	1845.000000	63.899267
638.000000	1844.000000	62.810000
639.000000	1843.000000	61.797300
640.000000	1842.000000	60.832967
641.000000	1841.000000	59.952033
642.000000	1840.000000	59.163233
643.000000	1839.000000	58.461333
644.000000	1838.000000	57.900800
645.000000	1837.000000	57.460167
646.000000	1836.000000	57.153833
647.000000	1835.000000	56.970800
648.000000	1834.000000	56.948367
649.000000	1833.000000	57.077767
650.000000	1832.000000	57.339900
651.000000	1831.000000	57.740100
652.000000	1830.000000	58.239100
653.000000	1829.000000	58.890067
654.000000	1828.000000	59.649600
655.000000	1827.000000	60.468933
656.000000	1826.000000	61.396800
657.000000	1825.000000	62.393133
658.000000	1824.000000	63.419467
659.000000	1823.000000	64.510767
660.000000	1822.000000	65.636233
661.000000	1821.000000	66.745467
662.000000	1820.000000	67.854467
663.000000	1819.000000	68.968633
664.000000	1818.000000	70.045133
665.000000	1817.000000	71.054767
666.000000	1816.000000	72.010367
667.000000	1815.000000	72.911533
668.000000	1814.000000	73.753967
669.000000	1813.000000	74.545933
670.000000	1812.000000	75.275233
671.000000	1811.000000	75.943967
672.000000	1810.000000	76.549000
673.000000	1809.000000	77.144233
674.000000	1808.000000	77.673067
675.000000	1807.000000	78.147333
676.000000	1806.000000	78.581967
677.000000	1805.000000	78.980167
678.000000	1804.000000	79.332267
679.000000	1803.000000	79.659767
680.000000	1802.000000	79.957933
681.000000	1801.000000	80.200767
682.000000	1800.000000	80.409533
683.000000	1799.000000	80.594067
684.000000	1798.000000	80.718367
685.000000	1797.000000	80.828300
686.000000	1796.000000	80.882900
687.000000	1795.000000	80.882900
688.000000	1794.000000	80.888300
689.000000	1793.000000	80.872967
690.000000	1792.000000	80.811400
691.000000	1791.000000	80.741233
692.000000	1790.000000	80.735167
693.000000	1789.000000	80.643700
694.000000	1788.000000	80.598100
695.000000	1787.000000	80.516567
696.000000	1786.000000	80.437567
697.000000	1785.000000	80.427700
698.000000	1784.000000	80.404667
699.000000	1783.000000	80.334167
700.000000	1782.000000	80.268067
701.000000	1781.000000	80.191233
702.000000	1780.000000	80.129800
703.000000	1779.000000	80.092433
704.000000	1778.000000	80.048900
705.000000	1777.000000	79.961967
706.000000	1776.000000	79.868700
707.000000	1775.000000	79.824733
708.000000	1774.000000	79.806100
709.000000	1773.000000	79.811100
710.000000	1772.000000	79.834800
711.000000	1771.000000	79.882233
712.000000	1770.000000	79.971300
713.000000	1769.000000	80.112467
714.000000	1768.000000	80.232400
715.000000	1767.000000	80.422767
716.000000	1766.000000	80.687667
717.000000	1765.000000	80.966933
718.000000	1764.000000	81.182967
719.000000	1763.000000	81.449833
720.000000	1762.000000	81.752367
721.000000	1761.000000	82.048033
722.000000	1760.000000	82.408400
723.000000	1759.000000	82.711433
724.000000	1758.000000	83.106433
725.000000	1757.000000	83.475300
726.000000	1756.000000	83.884833
727.000000	1755.000000	84.290867
728.000000	1754.000000	84.742900
729.000000	1753.000000	85.135933
730.000000	1752.000000	85.514933
731.000000	1751.000000	86.022300
732.000000	1750.000000	86.461500
733.000000	1749.000000	86.888100
734.000000	1748.000000	87.346300
735.000000	1747.000000	87.765667
736.000000	1746.000000	88.149133
737.000000	1745.000000	88.506400
738.000000	1744.000000	88.950700
739.000000	1743.000000	89.236300
740.000000	1742.000000	89.518400
741.000000	1741.000000	89.824433
742.000000	1740.000000	90.056667
743.000000	1739.000000	90.230133
744.000000	1738.000000	90.469133
745.000000	1737.000000	90.607800
746.000000	1736.000000	90.730200
747.000000	1735.000000	90.893167
748.000000	1734.000000	91.071000
749.000000	1733.000000	91.150533
750.000000	1732.000000	91.267167
751.000000	1731.000000	91.324033
752.000000	1730.000000	91.471933
753.000000	1729.000000	91.603667
754.000000	1728.000000	91.784467
755.000000	1727.000000	91.751233
756.000000	1726.000000	91.911767
757.000000	1725.000000	91.980600
758.000000	1724.000000	92.063433
759.000000	1723.000000	92.128033
760.000000	1722.000000	92.236133
761.000000	1721.000000	92.240633
762.000000	1720.000000	92.396867
763.000000	1719.000000	92.510767
764.000000	1718.000000	92.489367
765.000000	1717.000000	92.569400
766.000000	1716.000000	92.498233
767.000000	1715.000000	92.559167
768.000000	1714.000000	92.594367
769.000000	1713.000000	92.606133
770.000000	1712.000000	92.568700
771.000000	1711.000000	92.522800
772.000000	1710.000000	92.531900
773.000000	1709.000000	92.519467
774.000000	1708.000000	92.517967
775.000000	1707.000000	92.496267
776.000000	1706.000000	92.349500
777.000000	1705.000000	92.236567
778.000000	1704.000000	92.041000
779.000000	1703.000000	91.830500
780.000000	1702.000000	91.692033
781.000000	1701.000000	91.439333
782.000000	1700.000000	91.326367
783.000000	1699.000000	91.149367
784.000000	1698.000000	90.968167
785.000000	1697.000000	90.677433
786.000000	1696.000000	90.638333
787.000000	1695.000000	90.468700
788.000000	1694.000000	90.300133
789.000000	1693.000000	90.233233
790.000000	1692.000000	90.142433
791.000000	1691.000000	90.086100
792.000000	1690.000000	89.940567
793.000000	1689.000000	89.898933
794.000000	1688.000000	89.880600
795.000000	1687.000000	89.775700
796.000000	1686.000000	89.809900
797.000000	1685.000000	89.694467
798.000000	1684.000000	89.774033
799.000000	1683.000000	89.781167
800.000000	1682.000000	89.663933
801.000000	1681.000000	89.666667
802.000000	1680.000000	89.560433
803.000000	1679.000000	89.605100
804.000000	1678.000000	89.563700
805.000000	1677.000000	89.469900
806.000000	1676.000000	89.305367
807.000000	1675.000000	89.288667
808.000000	1674.000000	89.063267
809.000000	1673.000000	89.047533
810.000000	1672.000000	88.783267
811.000000	1671.000000	88.634900
812.000000	1670.000000	88.278933
813.000000	1669.000000	88.168767
814.000000	1668.000000	87.899733
815.000000	1667.000000	87.643067
816.000000	1666.000000	87.370367
817.000000	1665.000000	87.072300
818.000000	1664.000000	86.698033
819.000000	1663.000000	86.329667
820.000000	1662.000000	85.989200
821.000000	1661.000000	85.770967
822.000000	1660.000000	85.488433
823.000000	1659.000000	85.075900
824.000000	1658.000000	84.645900
825.000000	1657.000000	84.396733
826.000000	1656.000000	84.181633
827.000000	1655.000000	83.881267
828.000000	1654.000000	83.583700
829.000000	1653.000000	83.374633
830.000000	1652.000000	83.160633
831.000000	1651.000000	82.630867
832.000000	1650.000000	82.328167
833.000000	1649.000000	82.200433
834.000000	1648.000000	81.966033
835.000000	1647.000000	81.758067
836.000000	1646.000000	81.405100
837.000000	1645.000000	81.051200
838.000000	1644.000000	80.741300
839.000000	1643.000000	80.440800
840.000000	1642.000000	80.232433
841.000000	1641.000000	80.007333
842.000000	1640.000000	79.762533
843.000000	1639.000000	79.359500
844.000000	1638.000000	79.442333
845.000000	1637.000000	79.282100
846.000000	1636.000000	78.942800
847.000000	1635.000000	78.804867
848.000000	1634.000000	78.286667
849.000000	1633.000000	78.242100
850.000000	1632.000000	78.188233
851.000000	1631.000000	77.803833
852.000000	1630.000000	77.857933
853.000000	1629.000000	77.940267
854.000000	1628.000000	77.830767
855.000000	1627.000000	77.650433
856.000000	1626.000000	77.270667
857.000000	1625.000000	77.025100
858.000000	1624.000000	77.315400
859.000000	1623.000000	77.163013
860.000000	1622.000000	77.009076
861.000000	1621.000000	76.861184
862.000000	1620.000000	76.737900
863.000000	1619.000000	76.600881
864.000000	1618.000000	76.478650
865.000000	1617.000000	76.347568
866.000000	1616.000000	76.222347
867.000000	1615.000000	76.068443
868.000000	1614.000000	75.930683
869.000000	1613.000000	75.820809
870.000000	1612.000000	75.762173
871.000000	1611.000000	75.800579
872.000000	1610.000000	75.856680
873.000000	1609.000000	75.892470
874.000000	1608.000000	75.885102
875.000000	1607.000000	75.869858
876.000000	1606.000000	75.839512
877.000000	1605.000000	75.778833
878.000000	1604.000000	75.706969
879.000000	1603.000000	75.631737
880.000000	1602.000000	75.536164
881.000000	1601.000000	75.442162
882.000000	1600.000000	75.352334
883.000000	1599.000000	75.246930
884.000000	1598.000000	75.139973
885.000000	1597.000000	75.050374
886.000000	1596.000000	74.939379
887.000000	1595.000000	74.817700
888.000000	1594.000000	74.705113
889.000000	1593.000000	74.594180
890.000000	1592.000000	74.487831
891.000000	1591.000000	74.388649
892.000000	1590.000000	74.287286
893.000000	1589.000000	74.167382
894.000000	1588.000000	74.057566
895.000000	1587.000000	73.965546
896.000000	1586.000000	73.867543
897.000000	1585.000000	73.773864
898.000000	1584.000000	73.679693
899.000000	1583.000000	73.577097
900.000000	1582.000000	73.489099
901.000000	1581.000000	73.418135
902.000000	1580.000000	73.344970
903.000000	1579.000000	73.271317
904.000000	1578.000000	73.197229
905.000000	1577.000000	73.142215
906.000000	1576.000000	73.084517
907.000000	1575.000000	73.026646
908.000000	1574.000000	72.984752
909.000000	1573.000000	72.944120
910.000000	1572.000000	72.900749
911.000000	1571.000000	72.861934
912.000000	1570.000000	72.824267
913.000000	1569.000000	72.773277
914.000000	1568.000000	72.727528
915.000000	1567.000000	72.692902
916.000000	1566.000000	72.650718
917.000000	1565.000000	72.596282
918.000000	1564.000000	72.542865
919.000000	1563.000000	72.487672
920.000000	1562.000000	72.411876
921.000000	1561.000000	72.340067
922.000000	1560.000000	72.277906
923.000000	1559.000000	72.209199
924.000000	1558.000000	72.143075
925.000000	1557.000000	72.088504
926.000000	1556.000000	72.011463
927.000000	1555.000000	71.917333
928.000000	1554.000000	71.848267
929.000000	1553.000000	71.777374
930.000000	1552.000000	71.688229
931.000000	1551.000000	71.604163
932.000000	1550.000000	71.523507
933.000000	1549.000000	71.437405
934.000000	1548.000000	71.339807
935.000000	1547.000000	71.237544
936.000000	1546.000000	71.143605
937.000000	1545.000000	71.055023
938.000000	1544.000000	70.965420
939.000000	1543.000000	70.865355
940.000000	1542.000000	70.769576
941.000000	1541.000000	70.689925
942.000000	1540.000000	70.598870
943.000000	1539.000000	70.500020
944.000000	1538.000000	70.402877
945.000000	1537.000000	70.325309
946.000000	1536.000000	70.232236
947.000000	1535.000000	70.118895
948.000000	1534.000000	70.028245
949.000000	1533.000000	69.948461
950.000000	1532.000000	69.852161
951.000000	1531.000000	69.759188
952.000000	1530.000000	69.661204
953.000000	1529.000000	69.546831
954.000000	1528.000000	69.439106
955.000000	1527.000000	69.340781
956.000000	1526.000000	69.224604
957.000000	1525.000000	69.106575
958.000000	1524.000000	68.982855
959.000000	1523.000000	68.857194
960.000000	1522.000000	68.737321
961.000000	1521.000000	68.610634
962.000000	1520.000000	68.486892
963.000000	1519.000000	68.349180
964.000000	1518.000000	68.216226
965.000000	1517.000000	68.098889
966.000000	1516.000000	67.972582
967.000000	1515.000000	67.865567
968.000000	1514.000000	67.740538
969.000000	1513.000000	67.615278
970.000000	1512.000000	67.489114
971.000000	1511.000000	67.366942
972.000000	1510.000000	67.237238
973.000000	1509.000000	67.100227
974.000000	1508.000000	66.960548
975.000000	1507.000000	66.818231
976.000000	1506.000000	66.680116
977.000000	1505.000000	66.544013
978.000000	1504.000000	66.413888
979.000000	1503.000000	66.279635
980.000000	1502.000000	66.143820
981.000000	1501.000000	66.005500
982.000000	1500.000000	65.887257
983.000000	1499.000000	65.753509
984.000000	1498.000000	65.629211
985.000000	1497.000000	65.510642
986.000000	1496.000000	65.392282
987.000000	1495.000000	65.282138
988.000000	1494.000000	65.179820
989.000000	1493.000000	65.077373
990.000000	1492.000000	64.986819
991.000000	1491.000000	64.899557
992.000000	1490.000000	64.802715
993.000000	1489.000000	64.714957
994.000000	1488.000000	64.634598
995.000000	1487.000000	64.555773
996.000000	1486.000000	64.474259
997.000000	1485.000000	64.387862
998.000000	1484.000000	64.310175
999.000000	1483.000000	64.240077
1000.000000	1482.000000	64.156934
1001.000000	1481.000000	64.083203
1002.000000	1480.000000	64.015512
1003.000000	1479.000000	63.942090
1004.000000	1478.000000	63.872312
1005.000000	1477.000000	63.808056
1006.000000	1476.000000	63.748191
1007.000000	1475.000000	63.681852
1008.000000	1474.000000	63.627307
1009.000000	1473.000000	63.580862
1010.000000	1472.000000	63.521723
1011.000000	1471.000000	63.488045
1012.000000	1470.000000	63.461736
1013.000000	1469.000000	63.421295
1014.000000	1468.000000	63.392290
1015.000000	1467.000000	63.373712
1016.000000	1466.000000	63.369381
1017.000000	1465.000000	63.348433
1018.000000	1464.000000	63.336154
1019.000000	1463.000000	63.336820
1020.000000	1462.000000	63.334313
1021.000000	1461.000000	63.337222
1022.000000	1460.000000	63.338333
1023.000000	1459.000000	63.352711
1024.000000	1458.000000	63.359221
1025.000000	1457.000000	63.374723
1026.000000	1456.000000	63.382523
1027.000000	1455.000000	63.400205
1028.000000	1454.000000	63.401789
1029.000000	1453.000000	63.407535
1030.000000	1452.000000	63.425820
1031.000000	1451.000000	63.434340
1032.000000	1450.000000	63.444054
1033.000000	1449.000000	63.465515
1034.000000	1448.000000	63.478508
1035.000000	1447.000000	63.487370
1036.000000	1446.000000	63.495602
1037.000000	1445.000000	63.504139
1038.000000	1444.000000	63.507974
1039.000000	1443.000000	63.537149
1040.000000	1442.000000	63.530363
1041.000000	1441.000000	63.540225
1042.000000	1440.000000	63.552295
1043.000000	1439.000000	63.565584
1044.000000	1438.000000	63.565928
1045.000000	1437.000000	63.587900
1046.000000	1436.000000	63.598347
1047.000000	1435.000000	63.605507
1048.000000	1434.000000	63.614176
1049.000000	1433.000000	63.637692
1050.000000	1432.000000	63.658945
1051.000000	1431.000000	63.673320
1052.000000	1430.000000	63.689062
1053.000000	1429.000000	63.732485
1054.000000	1428.000000	63.762987
1055.000000	1427.000000	63.786292
1056.000000	1426.000000	63.813706
1057.000000	1425.000000	63.855133
1058.000000	1424.000000	63.884268
1059.000000	1423.000000	63.918692
1060.000000	1422.000000	63.937389
1061.000000	1421.000000	63.965930
1062.000000	1420.000000	63.992048
1063.000000	1419.000000	64.027386
1064.000000	1418.000000	64.055198
1065.000000	1417.000000	64.094074
1066.000000	1416.000000	64.111150
1067.000000	1415.000000	64.138456
1068.000000	1414.000000	64.163843
1069.000000	1413.000000	64.198006
1070.000000	1412.000000	64.222820
1071.000000	1411.000000	64.261553
1072.000000	1410.000000	64.288491
1073.000000	1409.000000	64.310639
1074.000000	1408.000000	64.354348
1075.000000	1407.000000	64.384967
1076.000000	1406.000000	64.413563
1077.000000	1405.000000	64.450671
1078.000000	1404.000000	64.482126
1079.000000	1403.000000	64.528749
1080.000000	1402.000000	64.558223
1081.000000	1401.000000	64.601395
1082.000000	1400.000000	64.632912
1083.000000	1399.000000	64.660798
1084.000000	1398.000000	64.708176
1085.000000	1397.000000	64.738673
1086.000000	1396.000000	64.780537
1087.000000	1395.000000	64.812552
1088.000000	1394.000000	64.842534
1089.000000	1393.000000	64.885372
1090.000000	1392.000000	64.918308
1091.000000	1391.000000	64.945046
1092.000000	1390.000000	64.985800
1093.000000	1389.000000	65.005907
1094.000000	1388.000000	65.043484
1095.000000	1387.000000	65.052601
1096.000000	1386.000000	65.074998
1097.000000	1385.000000	65.101307
1098.000000	1384.000000	65.123015
1099.000000	1383.000000	65.140625
1100.000000	1382.000000	65.148526
1101.000000	1381.000000	65.157292
1102.000000	1380.000000	65.164718
1103.000000	1379.000000	65.182557
1104.000000	1378.000000	65.187184
1105.000000	1377.000000	65.189604
1106.000000	1376.000000	65.190421
1107.000000	1375.000000	65.201660
1108.000000	1374.000000	65.206292
1109.000000	1373.000000	65.207921
1110.000000	1372.000000	65.208799
1111.000000	1371.000000	65.203061
1112.000000	1370.000000	65.212393
1113.000000	1369.000000	65.198341
1114.000000	1368.000000	65.189598
1115.000000	1367.000000	65.194076
1116.000000	1366.000000	65.176316
1117.000000	1365.000000	65.162517
1118.000000	1364.000000	65.125603
1119.000000	1363.000000	65.075903
1120.000000	1362.000000	65.031483
1121.000000	1361.000000	64.976463
1122.000000	1360.000000	64.910796
1123.000000	1359.000000	64.827250
1124.000000	1358.000000	64.711111
1125.000000	1357.000000	64.599622
1126.000000	1356.000000	64.457031
1127.000000	1355.000000	64.298342
1128.000000	1354.000000	64.093519
1129.000000	1353.000000	63.849887
1130.000000	1352.000000	63.565679
1131.000000	1351.000000	63.275905
1132.000000	1350.000000	62.943025
1133.000000	1349.000000	62.625500
1134.000000	1348.000000	62.244314
1135.000000	1347.000000	61.837411
1136.000000	1346.000000	61.442971
1137.000000	1345.000000	61.061299
1138.000000	1344.000000	60.702859
1139.000000	1343.000000	60.370742
1140.000000	1342.000000	60.041135
1141.000000	1341.000000	59.721231
1142.000000	1340.000000	59.428193
1143.000000	1339.000000	59.148093
1144.000000	1338.000000	58.933658
1145.000000	1337.000000	58.739302
1146.000000	1336.000000	58.609647
1147.000000	1335.000000	58.511063
1148.000000	1334.000000	58.443024
1149.000000	1333.000000	58.385537
1150.000000	1332.000000	58.312077
1151.000000	1331.000000	58.229381
1152.000000	1330.000000	58.119136
1153.000000	1329.000000	57.978833
1154.000000	1328.000000	57.798986
1155.000000	1327.000000	57.593722
1156.000000	1326.000000	57.343224
1157.000000	1325.000000	57.064979
1158.000000	1324.000000	56.774079
1159.000000	1323.000000	56.469188
1160.000000	1322.000000	56.160157
1161.000000	1321.000000	55.856200
1162.000000	1320.000000	55.527152
1163.000000	1319.000000	55.201022
1164.000000	1318.000000	54.889788
1165.000000	1317.000000	54.595576
1166.000000	1316.000000	54.299655
1167.000000	1315.000000	53.994272
1168.000000	1314.000000	53.704418
1169.000000	1313.000000	53.425459
1170.000000	1312.000000	53.143383
1171.000000	1311.000000	52.862056
1172.000000	1310.000000	52.587425
1173.000000	1309.000000	52.327726
1174.000000	1308.000000	52.068056
1175.000000	1307.000000	51.797161
1176.000000	1306.000000	51.494886
1177.000000	1305.000000	51.154451
1178.000000	1304.000000	50.772670
1179.000000	1303.000000	50.355499
1180.000000	1302.000000	49.942371
1181.000000	1301.000000	49.551439
1182.000000	1300.000000	49.217216
1183.000000	1299.000000	48.971211
1184.000000	1298.000000	48.827845
1185.000000	1297.000000	48.796692
1186.000000	1296.000000	48.867765
1187.000000	1295.000000	49.035820
1188.000000	1294.000000	49.279678
1189.000000	1293.000000	49.598334
1190.000000	1292.000000	49.952550
1191.000000	1291.000000	50.311497
1192.000000	1290.000000	50.639945
1193.000000	1289.000000	50.916322
1194.000000	1288.000000	51.150403
1195.000000	1287.000000	51.338226
1196.000000	1286.000000	51.480597
1197.000000	1285.000000	51.591157
1198.000000	1284.000000	51.676598
1199.000000	1283.000000	51.735008
1200.000000	1282.000000	51.793156
1201.000000	1281.000000	51.839518
1202.000000	1280.000000	51.875070
1203.000000	1279.000000	51.910889
1204.000000	1278.000000	51.956847
1205.000000	1277.000000	52.024326
1206.000000	1276.000000	52.103036
1207.000000	1275.000000	52.188681
1208.000000	1274.000000	52.284136
1209.000000	1273.000000	52.400377
1210.000000	1272.000000	52.513581
1211.000000	1271.000000	52.626117
1212.000000	1270.000000	52.745425
1213.000000	1269.000000	52.867972
1214.000000	1268.000000	52.998610
1215.000000	1267.000000	53.124843
1216.000000	1266.000000	53.249331
1217.000000	1265.000000	53.384907
1218.000000	1264.000000	53.524832
1219.000000	1263.000000	53.670121
1220.000000	1262.000000	53.824285
1221.000000	1261.000000	53.982401
1222.000000	1260.000000	54.140823
1223.000000	1259.000000	54.302037
1224.000000	1258.000000	54.448421
1225.000000	1257.000000	54.604748
1226.000000	1256.000000	54.766593
1227.000000	1255.000000	54.922186
1228.000000	1254.000000	55.078422
1229.000000	1253.000000	55.227924
1230.000000	1252.000000	55.373037
1231.000000	1251.000000	55.520727
1232.000000	1250.000000	55.661059
1233.000000	1249.000000	55.802140
1234.000000	1248.000000	55.939778
1235.000000	1247.000000	56.069252
1236.000000	1246.000000	56.199810
1237.000000	1245.000000	56.323276
1238.000000	1244.000000	56.439918
1239.000000	1243.000000	56.556791
1240.000000	1242.000000	56.665668
1241.000000	1241.000000	56.778346
1242.000000	1240.000000	56.898965
1243.000000	1239.000000	57.005309
1244.000000	1238.000000	57.089071
1245.000000	1237.000000	57.188193
1246.000000	1236.000000	57.288217
1247.000000	1235.000000	57.360110
1248.000000	1234.000000	57.428359
1249.000000	1233.000000	57.508496
1250.000000	1232.000000	57.573964
1251.000000	1231.000000	57.637032
1252.000000	1230.000000	57.695002
1253.000000	1229.000000	57.748004
1254.000000	1228.000000	57.796895
1255.000000	1227.000000	57.844023
1256.000000	1226.000000	57.885151
1257.000000	1225.000000	57.922097
1258.000000	1224.000000	57.963906
1259.000000	1223.000000	58.007658
1260.000000	1222.000000	58.049974
1261.000000	1221.000000	58.084243
1262.000000	1220.000000	58.113712
1263.000000	1219.000000	58.153825
1264.000000	1218.000000	58.190578
1265.000000	1217.000000	58.228964
1266.000000	1216.000000	58.276271
1267.000000	1215.000000	58.314747
1268.000000	1214.000000	58.339916
1269.000000	1213.000000	58.376906
1270.000000	1212.000000	58.408535
1271.000000	1211.000000	58.443733
1272.000000	1210.000000	58.479187
1273.000000	1209.000000	58.514428
1274.000000	1208.000000	58.554934
1275.000000	1207.000000	58.599200
1276.000000	1206.000000	58.645066
1277.000000	1205.000000	58.689728
1278.000000	1204.000000	58.746288
1279.000000	1203.000000	58.797916
1280.000000	1202.000000	58.850080
1281.000000	1201.000000	58.901959
1282.000000	1200.000000	58.950953
1283.000000	1199.000000	58.997711
1284.000000	1198.000000	59.044653
1285.000000	1197.000000	59.082451
1286.000000	1196.000000	59.118449
1287.000000	1195.000000	59.150063
1288.000000	1194.000000	59.176326
1289.000000	1193.000000	59.199225
1290.000000	1192.000000	59.205531
1291.000000	1191.000000	59.213931
1292.000000	1190.000000	59.223550
1293.000000	1189.000000	59.219246
1294.000000	1188.000000	59.204552
1295.000000	1187.000000	59.189836
1296.000000	1186.000000	59.169323
1297.000000	1185.000000	59.148371
1298.000000	1184.000000	59.116877
1299.000000	1183.000000	59.095997
1300.000000	1182.000000	59.056359
1301.000000	1181.000000	59.022614
1302.000000	1180.000000	58.978530
1303.000000	1179.000000	58.919083
1304.000000	1178.000000	58.863241
1305.000000	1177.000000	58.802077
1306.000000	1176.000000	58.729898
1307.000000	1175.000000	58.653009
1308.000000	1174.000000	58.579232
1309.000000	1173.000000	58.484988
1310.000000	1172.000000	58.384376
1311.000000	1171.000000	58.281660
1312.000000	1170.000000	58.160456
1313.000000	1169.000000	58.050531
1314.000000	1168.000000	57.935219
1315.000000	1167.000000	57.817272
1316.000000	1166.000000	57.690578
1317.000000	1165.000000	57.543345
1318.000000	1164.000000	57.401576
1319.000000	1163.000000	57.263564
1320.000000	1162.000000	57.118893
1321.000000	1161.000000	56.957005
1322.000000	1160.000000	56.803717
1323.000000	1159.000000	56.648012
1324.000000	1158.000000	56.476156
1325.000000	1157.000000	56.286046
1326.000000	1156.000000	56.103986
1327.000000	1155.000000	55.919364
1328.000000	1154.000000	55.712294
1329.000000	1153.000000	55.519079
1330.000000	1152.000000	55.307072
1331.000000	1151.000000	55.087867
1332.000000	1150.000000	54.843650
1333.000000	1149.000000	54.610820
1334.000000	1148.000000	54.369734
1335.000000	1147.000000	54.126385
1336.000000	1146.000000	53.871436
1337.000000	1145.000000	53.616511
1338.000000	1144.000000	53.353642
1339.000000	1143.000000	53.087867
1340.000000	1142.000000	52.810050
1341.000000	1141.000000	52.518597
1342.000000	1140.000000	52.248320
1343.000000	1139.000000	51.974347
1344.000000	1138.000000	51.660639
1345.000000	1137.000000	51.346512
1346.000000	1136.000000	51.072431
1347.000000	1135.000000	50.727349
1348.000000	1134.000000	50.369432
1349.000000	1133.000000	50.016216
1350.000000	1132.000000	49.631679
1351.000000	1131.000000	49.201850
1352.000000	1130.000000	48.771260
1353.000000	1129.000000	48.458701
1354.000000	1128.000000	48.114595
1355.000000	1127.000000	47.835596
1356.000000	1126.000000	47.644547
1357.000000	1125.000000	47.528858
1358.000000	1124.000000	47.438066
1359.000000	1123.000000	47.374805
1360.000000	1122.000000	47.329482
1361.000000	1121.000000	47.180285
1362.000000	1120.000000	47.016116
1363.000000	1119.000000	46.846943
1364.000000	1118.000000	46.692705
1365.000000	1117.000000	46.491935
1366.000000	1116.000000	46.293692
1367.000000	1115.000000	46.066448
1368.000000	1114.000000	45.794379
1369.000000	1113.000000	45.526015
1370.000000	1112.000000	45.251252
1371.000000	1111.000000	44.918806
1372.000000	1110.000000	44.626812
1373.000000	1109.000000	44.331741
1374.000000	1108.000000	44.096130
1375.000000	1107.000000	43.891772
1376.000000	1106.000000	43.728607
1377.000000	1105.000000	43.543064
1378.000000	1104.000000	43.374015
1379.000000	1103.000000	43.112478
1380.000000	1102.000000	42.888355
1381.000000	1101.000000	42.482960
1382.000000	1100.000000	42.028470
1383.000000	1099.000000	41.515104
1384.000000	1098.000000	40.982908
1385.000000	1097.000000	40.514847
1386.000000	1096.000000	40.070342
1387.000000	1095.000000	39.667905
1388.000000	1094.000000	39.222569
1389.000000	1093.000000	38.853766
1390.000000	1092.000000	38.582806
1391.000000	1091.000000	38.255495
1392.000000	1090.000000	37.935148
1393.000000	1089.000000	37.682113
1394.000000	1088.000000	37.445156
1395.000000	1087.000000	37.099048
1396.000000	1086.000000	36.699186
1397.000000	1085.000000	36.369311
1398.000000	1084.000000	36.128689
1399.000000	1083.000000	35.803821
1400.000000	1082.000000	35.405857
1401.000000	1081.000000	34.949013
1402.000000	1080.000000	34.589230
1403.000000	1079.000000	34.211584
1404.000000	1078.000000	33.829412
1405.000000	1077.000000	33.424716
1406.000000	1076.000000	33.062981
1407.000000	1075.000000	32.711207
1408.000000	1074.000000	32.344784
1409.000000	1073.000000	31.981918
1410.000000	1072.000000	31.628969
1411.000000	1071.000000	31.333398
1412.000000	1070.000000	31.093925
1413.000000	1069.000000	30.848949
1414.000000	1068.000000	30.562465
1415.000000	1067.000000	30.273443
1416.000000	1066.000000	30.025076
1417.000000	1065.000000	29.819343
1418.000000	1064.000000	29.618114
1419.000000	1063.000000	29.372605
1420.000000	1062.000000	29.136172
1421.000000	1061.000000	28.923011
1422.000000	1060.000000	28.740524
1423.000000	1059.000000	28.547001
1424.000000	1058.000000	28.354232
1425.000000	1057.000000	28.165507
1426.000000	1056.000000	27.986184
1427.000000	1055.000000	27.836193
1428.000000	1054.000000	27.679184
1429.000000	1053.000000	27.526039
1430.000000	1052.000000	27.410179
1431.000000	1051.000000	27.284757
1432.000000	1050.000000	27.162002
1433.000000	1049.000000	27.038862
1434.000000	1048.000000	26.923002
1435.000000	1047.000000	26.808607
1436.000000	1046.000000	26.705836
1437.000000	1045.000000	26.616661
1438.000000	1044.000000	26.500923
1439.000000	1043.000000	26.400334
1440.000000	1042.000000	26.298987
1441.000000	1041.000000	26.203396
1442.000000	1040.000000	26.093875
1443.000000	1039.000000	26.021888
1444.000000	1038.000000	25.941364
1445.000000	1037.000000	25.842183
1446.000000	1036.000000	25.742713
1447.000000	1035.000000	25.645632
1448.000000	1034.000000	25.566559
1449.000000	1033.000000	25.506724
1450.000000	1032.000000	25.429644
1451.000000	1031.000000	25.345962
1452.000000	1030.000000	25.263299
1453.000000	1029.000000	25.199165
1454.000000	1028.000000	25.122963
1455.000000	1027.000000	25.052347
1456.000000	1026.000000	24.990905
1457.000000	1025.000000	24.931589
1458.000000	1024.000000	24.879623
1459.000000	1023.000000	24.830087
1460.000000	1022.000000	24.789343
1461.000000	1021.000000	24.745747
1462.000000	1020.000000	24.709307
1463.000000	1019.000000	24.678585
1464.000000	1018.000000	24.647259
1465.000000	1017.000000	24.633634
1466.000000	1016.000000	24.613520
1467.000000	1015.000000	24.592755
1468.000000	1014.000000	24.572101
1469.000000	1013.000000	24.564163
1470.000000	1012.000000	24.556592
1471.000000	1011.000000	24.542996
1472.000000	1010.000000	24.530489
1473.000000	1009.000000	24.511820
1474.000000	1008.000000	24.494788
1475.000000	1007.000000	24.485400
1476.000000	1006.000000	24.484086
1477.000000	1005.000000	24.493818
1478.000000	1004.000000	24.496208
1479.000000	1003.000000	24.510687
1480.000000	1002.000000	24.519193
1481.000000	1001.000000	24.533699
1482.000000	1000.000000	24.543750
1483.000000	999.000000	24.565598
1484.000000	998.000000	24.586851
1485.000000	997.000000	24.612443
1486.000000	996.000000	24.649926
1487.000000	995.000000	24.681229
1488.000000	994.000000	24.708067
1489.000000	993.000000	24.735681
1490.000000	992.000000	24.771563
1491.000000	991.000000	24.809043
1492.000000	990.000000	24.840967
1493.000000	989.000000	24.879280
1494.000000	988.000000	24.915424
1495.000000	987.000000	24.955060
1496.000000	986.000000	24.999634
1497.000000	985.000000	25.042751
1498.000000	984.000000	25.093869
1499.000000	983.000000	25.148194
1500.000000	982.000000	25.201331
1501.000000	981.000000	25.253005
1502.000000	980.000000	25.314849
1503.000000	979.000000	25.373220
1504.000000	978.000000	25.439572
1505.000000	977.000000	25.502981
1506.000000	976.000000	25.564949
1507.000000	975.000000	25.634788
1508.000000	974.000000	25.699600
1509.000000	973.000000	25.762630
1510.000000	972.000000	25.828012
1511.000000	971.000000	25.886125
1512.000000	970.000000	25.947560
1513.000000	969.000000	26.012707
1514.000000	968.000000	26.067030
1515.000000	967.000000	26.122690
1516.000000	966.000000	26.180468
1517.000000	965.000000	26.235198
1518.000000	964.000000	26.294926
1519.000000	963.000000	26.346120
1520.000000	962.000000	26.397950
1521.000000	961.000000	26.446921
1522.000000	960.000000	26.494684
1523.000000	959.000000	26.541924
1524.000000	958.000000	26.590449
1525.000000	957.000000	26.643728
1526.000000	956.000000	26.690088
1527.000000	955.000000	26.724573
1528.000000	954.000000	26.764850
1529.000000	953.000000	26.808155
1530.000000	952.000000	26.845932
1531.000000	951.000000	26.886058
1532.000000	950.000000	26.915976
1533.000000	949.000000	26.950001
1534.000000	948.000000	26.980293
1535.000000	947.000000	26.997912
1536.000000	946.000000	27.019745
1537.000000	945.000000	27.045789
1538.000000	944.000000	27.069331
1539.000000	943.000000	27.089310
1540.000000	942.000000	27.106029
1541.000000	941.000000	27.127558
1542.000000	940.000000	27.148769
1543.000000	939.000000	27.168445
1544.000000	938.000000	27.192370
1545.000000	937.000000	27.222882
1546.000000	936.000000	27.244065
1547.000000	935.000000	27.269526
1548.000000	934.000000	27.297350
1549.000000	933.000000	27.328821
1550.000000	932.000000	27.355969
1551.000000	931.000000	27.378988
1552.000000	930.000000	27.409405
1553.000000	929.000000	27.428085
1554.000000	928.000000	27.443348
1555.000000	927.000000	27.461008
1556.000000	926.000000	27.477468
1557.000000	925.000000	27.484925
1558.000000	924.000000	27.487171
1559.000000	923.000000	27.491698
1560.000000	922.000000	27.497806
1561.000000	921.000000	27.496771
1562.000000	920.000000	27.491971
1563.000000	919.000000	27.485530
1564.000000	918.000000	27.481139
1565.000000	917.000000	27.471328
1566.000000	916.000000	27.462098
1567.000000	915.000000	27.457445
1568.000000	914.000000	27.449135
1569.000000	913.000000	27.439464
1570.000000	912.000000	27.438469
1571.000000	911.000000	27.447965
1572.000000	910.000000	27.451508
1573.000000	909.000000	27.460335
1574.000000	908.000000	27.467095
1575.000000	907.000000	27.479822
1576.000000	906.000000	27.497897
1577.000000	905.000000	27.516040
1578.000000	904.000000	27.533593
1579.000000	903.000000	27.562889
1580.000000	902.000000	27.583964
1581.000000	901.000000	27.630384
1582.000000	900.000000	27.666999
1583.000000	899.000000	27.704626
1584.000000	898.000000	27.745768
1585.000000	897.000000	27.780932
1586.000000	896.000000	27.822069
1587.000000	895.000000	27.876201
1588.000000	894.000000	27.922391
1589.000000	893.000000	27.965964
1590.000000	892.000000	28.012763
1591.000000	891.000000	28.062719
1592.000000	890.000000	28.121988
1593.000000	889.000000	28.174838
1594.000000	888.000000	28.229738
1595.000000	887.000000	28.295529
1596.000000	886.000000	28.353281
1597.000000	885.000000	28.411822
1598.000000	884.000000	28.482704
1599.000000	883.000000	28.553019
1600.000000	882.000000	28.617172
1601.000000	881.000000	28.690429
1602.000000	880.000000	28.749033
1603.000000	879.000000	28.821713
1604.000000	878.000000	28.883433
1605.000000	877.000000	28.968431
1606.000000	876.000000	29.034504
1607.000000	875.000000	29.105019
1608.000000	874.000000	29.176144
1609.000000	873.000000	29.250597
1610.000000	872.000000	29.316206
1611.000000	871.000000	29.373306
1612.000000	870.000000	29.432522
1613.000000	869.000000	29.509375
1614.000000	868.000000	29.582671
1615.000000	867.000000	29.642572
1616.000000	866.000000	29.717845
1617.000000	865.000000	29.781893
1618.000000	864.000000	29.866157
1619.000000	863.000000	29.939471
1620.000000	862.000000	30.000954
1621.000000	861.000000	30.081721
1622.000000	860.000000	30.150129
1623.000000	859.000000	30.224913
1624.000000	858.000000	30.313899
1625.000000	857.000000	30.383783
1626.000000	856.000000	30.463631
1627.000000	855.000000	30.549353
1628.000000	854.000000	30.621558
1629.000000	853.000000	30.703296
1630.000000	852.000000	30.770020
1631.000000	851.000000	30.849265
1632.000000	850.000000	30.909426
1633.000000	849.000000	30.983682
1634.000000	848.000000	31.046183
1635.000000	847.000000	31.107114
1636.000000	846.000000	31.168726
1637.000000	845.000000	31.237103
1638.000000	844.000000	31.285999
1639.000000	843.000000	31.327288
1640.000000	842.000000	31.389831
1641.000000	841.000000	31.453304
1642.000000	840.000000	31.491844
1643.000000	839.000000	31.544896
1644.000000	838.000000	31.581114
1645.000000	837.000000	31.627468
1646.000000	836.000000	31.660991
1647.000000	835.000000	31.689029
1648.000000	834.000000	31.719812
1649.000000	833.000000	31.744048
1650.000000	832.000000	31.761735
1651.000000	831.000000	31.791484
1652.000000	830.000000	31.788679
1653.000000	829.000000	31.788017
1654.000000	828.000000	31.791900
1655.000000	827.000000	31.777213
1656.000000	826.000000	31.755756
1657.000000	825.000000	31.724840
1658.000000	824.000000	31.692787
1659.000000	823.000000	31.632598
1660.000000	822.000000	31.584073
1661.000000	821.000000	31.520987
1662.000000	820.000000	31.435762
1663.000000	819.000000	31.359924
1664.000000	818.000000	31.261559
1665.000000	817.000000	31.158177
1666.000000	816.000000	31.044015
1667.000000	815.000000	30.916616
1668.000000	814.000000	30.802605
1669.000000	813.000000	30.616924
1670.000000	812.000000	30.439463
1671.000000	811.000000	30.238546
1672.000000	810.000000	29.998363
1673.000000	809.000000	29.716993
1674.000000	808.000000	29.389836
1675.000000	807.000000	29.033726
1676.000000	806.000000	28.619731
1677.000000	805.000000	28.184575
1678.000000	804.000000	27.722767
1679.000000	803.000000	27.265200
1680.000000	802.000000	26.847455
1681.000000	801.000000	26.513032
1682.000000	800.000000	26.242978
1683.000000	799.000000	26.077533
1684.000000	798.000000	25.994015
1685.000000	797.000000	25.934084
1686.000000	796.000000	25.884674
1687.000000	795.000000	25.822775
1688.000000	794.000000	25.742182
1689.000000	793.000000	25.632342
1690.000000	792.000000	25.510251
1691.000000	791.000000	25.379588
1692.000000	790.000000	25.277019
1693.000000	789.000000	25.209415
1694.000000	788.000000	25.182794
1695.000000	787.000000	25.212347
1696.000000	786.000000	25.305402
1697.000000	785.000000	25.408809
1698.000000	784.000000	25.539275
1699.000000	783.000000	25.670197
1700.000000	782.000000	25.806069
1701.000000	781.000000	25.918221
1702.000000	780.000000	26.001624
1703.000000	779.000000	26.072871
1704.000000	778.000000	26.125178
1705.000000	777.000000	26.163256
1706.000000	776.000000	26.185286
1707.000000	775.000000	26.199609
1708.000000	774.000000	26.194935
1709.000000	773.000000	26.190753
1710.000000	772.000000	26.149188
1711.000000	771.000000	26.092842
1712.000000	770.000000	26.027606
1713.000000	769.000000	25.943837
1714.000000	768.000000	25.843761
1715.000000	767.000000	25.763097
1716.000000	766.000000	25.689011
1717.000000	765.000000	25.619906
1718.000000	764.000000	25.561204
1719.000000	763.000000	25.504867
1720.000000	762.000000	25.458656
1721.000000	761.000000	25.423285
1722.000000	760.000000	25.372430
1723.000000	759.000000	25.330902
1724.000000	758.000000	25.270197
1725.000000	757.000000	25.210409
1726.000000	756.000000	25.139357
1727.000000	755.000000	25.051990
1728.000000	754.000000	24.958692
1729.000000	753.000000	24.879239
1730.000000	752.000000	24.810998
1731.000000	751.000000	24.781999
1732.000000	750.000000	24.780750
1733.000000	749.000000	24.805176
1734.000000	748.000000	24.877741
1735.000000	747.000000	24.998789
1736.000000	746.000000	25.135491
1737.000000	745.000000	25.299333
1738.000000	744.000000	25.494641
1739.000000	743.000000	25.695814
1740.000000	742.000000	25.893852
1741.000000	741.000000	26.069224
1742.000000	740.000000	26.234140
1743.000000	739.000000	26.376270
1744.000000	738.000000	26.492876
1745.000000	737.000000	26.593176
1746.000000	736.000000	26.672920
1747.000000	735.000000	26.734527
1748.000000	734.000000	26.786401
1749.000000	733.000000	26.824446
1750.000000	732.000000	26.832676
1751.000000	731.000000	26.841878
1752.000000	730.000000	26.834000
1753.000000	729.000000	26.798138
1754.000000	728.000000	26.760678
1755.000000	727.000000	26.715599
1756.000000	726.000000	26.660378
1757.000000	725.000000	26.589737
1758.000000	724.000000	26.529649
1759.000000	723.000000	26.483638
1760.000000	722.000000	26.437200
1761.000000	721.000000	26.404803
1762.000000	720.000000	26.395330
1763.000000	719.000000	26.411576
1764.000000	718.000000	26.448861
1765.000000	717.000000	26.516699
1766.000000	716.000000	26.590968
1767.000000	715.000000	26.675091
1768.000000	714.000000	26.776617
1769.000000	713.000000	26.876419
1770.000000	712.000000	26.974138
1771.000000	711.000000	27.074120
1772.000000	710.000000	27.173813
1773.000000	709.000000	27.272701
1774.000000	708.000000	27.362253
1775.000000	707.000000	27.451392
1776.000000	706.000000	27.536114
1777.000000	705.000000	27.612805
1778.000000	704.000000	27.671611
1779.000000	703.000000	27.730293
1780.000000	702.000000	27.797543
1781.000000	701.000000	27.861579
1782.000000	700.000000	27.921253
1783.000000	699.000000	27.976841
1784.000000	698.000000	28.038733
1785.000000	697.000000	28.103119
1786.000000	696.000000	28.155048
1787.000000	695.000000	28.199288
1788.000000	694.000000	28.246758
1789.000000	693.000000	28.291176
1790.000000	692.000000	28.344267
1791.000000	691.000000	28.395034
1792.000000	690.000000	28.438363
1793.000000	689.000000	28.483749
1794.000000	688.000000	28.529547
1795.000000	687.000000	28.570144
1796.000000	686.000000	28.609803
1797.000000	685.000000	28.658838
1798.000000	684.000000	28.707183
1799.000000	683.000000	28.761155
1800.000000	682.000000	28.812537
1801.000000	681.000000	28.851166
1802.000000	680.000000	28.886572
1803.000000	679.000000	28.927462
1804.000000	678.000000	28.970957
1805.000000	677.000000	29.019823
1806.000000	676.000000	29.056968
1807.000000	675.000000	29.086513
1808.000000	674.000000	29.129478
1809.000000	673.000000	29.170285
1810.000000	672.000000	29.199155
1811.000000	671.000000	29.219796
1812.000000	670.000000	29.243294
1813.000000	669.000000	29.258982
1814.000000	668.000000	29.277363
1815.000000	667.000000	29.291445
1816.000000	666.000000	29.289816
1817.000000	665.000000	29.311848
1818.000000	664.000000	29.365898
1819.000000	663.000000	29.408549
1820.000000	662.000000	29.410244
1821.000000	661.000000	29.389132
1822.000000	660.000000	29.399820
1823.000000	659.000000	29.445956
1824.000000	658.000000	29.507108
1825.000000	657.000000	29.577820
1826.000000	656.000000	29.620026
1827.000000	655.000000	29.674840
1828.000000	654.000000	29.742746
1829.000000	653.000000	29.799366
1830.000000	652.000000	29.845942
1831.000000	651.000000	29.883790
1832.000000	650.000000	29.948135
1833.000000	649.000000	30.034080
1834.000000	648.000000	30.111133
1835.000000	647.000000	30.165156
1836.000000	646.000000	30.182043
1837.000000	645.000000	30.209410
1838.000000	644.000000	30.255989
1839.000000	643.000000	30.286725
1840.000000	642.000000	30.296105
1841.000000	641.000000	30.278543
1842.000000	640.000000	30.266230
1843.000000	639.000000	30.286500
1844.000000	638.000000	30.349931
1845.000000	637.000000	30.410701
1846.000000	636.000000	30.456295
1847.000000	635.000000	30.452969
1848.000000	634.000000	30.424199
1849.000000	633.000000	30.403234
1850.000000	632.000000	30.419386
1851.000000	631.000000	30.420674
1852.000000	630.000000	30.419169
1853.000000	629.000000	30.416607
1854.000000	628.000000	30.373198
1855.000000	627.000000	30.335546
1856.000000	626.000000	30.310113
1857.000000	625.000000	30.253855
1858.000000	624.000000	30.154884
1859.000000	623.000000	30.042885
1860.000000	622.000000	29.914995
1861.000000	621.000000	29.777213
1862.000000	620.000000	29.640328
1863.000000	619.000000	29.538480
1864.000000	618.000000	29.418227
1865.000000	617.000000	29.285466
1866.000000	616.000000	29.146429
1867.000000	615.000000	28.952191
1868.000000	614.000000	28.729262
1869.000000	613.000000	28.424304
1870.000000	612.000000	28.104907
1871.000000	611.000000	27.752618
1872.000000	610.000000	27.371510
1873.000000	609.000000	26.960211
1874.000000	608.000000	26.551354
1875.000000	607.000000	26.124292
1876.000000	606.000000	25.706294
1877.000000	605.000000	25.244840
1878.000000	604.000000	24.771385
1879.000000	603.000000	24.318529
1880.000000	602.000000	23.854552
1881.000000	601.000000	23.350485
1882.000000	600.000000	22.873452
1883.000000	599.000000	22.326141
1884.000000	598.000000	21.802913
1885.000000	597.000000	21.338948
1886.000000	596.000000	20.916775
1887.000000	595.000000	20.514420
1888.000000	594.000000	20.108650
1889.000000	593.000000	19.726921
1890.000000	592.000000	19.334525
1891.000000	591.000000	18.917329
1892.000000	590.000000	18.505650
1893.000000	589.000000	18.165786
1894.000000	588.000000	17.860287
1895.000000	587.000000	17.601201
1896.000000	586.000000	17.334580
1897.000000	585.000000	17.018494
1898.000000	584.000000	16.690933
1899.000000	583.000000	16.350713
1900.000000	582.000000	16.029512
1901.000000	581.000000	15.748010
1902.000000	580.000000	15.497559
1903.000000	579.000000	15.242966
1904.000000	578.000000	14.965049
1905.000000	577.000000	14.663246
1906.000000	576.000000	14.385588
1907.000000	575.000000	14.158654
1908.000000	574.000000	13.953427
1909.000000	573.000000	13.807533
1910.000000	572.000000	13.633755
1911.000000	571.000000	13.460254
1912.000000	570.000000	13.239092
1913.000000	569.000000	13.003709
1914.000000	568.000000	12.796872
1915.000000	567.000000	12.648441
1916.000000	566.000000	12.525297
1917.000000	565.000000	12.392744
1918.000000	564.000000	12.262075
1919.000000	563.000000	12.128676
1920.000000	562.000000	11.966847
1921.000000	561.000000	11.824492
1922.000000	560.000000	11.692085
1923.000000	559.000000	11.582779
1924.000000	558.000000	11.518828
1925.000000	557.000000	11.435193
1926.000000	556.000000	11.348256
1927.000000	555.000000	11.262218
1928.000000	554.000000	11.186981
1929.000000	553.000000	11.134673
1930.000000	552.000000	11.063351
1931.000000	551.000000	11.029467
1932.000000	550.000000	10.984957
1933.000000	549.000000	10.961504
1934.000000	548.000000	10.948912
1935.000000	547.000000	10.933948
1936.000000	546.000000	10.924170
1937.000000	545.000000	10.935491
1938.000000	544.000000	10.925479
1939.000000	543.000000	10.926765
1940.000000	542.000000	10.948475
1941.000000	541.000000	10.955193
1942.000000	540.000000	10.997577
1943.000000	539.000000	11.013398
1944.000000	538.000000	11.047890
1945.000000	537.000000	11.091413
1946.000000	536.000000	11.135627
1947.000000	535.000000	11.184434
1948.000000	534.000000	11.220845
1949.000000	533.000000	11.287702
1950.000000	532.000000	11.338197
1951.000000	531.000000	11.411720
1952.000000	530.000000	11.460338
1953.000000	529.000000	11.514310
1954.000000	528.000000	11.589072
1955.000000	527.000000	11.645327
1956.000000	526.000000	11.704934
1957.000000	525.000000	11.769462
1958.000000	524.000000	11.842305
1959.000000	523.000000	11.913127
1960.000000	522.000000	11.985487
1961.000000	521.000000	12.055800
1962.000000	520.000000	12.131227
1963.000000	519.000000	12.194427
1964.000000	518.000000	12.266630
1965.000000	517.000000	12.346266
1966.000000	516.000000	12.411190
1967.000000	515.000000	12.490751
1968.000000	514.000000	12.579984
1969.000000	513.000000	12.635748
1970.000000	512.000000	12.726763
1971.000000	511.000000	12.817515
1972.000000	510.000000	12.888373
1973.000000	509.000000	12.972085
1974.000000	508.000000	13.039233
1975.000000	507.000000	13.128856
1976.000000	506.000000	13.217981
1977.000000	505.000000	13.293972
1978.000000	504.000000	13.375289
1979.000000	503.000000	13.456502
1980.000000	502.000000	13.552915
1981.000000	501.000000	13.639934
1982.000000	500.000000	13.713302
1983.000000	499.000000	13.794839
1984.000000	498.000000	13.896318
1985.000000	497.000000	13.982777
1986.000000	496.000000	14.054831
1987.000000	495.000000	14.139170
1988.000000	494.000000	14.225087
1989.000000	493.000000	14.293322
1990.000000	492.000000	14.377182
1991.000000	491.000000	14.458574
1992.000000	490.000000	14.524743
1993.000000	489.000000	14.591897
1994.000000	488.000000	14.670133
1995.000000	487.000000	14.732388
1996.000000	486.000000	14.797100
1997.000000	485.000000	14.848215
1998.000000	484.000000	14.920726
1999.000000	483.000000	14.990040
