PE UV       SUBTECH     SPECTRUM    ASCII       PEDS        4.00        
   -1
CICIMAUCR0204-3.Sample.ASC
24/05/31
16:34:21.00
24/05/31
16:34:21.00
Vinicio Soto Monge
C. cupreomarginata. Sex M. Dorsal
250,000000
1
Lambda 1050
1050L1511233
PerkinElmer UV WinLab 6.3.2.0749 / 2.02.05 Lambda 900 UV/VIS/NIR, Aug  7 2015 09:38:08

0
0
3350/servo 860,8/2
0
0
UV/VIS
1
1
1
DoubleDePol,CommonBeamDepol,RBeamAtt,SBeamAtt,60mm sphere, WB InGaAs Detector
0
0
0
0
Program
Program
3350/servo 860,8/2
3350/0,2 860,8/0,2
3350/0,2 860,8/0,2
0
15.00
 
 
 
0
 
860,8
319,2
860,8
Front
100
on
S:100 R:100
0
0
0
0
 
0
 
 
 
0
 
 
0
0
0
0
0
 
 
 
 
0
0


0
0
#HDR
-1
-1
#GR
nm
%R
1.0
0.0
2500,000000
-1,000000
2251
8
68,833200
5,187100
#DATA
250.000000	5.787000
251.000000	5.791133
252.000000	5.793600
253.000000	5.768633
254.000000	5.760900
255.000000	5.762267
256.000000	5.769233
257.000000	5.753667
258.000000	5.729967
259.000000	5.735233
260.000000	5.748100
261.000000	5.718267
262.000000	5.704367
263.000000	5.663133
264.000000	5.640600
265.000000	5.632300
266.000000	5.621767
267.000000	5.604900
268.000000	5.576033
269.000000	5.549333
270.000000	5.533833
271.000000	5.524867
272.000000	5.521433
273.000000	5.490067
274.000000	5.490967
275.000000	5.479000
276.000000	5.484167
277.000000	5.476967
278.000000	5.453733
279.000000	5.444333
280.000000	5.439500
281.000000	5.420100
282.000000	5.416733
283.000000	5.404667
284.000000	5.412033
285.000000	5.399133
286.000000	5.397700
287.000000	5.387533
288.000000	5.372500
289.000000	5.372233
290.000000	5.378533
291.000000	5.371233
292.000000	5.354533
293.000000	5.349267
294.000000	5.350500
295.000000	5.348900
296.000000	5.344700
297.000000	5.328600
298.000000	5.313867
299.000000	5.302000
300.000000	5.318867
301.000000	5.317967
302.000000	5.307033
303.000000	5.284100
304.000000	5.286833
305.000000	5.301500
306.000000	5.302433
307.000000	5.303733
308.000000	5.307333
309.000000	5.301233
310.000000	5.291867
311.000000	5.281567
312.000000	5.274833
313.000000	5.283867
314.000000	5.302500
315.000000	5.292967
316.000000	5.454833
317.000000	5.736133
318.000000	5.856800
319.000000	5.666933
320.000000	5.440067
321.000000	5.611267
322.000000	5.650900
323.000000	5.565600
324.000000	5.595800
325.000000	5.478033
326.000000	5.388167
327.000000	5.549700
328.000000	5.555933
329.000000	5.522033
330.000000	5.573133
331.000000	5.433200
332.000000	5.383600
333.000000	5.440767
334.000000	5.500800
335.000000	5.480967
336.000000	5.454767
337.000000	5.542100
338.000000	5.562333
339.000000	5.515433
340.000000	5.471933
341.000000	5.451333
342.000000	5.451167
343.000000	5.467000
344.000000	5.461900
345.000000	5.451600
346.000000	5.435500
347.000000	5.417000
348.000000	5.491700
349.000000	5.481100
350.000000	5.491200
351.000000	5.483200
352.000000	5.436033
353.000000	5.433933
354.000000	5.466600
355.000000	5.483433
356.000000	5.519667
357.000000	5.497767
358.000000	5.429833
359.000000	5.493967
360.000000	5.477400
361.000000	5.479033
362.000000	5.557367
363.000000	5.585100
364.000000	5.592433
365.000000	5.599433
366.000000	5.584267
367.000000	5.575800
368.000000	5.536033
369.000000	5.578600
370.000000	5.614367
371.000000	5.594667
372.000000	5.570567
373.000000	5.557600
374.000000	5.543567
375.000000	5.531967
376.000000	5.634667
377.000000	5.713000
378.000000	5.716033
379.000000	5.729433
380.000000	5.756533
381.000000	5.791967
382.000000	5.819567
383.000000	5.831767
384.000000	5.852600
385.000000	5.895967
386.000000	5.933867
387.000000	5.957167
388.000000	5.990267
389.000000	6.028533
390.000000	6.067667
391.000000	6.115733
392.000000	6.170133
393.000000	6.214067
394.000000	6.267200
395.000000	6.332833
396.000000	6.404833
397.000000	6.468367
398.000000	6.537100
399.000000	6.608967
400.000000	6.696500
401.000000	6.794033
402.000000	6.886233
403.000000	6.976100
404.000000	7.085233
405.000000	7.208033
406.000000	7.327100
407.000000	7.451967
408.000000	7.598767
409.000000	7.746767
410.000000	7.910200
411.000000	8.083533
412.000000	8.259067
413.000000	8.449733
414.000000	8.649433
415.000000	8.857333
416.000000	9.075000
417.000000	9.295933
418.000000	9.534100
419.000000	9.765733
420.000000	10.009600
421.000000	10.271033
422.000000	10.544900
423.000000	10.817767
424.000000	11.094433
425.000000	11.381733
426.000000	11.645800
427.000000	11.943033
428.000000	12.220367
429.000000	12.506100
430.000000	12.793500
431.000000	13.085200
432.000000	13.380100
433.000000	13.655200
434.000000	13.936100
435.000000	14.215667
436.000000	14.493600
437.000000	14.757200
438.000000	15.031667
439.000000	15.292567
440.000000	15.560300
441.000000	15.819200
442.000000	16.065233
443.000000	16.313633
444.000000	16.554900
445.000000	16.793233
446.000000	17.009100
447.000000	17.223733
448.000000	17.436033
449.000000	17.628900
450.000000	17.831200
451.000000	18.032433
452.000000	18.197367
453.000000	18.380000
454.000000	18.554900
455.000000	18.720167
456.000000	18.864700
457.000000	19.022933
458.000000	19.189033
459.000000	19.342867
460.000000	19.501933
461.000000	19.641467
462.000000	19.793200
463.000000	19.925200
464.000000	20.085633
465.000000	20.229133
466.000000	20.384600
467.000000	20.511233
468.000000	20.653933
469.000000	20.782733
470.000000	20.922267
471.000000	21.071100
472.000000	21.217433
473.000000	21.355033
474.000000	21.479667
475.000000	21.628333
476.000000	21.778267
477.000000	21.927900
478.000000	22.080133
479.000000	22.250467
480.000000	22.399833
481.000000	22.573067
482.000000	22.767700
483.000000	22.964567
484.000000	23.171867
485.000000	23.387800
486.000000	23.643367
487.000000	23.904600
488.000000	24.165700
489.000000	24.491633
490.000000	24.835000
491.000000	25.172467
492.000000	25.565800
493.000000	25.975800
494.000000	26.421400
495.000000	26.875333
496.000000	27.343800
497.000000	27.811833
498.000000	28.320433
499.000000	28.821500
500.000000	29.347900
501.000000	29.844367
502.000000	30.394967
503.000000	30.896700
504.000000	31.417567
505.000000	31.911133
506.000000	32.401633
507.000000	32.903200
508.000000	33.400867
509.000000	33.894833
510.000000	34.394200
511.000000	34.873600
512.000000	35.388833
513.000000	35.911633
514.000000	36.421033
515.000000	36.976567
516.000000	37.539200
517.000000	38.117067
518.000000	38.724767
519.000000	39.350233
520.000000	39.997167
521.000000	40.686733
522.000000	41.429100
523.000000	42.180533
524.000000	42.975433
525.000000	43.799300
526.000000	44.654967
527.000000	45.510100
528.000000	46.390233
529.000000	47.313700
530.000000	48.232733
531.000000	49.164467
532.000000	50.117600
533.000000	51.050167
534.000000	51.964867
535.000000	52.897767
536.000000	53.777300
537.000000	54.637200
538.000000	55.459867
539.000000	56.247667
540.000000	56.984833
541.000000	57.722867
542.000000	58.377333
543.000000	58.980367
544.000000	59.566533
545.000000	60.091233
546.000000	60.567367
547.000000	61.013267
548.000000	61.452500
549.000000	61.838033
550.000000	62.199567
551.000000	62.502100
552.000000	62.797933
553.000000	63.031500
554.000000	63.228733
555.000000	63.392300
556.000000	63.510867
557.000000	63.571500
558.000000	63.619667
559.000000	63.631767
560.000000	63.628600
561.000000	63.632033
562.000000	63.603433
563.000000	63.604700
564.000000	63.595867
565.000000	63.589733
566.000000	63.603000
567.000000	63.609100
568.000000	63.603667
569.000000	63.600600
570.000000	63.599300
571.000000	63.567867
572.000000	63.500867
573.000000	63.423400
574.000000	63.321500
575.000000	63.159467
576.000000	62.999733
577.000000	62.826767
578.000000	62.615500
579.000000	62.420400
580.000000	62.201467
581.000000	61.976333
582.000000	61.765133
583.000000	61.556733
584.000000	61.371700
585.000000	61.214667
586.000000	61.055700
587.000000	60.895600
588.000000	60.737500
589.000000	60.604800
590.000000	60.457933
591.000000	60.284733
592.000000	60.136667
593.000000	59.983300
594.000000	59.827233
595.000000	59.623333
596.000000	59.427900
597.000000	59.235200
598.000000	59.015300
599.000000	58.750700
600.000000	58.484133
601.000000	58.199333
602.000000	57.903167
603.000000	57.575367
604.000000	57.228733
605.000000	56.854667
606.000000	56.457267
607.000000	56.031233
608.000000	55.584567
609.000000	55.111067
610.000000	54.596700
611.000000	54.035533
612.000000	53.458300
613.000000	52.878700
614.000000	52.278667
615.000000	51.678667
616.000000	51.098133
617.000000	50.511467
618.000000	49.926733
619.000000	49.327433
620.000000	48.742567
621.000000	48.169167
622.000000	47.613333
623.000000	47.094433
624.000000	46.574167
625.000000	46.099533
626.000000	45.671300
627.000000	45.267500
628.000000	44.928967
629.000000	44.641267
630.000000	44.395167
631.000000	44.213667
632.000000	44.082267
633.000000	43.996600
634.000000	43.961300
635.000000	43.999233
636.000000	44.078700
637.000000	44.182000
638.000000	44.331700
639.000000	44.543467
640.000000	44.801033
641.000000	45.050400
642.000000	45.317833
643.000000	45.583867
644.000000	45.881800
645.000000	46.177900
646.000000	46.425000
647.000000	46.675100
648.000000	46.915367
649.000000	47.105433
650.000000	47.265967
651.000000	47.403767
652.000000	47.504133
653.000000	47.579500
654.000000	47.648400
655.000000	47.693633
656.000000	47.692100
657.000000	47.690933
658.000000	47.693233
659.000000	47.676200
660.000000	47.660533
661.000000	47.648400
662.000000	47.643500
663.000000	47.635567
664.000000	47.627400
665.000000	47.640767
666.000000	47.665633
667.000000	47.671167
668.000000	47.658233
669.000000	47.670133
670.000000	47.685967
671.000000	47.707400
672.000000	47.697367
673.000000	47.674967
674.000000	47.680633
675.000000	47.691167
676.000000	47.723700
677.000000	47.780800
678.000000	47.822467
679.000000	47.886667
680.000000	47.980067
681.000000	48.084233
682.000000	48.211133
683.000000	48.343867
684.000000	48.484867
685.000000	48.639167
686.000000	48.823733
687.000000	48.996433
688.000000	49.168933
689.000000	49.374767
690.000000	49.540633
691.000000	49.733700
692.000000	49.903967
693.000000	50.080433
694.000000	50.262067
695.000000	50.456167
696.000000	50.658767
697.000000	50.852133
698.000000	51.027100
699.000000	51.228200
700.000000	51.460067
701.000000	51.665767
702.000000	51.847733
703.000000	52.048600
704.000000	52.244533
705.000000	52.445267
706.000000	52.625667
707.000000	52.817600
708.000000	53.040100
709.000000	53.210567
710.000000	53.385167
711.000000	53.584467
712.000000	53.742367
713.000000	53.880333
714.000000	54.072633
715.000000	54.228967
716.000000	54.394400
717.000000	54.560800
718.000000	54.684567
719.000000	54.795733
720.000000	54.891033
721.000000	55.031867
722.000000	55.162900
723.000000	55.276200
724.000000	55.420600
725.000000	55.581667
726.000000	55.663800
727.000000	55.798100
728.000000	55.982300
729.000000	56.034000
730.000000	56.137333
731.000000	56.278067
732.000000	56.399933
733.000000	56.470733
734.000000	56.572167
735.000000	56.633100
736.000000	56.791533
737.000000	56.856667
738.000000	56.975967
739.000000	57.031400
740.000000	57.093800
741.000000	57.157033
742.000000	57.184867
743.000000	57.309800
744.000000	57.425400
745.000000	57.498000
746.000000	57.603733
747.000000	57.665400
748.000000	57.752500
749.000000	57.857933
750.000000	57.983800
751.000000	58.097767
752.000000	58.233400
753.000000	58.281133
754.000000	58.422733
755.000000	58.505633
756.000000	58.681400
757.000000	58.798733
758.000000	58.962133
759.000000	59.039933
760.000000	59.115033
761.000000	59.291267
762.000000	59.453467
763.000000	59.568267
764.000000	59.782700
765.000000	59.865233
766.000000	59.981867
767.000000	60.121267
768.000000	60.274167
769.000000	60.346500
770.000000	60.563000
771.000000	60.667900
772.000000	60.751433
773.000000	60.890467
774.000000	61.043833
775.000000	61.112867
776.000000	61.186533
777.000000	61.342467
778.000000	61.466067
779.000000	61.631767
780.000000	61.656800
781.000000	61.854367
782.000000	61.917700
783.000000	62.134267
784.000000	62.178567
785.000000	62.275767
786.000000	62.395667
787.000000	62.506000
788.000000	62.615600
789.000000	62.622967
790.000000	62.868167
791.000000	62.959033
792.000000	62.948233
793.000000	63.016133
794.000000	63.165767
795.000000	63.317433
796.000000	63.379667
797.000000	63.393467
798.000000	63.664200
799.000000	63.652233
800.000000	63.689433
801.000000	63.862967
802.000000	63.917933
803.000000	64.179267
804.000000	64.251800
805.000000	64.292033
806.000000	64.365000
807.000000	64.408167
808.000000	64.641167
809.000000	64.599967
810.000000	64.614700
811.000000	64.844567
812.000000	64.917333
813.000000	64.964767
814.000000	65.055867
815.000000	65.154200
816.000000	65.245500
817.000000	65.357033
818.000000	65.482033
819.000000	65.539633
820.000000	65.670600
821.000000	65.691867
822.000000	65.865533
823.000000	65.949167
824.000000	65.910333
825.000000	66.117433
826.000000	66.226367
827.000000	66.336333
828.000000	66.416133
829.000000	66.470133
830.000000	66.670067
831.000000	66.650400
832.000000	66.647633
833.000000	66.759467
834.000000	66.865933
835.000000	67.110233
836.000000	67.101300
837.000000	67.210200
838.000000	67.198900
839.000000	67.323567
840.000000	67.396967
841.000000	67.631600
842.000000	67.636667
843.000000	67.572767
844.000000	67.832767
845.000000	67.979233
846.000000	67.944233
847.000000	68.070433
848.000000	68.202900
849.000000	67.959800
850.000000	68.297567
851.000000	68.137567
852.000000	68.325900
853.000000	68.296767
854.000000	68.226833
855.000000	68.470733
856.000000	68.632300
857.000000	67.811000
858.000000	68.304678
859.000000	68.292515
860.000000	68.289959
861.000000	68.277260
862.000000	68.263748
863.000000	68.270168
864.000000	68.255346
865.000000	68.244395
866.000000	68.222514
867.000000	68.223481
868.000000	68.212383
869.000000	68.180917
870.000000	68.162696
871.000000	68.181370
872.000000	68.308336
873.000000	68.532292
874.000000	68.747923
875.000000	68.932349
876.000000	69.119722
877.000000	69.283102
878.000000	69.414882
879.000000	69.511875
880.000000	69.587767
881.000000	69.668357
882.000000	69.749458
883.000000	69.821741
884.000000	69.878930
885.000000	69.944353
886.000000	70.002996
887.000000	70.050874
888.000000	70.096080
889.000000	70.145442
890.000000	70.172037
891.000000	70.196369
892.000000	70.223914
893.000000	70.230451
894.000000	70.236110
895.000000	70.245217
896.000000	70.253670
897.000000	70.254711
898.000000	70.242512
899.000000	70.232762
900.000000	70.215853
901.000000	70.210776
902.000000	70.207920
903.000000	70.190504
904.000000	70.179339
905.000000	70.171267
906.000000	70.156431
907.000000	70.142770
908.000000	70.129096
909.000000	70.125861
910.000000	70.116335
911.000000	70.107165
912.000000	70.098425
913.000000	70.088380
914.000000	70.071044
915.000000	70.059505
916.000000	70.041089
917.000000	70.032195
918.000000	70.009759
919.000000	69.991461
920.000000	69.969073
921.000000	69.941399
922.000000	69.910247
923.000000	69.876061
924.000000	69.832790
925.000000	69.791984
926.000000	69.762420
927.000000	69.737726
928.000000	69.694341
929.000000	69.655632
930.000000	69.624588
931.000000	69.584210
932.000000	69.527715
933.000000	69.471582
934.000000	69.424520
935.000000	69.371380
936.000000	69.314746
937.000000	69.265064
938.000000	69.209314
939.000000	69.161545
940.000000	69.108076
941.000000	69.047438
942.000000	68.997488
943.000000	68.936304
944.000000	68.864194
945.000000	68.793587
946.000000	68.728750
947.000000	68.670590
948.000000	68.601523
949.000000	68.523201
950.000000	68.441751
951.000000	68.357669
952.000000	68.275765
953.000000	68.198654
954.000000	68.114218
955.000000	68.026894
956.000000	67.928417
957.000000	67.829682
958.000000	67.739096
959.000000	67.641754
960.000000	67.537911
961.000000	67.431378
962.000000	67.330609
963.000000	67.226129
964.000000	67.123131
965.000000	67.033754
966.000000	66.944729
967.000000	66.843750
968.000000	66.736900
969.000000	66.641138
970.000000	66.553958
971.000000	66.468278
972.000000	66.373856
973.000000	66.274755
974.000000	66.183093
975.000000	66.092646
976.000000	66.009367
977.000000	65.913701
978.000000	65.814183
979.000000	65.731820
980.000000	65.639780
981.000000	65.555087
982.000000	65.462488
983.000000	65.371076
984.000000	65.286973
985.000000	65.205123
986.000000	65.121485
987.000000	65.042528
988.000000	64.960816
989.000000	64.886241
990.000000	64.814110
991.000000	64.750535
992.000000	64.681037
993.000000	64.613511
994.000000	64.549681
995.000000	64.488847
996.000000	64.432456
997.000000	64.366427
998.000000	64.307141
999.000000	64.255773
1000.000000	64.206192
1001.000000	64.157161
1002.000000	64.102863
1003.000000	64.048660
1004.000000	64.001418
1005.000000	63.950651
1006.000000	63.894474
1007.000000	63.850186
1008.000000	63.803208
1009.000000	63.762081
1010.000000	63.717002
1011.000000	63.688206
1012.000000	63.656094
1013.000000	63.618352
1014.000000	63.593914
1015.000000	63.578995
1016.000000	63.568465
1017.000000	63.553884
1018.000000	63.540908
1019.000000	63.534247
1020.000000	63.533323
1021.000000	63.532137
1022.000000	63.534328
1023.000000	63.530810
1024.000000	63.527414
1025.000000	63.529955
1026.000000	63.536645
1027.000000	63.539110
1028.000000	63.546909
1029.000000	63.541464
1030.000000	63.543205
1031.000000	63.550175
1032.000000	63.539819
1033.000000	63.538515
1034.000000	63.544754
1035.000000	63.536537
1036.000000	63.531959
1037.000000	63.519579
1038.000000	63.523747
1039.000000	63.511320
1040.000000	63.501691
1041.000000	63.484167
1042.000000	63.490068
1043.000000	63.482717
1044.000000	63.484992
1045.000000	63.474188
1046.000000	63.477074
1047.000000	63.472109
1048.000000	63.459638
1049.000000	63.472402
1050.000000	63.476965
1051.000000	63.479180
1052.000000	63.503737
1053.000000	63.504425
1054.000000	63.515111
1055.000000	63.526499
1056.000000	63.544943
1057.000000	63.553383
1058.000000	63.577396
1059.000000	63.593368
1060.000000	63.615604
1061.000000	63.634312
1062.000000	63.649854
1063.000000	63.674144
1064.000000	63.697615
1065.000000	63.713389
1066.000000	63.730420
1067.000000	63.764198
1068.000000	63.786861
1069.000000	63.822030
1070.000000	63.823198
1071.000000	63.854982
1072.000000	63.885185
1073.000000	63.907939
1074.000000	63.930423
1075.000000	63.968825
1076.000000	63.995973
1077.000000	64.017985
1078.000000	64.053044
1079.000000	64.077796
1080.000000	64.101093
1081.000000	64.132795
1082.000000	64.177490
1083.000000	64.202872
1084.000000	64.242028
1085.000000	64.281136
1086.000000	64.300117
1087.000000	64.345461
1088.000000	64.366615
1089.000000	64.408817
1090.000000	64.422418
1091.000000	64.444285
1092.000000	64.476748
1093.000000	64.487105
1094.000000	64.518203
1095.000000	64.538696
1096.000000	64.564991
1097.000000	64.560064
1098.000000	64.584940
1099.000000	64.593266
1100.000000	64.597001
1101.000000	64.610861
1102.000000	64.606069
1103.000000	64.619662
1104.000000	64.631856
1105.000000	64.642266
1106.000000	64.630151
1107.000000	64.628564
1108.000000	64.624734
1109.000000	64.626524
1110.000000	64.625967
1111.000000	64.624636
1112.000000	64.622681
1113.000000	64.610622
1114.000000	64.607822
1115.000000	64.609678
1116.000000	64.594711
1117.000000	64.584365
1118.000000	64.555697
1119.000000	64.515190
1120.000000	64.482255
1121.000000	64.440581
1122.000000	64.381927
1123.000000	64.307882
1124.000000	64.232438
1125.000000	64.123984
1126.000000	64.020538
1127.000000	63.890326
1128.000000	63.735057
1129.000000	63.544466
1130.000000	63.330569
1131.000000	63.090325
1132.000000	62.818249
1133.000000	62.560993
1134.000000	62.255964
1135.000000	61.913655
1136.000000	61.571900
1137.000000	61.245843
1138.000000	60.935216
1139.000000	60.640463
1140.000000	60.353667
1141.000000	60.067308
1142.000000	59.806802
1143.000000	59.553810
1144.000000	59.340789
1145.000000	59.155725
1146.000000	59.019335
1147.000000	58.909359
1148.000000	58.830462
1149.000000	58.748996
1150.000000	58.695426
1151.000000	58.623227
1152.000000	58.528129
1153.000000	58.403320
1154.000000	58.253085
1155.000000	58.071610
1156.000000	57.857199
1157.000000	57.623918
1158.000000	57.379634
1159.000000	57.115625
1160.000000	56.840626
1161.000000	56.569658
1162.000000	56.299708
1163.000000	56.021254
1164.000000	55.741723
1165.000000	55.468855
1166.000000	55.208320
1167.000000	54.960391
1168.000000	54.706124
1169.000000	54.456468
1170.000000	54.215184
1171.000000	53.969393
1172.000000	53.735221
1173.000000	53.520525
1174.000000	53.304279
1175.000000	53.075836
1176.000000	52.820407
1177.000000	52.553163
1178.000000	52.244835
1179.000000	51.903555
1180.000000	51.551084
1181.000000	51.214311
1182.000000	50.916916
1183.000000	50.683120
1184.000000	50.527878
1185.000000	50.479178
1186.000000	50.525585
1187.000000	50.643847
1188.000000	50.842036
1189.000000	51.111095
1190.000000	51.423987
1191.000000	51.745126
1192.000000	52.049698
1193.000000	52.316402
1194.000000	52.540858
1195.000000	52.728354
1196.000000	52.874331
1197.000000	52.982689
1198.000000	53.071189
1199.000000	53.135190
1200.000000	53.181739
1201.000000	53.214763
1202.000000	53.252299
1203.000000	53.295030
1204.000000	53.340337
1205.000000	53.391238
1206.000000	53.444847
1207.000000	53.513149
1208.000000	53.597021
1209.000000	53.682076
1210.000000	53.768033
1211.000000	53.863379
1212.000000	53.957628
1213.000000	54.052325
1214.000000	54.160562
1215.000000	54.260019
1216.000000	54.363368
1217.000000	54.477640
1218.000000	54.596429
1219.000000	54.718961
1220.000000	54.845424
1221.000000	54.971997
1222.000000	55.104631
1223.000000	55.231481
1224.000000	55.356859
1225.000000	55.482706
1226.000000	55.603929
1227.000000	55.726093
1228.000000	55.846767
1229.000000	55.965241
1230.000000	56.087334
1231.000000	56.210708
1232.000000	56.326182
1233.000000	56.436183
1234.000000	56.545143
1235.000000	56.652210
1236.000000	56.754292
1237.000000	56.859172
1238.000000	56.956886
1239.000000	57.053594
1240.000000	57.145262
1241.000000	57.237273
1242.000000	57.332471
1243.000000	57.420708
1244.000000	57.500000
1245.000000	57.580129
1246.000000	57.658794
1247.000000	57.730315
1248.000000	57.793242
1249.000000	57.858016
1250.000000	57.917808
1251.000000	57.956745
1252.000000	58.013334
1253.000000	58.066080
1254.000000	58.108848
1255.000000	58.155392
1256.000000	58.192515
1257.000000	58.226220
1258.000000	58.261963
1259.000000	58.298222
1260.000000	58.335924
1261.000000	58.362205
1262.000000	58.384547
1263.000000	58.419174
1264.000000	58.453801
1265.000000	58.483924
1266.000000	58.504397
1267.000000	58.531294
1268.000000	58.563505
1269.000000	58.585499
1270.000000	58.613462
1271.000000	58.647531
1272.000000	58.671616
1273.000000	58.699930
1274.000000	58.729751
1275.000000	58.762791
1276.000000	58.808558
1277.000000	58.845837
1278.000000	58.888495
1279.000000	58.934504
1280.000000	58.975817
1281.000000	59.019712
1282.000000	59.067677
1283.000000	59.108735
1284.000000	59.146737
1285.000000	59.185638
1286.000000	59.224962
1287.000000	59.254544
1288.000000	59.276920
1289.000000	59.293797
1290.000000	59.313215
1291.000000	59.330098
1292.000000	59.337503
1293.000000	59.345180
1294.000000	59.351088
1295.000000	59.347445
1296.000000	59.331325
1297.000000	59.321639
1298.000000	59.319646
1299.000000	59.296123
1300.000000	59.267414
1301.000000	59.253479
1302.000000	59.230824
1303.000000	59.199204
1304.000000	59.163070
1305.000000	59.118187
1306.000000	59.083944
1307.000000	59.026862
1308.000000	58.969104
1309.000000	58.902771
1310.000000	58.831899
1311.000000	58.759387
1312.000000	58.674801
1313.000000	58.593441
1314.000000	58.512253
1315.000000	58.415405
1316.000000	58.326764
1317.000000	58.216874
1318.000000	58.109212
1319.000000	58.002171
1320.000000	57.882187
1321.000000	57.766052
1322.000000	57.639845
1323.000000	57.513501
1324.000000	57.384067
1325.000000	57.242711
1326.000000	57.087625
1327.000000	56.935095
1328.000000	56.774502
1329.000000	56.599143
1330.000000	56.433896
1331.000000	56.254991
1332.000000	56.058911
1333.000000	55.854466
1334.000000	55.664825
1335.000000	55.458644
1336.000000	55.240379
1337.000000	55.023237
1338.000000	54.809061
1339.000000	54.573725
1340.000000	54.344769
1341.000000	54.101391
1342.000000	53.852129
1343.000000	53.619758
1344.000000	53.363813
1345.000000	53.069665
1346.000000	52.829639
1347.000000	52.551674
1348.000000	52.254974
1349.000000	51.930833
1350.000000	51.595814
1351.000000	51.236011
1352.000000	50.844564
1353.000000	50.530386
1354.000000	50.247089
1355.000000	49.977888
1356.000000	49.746485
1357.000000	49.622386
1358.000000	49.515874
1359.000000	49.403218
1360.000000	49.393422
1361.000000	49.294973
1362.000000	49.175870
1363.000000	48.993260
1364.000000	48.854433
1365.000000	48.667327
1366.000000	48.501049
1367.000000	48.295927
1368.000000	48.080163
1369.000000	47.826073
1370.000000	47.582726
1371.000000	47.315083
1372.000000	47.034237
1373.000000	46.782249
1374.000000	46.536331
1375.000000	46.361428
1376.000000	46.192942
1377.000000	46.021754
1378.000000	45.887276
1379.000000	45.690675
1380.000000	45.502734
1381.000000	45.213464
1382.000000	44.851611
1383.000000	44.406967
1384.000000	43.978313
1385.000000	43.526644
1386.000000	43.139769
1387.000000	42.783067
1388.000000	42.423306
1389.000000	42.057663
1390.000000	41.804861
1391.000000	41.537446
1392.000000	41.262563
1393.000000	41.021086
1394.000000	40.815661
1395.000000	40.570439
1396.000000	40.229429
1397.000000	39.913852
1398.000000	39.654072
1399.000000	39.439635
1400.000000	39.111411
1401.000000	38.746540
1402.000000	38.371954
1403.000000	38.049879
1404.000000	37.693827
1405.000000	37.366862
1406.000000	37.012156
1407.000000	36.703495
1408.000000	36.377652
1409.000000	36.067343
1410.000000	35.731048
1411.000000	35.448349
1412.000000	35.214331
1413.000000	34.989655
1414.000000	34.757995
1415.000000	34.487015
1416.000000	34.243457
1417.000000	34.036111
1418.000000	33.856238
1419.000000	33.660264
1420.000000	33.427815
1421.000000	33.220956
1422.000000	33.030705
1423.000000	32.855410
1424.000000	32.687264
1425.000000	32.503539
1426.000000	32.332596
1427.000000	32.176462
1428.000000	32.027774
1429.000000	31.881788
1430.000000	31.756929
1431.000000	31.642550
1432.000000	31.534192
1433.000000	31.414688
1434.000000	31.306653
1435.000000	31.192901
1436.000000	31.095625
1437.000000	31.002878
1438.000000	30.905043
1439.000000	30.806254
1440.000000	30.700482
1441.000000	30.623508
1442.000000	30.517989
1443.000000	30.413541
1444.000000	30.352272
1445.000000	30.266537
1446.000000	30.187854
1447.000000	30.089307
1448.000000	29.989702
1449.000000	29.928538
1450.000000	29.872444
1451.000000	29.796026
1452.000000	29.699889
1453.000000	29.619621
1454.000000	29.563338
1455.000000	29.496579
1456.000000	29.435815
1457.000000	29.368601
1458.000000	29.309160
1459.000000	29.263046
1460.000000	29.217294
1461.000000	29.176866
1462.000000	29.137441
1463.000000	29.104479
1464.000000	29.070356
1465.000000	29.054927
1466.000000	29.032852
1467.000000	29.010730
1468.000000	28.986204
1469.000000	28.968645
1470.000000	28.968782
1471.000000	28.955127
1472.000000	28.925714
1473.000000	28.905502
1474.000000	28.895233
1475.000000	28.880010
1476.000000	28.874898
1477.000000	28.875555
1478.000000	28.871584
1479.000000	28.866804
1480.000000	28.870054
1481.000000	28.881958
1482.000000	28.885814
1483.000000	28.886032
1484.000000	28.902196
1485.000000	28.915812
1486.000000	28.930334
1487.000000	28.946810
1488.000000	28.962695
1489.000000	28.978130
1490.000000	28.994321
1491.000000	29.015449
1492.000000	29.035089
1493.000000	29.056200
1494.000000	29.078426
1495.000000	29.107770
1496.000000	29.146469
1497.000000	29.175582
1498.000000	29.202626
1499.000000	29.243687
1500.000000	29.285713
1501.000000	29.328995
1502.000000	29.382219
1503.000000	29.426065
1504.000000	29.466632
1505.000000	29.519427
1506.000000	29.568835
1507.000000	29.621887
1508.000000	29.679547
1509.000000	29.730299
1510.000000	29.775586
1511.000000	29.824137
1512.000000	29.877453
1513.000000	29.923342
1514.000000	29.969387
1515.000000	30.013262
1516.000000	30.059654
1517.000000	30.103100
1518.000000	30.145522
1519.000000	30.194275
1520.000000	30.233077
1521.000000	30.268135
1522.000000	30.308934
1523.000000	30.348380
1524.000000	30.387857
1525.000000	30.426123
1526.000000	30.458674
1527.000000	30.497883
1528.000000	30.542356
1529.000000	30.575551
1530.000000	30.601634
1531.000000	30.631591
1532.000000	30.662474
1533.000000	30.679084
1534.000000	30.706750
1535.000000	30.738658
1536.000000	30.755355
1537.000000	30.772947
1538.000000	30.788282
1539.000000	30.815527
1540.000000	30.833443
1541.000000	30.844654
1542.000000	30.863078
1543.000000	30.883196
1544.000000	30.909862
1545.000000	30.942475
1546.000000	30.972217
1547.000000	31.010278
1548.000000	31.043347
1549.000000	31.072427
1550.000000	31.109512
1551.000000	31.134368
1552.000000	31.158002
1553.000000	31.194016
1554.000000	31.221547
1555.000000	31.245370
1556.000000	31.266155
1557.000000	31.276083
1558.000000	31.292648
1559.000000	31.307935
1560.000000	31.314733
1561.000000	31.313656
1562.000000	31.320726
1563.000000	31.328992
1564.000000	31.326772
1565.000000	31.327069
1566.000000	31.324101
1567.000000	31.327183
1568.000000	31.327894
1569.000000	31.333292
1570.000000	31.338902
1571.000000	31.345369
1572.000000	31.355547
1573.000000	31.368571
1574.000000	31.384420
1575.000000	31.398756
1576.000000	31.421832
1577.000000	31.442056
1578.000000	31.462813
1579.000000	31.502840
1580.000000	31.534531
1581.000000	31.575062
1582.000000	31.615505
1583.000000	31.654248
1584.000000	31.707509
1585.000000	31.745913
1586.000000	31.790300
1587.000000	31.840542
1588.000000	31.878113
1589.000000	31.935341
1590.000000	31.981830
1591.000000	32.036015
1592.000000	32.091311
1593.000000	32.147157
1594.000000	32.209237
1595.000000	32.267440
1596.000000	32.328894
1597.000000	32.386756
1598.000000	32.435949
1599.000000	32.504612
1600.000000	32.565629
1601.000000	32.633235
1602.000000	32.700005
1603.000000	32.761591
1604.000000	32.825723
1605.000000	32.884902
1606.000000	32.956187
1607.000000	33.018226
1608.000000	33.070988
1609.000000	33.132140
1610.000000	33.182688
1611.000000	33.254084
1612.000000	33.294980
1613.000000	33.357140
1614.000000	33.410466
1615.000000	33.478180
1616.000000	33.536498
1617.000000	33.584186
1618.000000	33.643116
1619.000000	33.704053
1620.000000	33.756520
1621.000000	33.822757
1622.000000	33.891389
1623.000000	33.947095
1624.000000	34.003922
1625.000000	34.067043
1626.000000	34.133505
1627.000000	34.195779
1628.000000	34.258593
1629.000000	34.327160
1630.000000	34.388842
1631.000000	34.444370
1632.000000	34.506278
1633.000000	34.562730
1634.000000	34.608507
1635.000000	34.663920
1636.000000	34.704480
1637.000000	34.743353
1638.000000	34.786713
1639.000000	34.822489
1640.000000	34.867404
1641.000000	34.910287
1642.000000	34.942010
1643.000000	34.977862
1644.000000	35.009685
1645.000000	35.037894
1646.000000	35.073106
1647.000000	35.097362
1648.000000	35.121007
1649.000000	35.129380
1650.000000	35.147144
1651.000000	35.165319
1652.000000	35.171210
1653.000000	35.159639
1654.000000	35.141865
1655.000000	35.131586
1656.000000	35.105222
1657.000000	35.073510
1658.000000	35.021013
1659.000000	34.984169
1660.000000	34.927492
1661.000000	34.862481
1662.000000	34.785721
1663.000000	34.705336
1664.000000	34.624961
1665.000000	34.513896
1666.000000	34.409880
1667.000000	34.293255
1668.000000	34.164031
1669.000000	34.004471
1670.000000	33.817342
1671.000000	33.622894
1672.000000	33.400492
1673.000000	33.138847
1674.000000	32.841018
1675.000000	32.509660
1676.000000	32.138829
1677.000000	31.718600
1678.000000	31.274531
1679.000000	30.824636
1680.000000	30.408766
1681.000000	30.033161
1682.000000	29.740437
1683.000000	29.534961
1684.000000	29.421676
1685.000000	29.339964
1686.000000	29.282253
1687.000000	29.213907
1688.000000	29.144030
1689.000000	29.036925
1690.000000	28.899169
1691.000000	28.772908
1692.000000	28.648670
1693.000000	28.557623
1694.000000	28.513118
1695.000000	28.505133
1696.000000	28.552855
1697.000000	28.642234
1698.000000	28.750259
1699.000000	28.865191
1700.000000	28.990049
1701.000000	29.091190
1702.000000	29.172909
1703.000000	29.235532
1704.000000	29.276492
1705.000000	29.315695
1706.000000	29.326125
1707.000000	29.343878
1708.000000	29.334535
1709.000000	29.310193
1710.000000	29.285226
1711.000000	29.224301
1712.000000	29.159430
1713.000000	29.081710
1714.000000	28.994321
1715.000000	28.909269
1716.000000	28.822664
1717.000000	28.753509
1718.000000	28.678626
1719.000000	28.625179
1720.000000	28.569927
1721.000000	28.520524
1722.000000	28.472523
1723.000000	28.424399
1724.000000	28.374679
1725.000000	28.300339
1726.000000	28.213118
1727.000000	28.125502
1728.000000	28.037848
1729.000000	27.954584
1730.000000	27.881624
1731.000000	27.835064
1732.000000	27.807823
1733.000000	27.808442
1734.000000	27.864589
1735.000000	27.944756
1736.000000	28.060717
1737.000000	28.205116
1738.000000	28.382019
1739.000000	28.554778
1740.000000	28.731891
1741.000000	28.906401
1742.000000	29.068930
1743.000000	29.206082
1744.000000	29.323663
1745.000000	29.416611
1746.000000	29.495129
1747.000000	29.553731
1748.000000	29.609185
1749.000000	29.642264
1750.000000	29.658411
1751.000000	29.671515
1752.000000	29.665110
1753.000000	29.646082
1754.000000	29.621646
1755.000000	29.591248
1756.000000	29.536644
1757.000000	29.472624
1758.000000	29.416337
1759.000000	29.370580
1760.000000	29.328041
1761.000000	29.293133
1762.000000	29.282169
1763.000000	29.300153
1764.000000	29.332397
1765.000000	29.381563
1766.000000	29.452865
1767.000000	29.533396
1768.000000	29.624900
1769.000000	29.717694
1770.000000	29.818958
1771.000000	29.919191
1772.000000	30.015500
1773.000000	30.112610
1774.000000	30.208574
1775.000000	30.291423
1776.000000	30.374835
1777.000000	30.450354
1778.000000	30.515574
1779.000000	30.576374
1780.000000	30.638901
1781.000000	30.693484
1782.000000	30.757371
1783.000000	30.825702
1784.000000	30.884255
1785.000000	30.937170
1786.000000	30.993902
1787.000000	31.041255
1788.000000	31.091025
1789.000000	31.138279
1790.000000	31.188088
1791.000000	31.246468
1792.000000	31.289826
1793.000000	31.328180
1794.000000	31.372864
1795.000000	31.414734
1796.000000	31.453816
1797.000000	31.493155
1798.000000	31.535365
1799.000000	31.584472
1800.000000	31.637669
1801.000000	31.684991
1802.000000	31.723735
1803.000000	31.758114
1804.000000	31.794958
1805.000000	31.845338
1806.000000	31.887955
1807.000000	31.916577
1808.000000	31.953054
1809.000000	31.988954
1810.000000	32.028253
1811.000000	32.049238
1812.000000	32.071055
1813.000000	32.085905
1814.000000	32.093545
1815.000000	32.112137
1816.000000	32.115132
1817.000000	32.137489
1818.000000	32.173371
1819.000000	32.207917
1820.000000	32.235418
1821.000000	32.249023
1822.000000	32.245915
1823.000000	32.260611
1824.000000	32.294183
1825.000000	32.349920
1826.000000	32.410406
1827.000000	32.462831
1828.000000	32.523386
1829.000000	32.582409
1830.000000	32.627235
1831.000000	32.666398
1832.000000	32.710267
1833.000000	32.777139
1834.000000	32.848008
1835.000000	32.899601
1836.000000	32.930699
1837.000000	32.967256
1838.000000	32.996322
1839.000000	33.023516
1840.000000	33.042466
1841.000000	33.059125
1842.000000	33.024565
1843.000000	33.009654
1844.000000	33.045196
1845.000000	33.075258
1846.000000	33.136116
1847.000000	33.163931
1848.000000	33.151446
1849.000000	33.134815
1850.000000	33.120808
1851.000000	33.112001
1852.000000	33.108918
1853.000000	33.115222
1854.000000	33.089691
1855.000000	33.039803
1856.000000	33.016666
1857.000000	32.973703
1858.000000	32.892841
1859.000000	32.809984
1860.000000	32.694669
1861.000000	32.571747
1862.000000	32.443424
1863.000000	32.344603
1864.000000	32.237026
1865.000000	32.109723
1866.000000	31.984214
1867.000000	31.833927
1868.000000	31.651427
1869.000000	31.398588
1870.000000	31.133778
1871.000000	30.820805
1872.000000	30.491659
1873.000000	30.121017
1874.000000	29.741429
1875.000000	29.354451
1876.000000	28.958875
1877.000000	28.547150
1878.000000	28.093920
1879.000000	27.655843
1880.000000	27.235628
1881.000000	26.767791
1882.000000	26.294737
1883.000000	25.815598
1884.000000	25.315912
1885.000000	24.855301
1886.000000	24.429984
1887.000000	24.034277
1888.000000	23.648118
1889.000000	23.264705
1890.000000	22.901958
1891.000000	22.498894
1892.000000	22.080565
1893.000000	21.726254
1894.000000	21.419723
1895.000000	21.128006
1896.000000	20.856118
1897.000000	20.548557
1898.000000	20.230318
1899.000000	19.884056
1900.000000	19.554644
1901.000000	19.248280
1902.000000	18.974584
1903.000000	18.702409
1904.000000	18.416435
1905.000000	18.107027
1906.000000	17.801154
1907.000000	17.543708
1908.000000	17.320683
1909.000000	17.116687
1910.000000	16.913976
1911.000000	16.727393
1912.000000	16.494510
1913.000000	16.265236
1914.000000	16.024277
1915.000000	15.844842
1916.000000	15.683871
1917.000000	15.527065
1918.000000	15.367306
1919.000000	15.227095
1920.000000	15.053042
1921.000000	14.891121
1922.000000	14.723196
1923.000000	14.607851
1924.000000	14.497566
1925.000000	14.400503
1926.000000	14.300712
1927.000000	14.200464
1928.000000	14.101090
1929.000000	14.031759
1930.000000	13.948355
1931.000000	13.876388
1932.000000	13.849343
1933.000000	13.782661
1934.000000	13.777287
1935.000000	13.749827
1936.000000	13.739830
1937.000000	13.748990
1938.000000	13.728297
1939.000000	13.734560
1940.000000	13.735483
1941.000000	13.764886
1942.000000	13.787920
1943.000000	13.810646
1944.000000	13.845941
1945.000000	13.885915
1946.000000	13.927051
1947.000000	13.987788
1948.000000	14.029361
1949.000000	14.079937
1950.000000	14.150881
1951.000000	14.206684
1952.000000	14.280907
1953.000000	14.348027
1954.000000	14.410276
1955.000000	14.481563
1956.000000	14.560497
1957.000000	14.630831
1958.000000	14.696206
1959.000000	14.777391
1960.000000	14.859259
1961.000000	14.944455
1962.000000	15.010951
1963.000000	15.090167
1964.000000	15.178512
1965.000000	15.263124
1966.000000	15.334021
1967.000000	15.423738
1968.000000	15.501739
1969.000000	15.583706
1970.000000	15.672231
1971.000000	15.765165
1972.000000	15.846029
1973.000000	15.932423
1974.000000	16.022170
1975.000000	16.108669
1976.000000	16.201684
1977.000000	16.289970
1978.000000	16.391856
1979.000000	16.480949
1980.000000	16.574234
1981.000000	16.672390
1982.000000	16.766109
1983.000000	16.859130
1984.000000	16.950805
1985.000000	17.042838
1986.000000	17.127020
1987.000000	17.230184
1988.000000	17.325169
1989.000000	17.413801
1990.000000	17.494015
1991.000000	17.566350
1992.000000	17.648822
1993.000000	17.728021
1994.000000	17.808827
1995.000000	17.896098
1996.000000	17.964035
1997.000000	18.030670
1998.000000	18.102272
1999.000000	18.164463
