PE UV       SUBTECH     SPECTRUM    ASCII       PEDS        4.00        
   -1
CICIMAUCR0252-3.ASC
24/06/26
10:58:31.00
24/06/26
10:58:31.00
Vinicio Soto Monge
C. resplendens. Sex F.Dorsal.
250,000000
1
Lambda 1050
1050L1511233
PerkinElmer UV WinLab 6.3.2.0749 / 2.02.05 Lambda 900 UV/VIS/NIR, Aug  7 2015 09:38:08

0
0
3350/servo 860,8/2
0
0
UV/VIS
1
1
1
DoubleDePol,CommonBeamDepol,RBeamAtt,SBeamAtt,60mm sphere, WB InGaAs Detector
0
0
0
0
Program
Program
3350/servo 860,8/2
3350/0,2 860,8/0,2
3350/0,2 860,8/0,2
0
15.00
 
 
 
0
 
860,8
319,2
860,8
Front
100
on
S:100 R:100
0
0
0
0
 
0
 
 
 
0
 
 
0
0
0
0
0
 
 
 
 
0
0


0
0
#HDR
-1
-1
#GR
nm
%R
1.0
0.0
2500,000000
-1,000000
2251
8
89,717500
5,501300
#DATA
250.000000	2232.000000	6.075867
251.000000	2231.000000	6.051433
252.000000	2230.000000	6.042067
253.000000	2229.000000	6.014533
254.000000	2228.000000	6.021567
255.000000	2227.000000	6.027633
256.000000	2226.000000	5.981433
257.000000	2225.000000	5.996700
258.000000	2224.000000	5.975433
259.000000	2223.000000	5.963833
260.000000	2222.000000	5.945167
261.000000	2221.000000	5.907000
262.000000	2220.000000	5.890733
263.000000	2219.000000	5.844133
264.000000	2218.000000	5.814367
265.000000	2217.000000	5.797467
266.000000	2216.000000	5.796733
267.000000	2215.000000	5.766100
268.000000	2214.000000	5.753667
269.000000	2213.000000	5.761600
270.000000	2212.000000	5.751733
271.000000	2211.000000	5.734700
272.000000	2210.000000	5.719367
273.000000	2209.000000	5.678267
274.000000	2208.000000	5.679367
275.000000	2207.000000	5.681467
276.000000	2206.000000	5.662333
277.000000	2205.000000	5.640633
278.000000	2204.000000	5.643533
279.000000	2203.000000	5.621067
280.000000	2202.000000	5.622267
281.000000	2201.000000	5.619600
282.000000	2200.000000	5.642233
283.000000	2199.000000	5.642467
284.000000	2198.000000	5.618433
285.000000	2197.000000	5.604833
286.000000	2196.000000	5.593233
287.000000	2195.000000	5.581467
288.000000	2194.000000	5.599467
289.000000	2193.000000	5.602600
290.000000	2192.000000	5.599100
291.000000	2191.000000	5.577833
292.000000	2190.000000	5.592333
293.000000	2189.000000	5.566733
294.000000	2188.000000	5.548467
295.000000	2187.000000	5.576500
296.000000	2186.000000	5.576833
297.000000	2185.000000	5.579733
298.000000	2184.000000	5.558867
299.000000	2183.000000	5.529367
300.000000	2182.000000	5.537633
301.000000	2181.000000	5.550367
302.000000	2180.000000	5.560600
303.000000	2179.000000	5.550800
304.000000	2178.000000	5.528733
305.000000	2177.000000	5.526233
306.000000	2176.000000	5.539900
307.000000	2175.000000	5.521567
308.000000	2174.000000	5.539067
309.000000	2173.000000	5.539800
310.000000	2172.000000	5.539433
311.000000	2171.000000	5.532367
312.000000	2170.000000	5.524633
313.000000	2169.000000	5.534300
314.000000	2168.000000	5.520567
315.000000	2167.000000	5.534767
316.000000	2166.000000	6.049833
317.000000	2165.000000	6.497233
318.000000	2164.000000	6.432667
319.000000	2163.000000	6.308933
320.000000	2162.000000	5.994867
321.000000	2161.000000	6.201033
322.000000	2160.000000	6.096167
323.000000	2159.000000	5.928233
324.000000	2158.000000	6.049967
325.000000	2157.000000	6.018067
326.000000	2156.000000	6.074933
327.000000	2155.000000	6.047367
328.000000	2154.000000	6.019667
329.000000	2153.000000	5.945967
330.000000	2152.000000	5.776200
331.000000	2151.000000	5.749600
332.000000	2150.000000	5.670600
333.000000	2149.000000	5.681133
334.000000	2148.000000	5.705100
335.000000	2147.000000	5.725033
336.000000	2146.000000	5.743467
337.000000	2145.000000	5.787800
338.000000	2144.000000	5.811333
339.000000	2143.000000	5.670100
340.000000	2142.000000	5.699800
341.000000	2141.000000	5.585700
342.000000	2140.000000	5.642200
343.000000	2139.000000	5.831200
344.000000	2138.000000	5.842067
345.000000	2137.000000	5.841400
346.000000	2136.000000	5.768900
347.000000	2135.000000	5.834133
348.000000	2134.000000	5.798400
349.000000	2133.000000	5.845100
350.000000	2132.000000	5.870267
351.000000	2131.000000	5.863500
352.000000	2130.000000	5.997533
353.000000	2129.000000	6.011167
354.000000	2128.000000	5.998567
355.000000	2127.000000	5.951300
356.000000	2126.000000	5.929233
357.000000	2125.000000	5.977200
358.000000	2124.000000	6.044433
359.000000	2123.000000	6.038567
360.000000	2122.000000	6.037533
361.000000	2121.000000	6.043133
362.000000	2120.000000	6.076367
363.000000	2119.000000	6.073300
364.000000	2118.000000	6.094267
365.000000	2117.000000	6.150600
366.000000	2116.000000	6.208833
367.000000	2115.000000	6.213400
368.000000	2114.000000	6.313900
369.000000	2113.000000	6.243333
370.000000	2112.000000	6.160533
371.000000	2111.000000	6.196067
372.000000	2110.000000	6.178133
373.000000	2109.000000	6.088833
374.000000	2108.000000	6.159667
375.000000	2107.000000	6.409567
376.000000	2106.000000	6.509467
377.000000	2105.000000	6.517767
378.000000	2104.000000	6.561433
379.000000	2103.000000	6.598033
380.000000	2102.000000	6.647567
381.000000	2101.000000	6.685933
382.000000	2100.000000	6.727600
383.000000	2099.000000	6.782167
384.000000	2098.000000	6.822567
385.000000	2097.000000	6.877233
386.000000	2096.000000	6.921000
387.000000	2095.000000	6.964567
388.000000	2094.000000	7.018167
389.000000	2093.000000	7.076500
390.000000	2092.000000	7.149900
391.000000	2091.000000	7.216867
392.000000	2090.000000	7.282267
393.000000	2089.000000	7.344000
394.000000	2088.000000	7.427667
395.000000	2087.000000	7.515367
396.000000	2086.000000	7.600533
397.000000	2085.000000	7.692600
398.000000	2084.000000	7.802533
399.000000	2083.000000	7.912400
400.000000	2082.000000	8.025033
401.000000	2081.000000	8.175600
402.000000	2080.000000	8.312300
403.000000	2079.000000	8.471267
404.000000	2078.000000	8.649667
405.000000	2077.000000	8.841133
406.000000	2076.000000	9.030533
407.000000	2075.000000	9.257667
408.000000	2074.000000	9.493267
409.000000	2073.000000	9.742833
410.000000	2072.000000	10.009200
411.000000	2071.000000	10.300333
412.000000	2070.000000	10.638433
413.000000	2069.000000	10.988700
414.000000	2068.000000	11.352167
415.000000	2067.000000	11.738067
416.000000	2066.000000	12.134833
417.000000	2065.000000	12.555100
418.000000	2064.000000	12.980200
419.000000	2063.000000	13.437533
420.000000	2062.000000	13.900700
421.000000	2061.000000	14.394567
422.000000	2060.000000	14.889300
423.000000	2059.000000	15.385867
424.000000	2058.000000	15.884833
425.000000	2057.000000	16.403067
426.000000	2056.000000	16.883933
427.000000	2055.000000	17.375667
428.000000	2054.000000	17.855067
429.000000	2053.000000	18.356667
430.000000	2052.000000	18.813400
431.000000	2051.000000	19.274000
432.000000	2050.000000	19.726667
433.000000	2049.000000	20.156867
434.000000	2048.000000	20.575633
435.000000	2047.000000	21.000867
436.000000	2046.000000	21.383800
437.000000	2045.000000	21.765733
438.000000	2044.000000	22.102600
439.000000	2043.000000	22.455933
440.000000	2042.000000	22.796433
441.000000	2041.000000	23.114033
442.000000	2040.000000	23.412633
443.000000	2039.000000	23.719700
444.000000	2038.000000	23.981433
445.000000	2037.000000	24.252067
446.000000	2036.000000	24.515667
447.000000	2035.000000	24.730000
448.000000	2034.000000	24.952900
449.000000	2033.000000	25.170667
450.000000	2032.000000	25.369567
451.000000	2031.000000	25.563767
452.000000	2030.000000	25.732900
453.000000	2029.000000	25.898833
454.000000	2028.000000	26.025633
455.000000	2027.000000	26.194367
456.000000	2026.000000	26.313767
457.000000	2025.000000	26.457100
458.000000	2024.000000	26.571533
459.000000	2023.000000	26.678167
460.000000	2022.000000	26.784467
461.000000	2021.000000	26.863767
462.000000	2020.000000	26.938633
463.000000	2019.000000	27.008967
464.000000	2018.000000	27.074833
465.000000	2017.000000	27.128600
466.000000	2016.000000	27.185733
467.000000	2015.000000	27.207133
468.000000	2014.000000	27.224033
469.000000	2013.000000	27.233833
470.000000	2012.000000	27.251533
471.000000	2011.000000	27.220967
472.000000	2010.000000	27.197500
473.000000	2009.000000	27.157000
474.000000	2008.000000	27.116267
475.000000	2007.000000	27.064933
476.000000	2006.000000	27.032500
477.000000	2005.000000	27.012733
478.000000	2004.000000	27.003567
479.000000	2003.000000	27.011500
480.000000	2002.000000	27.065000
481.000000	2001.000000	27.125467
482.000000	2000.000000	27.248800
483.000000	1999.000000	27.425900
484.000000	1998.000000	27.658233
485.000000	1997.000000	27.917833
486.000000	1996.000000	28.249167
487.000000	1995.000000	28.630233
488.000000	1994.000000	29.073600
489.000000	1993.000000	29.554133
490.000000	1992.000000	30.104633
491.000000	1991.000000	30.695633
492.000000	1990.000000	31.278167
493.000000	1989.000000	31.882500
494.000000	1988.000000	32.452667
495.000000	1987.000000	33.022467
496.000000	1986.000000	33.613433
497.000000	1985.000000	34.163167
498.000000	1984.000000	34.685333
499.000000	1983.000000	35.180700
500.000000	1982.000000	35.665200
501.000000	1981.000000	36.145667
502.000000	1980.000000	36.594567
503.000000	1979.000000	37.054700
504.000000	1978.000000	37.511833
505.000000	1977.000000	37.971933
506.000000	1976.000000	38.429600
507.000000	1975.000000	38.940200
508.000000	1974.000000	39.446600
509.000000	1973.000000	40.051400
510.000000	1972.000000	40.677033
511.000000	1971.000000	41.376700
512.000000	1970.000000	42.187267
513.000000	1969.000000	43.059900
514.000000	1968.000000	44.018033
515.000000	1967.000000	45.055667
516.000000	1966.000000	46.163367
517.000000	1965.000000	47.378967
518.000000	1964.000000	48.656167
519.000000	1963.000000	49.996867
520.000000	1962.000000	51.408433
521.000000	1961.000000	52.876633
522.000000	1960.000000	54.401367
523.000000	1959.000000	55.952000
524.000000	1958.000000	57.521500
525.000000	1957.000000	59.067667
526.000000	1956.000000	60.592533
527.000000	1955.000000	62.096000
528.000000	1954.000000	63.581333
529.000000	1953.000000	65.025400
530.000000	1952.000000	66.408267
531.000000	1951.000000	67.708867
532.000000	1950.000000	69.004633
533.000000	1949.000000	70.216200
534.000000	1948.000000	71.364333
535.000000	1947.000000	72.450800
536.000000	1946.000000	73.453267
537.000000	1945.000000	74.409500
538.000000	1944.000000	75.300733
539.000000	1943.000000	76.157200
540.000000	1942.000000	76.974833
541.000000	1941.000000	77.756367
542.000000	1940.000000	78.503900
543.000000	1939.000000	79.205400
544.000000	1938.000000	79.887467
545.000000	1937.000000	80.510733
546.000000	1936.000000	81.114533
547.000000	1935.000000	81.695733
548.000000	1934.000000	82.213600
549.000000	1933.000000	82.729867
550.000000	1932.000000	83.210267
551.000000	1931.000000	83.675900
552.000000	1930.000000	84.112533
553.000000	1929.000000	84.522133
554.000000	1928.000000	84.905333
555.000000	1927.000000	85.279300
556.000000	1926.000000	85.647600
557.000000	1925.000000	86.010333
558.000000	1924.000000	86.324067
559.000000	1923.000000	86.635300
560.000000	1922.000000	86.954033
561.000000	1921.000000	87.250633
562.000000	1920.000000	87.508267
563.000000	1919.000000	87.747467
564.000000	1918.000000	87.965867
565.000000	1917.000000	88.168833
566.000000	1916.000000	88.346500
567.000000	1915.000000	88.498267
568.000000	1914.000000	88.633033
569.000000	1913.000000	88.749933
570.000000	1912.000000	88.860700
571.000000	1911.000000	88.956733
572.000000	1910.000000	89.043300
573.000000	1909.000000	89.118067
574.000000	1908.000000	89.201733
575.000000	1907.000000	89.270100
576.000000	1906.000000	89.312333
577.000000	1905.000000	89.362167
578.000000	1904.000000	89.401100
579.000000	1903.000000	89.453467
580.000000	1902.000000	89.486467
581.000000	1901.000000	89.485767
582.000000	1900.000000	89.488167
583.000000	1899.000000	89.490267
584.000000	1898.000000	89.458700
585.000000	1897.000000	89.396967
586.000000	1896.000000	89.278867
587.000000	1895.000000	89.154400
588.000000	1894.000000	89.015933
589.000000	1893.000000	88.863067
590.000000	1892.000000	88.668033
591.000000	1891.000000	88.439033
592.000000	1890.000000	88.179400
593.000000	1889.000000	87.936700
594.000000	1888.000000	87.660033
595.000000	1887.000000	87.363000
596.000000	1886.000000	87.024700
597.000000	1885.000000	86.680100
598.000000	1884.000000	86.346933
599.000000	1883.000000	85.992900
600.000000	1882.000000	85.635333
601.000000	1881.000000	85.255800
602.000000	1880.000000	84.864000
603.000000	1879.000000	84.446867
604.000000	1878.000000	83.963467
605.000000	1877.000000	83.480300
606.000000	1876.000000	82.992600
607.000000	1875.000000	82.452200
608.000000	1874.000000	81.916467
609.000000	1873.000000	81.338200
610.000000	1872.000000	80.732733
611.000000	1871.000000	80.120033
612.000000	1870.000000	79.479500
613.000000	1869.000000	78.805033
614.000000	1868.000000	78.134133
615.000000	1867.000000	77.445567
616.000000	1866.000000	76.718100
617.000000	1865.000000	75.986933
618.000000	1864.000000	75.197133
619.000000	1863.000000	74.362100
620.000000	1862.000000	73.500767
621.000000	1861.000000	72.597800
622.000000	1860.000000	71.641267
623.000000	1859.000000	70.652533
624.000000	1858.000000	69.648600
625.000000	1857.000000	68.611500
626.000000	1856.000000	67.552967
627.000000	1855.000000	66.496000
628.000000	1854.000000	65.457400
629.000000	1853.000000	64.392500
630.000000	1852.000000	63.340933
631.000000	1851.000000	62.304133
632.000000	1850.000000	61.286967
633.000000	1849.000000	60.298033
634.000000	1848.000000	59.356533
635.000000	1847.000000	58.465767
636.000000	1846.000000	57.639567
637.000000	1845.000000	56.862900
638.000000	1844.000000	56.161433
639.000000	1843.000000	55.534967
640.000000	1842.000000	54.966133
641.000000	1841.000000	54.506233
642.000000	1840.000000	54.168967
643.000000	1839.000000	53.948733
644.000000	1838.000000	53.837900
645.000000	1837.000000	53.862767
646.000000	1836.000000	54.026133
647.000000	1835.000000	54.292767
648.000000	1834.000000	54.659533
649.000000	1833.000000	55.127567
650.000000	1832.000000	55.678800
651.000000	1831.000000	56.258533
652.000000	1830.000000	56.878567
653.000000	1829.000000	57.510300
654.000000	1828.000000	58.133333
655.000000	1827.000000	58.771433
656.000000	1826.000000	59.376933
657.000000	1825.000000	59.946033
658.000000	1824.000000	60.515533
659.000000	1823.000000	61.077800
660.000000	1822.000000	61.652900
661.000000	1821.000000	62.243667
662.000000	1820.000000	62.804500
663.000000	1819.000000	63.393433
664.000000	1818.000000	63.982100
665.000000	1817.000000	64.572767
666.000000	1816.000000	65.182300
667.000000	1815.000000	65.720267
668.000000	1814.000000	66.248900
669.000000	1813.000000	66.755967
670.000000	1812.000000	67.219733
671.000000	1811.000000	67.617933
672.000000	1810.000000	67.976833
673.000000	1809.000000	68.333200
674.000000	1808.000000	68.634667
675.000000	1807.000000	68.877400
676.000000	1806.000000	69.052533
677.000000	1805.000000	69.236533
678.000000	1804.000000	69.402767
679.000000	1803.000000	69.567200
680.000000	1802.000000	69.759567
681.000000	1801.000000	69.905300
682.000000	1800.000000	70.082667
683.000000	1799.000000	70.284067
684.000000	1798.000000	70.440033
685.000000	1797.000000	70.680600
686.000000	1796.000000	70.855400
687.000000	1795.000000	71.028167
688.000000	1794.000000	71.183633
689.000000	1793.000000	71.336533
690.000000	1792.000000	71.456267
691.000000	1791.000000	71.514933
692.000000	1790.000000	71.606800
693.000000	1789.000000	71.616433
694.000000	1788.000000	71.624533
695.000000	1787.000000	71.608033
696.000000	1786.000000	71.576600
697.000000	1785.000000	71.612700
698.000000	1784.000000	71.565400
699.000000	1783.000000	71.562333
700.000000	1782.000000	71.509567
701.000000	1781.000000	71.518800
702.000000	1780.000000	71.484600
703.000000	1779.000000	71.526467
704.000000	1778.000000	71.569133
705.000000	1777.000000	71.611067
706.000000	1776.000000	71.605067
707.000000	1775.000000	71.633100
708.000000	1774.000000	71.724567
709.000000	1773.000000	71.782033
710.000000	1772.000000	71.813933
711.000000	1771.000000	71.873933
712.000000	1770.000000	71.921800
713.000000	1769.000000	72.013567
714.000000	1768.000000	72.115500
715.000000	1767.000000	72.234833
716.000000	1766.000000	72.389767
717.000000	1765.000000	72.617133
718.000000	1764.000000	72.795467
719.000000	1763.000000	73.072833
720.000000	1762.000000	73.364900
721.000000	1761.000000	73.700200
722.000000	1760.000000	74.040867
723.000000	1759.000000	74.404433
724.000000	1758.000000	74.864333
725.000000	1757.000000	75.204067
726.000000	1756.000000	75.566733
727.000000	1755.000000	75.969800
728.000000	1754.000000	76.365367
729.000000	1753.000000	76.707700
730.000000	1752.000000	77.028400
731.000000	1751.000000	77.390900
732.000000	1750.000000	77.774700
733.000000	1749.000000	78.105067
734.000000	1748.000000	78.380600
735.000000	1747.000000	78.706000
736.000000	1746.000000	79.040733
737.000000	1745.000000	79.287433
738.000000	1744.000000	79.626800
739.000000	1743.000000	79.962800
740.000000	1742.000000	80.275267
741.000000	1741.000000	80.618200
742.000000	1740.000000	80.900700
743.000000	1739.000000	81.204367
744.000000	1738.000000	81.487367
745.000000	1737.000000	81.803867
746.000000	1736.000000	82.104033
747.000000	1735.000000	82.395967
748.000000	1734.000000	82.699667
749.000000	1733.000000	82.977767
750.000000	1732.000000	83.275333
751.000000	1731.000000	83.608033
752.000000	1730.000000	83.839700
753.000000	1729.000000	84.099100
754.000000	1728.000000	84.401667
755.000000	1727.000000	84.621533
756.000000	1726.000000	84.785200
757.000000	1725.000000	85.028300
758.000000	1724.000000	85.298133
759.000000	1723.000000	85.545267
760.000000	1722.000000	85.726633
761.000000	1721.000000	85.878333
762.000000	1720.000000	86.026267
763.000000	1719.000000	86.203033
764.000000	1718.000000	86.296167
765.000000	1717.000000	86.302900
766.000000	1716.000000	86.363567
767.000000	1715.000000	86.372067
768.000000	1714.000000	86.339933
769.000000	1713.000000	86.379067
770.000000	1712.000000	86.354667
771.000000	1711.000000	86.258033
772.000000	1710.000000	86.143233
773.000000	1709.000000	86.026333
774.000000	1708.000000	85.858833
775.000000	1707.000000	85.801433
776.000000	1706.000000	85.648467
777.000000	1705.000000	85.459200
778.000000	1704.000000	85.389800
779.000000	1703.000000	85.312667
780.000000	1702.000000	84.993500
781.000000	1701.000000	84.907100
782.000000	1700.000000	84.734600
783.000000	1699.000000	84.576133
784.000000	1698.000000	84.438933
785.000000	1697.000000	84.494267
786.000000	1696.000000	84.256633
787.000000	1695.000000	84.130733
788.000000	1694.000000	84.089433
789.000000	1693.000000	84.105500
790.000000	1692.000000	84.079733
791.000000	1691.000000	84.086467
792.000000	1690.000000	84.011833
793.000000	1689.000000	83.978133
794.000000	1688.000000	84.129533
795.000000	1687.000000	84.123500
796.000000	1686.000000	84.184367
797.000000	1685.000000	84.204533
798.000000	1684.000000	84.292267
799.000000	1683.000000	84.444033
800.000000	1682.000000	84.444200
801.000000	1681.000000	84.448300
802.000000	1680.000000	84.529200
803.000000	1679.000000	84.507933
804.000000	1678.000000	84.582133
805.000000	1677.000000	84.497533
806.000000	1676.000000	84.411567
807.000000	1675.000000	84.348367
808.000000	1674.000000	84.307333
809.000000	1673.000000	84.238633
810.000000	1672.000000	84.208167
811.000000	1671.000000	84.028933
812.000000	1670.000000	83.930600
813.000000	1669.000000	83.800900
814.000000	1668.000000	83.646167
815.000000	1667.000000	83.582900
816.000000	1666.000000	83.307233
817.000000	1665.000000	83.306833
818.000000	1664.000000	83.115433
819.000000	1663.000000	82.790667
820.000000	1662.000000	82.754067
821.000000	1661.000000	82.541800
822.000000	1660.000000	82.359733
823.000000	1659.000000	82.202467
824.000000	1658.000000	82.107933
825.000000	1657.000000	81.808867
826.000000	1656.000000	81.821500
827.000000	1655.000000	81.743700
828.000000	1654.000000	81.511133
829.000000	1653.000000	81.428900
830.000000	1652.000000	81.410067
831.000000	1651.000000	81.261700
832.000000	1650.000000	81.080700
833.000000	1649.000000	81.039067
834.000000	1648.000000	80.916000
835.000000	1647.000000	80.871567
836.000000	1646.000000	80.678433
837.000000	1645.000000	80.623300
838.000000	1644.000000	80.727667
839.000000	1643.000000	80.443200
840.000000	1642.000000	80.409933
841.000000	1641.000000	80.284033
842.000000	1640.000000	80.020567
843.000000	1639.000000	79.818800
844.000000	1638.000000	79.850667
845.000000	1637.000000	79.675567
846.000000	1636.000000	79.418300
847.000000	1635.000000	79.505833
848.000000	1634.000000	79.525467
849.000000	1633.000000	79.071700
850.000000	1632.000000	78.818467
851.000000	1631.000000	78.645600
852.000000	1630.000000	78.842900
853.000000	1629.000000	78.811100
854.000000	1628.000000	78.384233
855.000000	1627.000000	78.210533
856.000000	1626.000000	78.026133
857.000000	1625.000000	77.863267
858.000000	1624.000000	78.033311
859.000000	1623.000000	77.871718
860.000000	1622.000000	77.730695
861.000000	1621.000000	77.580397
862.000000	1620.000000	77.440246
863.000000	1619.000000	77.295769
864.000000	1618.000000	77.160380
865.000000	1617.000000	77.010830
866.000000	1616.000000	76.883827
867.000000	1615.000000	76.751970
868.000000	1614.000000	76.603735
869.000000	1613.000000	76.454194
870.000000	1612.000000	76.323534
871.000000	1611.000000	76.207858
872.000000	1610.000000	76.163029
873.000000	1609.000000	76.177353
874.000000	1608.000000	76.199435
875.000000	1607.000000	76.203860
876.000000	1606.000000	76.189830
877.000000	1605.000000	76.143239
878.000000	1604.000000	76.098157
879.000000	1603.000000	76.043198
880.000000	1602.000000	75.981669
881.000000	1601.000000	75.907393
882.000000	1600.000000	75.846326
883.000000	1599.000000	75.769252
884.000000	1598.000000	75.703064
885.000000	1597.000000	75.645338
886.000000	1596.000000	75.578399
887.000000	1595.000000	75.521247
888.000000	1594.000000	75.456916
889.000000	1593.000000	75.390389
890.000000	1592.000000	75.326513
891.000000	1591.000000	75.262538
892.000000	1590.000000	75.207233
893.000000	1589.000000	75.139268
894.000000	1588.000000	75.079819
895.000000	1587.000000	75.015021
896.000000	1586.000000	74.938385
897.000000	1585.000000	74.861173
898.000000	1584.000000	74.787828
899.000000	1583.000000	74.709364
900.000000	1582.000000	74.632633
901.000000	1581.000000	74.552502
902.000000	1580.000000	74.473789
903.000000	1579.000000	74.392825
904.000000	1578.000000	74.315777
905.000000	1577.000000	74.240572
906.000000	1576.000000	74.164540
907.000000	1575.000000	74.096112
908.000000	1574.000000	74.017228
909.000000	1573.000000	73.941287
910.000000	1572.000000	73.876042
911.000000	1571.000000	73.802960
912.000000	1570.000000	73.740191
913.000000	1569.000000	73.682397
914.000000	1568.000000	73.604991
915.000000	1567.000000	73.539920
916.000000	1566.000000	73.470401
917.000000	1565.000000	73.407071
918.000000	1564.000000	73.336696
919.000000	1563.000000	73.261335
920.000000	1562.000000	73.198035
921.000000	1561.000000	73.126393
922.000000	1560.000000	73.048339
923.000000	1559.000000	72.975568
924.000000	1558.000000	72.919924
925.000000	1557.000000	72.844451
926.000000	1556.000000	72.753894
927.000000	1555.000000	72.679246
928.000000	1554.000000	72.617351
929.000000	1553.000000	72.541458
930.000000	1552.000000	72.447315
931.000000	1551.000000	72.377488
932.000000	1550.000000	72.301355
933.000000	1549.000000	72.217200
934.000000	1548.000000	72.127918
935.000000	1547.000000	72.033578
936.000000	1546.000000	71.947363
937.000000	1545.000000	71.865520
938.000000	1544.000000	71.775193
939.000000	1543.000000	71.668834
940.000000	1542.000000	71.561205
941.000000	1541.000000	71.464997
942.000000	1540.000000	71.375719
943.000000	1539.000000	71.265155
944.000000	1538.000000	71.142382
945.000000	1537.000000	71.037000
946.000000	1536.000000	70.912270
947.000000	1535.000000	70.776183
948.000000	1534.000000	70.655957
949.000000	1533.000000	70.533788
950.000000	1532.000000	70.392069
951.000000	1531.000000	70.253915
952.000000	1530.000000	70.122896
953.000000	1529.000000	69.972634
954.000000	1528.000000	69.821955
955.000000	1527.000000	69.681839
956.000000	1526.000000	69.537256
957.000000	1525.000000	69.394960
958.000000	1524.000000	69.248614
959.000000	1523.000000	69.089522
960.000000	1522.000000	68.932941
961.000000	1521.000000	68.776233
962.000000	1520.000000	68.620967
963.000000	1519.000000	68.468089
964.000000	1518.000000	68.312666
965.000000	1517.000000	68.157871
966.000000	1516.000000	68.001310
967.000000	1515.000000	67.850764
968.000000	1514.000000	67.704510
969.000000	1513.000000	67.552881
970.000000	1512.000000	67.410147
971.000000	1511.000000	67.274991
972.000000	1510.000000	67.128397
973.000000	1509.000000	66.975828
974.000000	1508.000000	66.836045
975.000000	1507.000000	66.696544
976.000000	1506.000000	66.557008
977.000000	1505.000000	66.429976
978.000000	1504.000000	66.296475
979.000000	1503.000000	66.152999
980.000000	1502.000000	66.017396
981.000000	1501.000000	65.895237
982.000000	1500.000000	65.765470
983.000000	1499.000000	65.634442
984.000000	1498.000000	65.507564
985.000000	1497.000000	65.385164
986.000000	1496.000000	65.256497
987.000000	1495.000000	65.137151
988.000000	1494.000000	65.028611
989.000000	1493.000000	64.914000
990.000000	1492.000000	64.801371
991.000000	1491.000000	64.691179
992.000000	1490.000000	64.576926
993.000000	1489.000000	64.478381
994.000000	1488.000000	64.370080
995.000000	1487.000000	64.252154
996.000000	1486.000000	64.159501
997.000000	1485.000000	64.069025
998.000000	1484.000000	63.966265
999.000000	1483.000000	63.859348
1000.000000	1482.000000	63.763783
1001.000000	1481.000000	63.674050
1002.000000	1480.000000	63.575406
1003.000000	1479.000000	63.470527
1004.000000	1478.000000	63.373302
1005.000000	1477.000000	63.277171
1006.000000	1476.000000	63.176219
1007.000000	1475.000000	63.078007
1008.000000	1474.000000	62.975956
1009.000000	1473.000000	62.885854
1010.000000	1472.000000	62.801645
1011.000000	1471.000000	62.721911
1012.000000	1470.000000	62.634372
1013.000000	1469.000000	62.573364
1014.000000	1468.000000	62.496546
1015.000000	1467.000000	62.440889
1016.000000	1466.000000	62.387136
1017.000000	1465.000000	62.333410
1018.000000	1464.000000	62.283932
1019.000000	1463.000000	62.241271
1020.000000	1462.000000	62.199705
1021.000000	1461.000000	62.159793
1022.000000	1460.000000	62.114664
1023.000000	1459.000000	62.089596
1024.000000	1458.000000	62.049825
1025.000000	1457.000000	62.030635
1026.000000	1456.000000	62.007112
1027.000000	1455.000000	61.985884
1028.000000	1454.000000	61.970059
1029.000000	1453.000000	61.951396
1030.000000	1452.000000	61.940667
1031.000000	1451.000000	61.915946
1032.000000	1450.000000	61.913585
1033.000000	1449.000000	61.908149
1034.000000	1448.000000	61.892901
1035.000000	1447.000000	61.884292
1036.000000	1446.000000	61.872103
1037.000000	1445.000000	61.863156
1038.000000	1444.000000	61.851633
1039.000000	1443.000000	61.857846
1040.000000	1442.000000	61.849298
1041.000000	1441.000000	61.840233
1042.000000	1440.000000	61.838990
1043.000000	1439.000000	61.839206
1044.000000	1438.000000	61.844479
1045.000000	1437.000000	61.846143
1046.000000	1436.000000	61.851012
1047.000000	1435.000000	61.844779
1048.000000	1434.000000	61.850895
1049.000000	1433.000000	61.863747
1050.000000	1432.000000	61.868240
1051.000000	1431.000000	61.890847
1052.000000	1430.000000	61.905100
1053.000000	1429.000000	61.915906
1054.000000	1428.000000	61.936724
1055.000000	1427.000000	61.963069
1056.000000	1426.000000	61.981975
1057.000000	1425.000000	61.997851
1058.000000	1424.000000	62.015197
1059.000000	1423.000000	62.048715
1060.000000	1422.000000	62.072905
1061.000000	1421.000000	62.086536
1062.000000	1420.000000	62.106648
1063.000000	1419.000000	62.133200
1064.000000	1418.000000	62.148162
1065.000000	1417.000000	62.166637
1066.000000	1416.000000	62.188390
1067.000000	1415.000000	62.208032
1068.000000	1414.000000	62.236724
1069.000000	1413.000000	62.255575
1070.000000	1412.000000	62.263795
1071.000000	1411.000000	62.303170
1072.000000	1410.000000	62.328847
1073.000000	1409.000000	62.354335
1074.000000	1408.000000	62.377650
1075.000000	1407.000000	62.397162
1076.000000	1406.000000	62.415751
1077.000000	1405.000000	62.452470
1078.000000	1404.000000	62.477757
1079.000000	1403.000000	62.496371
1080.000000	1402.000000	62.526965
1081.000000	1401.000000	62.546931
1082.000000	1400.000000	62.567221
1083.000000	1399.000000	62.586497
1084.000000	1398.000000	62.612207
1085.000000	1397.000000	62.636877
1086.000000	1396.000000	62.666908
1087.000000	1395.000000	62.690368
1088.000000	1394.000000	62.693564
1089.000000	1393.000000	62.725821
1090.000000	1392.000000	62.731784
1091.000000	1391.000000	62.742945
1092.000000	1390.000000	62.746109
1093.000000	1389.000000	62.769948
1094.000000	1388.000000	62.767509
1095.000000	1387.000000	62.772573
1096.000000	1386.000000	62.778791
1097.000000	1385.000000	62.779619
1098.000000	1384.000000	62.773103
1099.000000	1383.000000	62.786864
1100.000000	1382.000000	62.777418
1101.000000	1381.000000	62.768888
1102.000000	1380.000000	62.757397
1103.000000	1379.000000	62.750153
1104.000000	1378.000000	62.742082
1105.000000	1377.000000	62.742284
1106.000000	1376.000000	62.730216
1107.000000	1375.000000	62.711734
1108.000000	1374.000000	62.704748
1109.000000	1373.000000	62.698935
1110.000000	1372.000000	62.684008
1111.000000	1371.000000	62.672400
1112.000000	1370.000000	62.668746
1113.000000	1369.000000	62.653453
1114.000000	1368.000000	62.648366
1115.000000	1367.000000	62.626618
1116.000000	1366.000000	62.620953
1117.000000	1365.000000	62.591115
1118.000000	1364.000000	62.557409
1119.000000	1363.000000	62.517252
1120.000000	1362.000000	62.470161
1121.000000	1361.000000	62.417208
1122.000000	1360.000000	62.353181
1123.000000	1359.000000	62.272638
1124.000000	1358.000000	62.184958
1125.000000	1357.000000	62.087237
1126.000000	1356.000000	61.956846
1127.000000	1355.000000	61.813349
1128.000000	1354.000000	61.629202
1129.000000	1353.000000	61.426808
1130.000000	1352.000000	61.186840
1131.000000	1351.000000	60.907753
1132.000000	1350.000000	60.611547
1133.000000	1349.000000	60.313966
1134.000000	1348.000000	60.004429
1135.000000	1347.000000	59.645767
1136.000000	1346.000000	59.285373
1137.000000	1345.000000	58.923974
1138.000000	1344.000000	58.590620
1139.000000	1343.000000	58.280098
1140.000000	1342.000000	57.982114
1141.000000	1341.000000	57.693343
1142.000000	1340.000000	57.411524
1143.000000	1339.000000	57.159545
1144.000000	1338.000000	56.944391
1145.000000	1337.000000	56.752893
1146.000000	1336.000000	56.599539
1147.000000	1335.000000	56.466239
1148.000000	1334.000000	56.342198
1149.000000	1333.000000	56.231370
1150.000000	1332.000000	56.115347
1151.000000	1331.000000	55.999369
1152.000000	1330.000000	55.865373
1153.000000	1329.000000	55.711359
1154.000000	1328.000000	55.516386
1155.000000	1327.000000	55.314940
1156.000000	1326.000000	55.094090
1157.000000	1325.000000	54.851277
1158.000000	1324.000000	54.595638
1159.000000	1323.000000	54.342150
1160.000000	1322.000000	54.071369
1161.000000	1321.000000	53.818743
1162.000000	1320.000000	53.558276
1163.000000	1319.000000	53.295410
1164.000000	1318.000000	53.047210
1165.000000	1317.000000	52.795437
1166.000000	1316.000000	52.564525
1167.000000	1315.000000	52.331913
1168.000000	1314.000000	52.101536
1169.000000	1313.000000	51.876706
1170.000000	1312.000000	51.665405
1171.000000	1311.000000	51.456748
1172.000000	1310.000000	51.247588
1173.000000	1309.000000	51.052050
1174.000000	1308.000000	50.853547
1175.000000	1307.000000	50.646002
1176.000000	1306.000000	50.421234
1177.000000	1305.000000	50.174899
1178.000000	1304.000000	49.906973
1179.000000	1303.000000	49.622549
1180.000000	1302.000000	49.332410
1181.000000	1301.000000	49.063584
1182.000000	1300.000000	48.826140
1183.000000	1299.000000	48.654638
1184.000000	1298.000000	48.557128
1185.000000	1297.000000	48.530386
1186.000000	1296.000000	48.559708
1187.000000	1295.000000	48.654393
1188.000000	1294.000000	48.799539
1189.000000	1293.000000	49.004099
1190.000000	1292.000000	49.221789
1191.000000	1291.000000	49.440310
1192.000000	1290.000000	49.641649
1193.000000	1289.000000	49.829275
1194.000000	1288.000000	49.989862
1195.000000	1287.000000	50.118368
1196.000000	1286.000000	50.214947
1197.000000	1285.000000	50.291690
1198.000000	1284.000000	50.352593
1199.000000	1283.000000	50.399284
1200.000000	1282.000000	50.439937
1201.000000	1281.000000	50.475196
1202.000000	1280.000000	50.513165
1203.000000	1279.000000	50.554500
1204.000000	1278.000000	50.597695
1205.000000	1277.000000	50.651988
1206.000000	1276.000000	50.709672
1207.000000	1275.000000	50.783654
1208.000000	1274.000000	50.865170
1209.000000	1273.000000	50.945085
1210.000000	1272.000000	51.036889
1211.000000	1271.000000	51.121262
1212.000000	1270.000000	51.210901
1213.000000	1269.000000	51.303756
1214.000000	1268.000000	51.397525
1215.000000	1267.000000	51.498686
1216.000000	1266.000000	51.600900
1217.000000	1265.000000	51.707004
1218.000000	1264.000000	51.813415
1219.000000	1263.000000	51.924818
1220.000000	1262.000000	52.045552
1221.000000	1261.000000	52.161863
1222.000000	1260.000000	52.276537
1223.000000	1259.000000	52.401835
1224.000000	1258.000000	52.517569
1225.000000	1257.000000	52.627234
1226.000000	1256.000000	52.747487
1227.000000	1255.000000	52.870945
1228.000000	1254.000000	52.986669
1229.000000	1253.000000	53.090966
1230.000000	1252.000000	53.201150
1231.000000	1251.000000	53.314975
1232.000000	1250.000000	53.418912
1233.000000	1249.000000	53.524706
1234.000000	1248.000000	53.624658
1235.000000	1247.000000	53.714821
1236.000000	1246.000000	53.803671
1237.000000	1245.000000	53.895786
1238.000000	1244.000000	53.987783
1239.000000	1243.000000	54.065498
1240.000000	1242.000000	54.150955
1241.000000	1241.000000	54.244263
1242.000000	1240.000000	54.332912
1243.000000	1239.000000	54.412287
1244.000000	1238.000000	54.486854
1245.000000	1237.000000	54.568724
1246.000000	1236.000000	54.643655
1247.000000	1235.000000	54.708915
1248.000000	1234.000000	54.773573
1249.000000	1233.000000	54.825573
1250.000000	1232.000000	54.870986
1251.000000	1231.000000	54.917119
1252.000000	1230.000000	54.971248
1253.000000	1229.000000	55.019169
1254.000000	1228.000000	55.059339
1255.000000	1227.000000	55.089336
1256.000000	1226.000000	55.124116
1257.000000	1225.000000	55.155708
1258.000000	1224.000000	55.182126
1259.000000	1223.000000	55.200478
1260.000000	1222.000000	55.228545
1261.000000	1221.000000	55.256292
1262.000000	1220.000000	55.285247
1263.000000	1219.000000	55.307261
1264.000000	1218.000000	55.324525
1265.000000	1217.000000	55.344480
1266.000000	1216.000000	55.363753
1267.000000	1215.000000	55.378457
1268.000000	1214.000000	55.396452
1269.000000	1213.000000	55.411198
1270.000000	1212.000000	55.423361
1271.000000	1211.000000	55.427887
1272.000000	1210.000000	55.443081
1273.000000	1209.000000	55.454538
1274.000000	1208.000000	55.470157
1275.000000	1207.000000	55.489313
1276.000000	1206.000000	55.513028
1277.000000	1205.000000	55.538322
1278.000000	1204.000000	55.562790
1279.000000	1203.000000	55.581176
1280.000000	1202.000000	55.600675
1281.000000	1201.000000	55.624284
1282.000000	1200.000000	55.648487
1283.000000	1199.000000	55.665017
1284.000000	1198.000000	55.682321
1285.000000	1197.000000	55.696093
1286.000000	1196.000000	55.700420
1287.000000	1195.000000	55.706194
1288.000000	1194.000000	55.710572
1289.000000	1193.000000	55.711934
1290.000000	1192.000000	55.704377
1291.000000	1191.000000	55.687179
1292.000000	1190.000000	55.667718
1293.000000	1189.000000	55.645819
1294.000000	1188.000000	55.620126
1295.000000	1187.000000	55.588165
1296.000000	1186.000000	55.550816
1297.000000	1185.000000	55.519795
1298.000000	1184.000000	55.479784
1299.000000	1183.000000	55.436758
1300.000000	1182.000000	55.392002
1301.000000	1181.000000	55.339364
1302.000000	1180.000000	55.280134
1303.000000	1179.000000	55.219376
1304.000000	1178.000000	55.156392
1305.000000	1177.000000	55.091571
1306.000000	1176.000000	55.014138
1307.000000	1175.000000	54.932629
1308.000000	1174.000000	54.847542
1309.000000	1173.000000	54.754232
1310.000000	1172.000000	54.646344
1311.000000	1171.000000	54.547747
1312.000000	1170.000000	54.440979
1313.000000	1169.000000	54.338325
1314.000000	1168.000000	54.211702
1315.000000	1167.000000	54.088451
1316.000000	1166.000000	53.959340
1317.000000	1165.000000	53.825081
1318.000000	1164.000000	53.688142
1319.000000	1163.000000	53.551328
1320.000000	1162.000000	53.407036
1321.000000	1161.000000	53.254732
1322.000000	1160.000000	53.092894
1323.000000	1159.000000	52.947076
1324.000000	1158.000000	52.785007
1325.000000	1157.000000	52.612247
1326.000000	1156.000000	52.438495
1327.000000	1155.000000	52.257582
1328.000000	1154.000000	52.076270
1329.000000	1153.000000	51.891757
1330.000000	1152.000000	51.697334
1331.000000	1151.000000	51.499366
1332.000000	1150.000000	51.299004
1333.000000	1149.000000	51.088350
1334.000000	1148.000000	50.872976
1335.000000	1147.000000	50.672610
1336.000000	1146.000000	50.451150
1337.000000	1145.000000	50.223310
1338.000000	1144.000000	50.002135
1339.000000	1143.000000	49.769128
1340.000000	1142.000000	49.549468
1341.000000	1141.000000	49.307218
1342.000000	1140.000000	49.088750
1343.000000	1139.000000	48.864054
1344.000000	1138.000000	48.603254
1345.000000	1137.000000	48.360377
1346.000000	1136.000000	48.125570
1347.000000	1135.000000	47.895387
1348.000000	1134.000000	47.636740
1349.000000	1133.000000	47.357319
1350.000000	1132.000000	47.075142
1351.000000	1131.000000	46.774953
1352.000000	1130.000000	46.454278
1353.000000	1129.000000	46.243015
1354.000000	1128.000000	46.028564
1355.000000	1127.000000	45.844829
1356.000000	1126.000000	45.693003
1357.000000	1125.000000	45.561958
1358.000000	1124.000000	45.462011
1359.000000	1123.000000	45.335198
1360.000000	1122.000000	45.327037
1361.000000	1121.000000	45.250578
1362.000000	1120.000000	45.126348
1363.000000	1119.000000	44.947406
1364.000000	1118.000000	44.829745
1365.000000	1117.000000	44.635278
1366.000000	1116.000000	44.477105
1367.000000	1115.000000	44.314233
1368.000000	1114.000000	44.125835
1369.000000	1113.000000	43.869930
1370.000000	1112.000000	43.663845
1371.000000	1111.000000	43.448868
1372.000000	1110.000000	43.204350
1373.000000	1109.000000	42.955894
1374.000000	1108.000000	42.758111
1375.000000	1107.000000	42.582133
1376.000000	1106.000000	42.406661
1377.000000	1105.000000	42.211933
1378.000000	1104.000000	42.027178
1379.000000	1103.000000	41.791174
1380.000000	1102.000000	41.550342
1381.000000	1101.000000	41.286988
1382.000000	1100.000000	40.927522
1383.000000	1099.000000	40.520297
1384.000000	1098.000000	40.117376
1385.000000	1097.000000	39.639628
1386.000000	1096.000000	39.252325
1387.000000	1095.000000	38.848413
1388.000000	1094.000000	38.457012
1389.000000	1093.000000	38.039690
1390.000000	1092.000000	37.689270
1391.000000	1091.000000	37.352435
1392.000000	1090.000000	37.012456
1393.000000	1089.000000	36.685181
1394.000000	1088.000000	36.420077
1395.000000	1087.000000	36.102191
1396.000000	1086.000000	35.731105
1397.000000	1085.000000	35.368558
1398.000000	1084.000000	35.071601
1399.000000	1083.000000	34.811941
1400.000000	1082.000000	34.488173
1401.000000	1081.000000	34.099470
1402.000000	1080.000000	33.726783
1403.000000	1079.000000	33.398368
1404.000000	1078.000000	33.052046
1405.000000	1077.000000	32.742246
1406.000000	1076.000000	32.418443
1407.000000	1075.000000	32.115173
1408.000000	1074.000000	31.792166
1409.000000	1073.000000	31.498220
1410.000000	1072.000000	31.165242
1411.000000	1071.000000	30.860999
1412.000000	1070.000000	30.607438
1413.000000	1069.000000	30.394801
1414.000000	1068.000000	30.150175
1415.000000	1067.000000	29.880903
1416.000000	1066.000000	29.633975
1417.000000	1065.000000	29.436000
1418.000000	1064.000000	29.243733
1419.000000	1063.000000	29.048126
1420.000000	1062.000000	28.819562
1421.000000	1061.000000	28.625006
1422.000000	1060.000000	28.466159
1423.000000	1059.000000	28.284260
1424.000000	1058.000000	28.106105
1425.000000	1057.000000	27.932268
1426.000000	1056.000000	27.767633
1427.000000	1055.000000	27.621512
1428.000000	1054.000000	27.486653
1429.000000	1053.000000	27.343354
1430.000000	1052.000000	27.221680
1431.000000	1051.000000	27.117865
1432.000000	1050.000000	27.006465
1433.000000	1049.000000	26.882531
1434.000000	1048.000000	26.768861
1435.000000	1047.000000	26.655857
1436.000000	1046.000000	26.565260
1437.000000	1045.000000	26.470092
1438.000000	1044.000000	26.373138
1439.000000	1043.000000	26.287878
1440.000000	1042.000000	26.201894
1441.000000	1041.000000	26.118588
1442.000000	1040.000000	26.040364
1443.000000	1039.000000	25.957322
1444.000000	1038.000000	25.903417
1445.000000	1037.000000	25.834233
1446.000000	1036.000000	25.753019
1447.000000	1035.000000	25.670179
1448.000000	1034.000000	25.596622
1449.000000	1033.000000	25.549658
1450.000000	1032.000000	25.510150
1451.000000	1031.000000	25.450533
1452.000000	1030.000000	25.376505
1453.000000	1029.000000	25.304694
1454.000000	1028.000000	25.260303
1455.000000	1027.000000	25.209823
1456.000000	1026.000000	25.156990
1457.000000	1025.000000	25.104701
1458.000000	1024.000000	25.067799
1459.000000	1023.000000	25.027400
1460.000000	1022.000000	24.989753
1461.000000	1021.000000	24.962835
1462.000000	1020.000000	24.931915
1463.000000	1019.000000	24.915828
1464.000000	1018.000000	24.893295
1465.000000	1017.000000	24.880591
1466.000000	1016.000000	24.867604
1467.000000	1015.000000	24.844563
1468.000000	1014.000000	24.824737
1469.000000	1013.000000	24.830185
1470.000000	1012.000000	24.830155
1471.000000	1011.000000	24.837102
1472.000000	1010.000000	24.833475
1473.000000	1009.000000	24.816145
1474.000000	1008.000000	24.815483
1475.000000	1007.000000	24.821999
1476.000000	1006.000000	24.829939
1477.000000	1005.000000	24.843597
1478.000000	1004.000000	24.858392
1479.000000	1003.000000	24.880470
1480.000000	1002.000000	24.907366
1481.000000	1001.000000	24.924121
1482.000000	1000.000000	24.944676
1483.000000	999.000000	24.976324
1484.000000	998.000000	25.014198
1485.000000	997.000000	25.048281
1486.000000	996.000000	25.076589
1487.000000	995.000000	25.106498
1488.000000	994.000000	25.136444
1489.000000	993.000000	25.178793
1490.000000	992.000000	25.220384
1491.000000	991.000000	25.253796
1492.000000	990.000000	25.291517
1493.000000	989.000000	25.335375
1494.000000	988.000000	25.378340
1495.000000	987.000000	25.427243
1496.000000	986.000000	25.479930
1497.000000	985.000000	25.530979
1498.000000	984.000000	25.584438
1499.000000	983.000000	25.640968
1500.000000	982.000000	25.690878
1501.000000	981.000000	25.747761
1502.000000	980.000000	25.811146
1503.000000	979.000000	25.872214
1504.000000	978.000000	25.933653
1505.000000	977.000000	25.994778
1506.000000	976.000000	26.064306
1507.000000	975.000000	26.132463
1508.000000	974.000000	26.192432
1509.000000	973.000000	26.251581
1510.000000	972.000000	26.324923
1511.000000	971.000000	26.389009
1512.000000	970.000000	26.441536
1513.000000	969.000000	26.504835
1514.000000	968.000000	26.570305
1515.000000	967.000000	26.631696
1516.000000	966.000000	26.691892
1517.000000	965.000000	26.750662
1518.000000	964.000000	26.810396
1519.000000	963.000000	26.865052
1520.000000	962.000000	26.918973
1521.000000	961.000000	26.973757
1522.000000	960.000000	27.031781
1523.000000	959.000000	27.090825
1524.000000	958.000000	27.139766
1525.000000	957.000000	27.183042
1526.000000	956.000000	27.225970
1527.000000	955.000000	27.274528
1528.000000	954.000000	27.330707
1529.000000	953.000000	27.386632
1530.000000	952.000000	27.430649
1531.000000	951.000000	27.471672
1532.000000	950.000000	27.513838
1533.000000	949.000000	27.552979
1534.000000	948.000000	27.595237
1535.000000	947.000000	27.633459
1536.000000	946.000000	27.673421
1537.000000	945.000000	27.711703
1538.000000	944.000000	27.743261
1539.000000	943.000000	27.778996
1540.000000	942.000000	27.811486
1541.000000	941.000000	27.853569
1542.000000	940.000000	27.887910
1543.000000	939.000000	27.922752
1544.000000	938.000000	27.960838
1545.000000	937.000000	28.004058
1546.000000	936.000000	28.052448
1547.000000	935.000000	28.091418
1548.000000	934.000000	28.144515
1549.000000	933.000000	28.191409
1550.000000	932.000000	28.239851
1551.000000	931.000000	28.293342
1552.000000	930.000000	28.328900
1553.000000	929.000000	28.374066
1554.000000	928.000000	28.413540
1555.000000	927.000000	28.439378
1556.000000	926.000000	28.475995
1557.000000	925.000000	28.509874
1558.000000	924.000000	28.543218
1559.000000	923.000000	28.565048
1560.000000	922.000000	28.585111
1561.000000	921.000000	28.605420
1562.000000	920.000000	28.623716
1563.000000	919.000000	28.635541
1564.000000	918.000000	28.646329
1565.000000	917.000000	28.669888
1566.000000	916.000000	28.671975
1567.000000	915.000000	28.679028
1568.000000	914.000000	28.694828
1569.000000	913.000000	28.708757
1570.000000	912.000000	28.721098
1571.000000	911.000000	28.736587
1572.000000	910.000000	28.757310
1573.000000	909.000000	28.772869
1574.000000	908.000000	28.801333
1575.000000	907.000000	28.823534
1576.000000	906.000000	28.844376
1577.000000	905.000000	28.874349
1578.000000	904.000000	28.906462
1579.000000	903.000000	28.940799
1580.000000	902.000000	28.980556
1581.000000	901.000000	29.012448
1582.000000	900.000000	29.051692
1583.000000	899.000000	29.089513
1584.000000	898.000000	29.136404
1585.000000	897.000000	29.180772
1586.000000	896.000000	29.227682
1587.000000	895.000000	29.262023
1588.000000	894.000000	29.303812
1589.000000	893.000000	29.347015
1590.000000	892.000000	29.397806
1591.000000	891.000000	29.438492
1592.000000	890.000000	29.487941
1593.000000	889.000000	29.537565
1594.000000	888.000000	29.579607
1595.000000	887.000000	29.624394
1596.000000	886.000000	29.680298
1597.000000	885.000000	29.729009
1598.000000	884.000000	29.777400
1599.000000	883.000000	29.836830
1600.000000	882.000000	29.889294
1601.000000	881.000000	29.947175
1602.000000	880.000000	30.003127
1603.000000	879.000000	30.052153
1604.000000	878.000000	30.108173
1605.000000	877.000000	30.166479
1606.000000	876.000000	30.222214
1607.000000	875.000000	30.274393
1608.000000	874.000000	30.325755
1609.000000	873.000000	30.375180
1610.000000	872.000000	30.423486
1611.000000	871.000000	30.462560
1612.000000	870.000000	30.517869
1613.000000	869.000000	30.564046
1614.000000	868.000000	30.616447
1615.000000	867.000000	30.660173
1616.000000	866.000000	30.710118
1617.000000	865.000000	30.768208
1618.000000	864.000000	30.818274
1619.000000	863.000000	30.869937
1620.000000	862.000000	30.916683
1621.000000	861.000000	30.950711
1622.000000	860.000000	31.009761
1623.000000	859.000000	31.065057
1624.000000	858.000000	31.125810
1625.000000	857.000000	31.172595
1626.000000	856.000000	31.232570
1627.000000	855.000000	31.283700
1628.000000	854.000000	31.338515
1629.000000	853.000000	31.382247
1630.000000	852.000000	31.446242
1631.000000	851.000000	31.489955
1632.000000	850.000000	31.534997
1633.000000	849.000000	31.594879
1634.000000	848.000000	31.645827
1635.000000	847.000000	31.673723
1636.000000	846.000000	31.726912
1637.000000	845.000000	31.775453
1638.000000	844.000000	31.801774
1639.000000	843.000000	31.830075
1640.000000	842.000000	31.879876
1641.000000	841.000000	31.903760
1642.000000	840.000000	31.942940
1643.000000	839.000000	31.972609
1644.000000	838.000000	32.010570
1645.000000	837.000000	32.034466
1646.000000	836.000000	32.051650
1647.000000	835.000000	32.075835
1648.000000	834.000000	32.097723
1649.000000	833.000000	32.119274
1650.000000	832.000000	32.134489
1651.000000	831.000000	32.147318
1652.000000	830.000000	32.153968
1653.000000	829.000000	32.135552
1654.000000	828.000000	32.139271
1655.000000	827.000000	32.121854
1656.000000	826.000000	32.103153
1657.000000	825.000000	32.081770
1658.000000	824.000000	32.059553
1659.000000	823.000000	32.024019
1660.000000	822.000000	31.967052
1661.000000	821.000000	31.924662
1662.000000	820.000000	31.866580
1663.000000	819.000000	31.800130
1664.000000	818.000000	31.739250
1665.000000	817.000000	31.669842
1666.000000	816.000000	31.580218
1667.000000	815.000000	31.494739
1668.000000	814.000000	31.390689
1669.000000	813.000000	31.269557
1670.000000	812.000000	31.143092
1671.000000	811.000000	30.991692
1672.000000	810.000000	30.835094
1673.000000	809.000000	30.658408
1674.000000	808.000000	30.461685
1675.000000	807.000000	30.249686
1676.000000	806.000000	29.993533
1677.000000	805.000000	29.740900
1678.000000	804.000000	29.473365
1679.000000	803.000000	29.224857
1680.000000	802.000000	28.970576
1681.000000	801.000000	28.757758
1682.000000	800.000000	28.584311
1683.000000	799.000000	28.458209
1684.000000	798.000000	28.350566
1685.000000	797.000000	28.263355
1686.000000	796.000000	28.192193
1687.000000	795.000000	28.146920
1688.000000	794.000000	28.090547
1689.000000	793.000000	28.033929
1690.000000	792.000000	27.970744
1691.000000	791.000000	27.911782
1692.000000	790.000000	27.861980
1693.000000	789.000000	27.824088
1694.000000	788.000000	27.818021
1695.000000	787.000000	27.842824
1696.000000	786.000000	27.881433
1697.000000	785.000000	27.931246
1698.000000	784.000000	27.982413
1699.000000	783.000000	28.055915
1700.000000	782.000000	28.109071
1701.000000	781.000000	28.153876
1702.000000	780.000000	28.192029
1703.000000	779.000000	28.227104
1704.000000	778.000000	28.237775
1705.000000	777.000000	28.239018
1706.000000	776.000000	28.235689
1707.000000	775.000000	28.218621
1708.000000	774.000000	28.194021
1709.000000	773.000000	28.149056
1710.000000	772.000000	28.091783
1711.000000	771.000000	28.025593
1712.000000	770.000000	27.957651
1713.000000	769.000000	27.881752
1714.000000	768.000000	27.778890
1715.000000	767.000000	27.681002
1716.000000	766.000000	27.581856
1717.000000	765.000000	27.504653
1718.000000	764.000000	27.421538
1719.000000	763.000000	27.346461
1720.000000	762.000000	27.268399
1721.000000	761.000000	27.204715
1722.000000	760.000000	27.151037
1723.000000	759.000000	27.100172
1724.000000	758.000000	27.052520
1725.000000	757.000000	27.015715
1726.000000	756.000000	26.974235
1727.000000	755.000000	26.923030
1728.000000	754.000000	26.868788
1729.000000	753.000000	26.838150
1730.000000	752.000000	26.817656
1731.000000	751.000000	26.811552
1732.000000	750.000000	26.828243
1733.000000	749.000000	26.867339
1734.000000	748.000000	26.920014
1735.000000	747.000000	27.000789
1736.000000	746.000000	27.091893
1737.000000	745.000000	27.195698
1738.000000	744.000000	27.312548
1739.000000	743.000000	27.428882
1740.000000	742.000000	27.537733
1741.000000	741.000000	27.636679
1742.000000	740.000000	27.719625
1743.000000	739.000000	27.796489
1744.000000	738.000000	27.862981
1745.000000	737.000000	27.922290
1746.000000	736.000000	27.964668
1747.000000	735.000000	27.987821
1748.000000	734.000000	28.003525
1749.000000	733.000000	28.014008
1750.000000	732.000000	28.011491
1751.000000	731.000000	27.997511
1752.000000	730.000000	27.979799
1753.000000	729.000000	27.952250
1754.000000	728.000000	27.918615
1755.000000	727.000000	27.878957
1756.000000	726.000000	27.838638
1757.000000	725.000000	27.795408
1758.000000	724.000000	27.750902
1759.000000	723.000000	27.706262
1760.000000	722.000000	27.677103
1761.000000	721.000000	27.660951
1762.000000	720.000000	27.652445
1763.000000	719.000000	27.657012
1764.000000	718.000000	27.672900
1765.000000	717.000000	27.707754
1766.000000	716.000000	27.754082
1767.000000	715.000000	27.808628
1768.000000	714.000000	27.865572
1769.000000	713.000000	27.917559
1770.000000	712.000000	27.977999
1771.000000	711.000000	28.037065
1772.000000	710.000000	28.088878
1773.000000	709.000000	28.144689
1774.000000	708.000000	28.194206
1775.000000	707.000000	28.236536
1776.000000	706.000000	28.282301
1777.000000	705.000000	28.333830
1778.000000	704.000000	28.379817
1779.000000	703.000000	28.419355
1780.000000	702.000000	28.451134
1781.000000	701.000000	28.479192
1782.000000	700.000000	28.511594
1783.000000	699.000000	28.545900
1784.000000	698.000000	28.578535
1785.000000	697.000000	28.609951
1786.000000	696.000000	28.642134
1787.000000	695.000000	28.664741
1788.000000	694.000000	28.680020
1789.000000	693.000000	28.713359
1790.000000	692.000000	28.740090
1791.000000	691.000000	28.762750
1792.000000	690.000000	28.790313
1793.000000	689.000000	28.819181
1794.000000	688.000000	28.850157
1795.000000	687.000000	28.867778
1796.000000	686.000000	28.889551
1797.000000	685.000000	28.923256
1798.000000	684.000000	28.948716
1799.000000	683.000000	28.981206
1800.000000	682.000000	29.025562
1801.000000	681.000000	29.059012
1802.000000	680.000000	29.085736
1803.000000	679.000000	29.108071
1804.000000	678.000000	29.133308
1805.000000	677.000000	29.169237
1806.000000	676.000000	29.199273
1807.000000	675.000000	29.217056
1808.000000	674.000000	29.229470
1809.000000	673.000000	29.252687
1810.000000	672.000000	29.289710
1811.000000	671.000000	29.310773
1812.000000	670.000000	29.335256
1813.000000	669.000000	29.345321
1814.000000	668.000000	29.356215
1815.000000	667.000000	29.370591
1816.000000	666.000000	29.370145
1817.000000	665.000000	29.381956
1818.000000	664.000000	29.406118
1819.000000	663.000000	29.437403
1820.000000	662.000000	29.476325
1821.000000	661.000000	29.507219
1822.000000	660.000000	29.497827
1823.000000	659.000000	29.492301
1824.000000	658.000000	29.493360
1825.000000	657.000000	29.523418
1826.000000	656.000000	29.555827
1827.000000	655.000000	29.598244
1828.000000	654.000000	29.649186
1829.000000	653.000000	29.687890
1830.000000	652.000000	29.721545
1831.000000	651.000000	29.738477
1832.000000	650.000000	29.760289
1833.000000	649.000000	29.788723
1834.000000	648.000000	29.832815
1835.000000	647.000000	29.866238
1836.000000	646.000000	29.894426
1837.000000	645.000000	29.919439
1838.000000	644.000000	29.929942
1839.000000	643.000000	29.946877
1840.000000	642.000000	29.963086
1841.000000	641.000000	29.989479
1842.000000	640.000000	29.955205
1843.000000	639.000000	29.915465
1844.000000	638.000000	29.904701
1845.000000	637.000000	29.893211
1846.000000	636.000000	29.934938
1847.000000	635.000000	29.953496
1848.000000	634.000000	29.937893
1849.000000	633.000000	29.910541
1850.000000	632.000000	29.866748
1851.000000	631.000000	29.814888
1852.000000	630.000000	29.773709
1853.000000	629.000000	29.744972
1854.000000	628.000000	29.689807
1855.000000	627.000000	29.609767
1856.000000	626.000000	29.561072
1857.000000	625.000000	29.483685
1858.000000	624.000000	29.387843
1859.000000	623.000000	29.287409
1860.000000	622.000000	29.163934
1861.000000	621.000000	29.017855
1862.000000	620.000000	28.869328
1863.000000	619.000000	28.738495
1864.000000	618.000000	28.596075
1865.000000	617.000000	28.441455
1866.000000	616.000000	28.286144
1867.000000	615.000000	28.111190
1868.000000	614.000000	27.927186
1869.000000	613.000000	27.664553
1870.000000	612.000000	27.407054
1871.000000	611.000000	27.101832
1872.000000	610.000000	26.803687
1873.000000	609.000000	26.467949
1874.000000	608.000000	26.124158
1875.000000	607.000000	25.780875
1876.000000	606.000000	25.422411
1877.000000	605.000000	25.051774
1878.000000	604.000000	24.664551
1879.000000	603.000000	24.275342
1880.000000	602.000000	23.904526
1881.000000	601.000000	23.472184
1882.000000	600.000000	23.035972
1883.000000	599.000000	22.590556
1884.000000	598.000000	22.114388
1885.000000	597.000000	21.640234
1886.000000	596.000000	21.220582
1887.000000	595.000000	20.791539
1888.000000	594.000000	20.370705
1889.000000	593.000000	19.926519
1890.000000	592.000000	19.503299
1891.000000	591.000000	19.044335
1892.000000	590.000000	18.580285
1893.000000	589.000000	18.179475
1894.000000	588.000000	17.802711
1895.000000	587.000000	17.477246
1896.000000	586.000000	17.163239
1897.000000	585.000000	16.812782
1898.000000	584.000000	16.453864
1899.000000	583.000000	16.064846
1900.000000	582.000000	15.683496
1901.000000	581.000000	15.369504
1902.000000	580.000000	15.078303
1903.000000	579.000000	14.791179
1904.000000	578.000000	14.506973
1905.000000	577.000000	14.212993
1906.000000	576.000000	13.917541
1907.000000	575.000000	13.650604
1908.000000	574.000000	13.445066
1909.000000	573.000000	13.276759
1910.000000	572.000000	13.073819
1911.000000	571.000000	12.901254
1912.000000	570.000000	12.698758
1913.000000	569.000000	12.463845
1914.000000	568.000000	12.269760
1915.000000	567.000000	12.105122
1916.000000	566.000000	11.994464
1917.000000	565.000000	11.841780
1918.000000	564.000000	11.712234
1919.000000	563.000000	11.597520
1920.000000	562.000000	11.434038
1921.000000	561.000000	11.273649
1922.000000	560.000000	11.156733
1923.000000	559.000000	11.059031
1924.000000	558.000000	10.980019
1925.000000	557.000000	10.904653
1926.000000	556.000000	10.826029
1927.000000	555.000000	10.743986
1928.000000	554.000000	10.671291
1929.000000	553.000000	10.599360
1930.000000	552.000000	10.553585
1931.000000	551.000000	10.502755
1932.000000	550.000000	10.479073
1933.000000	549.000000	10.449062
1934.000000	548.000000	10.421415
1935.000000	547.000000	10.420985
1936.000000	546.000000	10.399310
1937.000000	545.000000	10.405642
1938.000000	544.000000	10.393228
1939.000000	543.000000	10.374369
1940.000000	542.000000	10.404704
1941.000000	541.000000	10.417315
1942.000000	540.000000	10.441202
1943.000000	539.000000	10.455373
1944.000000	538.000000	10.498810
1945.000000	537.000000	10.515826
1946.000000	536.000000	10.551984
1947.000000	535.000000	10.597499
1948.000000	534.000000	10.642421
1949.000000	533.000000	10.688302
1950.000000	532.000000	10.727218
1951.000000	531.000000	10.779239
1952.000000	530.000000	10.829596
1953.000000	529.000000	10.888724
1954.000000	528.000000	10.941402
1955.000000	527.000000	10.997011
1956.000000	526.000000	11.057118
1957.000000	525.000000	11.118600
1958.000000	524.000000	11.176441
1959.000000	523.000000	11.244705
1960.000000	522.000000	11.306893
1961.000000	521.000000	11.372854
1962.000000	520.000000	11.437768
1963.000000	519.000000	11.494772
1964.000000	518.000000	11.577762
1965.000000	517.000000	11.641281
1966.000000	516.000000	11.696993
1967.000000	515.000000	11.772940
1968.000000	514.000000	11.842990
1969.000000	513.000000	11.914692
1970.000000	512.000000	11.981864
1971.000000	511.000000	12.062562
1972.000000	510.000000	12.132635
1973.000000	509.000000	12.196809
1974.000000	508.000000	12.266550
1975.000000	507.000000	12.337765
1976.000000	506.000000	12.417900
1977.000000	505.000000	12.505713
1978.000000	504.000000	12.577999
1979.000000	503.000000	12.655650
1980.000000	502.000000	12.732424
1981.000000	501.000000	12.806678
1982.000000	500.000000	12.873351
1983.000000	499.000000	12.968074
1984.000000	498.000000	13.046899
1985.000000	497.000000	13.124590
1986.000000	496.000000	13.194782
1987.000000	495.000000	13.278832
1988.000000	494.000000	13.339830
1989.000000	493.000000	13.419617
1990.000000	492.000000	13.496647
1991.000000	491.000000	13.564351
1992.000000	490.000000	13.626862
1993.000000	489.000000	13.702679
1994.000000	488.000000	13.762035
1995.000000	487.000000	13.820857
1996.000000	486.000000	13.886993
1997.000000	485.000000	13.948140
1998.000000	484.000000	14.010442
1999.000000	483.000000	14.071080
