PE UV       SUBTECH     SPECTRUM    ASCII       PEDS        4.00        
   -1
CICIMAUCR0071-3.Sample.ASC
24/04/18
16:44:28.00
24/04/18
16:44:28.00
Vinicio Soto Monge
C. resplendens
250,000000
1
Lambda 1050
1050L1511233
PerkinElmer UV WinLab 6.3.2.0749 / 2.02.05 Lambda 900 UV/VIS/NIR, Aug  7 2015 09:38:08

0
0
3350/servo 860,8/2
0
0
UV/VIS
1
1
1
DoubleDePol,CommonBeamDepol,RBeamAtt,SBeamAtt,60mm sphere, WB InGaAs Detector
0
0
0
0
Program
Program
3350/servo 860,8/2
3350/0,2 860,8/0,2
3350/0,2 860,8/0,2
0
15.00
 
 
 
0
 
860,8
319,2
860,8
Front
100
on
S:100 R:100
0
0
0
0
 
0
 
 
 
0
 
 
0
0
0
0
0
 
 
 
 
0
0


0
0
#HDR
-1
-1
#GR
nm
%R
1.0
0.0
2500,000000
-1,000000
2251
8
72,832800
4,915400
#DATA
250.000000	0.783569
251.000000	0.733183
252.000000	0.738990
253.000000	0.761784
254.000000	0.730349
255.000000	0.760016
256.000000	0.718283
257.000000	0.717482
258.000000	0.698176
259.000000	0.784996
260.000000	0.704347
261.000000	0.700208
262.000000	0.686235
263.000000	0.718215
264.000000	0.688136
265.000000	0.657611
266.000000	0.691017
267.000000	0.669951
268.000000	0.692298
269.000000	0.652198
270.000000	0.651817
271.000000	0.648488
272.000000	0.654015
273.000000	0.664746
274.000000	0.665410
275.000000	0.611022
276.000000	0.635873
277.000000	0.664762
278.000000	0.621198
279.000000	0.633926
280.000000	0.631587
281.000000	0.681492
282.000000	0.603831
283.000000	0.601805
284.000000	0.631954
285.000000	0.614802
286.000000	0.610336
287.000000	0.621453
288.000000	0.565247
289.000000	0.618756
290.000000	0.584712
291.000000	0.604593
292.000000	0.587773
293.000000	0.607252
294.000000	0.585123
295.000000	0.590634
296.000000	0.587123
297.000000	0.558961
298.000000	0.605205
299.000000	0.571897
300.000000	0.550146
301.000000	0.558646
302.000000	0.554978
303.000000	0.553919
304.000000	0.548790
305.000000	0.493581
306.000000	0.540825
307.000000	0.552765
308.000000	0.578416
309.000000	0.529745
310.000000	0.544662
311.000000	0.557169
312.000000	0.558650
313.000000	0.517601
314.000000	0.496318
315.000000	0.471121
316.000000	0.484907
317.000000	0.164445
318.000000	0.343044
319.000000	0.285970
320.000000	0.441967
321.000000	0.702352
322.000000	0.468260
323.000000	0.387963
324.000000	0.466567
325.000000	0.484531
326.000000	0.419905
327.000000	0.549074
328.000000	0.357604
329.000000	0.406205
330.000000	0.450561
331.000000	0.340788
332.000000	0.430044
333.000000	0.466440
334.000000	0.437650
335.000000	0.483537
336.000000	0.419736
337.000000	0.431614
338.000000	0.481018
339.000000	0.444199
340.000000	0.432854
341.000000	0.456634
342.000000	0.410601
343.000000	0.392675
344.000000	0.403866
345.000000	0.453860
346.000000	0.382231
347.000000	0.380674
348.000000	0.374333
349.000000	0.343124
350.000000	0.345645
351.000000	0.396789
352.000000	0.368564
353.000000	0.396270
354.000000	0.407238
355.000000	0.371526
356.000000	0.391215
357.000000	0.441411
358.000000	0.440759
359.000000	0.375351
360.000000	0.367641
361.000000	0.353760
362.000000	0.366612
363.000000	0.353066
364.000000	0.360256
365.000000	0.337643
366.000000	0.326221
367.000000	0.320321
368.000000	0.304955
369.000000	0.305304
370.000000	0.255850
371.000000	0.257126
372.000000	0.294786
373.000000	0.231819
374.000000	0.154947
375.000000	0.188245
376.000000	0.118400
377.000000	0.068377
378.000000	0.031064
379.000000	0.013799
380.000000	0.065241
381.000000	0.101848
382.000000	0.161369
383.000000	0.217320
384.000000	0.274099
385.000000	0.326180
386.000000	0.379406
387.000000	0.421897
388.000000	0.477511
389.000000	0.524987
390.000000	0.580344
391.000000	0.627012
392.000000	0.655559
393.000000	0.701483
394.000000	0.734911
395.000000	0.760869
396.000000	0.777826
397.000000	0.790571
398.000000	0.808937
399.000000	0.817470
400.000000	0.819058
401.000000	0.803539
402.000000	0.778789
403.000000	0.742217
404.000000	0.695271
405.000000	0.643902
406.000000	0.595600
407.000000	0.524232
408.000000	0.449085
409.000000	0.366218
410.000000	0.266964
411.000000	0.154988
412.000000	0.032143
413.000000	0.065420
414.000000	0.177336
415.000000	0.305308
416.000000	0.435345
417.000000	0.563738
418.000000	0.693359
419.000000	0.824369
420.000000	0.975402
421.000000	1.115314
422.000000	1.244147
423.000000	1.364602
424.000000	1.504920
425.000000	1.642912
426.000000	1.760032
427.000000	1.886598
428.000000	2.019368
429.000000	2.152398
430.000000	2.269525
431.000000	2.379224
432.000000	2.480055
433.000000	2.587848
434.000000	2.690838
435.000000	2.767465
436.000000	2.850043
437.000000	2.943418
438.000000	3.024262
439.000000	3.093361
440.000000	3.150257
441.000000	3.184223
442.000000	3.230942
443.000000	3.269731
444.000000	3.293780
445.000000	3.312520
446.000000	3.317407
447.000000	3.309310
448.000000	3.293522
449.000000	3.278457
450.000000	3.257329
451.000000	3.221586
452.000000	3.178228
453.000000	3.121040
454.000000	3.056929
455.000000	2.987645
456.000000	2.919101
457.000000	2.849981
458.000000	2.756258
459.000000	2.665420
460.000000	2.576916
461.000000	2.471315
462.000000	2.358281
463.000000	2.250126
464.000000	2.143441
465.000000	2.026453
466.000000	1.923340
467.000000	1.815994
468.000000	1.710555
469.000000	1.608843
470.000000	1.522062
471.000000	1.428874
472.000000	1.343662
473.000000	1.257928
474.000000	1.162499
475.000000	1.071425
476.000000	0.995905
477.000000	0.910515
478.000000	0.844386
479.000000	0.791112
480.000000	0.722975
481.000000	0.647577
482.000000	0.584993
483.000000	0.549747
484.000000	0.514336
485.000000	0.491697
486.000000	0.503639
487.000000	0.506525
488.000000	0.527189
489.000000	0.516224
490.000000	0.515067
491.000000	0.519772
492.000000	0.526304
493.000000	0.541419
494.000000	0.542527
495.000000	0.549548
496.000000	0.560080
497.000000	0.578206
498.000000	0.611430
499.000000	0.637429
500.000000	0.682818
501.000000	0.740220
502.000000	0.786476
503.000000	0.841832
504.000000	0.916568
505.000000	0.989794
506.000000	1.060628
507.000000	1.161102
508.000000	1.264213
509.000000	1.356963
510.000000	1.461872
511.000000	1.604375
512.000000	1.730195
513.000000	1.882072
514.000000	2.056714
515.000000	2.266778
516.000000	2.507820
517.000000	2.766916
518.000000	3.050172
519.000000	3.398832
520.000000	3.756570
521.000000	4.124010
522.000000	4.510881
523.000000	4.887849
524.000000	5.259738
525.000000	5.614475
526.000000	5.937914
527.000000	6.263581
528.000000	6.544221
529.000000	6.841330
530.000000	7.095625
531.000000	7.334969
532.000000	7.568537
533.000000	7.789403
534.000000	8.023785
535.000000	8.242107
536.000000	8.472527
537.000000	8.670247
538.000000	8.910278
539.000000	9.134360
540.000000	9.376768
541.000000	9.624961
542.000000	9.846351
543.000000	10.070829
544.000000	10.277998
545.000000	10.469240
546.000000	10.634276
547.000000	10.789806
548.000000	10.968939
549.000000	11.109120
550.000000	11.245343
551.000000	11.336055
552.000000	11.440681
553.000000	11.531302
554.000000	11.642133
555.000000	11.727086
556.000000	11.799833
557.000000	11.921021
558.000000	12.046536
559.000000	12.109842
560.000000	12.336483
561.000000	12.489915
562.000000	12.651898
563.000000	12.797020
564.000000	12.915448
565.000000	13.073188
566.000000	13.216114
567.000000	13.343077
568.000000	13.459514
569.000000	13.609491
570.000000	13.716165
571.000000	13.863329
572.000000	14.003852
573.000000	14.078126
574.000000	14.208235
575.000000	14.291658
576.000000	14.407268
577.000000	14.512774
578.000000	14.582139
579.000000	14.683595
580.000000	14.821023
581.000000	14.918657
582.000000	15.051272
583.000000	15.166285
584.000000	15.255980
585.000000	15.369065
586.000000	15.461085
587.000000	15.526795
588.000000	15.653064
589.000000	15.681690
590.000000	15.730835
591.000000	15.779011
592.000000	15.827362
593.000000	15.856813
594.000000	15.792457
595.000000	15.756963
596.000000	15.730664
597.000000	15.652416
598.000000	15.571182
599.000000	15.495113
600.000000	15.410459
601.000000	15.245166
602.000000	15.113769
603.000000	14.955927
604.000000	14.811901
605.000000	14.611251
606.000000	14.440245
607.000000	14.226567
608.000000	14.025832
609.000000	13.836859
610.000000	13.593398
611.000000	13.317697
612.000000	13.059532
613.000000	12.758414
614.000000	12.458117
615.000000	12.134063
616.000000	11.796855
617.000000	11.438084
618.000000	11.017641
619.000000	10.644508
620.000000	10.255749
621.000000	9.842664
622.000000	9.402943
623.000000	9.018563
624.000000	8.537631
625.000000	8.084303
626.000000	7.618279
627.000000	7.170032
628.000000	6.698389
629.000000	6.218907
630.000000	5.731883
631.000000	5.262107
632.000000	4.807644
633.000000	4.372979
634.000000	3.935968
635.000000	3.580674
636.000000	3.262849
637.000000	2.919616
638.000000	2.614487
639.000000	2.411791
640.000000	2.215404
641.000000	2.049028
642.000000	1.878355
643.000000	1.733663
644.000000	1.652868
645.000000	1.602369
646.000000	1.551416
647.000000	1.545416
648.000000	1.613406
649.000000	1.697280
650.000000	1.829159
651.000000	2.048747
652.000000	2.281749
653.000000	2.572882
654.000000	2.848933
655.000000	3.148460
656.000000	3.441661
657.000000	3.762921
658.000000	4.049557
659.000000	4.323756
660.000000	4.675281
661.000000	4.936936
662.000000	5.227198
663.000000	5.495917
664.000000	5.755594
665.000000	5.986963
666.000000	6.199825
667.000000	6.416343
668.000000	6.580597
669.000000	6.774613
670.000000	6.922589
671.000000	7.072105
672.000000	7.219869
673.000000	7.372434
674.000000	7.492295
675.000000	7.613225
676.000000	7.692269
677.000000	7.787380
678.000000	7.872766
679.000000	7.913526
680.000000	7.953904
681.000000	8.005125
682.000000	8.075119
683.000000	8.164708
684.000000	8.155699
685.000000	8.189030
686.000000	8.215177
687.000000	8.255825
688.000000	8.284761
689.000000	8.353447
690.000000	8.354256
691.000000	8.324353
692.000000	8.391357
693.000000	8.413405
694.000000	8.419818
695.000000	8.479644
696.000000	8.488741
697.000000	8.533146
698.000000	8.560227
699.000000	8.579165
700.000000	8.652187
701.000000	8.713488
702.000000	8.756361
703.000000	8.869915
704.000000	8.932982
705.000000	8.990179
706.000000	9.096277
707.000000	9.172165
708.000000	9.237514
709.000000	9.314698
710.000000	9.388630
711.000000	9.460085
712.000000	9.559508
713.000000	9.666883
714.000000	9.761619
715.000000	9.882249
716.000000	10.002157
717.000000	10.094544
718.000000	10.161613
719.000000	10.301389
720.000000	10.400397
721.000000	10.462567
722.000000	10.589589
723.000000	10.732005
724.000000	10.861468
725.000000	10.956803
726.000000	11.091560
727.000000	11.216651
728.000000	11.336649
729.000000	11.463990
730.000000	11.579733
731.000000	11.706618
732.000000	11.853808
733.000000	12.010712
734.000000	12.139738
735.000000	12.238222
736.000000	12.341814
737.000000	12.445016
738.000000	12.559192
739.000000	12.689693
740.000000	12.809081
741.000000	12.911063
742.000000	12.989316
743.000000	13.039383
744.000000	13.070407
745.000000	13.121272
746.000000	13.188020
747.000000	13.183589
748.000000	13.186927
749.000000	13.231904
750.000000	13.243614
751.000000	13.248251
752.000000	13.272843
753.000000	13.325683
754.000000	13.358798
755.000000	13.373100
756.000000	13.408643
757.000000	13.389717
758.000000	13.386898
759.000000	13.430767
760.000000	13.489473
761.000000	13.538125
762.000000	13.570675
763.000000	13.665547
764.000000	13.676828
765.000000	13.633181
766.000000	13.643821
767.000000	13.734851
768.000000	13.738310
769.000000	13.756817
770.000000	13.841569
771.000000	13.853505
772.000000	13.875270
773.000000	13.903865
774.000000	13.973994
775.000000	14.014750
776.000000	14.021489
777.000000	14.019212
778.000000	14.023199
779.000000	14.028542
780.000000	13.986614
781.000000	13.937869
782.000000	13.911713
783.000000	13.835342
784.000000	13.802292
785.000000	13.731977
786.000000	13.693079
787.000000	13.608415
788.000000	13.538266
789.000000	13.469380
790.000000	13.387125
791.000000	13.257976
792.000000	13.183930
793.000000	13.201829
794.000000	13.121214
795.000000	13.022081
796.000000	13.020764
797.000000	12.995045
798.000000	12.971843
799.000000	12.957635
800.000000	12.918226
801.000000	12.916484
802.000000	12.880628
803.000000	12.822018
804.000000	12.774823
805.000000	12.837739
806.000000	12.831437
807.000000	12.720583
808.000000	12.724148
809.000000	12.706748
810.000000	12.590977
811.000000	12.595871
812.000000	12.500327
813.000000	12.352064
814.000000	12.267856
815.000000	12.155944
816.000000	11.995983
817.000000	11.936874
818.000000	11.781216
819.000000	11.699426
820.000000	11.512099
821.000000	11.295292
822.000000	11.273626
823.000000	11.186066
824.000000	10.872454
825.000000	10.743286
826.000000	10.694569
827.000000	10.526921
828.000000	10.447146
829.000000	10.350461
830.000000	10.240053
831.000000	10.097314
832.000000	10.015648
833.000000	10.022782
834.000000	9.951169
835.000000	9.730349
836.000000	9.861500
837.000000	9.732841
838.000000	9.680934
839.000000	9.618357
840.000000	9.645211
841.000000	9.525038
842.000000	9.578904
843.000000	9.685342
844.000000	9.535527
845.000000	9.527651
846.000000	9.577765
847.000000	9.815533
848.000000	9.535330
849.000000	9.663544
850.000000	9.803437
851.000000	9.588239
852.000000	9.630578
853.000000	9.806670
854.000000	9.785732
855.000000	9.273761
856.000000	9.510316
857.000000	9.576264
858.000000	9.453414
859.000000	9.670839
860.000000	9.653415
861.000000	9.569408
862.000000	9.493342
863.000000	9.431139
864.000000	9.362604
865.000000	9.244140
866.000000	9.201216
867.000000	9.123622
868.000000	9.074882
869.000000	8.976012
870.000000	8.930545
871.000000	8.901255
872.000000	8.806685
873.000000	8.759948
874.000000	8.669547
875.000000	8.599189
876.000000	8.547208
877.000000	8.479194
878.000000	8.409080
879.000000	8.361108
880.000000	8.304723
881.000000	8.259539
882.000000	8.240101
883.000000	8.186512
884.000000	8.139196
885.000000	8.117719
886.000000	8.088773
887.000000	8.050932
888.000000	8.041057
889.000000	7.994457
890.000000	7.974775
891.000000	7.960087
892.000000	7.968133
893.000000	7.956066
894.000000	7.976149
895.000000	7.956605
896.000000	7.939929
897.000000	7.933964
898.000000	7.911983
899.000000	7.905412
900.000000	7.879798
901.000000	7.887583
902.000000	7.886834
903.000000	7.887747
904.000000	7.885247
905.000000	7.896031
906.000000	7.884931
907.000000	7.873721
908.000000	7.877609
909.000000	7.877510
910.000000	7.837682
911.000000	7.847337
912.000000	7.820635
913.000000	7.802560
914.000000	7.787502
915.000000	7.756119
916.000000	7.764199
917.000000	7.729631
918.000000	7.690695
919.000000	7.684383
920.000000	7.654183
921.000000	7.603231
922.000000	7.559085
923.000000	7.523454
924.000000	7.500949
925.000000	7.469468
926.000000	7.463686
927.000000	7.400945
928.000000	7.373203
929.000000	7.332101
930.000000	7.304427
931.000000	7.256152
932.000000	7.235934
933.000000	7.185948
934.000000	7.138470
935.000000	7.128413
936.000000	7.106242
937.000000	7.088634
938.000000	7.042878
939.000000	7.001542
940.000000	6.987071
941.000000	6.935484
942.000000	6.901966
943.000000	6.870946
944.000000	6.841396
945.000000	6.789949
946.000000	6.768043
947.000000	6.744019
948.000000	6.684388
949.000000	6.655810
950.000000	6.616967
951.000000	6.595884
952.000000	6.534859
953.000000	6.488023
954.000000	6.441625
955.000000	6.410830
956.000000	6.384715
957.000000	6.331873
958.000000	6.278208
959.000000	6.227804
960.000000	6.190855
961.000000	6.155014
962.000000	6.114038
963.000000	6.069556
964.000000	5.999877
965.000000	5.944543
966.000000	5.906547
967.000000	5.858896
968.000000	5.812134
969.000000	5.754162
970.000000	5.701981
971.000000	5.661423
972.000000	5.610800
973.000000	5.558172
974.000000	5.506216
975.000000	5.454365
976.000000	5.415567
977.000000	5.363511
978.000000	5.314168
979.000000	5.280745
980.000000	5.238790
981.000000	5.194055
982.000000	5.146724
983.000000	5.110045
984.000000	5.068374
985.000000	5.046928
986.000000	5.009292
987.000000	4.950830
988.000000	4.908769
989.000000	4.889166
990.000000	4.868388
991.000000	4.822038
992.000000	4.792934
993.000000	4.763876
994.000000	4.739466
995.000000	4.699595
996.000000	4.690709
997.000000	4.667166
998.000000	4.638521
999.000000	4.611726
1000.000000	4.583549
1001.000000	4.573819
1002.000000	4.557932
1003.000000	4.528434
1004.000000	4.507217
1005.000000	4.494690
1006.000000	4.459089
1007.000000	4.424868
1008.000000	4.420490
1009.000000	4.407423
1010.000000	4.383919
1011.000000	4.374144
1012.000000	4.369120
1013.000000	4.351823
1014.000000	4.326780
1015.000000	4.313170
1016.000000	4.309260
1017.000000	4.288199
1018.000000	4.272956
1019.000000	4.253794
1020.000000	4.227361
1021.000000	4.219604
1022.000000	4.211982
1023.000000	4.203635
1024.000000	4.196044
1025.000000	4.185087
1026.000000	4.176658
1027.000000	4.168596
1028.000000	4.151071
1029.000000	4.136759
1030.000000	4.129966
1031.000000	4.128471
1032.000000	4.117267
1033.000000	4.107156
1034.000000	4.102865
1035.000000	4.103398
1036.000000	4.098307
1037.000000	4.086823
1038.000000	4.087412
1039.000000	4.081771
1040.000000	4.066898
1041.000000	4.056936
1042.000000	4.053893
1043.000000	4.050028
1044.000000	4.035209
1045.000000	4.030546
1046.000000	4.029830
1047.000000	4.018513
1048.000000	4.005089
1049.000000	4.000171
1050.000000	4.005444
1051.000000	4.010365
1052.000000	4.001729
1053.000000	3.995717
1054.000000	3.990689
1055.000000	4.003186
1056.000000	4.005849
1057.000000	4.000601
1058.000000	4.005869
1059.000000	4.009750
1060.000000	4.013506
1061.000000	4.006012
1062.000000	4.001605
1063.000000	4.005033
1064.000000	4.011155
1065.000000	4.017958
1066.000000	4.026868
1067.000000	4.028720
1068.000000	4.043080
1069.000000	4.050218
1070.000000	4.053185
1071.000000	4.066199
1072.000000	4.071170
1073.000000	4.070099
1074.000000	4.085362
1075.000000	4.099169
1076.000000	4.099687
1077.000000	4.098959
1078.000000	4.103572
1079.000000	4.119555
1080.000000	4.124798
1081.000000	4.122127
1082.000000	4.139330
1083.000000	4.148638
1084.000000	4.146566
1085.000000	4.156043
1086.000000	4.164628
1087.000000	4.171977
1088.000000	4.181485
1089.000000	4.178656
1090.000000	4.178169
1091.000000	4.189235
1092.000000	4.201747
1093.000000	4.202867
1094.000000	4.194551
1095.000000	4.202194
1096.000000	4.208579
1097.000000	4.223230
1098.000000	4.226582
1099.000000	4.207238
1100.000000	4.221175
1101.000000	4.221558
1102.000000	4.227766
1103.000000	4.230176
1104.000000	4.211209
1105.000000	4.216738
1106.000000	4.227116
1107.000000	4.222420
1108.000000	4.219234
1109.000000	4.216536
1110.000000	4.220206
1111.000000	4.213460
1112.000000	4.217224
1113.000000	4.204476
1114.000000	4.207324
1115.000000	4.200026
1116.000000	4.203131
1117.000000	4.208058
1118.000000	4.207067
1119.000000	4.194262
1120.000000	4.197161
1121.000000	4.190152
1122.000000	4.185044
1123.000000	4.184461
1124.000000	4.174254
1125.000000	4.170140
1126.000000	4.168870
1127.000000	4.158999
1128.000000	4.147748
1129.000000	4.143852
1130.000000	4.152561
1131.000000	4.117038
1132.000000	4.099460
1133.000000	4.090936
1134.000000	4.079325
1135.000000	4.080034
1136.000000	4.086905
1137.000000	4.043116
1138.000000	4.020440
1139.000000	3.986717
1140.000000	3.992790
1141.000000	3.973474
1142.000000	3.959335
1143.000000	3.945668
1144.000000	3.934570
1145.000000	3.932863
1146.000000	3.931067
1147.000000	3.920009
1148.000000	3.908969
1149.000000	3.900493
1150.000000	3.892948
1151.000000	3.883380
1152.000000	3.874822
1153.000000	3.871341
1154.000000	3.850210
1155.000000	3.840193
1156.000000	3.822879
1157.000000	3.812652
1158.000000	3.806202
1159.000000	3.784942
1160.000000	3.763827
1161.000000	3.740337
1162.000000	3.727633
1163.000000	3.712227
1164.000000	3.674792
1165.000000	3.664523
1166.000000	3.630193
1167.000000	3.627654
1168.000000	3.608004
1169.000000	3.599615
1170.000000	3.580180
1171.000000	3.572205
1172.000000	3.557106
1173.000000	3.548418
1174.000000	3.548617
1175.000000	3.527974
1176.000000	3.515322
1177.000000	3.503581
1178.000000	3.504213
1179.000000	3.496270
1180.000000	3.459389
1181.000000	3.453571
1182.000000	3.444695
1183.000000	3.427125
1184.000000	3.423975
1185.000000	3.415232
1186.000000	3.401577
1187.000000	3.405853
1188.000000	3.391406
1189.000000	3.401545
1190.000000	3.402421
1191.000000	3.406969
1192.000000	3.416462
1193.000000	3.421981
1194.000000	3.428171
1195.000000	3.434086
1196.000000	3.446766
1197.000000	3.453830
1198.000000	3.469374
1199.000000	3.482325
1200.000000	3.476644
1201.000000	3.495064
1202.000000	3.496260
1203.000000	3.506445
1204.000000	3.520167
1205.000000	3.527134
1206.000000	3.530757
1207.000000	3.535800
1208.000000	3.555868
1209.000000	3.554472
1210.000000	3.562037
1211.000000	3.582704
1212.000000	3.581031
1213.000000	3.581567
1214.000000	3.588365
1215.000000	3.595975
1216.000000	3.614926
1217.000000	3.623109
1218.000000	3.621165
1219.000000	3.629950
1220.000000	3.644101
1221.000000	3.660046
1222.000000	3.669460
1223.000000	3.678771
1224.000000	3.697261
1225.000000	3.705231
1226.000000	3.725571
1227.000000	3.722873
1228.000000	3.736357
1229.000000	3.748318
1230.000000	3.750014
1231.000000	3.772438
1232.000000	3.780409
1233.000000	3.780713
1234.000000	3.794720
1235.000000	3.802645
1236.000000	3.806570
1237.000000	3.824351
1238.000000	3.834635
1239.000000	3.844695
1240.000000	3.865097
1241.000000	3.865624
1242.000000	3.883258
1243.000000	3.905829
1244.000000	3.917387
1245.000000	3.931137
1246.000000	3.934698
1247.000000	3.946200
1248.000000	3.969728
1249.000000	3.981622
1250.000000	3.973191
1251.000000	3.981732
1252.000000	3.996134
1253.000000	3.995908
1254.000000	3.999842
1255.000000	4.008393
1256.000000	4.028637
1257.000000	4.019746
1258.000000	4.024175
1259.000000	4.021921
1260.000000	4.025937
1261.000000	4.032816
1262.000000	4.031232
1263.000000	4.029647
1264.000000	4.024706
1265.000000	4.028509
1266.000000	4.029982
1267.000000	4.029706
1268.000000	4.033176
1269.000000	4.037746
1270.000000	4.037729
1271.000000	4.031379
1272.000000	4.031740
1273.000000	4.037202
1274.000000	4.037236
1275.000000	4.036440
1276.000000	4.046298
1277.000000	4.058670
1278.000000	4.060956
1279.000000	4.056514
1280.000000	4.054902
1281.000000	4.065762
1282.000000	4.076428
1283.000000	4.080389
1284.000000	4.085114
1285.000000	4.095942
1286.000000	4.105377
1287.000000	4.112566
1288.000000	4.114188
1289.000000	4.119909
1290.000000	4.120515
1291.000000	4.114828
1292.000000	4.113961
1293.000000	4.121934
1294.000000	4.134296
1295.000000	4.141891
1296.000000	4.135219
1297.000000	4.134595
1298.000000	4.137903
1299.000000	4.138559
1300.000000	4.134287
1301.000000	4.130829
1302.000000	4.135353
1303.000000	4.124979
1304.000000	4.120098
1305.000000	4.122016
1306.000000	4.116009
1307.000000	4.105258
1308.000000	4.095143
1309.000000	4.089718
1310.000000	4.084271
1311.000000	4.074053
1312.000000	4.066615
1313.000000	4.059961
1314.000000	4.047686
1315.000000	4.041508
1316.000000	4.034044
1317.000000	4.017139
1318.000000	4.009895
1319.000000	4.005613
1320.000000	3.994635
1321.000000	3.983166
1322.000000	3.978732
1323.000000	3.972960
1324.000000	3.956705
1325.000000	3.946612
1326.000000	3.940847
1327.000000	3.932212
1328.000000	3.916412
1329.000000	3.908591
1330.000000	3.885499
1331.000000	3.875691
1332.000000	3.870691
1333.000000	3.856934
1334.000000	3.845242
1335.000000	3.823633
1336.000000	3.798883
1337.000000	3.786857
1338.000000	3.777797
1339.000000	3.765812
1340.000000	3.743226
1341.000000	3.716614
1342.000000	3.706594
1343.000000	3.680388
1344.000000	3.662468
1345.000000	3.647040
1346.000000	3.622506
1347.000000	3.605970
1348.000000	3.572556
1349.000000	3.537498
1350.000000	3.513752
1351.000000	3.491703
1352.000000	3.463547
1353.000000	3.432439
1354.000000	3.423349
1355.000000	3.417072
1356.000000	3.394893
1357.000000	3.373033
1358.000000	3.358225
1359.000000	3.364822
1360.000000	3.325898
1361.000000	3.325021
1362.000000	3.314326
1363.000000	3.323978
1364.000000	3.315567
1365.000000	3.338254
1366.000000	3.315536
1367.000000	3.284796
1368.000000	3.282044
1369.000000	3.266515
1370.000000	3.242048
1371.000000	3.236792
1372.000000	3.235805
1373.000000	3.209608
1374.000000	3.178194
1375.000000	3.159514
1376.000000	3.153771
1377.000000	3.128803
1378.000000	3.105466
1379.000000	3.075511
1380.000000	3.041073
1381.000000	3.034235
1382.000000	3.053721
1383.000000	3.046469
1384.000000	3.015625
1385.000000	2.973406
1386.000000	2.928723
1387.000000	2.878122
1388.000000	2.851424
1389.000000	2.825099
1390.000000	2.753351
1391.000000	2.692777
1392.000000	2.687629
1393.000000	2.640205
1394.000000	2.589392
1395.000000	2.546853
1396.000000	2.571843
1397.000000	2.516783
1398.000000	2.432441
1399.000000	2.354809
1400.000000	2.362238
1401.000000	2.346971
1402.000000	2.287392
1403.000000	2.206318
1404.000000	2.141723
1405.000000	2.105239
1406.000000	2.055667
1407.000000	2.002662
1408.000000	1.967098
1409.000000	1.930203
1410.000000	1.883325
1411.000000	1.833374
1412.000000	1.793542
1413.000000	1.727922
1414.000000	1.701862
1415.000000	1.695444
1416.000000	1.631004
1417.000000	1.543615
1418.000000	1.552392
1419.000000	1.535026
1420.000000	1.529187
1421.000000	1.473390
1422.000000	1.438398
1423.000000	1.435344
1424.000000	1.409405
1425.000000	1.392219
1426.000000	1.353848
1427.000000	1.324535
1428.000000	1.317191
1429.000000	1.299631
1430.000000	1.283210
1431.000000	1.251630
1432.000000	1.245154
1433.000000	1.234582
1434.000000	1.238465
1435.000000	1.209350
1436.000000	1.195448
1437.000000	1.181777
1438.000000	1.169104
1439.000000	1.170511
1440.000000	1.154051
1441.000000	1.139605
1442.000000	1.138225
1443.000000	1.120984
1444.000000	1.108502
1445.000000	1.103683
1446.000000	1.101530
1447.000000	1.089074
1448.000000	1.062200
1449.000000	1.059883
1450.000000	1.056529
1451.000000	1.068217
1452.000000	1.049237
1453.000000	1.026756
1454.000000	1.015820
1455.000000	1.022062
1456.000000	1.011121
1457.000000	0.998099
1458.000000	0.989710
1459.000000	0.988276
1460.000000	0.984703
1461.000000	0.973939
1462.000000	0.973450
1463.000000	0.966424
1464.000000	0.961374
1465.000000	0.942639
1466.000000	0.947392
1467.000000	0.959619
1468.000000	0.938517
1469.000000	0.937233
1470.000000	0.941916
1471.000000	0.932755
1472.000000	0.917869
1473.000000	0.935502
1474.000000	0.926334
1475.000000	0.905444
1476.000000	0.906571
1477.000000	0.915243
1478.000000	0.914869
1479.000000	0.919185
1480.000000	0.906064
1481.000000	0.915710
1482.000000	0.913515
1483.000000	0.917653
1484.000000	0.916396
1485.000000	0.927895
1486.000000	0.926867
1487.000000	0.926561
1488.000000	0.926945
1489.000000	0.932430
1490.000000	0.936551
1491.000000	0.944925
1492.000000	0.942767
1493.000000	0.949667
1494.000000	0.952271
1495.000000	0.953043
1496.000000	0.951792
1497.000000	0.960543
1498.000000	0.963669
1499.000000	0.971488
1500.000000	0.981160
1501.000000	0.975919
1502.000000	0.984164
1503.000000	0.995424
1504.000000	0.999381
1505.000000	1.001598
1506.000000	1.015287
1507.000000	1.022080
1508.000000	1.030006
1509.000000	1.038542
1510.000000	1.039161
1511.000000	1.044200
1512.000000	1.058379
1513.000000	1.054235
1514.000000	1.069289
1515.000000	1.074890
1516.000000	1.086630
1517.000000	1.086112
1518.000000	1.087549
1519.000000	1.091804
1520.000000	1.089751
1521.000000	1.090548
1522.000000	1.107672
1523.000000	1.112370
1524.000000	1.117818
1525.000000	1.125601
1526.000000	1.126990
1527.000000	1.124012
1528.000000	1.122647
1529.000000	1.133792
1530.000000	1.131717
1531.000000	1.134957
1532.000000	1.149334
1533.000000	1.163313
1534.000000	1.168591
1535.000000	1.158238
1536.000000	1.162350
1537.000000	1.171576
1538.000000	1.170402
1539.000000	1.172428
1540.000000	1.177156
1541.000000	1.173573
1542.000000	1.179280
1543.000000	1.181342
1544.000000	1.181329
1545.000000	1.183618
1546.000000	1.188114
1547.000000	1.199060
1548.000000	1.217762
1549.000000	1.230006
1550.000000	1.222177
1551.000000	1.208311
1552.000000	1.229848
1553.000000	1.243876
1554.000000	1.254669
1555.000000	1.258447
1556.000000	1.251809
1557.000000	1.255595
1558.000000	1.254600
1559.000000	1.260011
1560.000000	1.264219
1561.000000	1.264099
1562.000000	1.270594
1563.000000	1.276414
1564.000000	1.259953
1565.000000	1.256603
1566.000000	1.263545
1567.000000	1.256518
1568.000000	1.250903
1569.000000	1.247741
1570.000000	1.257031
1571.000000	1.253522
1572.000000	1.255701
1573.000000	1.271493
1574.000000	1.266322
1575.000000	1.271668
1576.000000	1.275948
1577.000000	1.275393
1578.000000	1.276861
1579.000000	1.270439
1580.000000	1.274891
1581.000000	1.280168
1582.000000	1.288881
1583.000000	1.296790
1584.000000	1.308418
1585.000000	1.315703
1586.000000	1.321256
1587.000000	1.325031
1588.000000	1.329241
1589.000000	1.332955
1590.000000	1.344546
1591.000000	1.350248
1592.000000	1.359981
1593.000000	1.370254
1594.000000	1.373391
1595.000000	1.380868
1596.000000	1.376816
1597.000000	1.380239
1598.000000	1.396915
1599.000000	1.414833
1600.000000	1.426497
1601.000000	1.437407
1602.000000	1.437992
1603.000000	1.452676
1604.000000	1.461123
1605.000000	1.465063
1606.000000	1.476451
1607.000000	1.486036
1608.000000	1.491896
1609.000000	1.498753
1610.000000	1.516166
1611.000000	1.522937
1612.000000	1.529948
1613.000000	1.534754
1614.000000	1.539408
1615.000000	1.548197
1616.000000	1.553782
1617.000000	1.559335
1618.000000	1.566432
1619.000000	1.570173
1620.000000	1.578406
1621.000000	1.578826
1622.000000	1.581545
1623.000000	1.595256
1624.000000	1.594453
1625.000000	1.607476
1626.000000	1.605140
1627.000000	1.612384
1628.000000	1.632358
1629.000000	1.623132
1630.000000	1.621812
1631.000000	1.627796
1632.000000	1.647345
1633.000000	1.648994
1634.000000	1.656769
1635.000000	1.655099
1636.000000	1.658736
1637.000000	1.658919
1638.000000	1.670085
1639.000000	1.669466
1640.000000	1.667547
1641.000000	1.672748
1642.000000	1.692438
1643.000000	1.678788
1644.000000	1.680908
1645.000000	1.687734
1646.000000	1.692869
1647.000000	1.700710
1648.000000	1.701260
1649.000000	1.704054
1650.000000	1.701745
1651.000000	1.704546
1652.000000	1.696545
1653.000000	1.703775
1654.000000	1.690790
1655.000000	1.697573
1656.000000	1.688578
1657.000000	1.696850
1658.000000	1.691226
1659.000000	1.680260
1660.000000	1.664939
1661.000000	1.649300
1662.000000	1.653670
1663.000000	1.663496
1664.000000	1.640229
1665.000000	1.630274
1666.000000	1.628161
1667.000000	1.611920
1668.000000	1.621572
1669.000000	1.597344
1670.000000	1.592903
1671.000000	1.571547
1672.000000	1.561492
1673.000000	1.546440
1674.000000	1.542827
1675.000000	1.521437
1676.000000	1.515138
1677.000000	1.487050
1678.000000	1.463326
1679.000000	1.472628
1680.000000	1.445314
1681.000000	1.434916
1682.000000	1.427147
1683.000000	1.406475
1684.000000	1.372949
1685.000000	1.354729
1686.000000	1.363472
1687.000000	1.348742
1688.000000	1.342938
1689.000000	1.342437
1690.000000	1.354573
1691.000000	1.350319
1692.000000	1.362931
1693.000000	1.365765
1694.000000	1.378236
1695.000000	1.371224
1696.000000	1.381592
1697.000000	1.386708
1698.000000	1.397976
1699.000000	1.397710
1700.000000	1.398171
1701.000000	1.396954
1702.000000	1.401807
1703.000000	1.398807
1704.000000	1.393740
1705.000000	1.389873
1706.000000	1.391379
1707.000000	1.400579
1708.000000	1.388290
1709.000000	1.390930
1710.000000	1.369281
1711.000000	1.360159
1712.000000	1.360457
1713.000000	1.356986
1714.000000	1.335913
1715.000000	1.322977
1716.000000	1.314375
1717.000000	1.296440
1718.000000	1.277017
1719.000000	1.270396
1720.000000	1.255270
1721.000000	1.229363
1722.000000	1.218557
1723.000000	1.217178
1724.000000	1.211224
1725.000000	1.222967
1726.000000	1.216038
1727.000000	1.225935
1728.000000	1.211982
1729.000000	1.225602
1730.000000	1.232163
1731.000000	1.239329
1732.000000	1.246199
1733.000000	1.252891
1734.000000	1.260300
1735.000000	1.277616
1736.000000	1.274615
1737.000000	1.282450
1738.000000	1.301736
1739.000000	1.302397
1740.000000	1.315663
1741.000000	1.323292
1742.000000	1.331505
1743.000000	1.335963
1744.000000	1.333996
1745.000000	1.350081
1746.000000	1.353873
1747.000000	1.370784
1748.000000	1.363544
1749.000000	1.361282
1750.000000	1.363399
1751.000000	1.364480
1752.000000	1.368526
1753.000000	1.367010
1754.000000	1.375934
1755.000000	1.375047
1756.000000	1.374599
1757.000000	1.370760
1758.000000	1.366964
1759.000000	1.361980
1760.000000	1.368054
1761.000000	1.370665
1762.000000	1.367137
1763.000000	1.368142
1764.000000	1.363688
1765.000000	1.355552
1766.000000	1.372973
1767.000000	1.387029
1768.000000	1.387714
1769.000000	1.383145
1770.000000	1.383325
1771.000000	1.390759
1772.000000	1.391968
1773.000000	1.399919
1774.000000	1.402765
1775.000000	1.404937
1776.000000	1.409779
1777.000000	1.407981
1778.000000	1.415791
1779.000000	1.416277
1780.000000	1.398714
1781.000000	1.399587
1782.000000	1.405299
1783.000000	1.407729
1784.000000	1.401098
1785.000000	1.411672
1786.000000	1.412111
1787.000000	1.416279
1788.000000	1.401659
1789.000000	1.406525
1790.000000	1.413771
1791.000000	1.408638
1792.000000	1.399623
1793.000000	1.402728
1794.000000	1.409628
1795.000000	1.414989
1796.000000	1.412948
1797.000000	1.421161
1798.000000	1.413595
1799.000000	1.408420
1800.000000	1.419788
1801.000000	1.433280
1802.000000	1.444259
1803.000000	1.437107
1804.000000	1.422374
1805.000000	1.423298
1806.000000	1.439190
1807.000000	1.455891
1808.000000	1.452351
1809.000000	1.442455
1810.000000	1.429853
1811.000000	1.443338
1812.000000	1.461063
1813.000000	1.448048
1814.000000	1.440986
1815.000000	1.456585
1816.000000	1.476497
1817.000000	1.472158
1818.000000	1.443224
1819.000000	1.437013
1820.000000	1.471612
1821.000000	1.532094
1822.000000	1.563503
1823.000000	1.538673
1824.000000	1.491252
1825.000000	1.469316
1826.000000	1.483903
1827.000000	1.508054
1828.000000	1.516790
1829.000000	1.514547
1830.000000	1.539743
1831.000000	1.568084
1832.000000	1.553013
1833.000000	1.524675
1834.000000	1.489872
1835.000000	1.499428
1836.000000	1.538344
1837.000000	1.585661
1838.000000	1.616518
1839.000000	1.606225
1840.000000	1.611855
1841.000000	1.649919
1842.000000	1.702989
1843.000000	1.701576
1844.000000	1.635005
1845.000000	1.549535
1846.000000	1.523637
1847.000000	1.590093
1848.000000	1.706561
1849.000000	1.767193
1850.000000	1.723218
1851.000000	1.657368
1852.000000	1.629528
1853.000000	1.630380
1854.000000	1.656352
1855.000000	1.681842
1856.000000	1.667643
1857.000000	1.651923
1858.000000	1.660087
1859.000000	1.680598
1860.000000	1.702236
1861.000000	1.701723
1862.000000	1.688293
1863.000000	1.656120
1864.000000	1.596653
1865.000000	1.570016
1866.000000	1.551173
1867.000000	1.526722
1868.000000	1.531465
1869.000000	1.538512
1870.000000	1.583750
1871.000000	1.629504
1872.000000	1.635619
1873.000000	1.645783
1874.000000	1.641588
1875.000000	1.619990
1876.000000	1.576815
1877.000000	1.534773
1878.000000	1.495482
1879.000000	1.464383
1880.000000	1.399457
1881.000000	1.332182
1882.000000	1.284531
1883.000000	1.259516
1884.000000	1.255834
1885.000000	1.236227
1886.000000	1.196706
1887.000000	1.141719
1888.000000	1.078940
1889.000000	1.040685
1890.000000	1.003539
1891.000000	0.984805
1892.000000	0.977561
1893.000000	0.950664
1894.000000	0.894524
1895.000000	0.825797
1896.000000	0.738131
1897.000000	0.675606
1898.000000	0.656756
1899.000000	0.661964
1900.000000	0.688230
1901.000000	0.662321
1902.000000	0.623932
1903.000000	0.575914
1904.000000	0.549063
1905.000000	0.558143
1906.000000	0.587208
1907.000000	0.576672
1908.000000	0.543778
1909.000000	0.486122
1910.000000	0.426813
1911.000000	0.413760
1912.000000	0.415399
1913.000000	0.429662
1914.000000	0.462913
1915.000000	0.459739
1916.000000	0.449782
1917.000000	0.395456
1918.000000	0.360476
1919.000000	0.356546
1920.000000	0.371848
1921.000000	0.390172
1922.000000	0.406635
1923.000000	0.417412
1924.000000	0.392395
1925.000000	0.386191
1926.000000	0.376136
1927.000000	0.380431
1928.000000	0.379692
1929.000000	0.392210
1930.000000	0.416497
1931.000000	0.399352
1932.000000	0.410175
1933.000000	0.395166
1934.000000	0.398852
1935.000000	0.388427
1936.000000	0.404003
1937.000000	0.409563
1938.000000	0.404144
1939.000000	0.408116
1940.000000	0.418019
1941.000000	0.425813
1942.000000	0.410635
1943.000000	0.410247
1944.000000	0.411132
1945.000000	0.415919
1946.000000	0.422320
1947.000000	0.423880
1948.000000	0.416735
1949.000000	0.443647
1950.000000	0.438523
1951.000000	0.437965
1952.000000	0.413176
1953.000000	0.424104
1954.000000	0.422254
1955.000000	0.434862
1956.000000	0.434274
1957.000000	0.427021
1958.000000	0.421349
1959.000000	0.425888
1960.000000	0.420623
1961.000000	0.441750
1962.000000	0.436448
1963.000000	0.441072
1964.000000	0.447775
1965.000000	0.441502
1966.000000	0.432639
1967.000000	0.443421
1968.000000	0.438748
1969.000000	0.428189
1970.000000	0.413819
1971.000000	0.424999
1972.000000	0.415502
1973.000000	0.430895
1974.000000	0.420607
1975.000000	0.427384
1976.000000	0.412596
1977.000000	0.404876
1978.000000	0.414211
1979.000000	0.411628
1980.000000	0.401750
1981.000000	0.412053
1982.000000	0.430293
1983.000000	0.412191
1984.000000	0.397162
1985.000000	0.395838
1986.000000	0.406289
1987.000000	0.405850
1988.000000	0.420774
1989.000000	0.402281
1990.000000	0.398182
1991.000000	0.410575
1992.000000	0.412360
1993.000000	0.405721
1994.000000	0.399707
1995.000000	0.397104
1996.000000	0.401964
1997.000000	0.414158
1998.000000	0.415019
1999.000000	0.403869
2000.000000	0.418657
2001.000000	0.404639
2002.000000	0.407422
2003.000000	0.413701
2004.000000	0.426884
2005.000000	0.425375
2006.000000	0.425483
2007.000000	0.430472
2008.000000	0.441381
2009.000000	0.428463
2010.000000	0.444738
2011.000000	0.443628
2012.000000	0.445937
2013.000000	0.435275
2014.000000	0.437624
2015.000000	0.443307
2016.000000	0.445657
2017.000000	0.464814
2018.000000	0.457918
2019.000000	0.456657
2020.000000	0.460791
2021.000000	0.451503
2022.000000	0.460465
2023.000000	0.459405
2024.000000	0.461046
2025.000000	0.461530
2026.000000	0.473782
2027.000000	0.472132
2028.000000	0.468674
2029.000000	0.459916
2030.000000	0.461519
2031.000000	0.469945
2032.000000	0.465611
2033.000000	0.461011
2034.000000	0.458570
2035.000000	0.454868
2036.000000	0.455657
2037.000000	0.449851
2038.000000	0.450397
2039.000000	0.456502
2040.000000	0.457902
2041.000000	0.448128
2042.000000	0.435793
2043.000000	0.421649
2044.000000	0.432425
2045.000000	0.435794
2046.000000	0.434037
2047.000000	0.426049
2048.000000	0.423987
2049.000000	0.421799
2050.000000	0.435822
2051.000000	0.444652
2052.000000	0.440611
2053.000000	0.451406
2054.000000	0.446532
2055.000000	0.458840
2056.000000	0.475905
2057.000000	0.483471
2058.000000	0.487818
2059.000000	0.495270
2060.000000	0.503400
2061.000000	0.518512
2062.000000	0.528729
2063.000000	0.544292
2064.000000	0.557009
2065.000000	0.565143
2066.000000	0.575502
2067.000000	0.584858
2068.000000	0.598170
2069.000000	0.606982
2070.000000	0.625821
2071.000000	0.626889
2072.000000	0.627767
2073.000000	0.639713
2074.000000	0.663215
2075.000000	0.669397
2076.000000	0.675094
2077.000000	0.691222
2078.000000	0.699868
2079.000000	0.701810
2080.000000	0.709803
2081.000000	0.706586
2082.000000	0.713371
2083.000000	0.724327
2084.000000	0.733221
2085.000000	0.731750
2086.000000	0.732018
2087.000000	0.744418
2088.000000	0.748299
2089.000000	0.751449
2090.000000	0.753852
2091.000000	0.761994
2092.000000	0.770151
2093.000000	0.771819
2094.000000	0.769491
2095.000000	0.765002
2096.000000	0.773303
2097.000000	0.779281
2098.000000	0.787963
2099.000000	0.784273
2100.000000	0.778910
2101.000000	0.792984
2102.000000	0.793448
2103.000000	0.786690
2104.000000	0.797564
2105.000000	0.807470
2106.000000	0.815566
2107.000000	0.811952
2108.000000	0.816643
2109.000000	0.810485
2110.000000	0.813264
2111.000000	0.822788
2112.000000	0.823249
2113.000000	0.825891
2114.000000	0.832726
2115.000000	0.840745
2116.000000	0.830891
2117.000000	0.828227
2118.000000	0.835843
2119.000000	0.841212
2120.000000	0.832012
2121.000000	0.830846
2122.000000	0.846098
2123.000000	0.845439
2124.000000	0.847128
2125.000000	0.848769
2126.000000	0.857533
2127.000000	0.853120
2128.000000	0.852352
2129.000000	0.857168
2130.000000	0.850466
2131.000000	0.853236
2132.000000	0.850024
2133.000000	0.844037
2134.000000	0.846442
2135.000000	0.840371
2136.000000	0.833220
2137.000000	0.833656
2138.000000	0.822067
2139.000000	0.813631
2140.000000	0.806275
2141.000000	0.794174
2142.000000	0.788758
2143.000000	0.785048
2144.000000	0.780125
2145.000000	0.770907
2146.000000	0.757504
2147.000000	0.744546
2148.000000	0.738154
2149.000000	0.719561
2150.000000	0.704642
2151.000000	0.705894
2152.000000	0.691890
2153.000000	0.693365
2154.000000	0.687398
2155.000000	0.670828
2156.000000	0.661819
2157.000000	0.658346
2158.000000	0.654970
2159.000000	0.649386
2160.000000	0.642575
2161.000000	0.629583
2162.000000	0.624962
2163.000000	0.614178
2164.000000	0.601707
2165.000000	0.597620
2166.000000	0.600200
2167.000000	0.574844
2168.000000	0.574324
2169.000000	0.561893
2170.000000	0.552390
2171.000000	0.535879
2172.000000	0.545867
2173.000000	0.526719
2174.000000	0.526574
2175.000000	0.516702
2176.000000	0.510130
2177.000000	0.505306
2178.000000	0.506992
2179.000000	0.490123
2180.000000	0.494550
2181.000000	0.500701
2182.000000	0.487138
2183.000000	0.500168
2184.000000	0.488596
2185.000000	0.479000
2186.000000	0.491189
2187.000000	0.489200
2188.000000	0.486602
2189.000000	0.480566
2190.000000	0.469831
2191.000000	0.474784
2192.000000	0.467979
2193.000000	0.474144
2194.000000	0.478895
2195.000000	0.469165
2196.000000	0.463670
2197.000000	0.478249
2198.000000	0.501545
2199.000000	0.468326
2200.000000	0.476748
2201.000000	0.487819
2202.000000	0.498451
2203.000000	0.498085
2204.000000	0.500731
2205.000000	0.495175
2206.000000	0.518045
2207.000000	0.519643
2208.000000	0.529608
2209.000000	0.530271
2210.000000	0.539503
2211.000000	0.551919
2212.000000	0.551342
2213.000000	0.555354
2214.000000	0.546654
2215.000000	0.578666
2216.000000	0.586627
2217.000000	0.592148
2218.000000	0.592326
2219.000000	0.585743
2220.000000	0.610047
2221.000000	0.609207
2222.000000	0.613467
2223.000000	0.625365
2224.000000	0.632784
2225.000000	0.646104
2226.000000	0.639990
2227.000000	0.641032
2228.000000	0.640475
2229.000000	0.645009
2230.000000	0.670545
2231.000000	0.663109
2232.000000	0.666144
2233.000000	0.665767
2234.000000	0.661324
2235.000000	0.681431
2236.000000	0.682401
2237.000000	0.657050
2238.000000	0.670639
2239.000000	0.664430
2240.000000	0.685557
2241.000000	0.672873
2242.000000	0.670214
2243.000000	0.668620
2244.000000	0.670492
2245.000000	0.654391
2246.000000	0.661671
2247.000000	0.660967
2248.000000	0.633657
2249.000000	0.633118
2250.000000	0.660069
2251.000000	0.627130
2252.000000	0.616291
2253.000000	0.615230
2254.000000	0.613023
2255.000000	0.612274
2256.000000	0.611892
2257.000000	0.601404
2258.000000	0.596077
2259.000000	0.623344
2260.000000	0.613665
2261.000000	0.610135
2262.000000	0.618420
2263.000000	0.614219
2264.000000	0.624138
2265.000000	0.620331
2266.000000	0.619502
2267.000000	0.627686
2268.000000	0.637150
2269.000000	0.645705
2270.000000	0.627207
2271.000000	0.635355
2272.000000	0.653102
2273.000000	0.670102
2274.000000	0.659943
2275.000000	0.668462
2276.000000	0.672654
2277.000000	0.670404
2278.000000	0.670008
2279.000000	0.689364
2280.000000	0.697119
2281.000000	0.683070
2282.000000	0.684941
2283.000000	0.695526
2284.000000	0.714318
2285.000000	0.706844
2286.000000	0.718335
2287.000000	0.711404
2288.000000	0.718476
2289.000000	0.725955
2290.000000	0.713169
2291.000000	0.721790
2292.000000	0.725861
2293.000000	0.738535
2294.000000	0.740005
2295.000000	0.752213
2296.000000	0.751953
2297.000000	0.759324
2298.000000	0.763183
2299.000000	0.776546
2300.000000	0.781542
2301.000000	0.785386
2302.000000	0.803065
2303.000000	0.806512
2304.000000	0.811483
2305.000000	0.824451
2306.000000	0.817779
2307.000000	0.841037
2308.000000	0.849974
2309.000000	0.845578
2310.000000	0.857347
2311.000000	0.877970
2312.000000	0.886234
2313.000000	0.887608
2314.000000	0.893261
2315.000000	0.903116
2316.000000	0.905020
2317.000000	0.899743
2318.000000	0.919220
2319.000000	0.926858
2320.000000	0.932453
2321.000000	0.933878
2322.000000	0.926496
2323.000000	0.931343
2324.000000	0.933639
2325.000000	0.935447
2326.000000	0.924649
2327.000000	0.930634
2328.000000	0.953836
2329.000000	0.957219
2330.000000	0.963618
2331.000000	0.971159
2332.000000	0.974202
2333.000000	0.986285
2334.000000	0.990853
2335.000000	0.979311
2336.000000	0.988950
2337.000000	1.007879
2338.000000	0.996598
2339.000000	1.010893
2340.000000	1.045383
2341.000000	1.056492
2342.000000	1.053658
2343.000000	1.059279
2344.000000	1.063238
2345.000000	1.061442
2346.000000	1.074560
2347.000000	1.097936
2348.000000	1.108813
2349.000000	1.111093
2350.000000	1.116863
2351.000000	1.138802
2352.000000	1.148350
2353.000000	1.148394
2354.000000	1.155325
2355.000000	1.160711
2356.000000	1.155310
2357.000000	1.147149
2358.000000	1.152899
2359.000000	1.171600
2360.000000	1.183617
2361.000000	1.177714
2362.000000	1.183372
2363.000000	1.194531
2364.000000	1.195587
2365.000000	1.200945
2366.000000	1.208619
2367.000000	1.214316
2368.000000	1.219817
2369.000000	1.224718
2370.000000	1.234639
2371.000000	1.237146
2372.000000	1.242396
2373.000000	1.264331
2374.000000	1.268250
2375.000000	1.266697
2376.000000	1.278913
2377.000000	1.285464
2378.000000	1.283061
2379.000000	1.279432
2380.000000	1.285538
2381.000000	1.289913
2382.000000	1.286573
2383.000000	1.293593
2384.000000	1.302697
2385.000000	1.307535
2386.000000	1.309757
2387.000000	1.320886
2388.000000	1.319287
2389.000000	1.318858
2390.000000	1.322777
2391.000000	1.314132
2392.000000	1.326714
2393.000000	1.349381
2394.000000	1.347201
2395.000000	1.339789
2396.000000	1.353126
2397.000000	1.358153
2398.000000	1.342047
2399.000000	1.355002
2400.000000	1.356402
2401.000000	1.367280
2402.000000	1.375681
2403.000000	1.355046
2404.000000	1.355088
2405.000000	1.364809
2406.000000	1.366298
2407.000000	1.367058
2408.000000	1.361000
2409.000000	1.372815
2410.000000	1.379478
2411.000000	1.380167
2412.000000	1.381244
2413.000000	1.388257
2414.000000	1.381593
2415.000000	1.383880
2416.000000	1.385007
2417.000000	1.376053
2418.000000	1.369053
2419.000000	1.377296
2420.000000	1.400919
2421.000000	1.419313
2422.000000	1.427344
2423.000000	1.438022
2424.000000	1.431829
2425.000000	1.417882
2426.000000	1.409187
2427.000000	1.388326
2428.000000	1.364818
2429.000000	1.375265
2430.000000	1.360238
2431.000000	1.339947
2432.000000	1.325315
2433.000000	1.308523
2434.000000	1.292895
2435.000000	1.298370
2436.000000	1.287859
2437.000000	1.275300
2438.000000	1.261827
2439.000000	1.258265
2440.000000	1.244140
2441.000000	1.226056
2442.000000	1.200675
2443.000000	1.187391
2444.000000	1.182703
2445.000000	1.177513
2446.000000	1.164568
2447.000000	1.165679
2448.000000	1.145618
2449.000000	1.134010
2450.000000	1.118948
2451.000000	1.097177
2452.000000	1.099892
2453.000000	1.102028
2454.000000	1.103682
2455.000000	1.080794
2456.000000	1.056434
2457.000000	1.053791
2458.000000	1.045660
2459.000000	1.055228
2460.000000	1.048288
2461.000000	1.050237
2462.000000	1.011944
2463.000000	1.008367
2464.000000	0.999252
2465.000000	0.996815
2466.000000	0.989494
2467.000000	0.983227
2468.000000	0.990461
2469.000000	0.958529
2470.000000	0.975088
2471.000000	0.972234
2472.000000	0.960333
2473.000000	0.963872
2474.000000	0.964135
2475.000000	0.937179
2476.000000	0.967655
2477.000000	0.951022
2478.000000	0.968305
2479.000000	0.950834
2480.000000	0.964588
2481.000000	0.929979
2482.000000	0.907907
2483.000000	0.968498
2484.000000	0.972352
2485.000000	0.957367
2486.000000	0.942998
2487.000000	0.885985
2488.000000	0.931619
2489.000000	0.964817
2490.000000	1.002932
2491.000000	0.993833
2492.000000	0.981283
2493.000000	1.045176
2494.000000	0.979559
2495.000000	1.005631
2496.000000	0.983986
2497.000000	0.978199
2498.000000	1.025067
2499.000000	0.976196
2500.000000	0.978903
