PE UV       SUBTECH     SPECTRUM    ASCII       PEDS        4.00        
   -1
CICIMAUCR0013-5.Sample.ASC
24/04/23
11:02:20.00
24/04/23
11:02:20.00
Vinicio Soto Monge
C. resplendens
250,000000
1
Lambda 1050
1050L1511233
PerkinElmer UV WinLab 6.3.2.0749 / 2.02.05 Lambda 900 UV/VIS/NIR, Aug  7 2015 09:38:08

0
0
3350/servo 860,8/2
0
0
UV/VIS
1
1
1
DoubleDePol,CommonBeamDepol,RBeamAtt,SBeamAtt,60mm sphere, WB InGaAs Detector
0
0
0
0
Program
Program
3350/servo 860,8/2
3350/0,2 860,8/0,2
3350/0,2 860,8/0,2
0
15.00
 
 
 
0
 
860,8
319,2
860,8
Front
100
on
S:100 R:100
0
0
0
0
 
0
 
 
 
0
 
 
0
0
0
0
0
 
 
 
 
0
0


0
0
#HDR
-1
-1
#GR
nm
%R
1.0
0.0
2500,000000
-1,000000
2251
8
89,800900
5,734500
#DATA
250.000000	0.690490
251.000000	0.664675
252.000000	0.651474
253.000000	0.651405
254.000000	0.656778
255.000000	0.657487
256.000000	0.653254
257.000000	0.650131
258.000000	0.639652
259.000000	0.623905
260.000000	0.626405
261.000000	0.602003
262.000000	0.616743
263.000000	0.628653
264.000000	0.586735
265.000000	0.587314
266.000000	0.601917
267.000000	0.612419
268.000000	0.577535
269.000000	0.603037
270.000000	0.591508
271.000000	0.565760
272.000000	0.569403
273.000000	0.575066
274.000000	0.570081
275.000000	0.568615
276.000000	0.578005
277.000000	0.575353
278.000000	0.560724
279.000000	0.580626
280.000000	0.558713
281.000000	0.564790
282.000000	0.574738
283.000000	0.567718
284.000000	0.564522
285.000000	0.555155
286.000000	0.555818
287.000000	0.540559
288.000000	0.549758
289.000000	0.558776
290.000000	0.561354
291.000000	0.553233
292.000000	0.543983
293.000000	0.524711
294.000000	0.506259
295.000000	0.517140
296.000000	0.491893
297.000000	0.475737
298.000000	0.492109
299.000000	0.507416
300.000000	0.468956
301.000000	0.448101
302.000000	0.460899
303.000000	0.464066
304.000000	0.457823
305.000000	0.459096
306.000000	0.431892
307.000000	0.431824
308.000000	0.424757
309.000000	0.424831
310.000000	0.424296
311.000000	0.418189
312.000000	0.416731
313.000000	0.395001
314.000000	0.428272
315.000000	0.402854
316.000000	0.344887
317.000000	0.335448
318.000000	0.261468
319.000000	0.270124
320.000000	0.361694
321.000000	0.346042
322.000000	0.289952
323.000000	0.317707
324.000000	0.444682
325.000000	0.330451
326.000000	0.257485
327.000000	0.270681
328.000000	0.320427
329.000000	0.319438
330.000000	0.308290
331.000000	0.286599
332.000000	0.265610
333.000000	0.266487
334.000000	0.288987
335.000000	0.242415
336.000000	0.259367
337.000000	0.279040
338.000000	0.222578
339.000000	0.271150
340.000000	0.258245
341.000000	0.274934
342.000000	0.302068
343.000000	0.292996
344.000000	0.290424
345.000000	0.299320
346.000000	0.283428
347.000000	0.292148
348.000000	0.271754
349.000000	0.261438
350.000000	0.260999
351.000000	0.293945
352.000000	0.280041
353.000000	0.311793
354.000000	0.310627
355.000000	0.315580
356.000000	0.315691
357.000000	0.296257
358.000000	0.284064
359.000000	0.303396
360.000000	0.304313
361.000000	0.308325
362.000000	0.325886
363.000000	0.323268
364.000000	0.371463
365.000000	0.372913
366.000000	0.372255
367.000000	0.356791
368.000000	0.335885
369.000000	0.318555
370.000000	0.335236
371.000000	0.377107
372.000000	0.371834
373.000000	0.342490
374.000000	0.374190
375.000000	0.443933
376.000000	0.451653
377.000000	0.500870
378.000000	0.518608
379.000000	0.549005
380.000000	0.560822
381.000000	0.587157
382.000000	0.615903
383.000000	0.648158
384.000000	0.680272
385.000000	0.705373
386.000000	0.738215
387.000000	0.786015
388.000000	0.803588
389.000000	0.845581
390.000000	0.889173
391.000000	0.927951
392.000000	0.982002
393.000000	1.031634
394.000000	1.058829
395.000000	1.088032
396.000000	1.137261
397.000000	1.177417
398.000000	1.218724
399.000000	1.274595
400.000000	1.321986
401.000000	1.360366
402.000000	1.402493
403.000000	1.438474
404.000000	1.479735
405.000000	1.521915
406.000000	1.566726
407.000000	1.593714
408.000000	1.635392
409.000000	1.677462
410.000000	1.731836
411.000000	1.758472
412.000000	1.791336
413.000000	1.816186
414.000000	1.845118
415.000000	1.873234
416.000000	1.891892
417.000000	1.916680
418.000000	1.955198
419.000000	1.974492
420.000000	1.987256
421.000000	1.991298
422.000000	2.011965
423.000000	2.027840
424.000000	2.022378
425.000000	2.022086
426.000000	2.035108
427.000000	1.982185
428.000000	1.958454
429.000000	1.933738
430.000000	1.928672
431.000000	1.925711
432.000000	1.923561
433.000000	1.896931
434.000000	1.868075
435.000000	1.834534
436.000000	1.802228
437.000000	1.788741
438.000000	1.762788
439.000000	1.738265
440.000000	1.733731
441.000000	1.700804
442.000000	1.684611
443.000000	1.651454
444.000000	1.647391
445.000000	1.635404
446.000000	1.619971
447.000000	1.622414
448.000000	1.605121
449.000000	1.615607
450.000000	1.624611
451.000000	1.647163
452.000000	1.662338
453.000000	1.670953
454.000000	1.697742
455.000000	1.730930
456.000000	1.787845
457.000000	1.820505
458.000000	1.876022
459.000000	1.944712
460.000000	2.007469
461.000000	2.056520
462.000000	2.140566
463.000000	2.207198
464.000000	2.264736
465.000000	2.322198
466.000000	2.388182
467.000000	2.447399
468.000000	2.496716
469.000000	2.553743
470.000000	2.602498
471.000000	2.645470
472.000000	2.703495
473.000000	2.741601
474.000000	2.753513
475.000000	2.796796
476.000000	2.822978
477.000000	2.862579
478.000000	2.839571
479.000000	2.849316
480.000000	2.847549
481.000000	2.877610
482.000000	2.882828
483.000000	2.877381
484.000000	2.868437
485.000000	2.854888
486.000000	2.849764
487.000000	2.843378
488.000000	2.833721
489.000000	2.833658
490.000000	2.867808
491.000000	2.883369
492.000000	2.916493
493.000000	2.949846
494.000000	3.009776
495.000000	3.091223
496.000000	3.166247
497.000000	3.243729
498.000000	3.341870
499.000000	3.431908
500.000000	3.517945
501.000000	3.642684
502.000000	3.742781
503.000000	3.840510
504.000000	3.964062
505.000000	4.122716
506.000000	4.259142
507.000000	4.396060
508.000000	4.559831
509.000000	4.665314
510.000000	4.837519
511.000000	4.995752
512.000000	5.152125
513.000000	5.305000
514.000000	5.483624
515.000000	5.651298
516.000000	5.809219
517.000000	5.946918
518.000000	6.065785
519.000000	6.175396
520.000000	6.340617
521.000000	6.450795
522.000000	6.578896
523.000000	6.707710
524.000000	6.844960
525.000000	6.938708
526.000000	7.029245
527.000000	7.174218
528.000000	7.274771
529.000000	7.400112
530.000000	7.529326
531.000000	7.652566
532.000000	7.768793
533.000000	7.873035
534.000000	7.972931
535.000000	8.060234
536.000000	8.135737
537.000000	8.219574
538.000000	8.277073
539.000000	8.336053
540.000000	8.392840
541.000000	8.437057
542.000000	8.485312
543.000000	8.527300
544.000000	8.595544
545.000000	8.634818
546.000000	8.665073
547.000000	8.725403
548.000000	8.790259
549.000000	8.808401
550.000000	8.870244
551.000000	8.911467
552.000000	8.931781
553.000000	9.003289
554.000000	9.035081
555.000000	9.061632
556.000000	9.116619
557.000000	9.124556
558.000000	9.107543
559.000000	9.100373
560.000000	9.211865
561.000000	9.278611
562.000000	9.286777
563.000000	9.297106
564.000000	9.309612
565.000000	9.311640
566.000000	9.364142
567.000000	9.367824
568.000000	9.345279
569.000000	9.364176
570.000000	9.388331
571.000000	9.423515
572.000000	9.432403
573.000000	9.419015
574.000000	9.425005
575.000000	9.430057
576.000000	9.424144
577.000000	9.398329
578.000000	9.364079
579.000000	9.346371
580.000000	9.304107
581.000000	9.247715
582.000000	9.230314
583.000000	9.188660
584.000000	9.161163
585.000000	9.143868
586.000000	9.078601
587.000000	9.038147
588.000000	9.015274
589.000000	8.980801
590.000000	8.959046
591.000000	8.910588
592.000000	8.859433
593.000000	8.833486
594.000000	8.784450
595.000000	8.697345
596.000000	8.666420
597.000000	8.636058
598.000000	8.593506
599.000000	8.554392
600.000000	8.478126
601.000000	8.429765
602.000000	8.354598
603.000000	8.301835
604.000000	8.261561
605.000000	8.199599
606.000000	8.148750
607.000000	8.073587
608.000000	8.021014
609.000000	7.929636
610.000000	7.861602
611.000000	7.766408
612.000000	7.664447
613.000000	7.572192
614.000000	7.460392
615.000000	7.330030
616.000000	7.193495
617.000000	7.078787
618.000000	6.954452
619.000000	6.835478
620.000000	6.659212
621.000000	6.547444
622.000000	6.412982
623.000000	6.289475
624.000000	6.162832
625.000000	6.044507
626.000000	5.920937
627.000000	5.819476
628.000000	5.712723
629.000000	5.629912
630.000000	5.514782
631.000000	5.396582
632.000000	5.259843
633.000000	5.143858
634.000000	5.010872
635.000000	4.873850
636.000000	4.733144
637.000000	4.628646
638.000000	4.511661
639.000000	4.412158
640.000000	4.347152
641.000000	4.298787
642.000000	4.261208
643.000000	4.199091
644.000000	4.165640
645.000000	4.155108
646.000000	4.165590
647.000000	4.196178
648.000000	4.237793
649.000000	4.277034
650.000000	4.330861
651.000000	4.418786
652.000000	4.489862
653.000000	4.567255
654.000000	4.625646
655.000000	4.744008
656.000000	4.858302
657.000000	4.914652
658.000000	5.011536
659.000000	5.107988
660.000000	5.170700
661.000000	5.280701
662.000000	5.361475
663.000000	5.465969
664.000000	5.530446
665.000000	5.594286
666.000000	5.687713
667.000000	5.762997
668.000000	5.816960
669.000000	5.918903
670.000000	6.032995
671.000000	6.105231
672.000000	6.147451
673.000000	6.209235
674.000000	6.250373
675.000000	6.289826
676.000000	6.409708
677.000000	6.489018
678.000000	6.522282
679.000000	6.564007
680.000000	6.625294
681.000000	6.667921
682.000000	6.711160
683.000000	6.765910
684.000000	6.796417
685.000000	6.795188
686.000000	6.819679
687.000000	6.857237
688.000000	6.900339
689.000000	6.958836
690.000000	6.954535
691.000000	6.927281
692.000000	6.912228
693.000000	6.855718
694.000000	6.843551
695.000000	6.862081
696.000000	6.819679
697.000000	6.757802
698.000000	6.685626
699.000000	6.652450
700.000000	6.624453
701.000000	6.528391
702.000000	6.440826
703.000000	6.382052
704.000000	6.299757
705.000000	6.209068
706.000000	6.072286
707.000000	6.012274
708.000000	5.937642
709.000000	5.882234
710.000000	5.776838
711.000000	5.739970
712.000000	5.700065
713.000000	5.625130
714.000000	5.540927
715.000000	5.516184
716.000000	5.471831
717.000000	5.419146
718.000000	5.397464
719.000000	5.387417
720.000000	5.363953
721.000000	5.411496
722.000000	5.421970
723.000000	5.447000
724.000000	5.484179
725.000000	5.546027
726.000000	5.560575
727.000000	5.625580
728.000000	5.727548
729.000000	5.751697
730.000000	5.798371
731.000000	5.905574
732.000000	5.983639
733.000000	6.020393
734.000000	6.147734
735.000000	6.220369
736.000000	6.320089
737.000000	6.447851
738.000000	6.521627
739.000000	6.653831
740.000000	6.742770
741.000000	6.809640
742.000000	6.953181
743.000000	7.062146
744.000000	7.096253
745.000000	7.219942
746.000000	7.340210
747.000000	7.411511
748.000000	7.485386
749.000000	7.543524
750.000000	7.637148
751.000000	7.736647
752.000000	7.765499
753.000000	7.851958
754.000000	7.911013
755.000000	7.955183
756.000000	7.956499
757.000000	7.970574
758.000000	7.993434
759.000000	7.991692
760.000000	8.028947
761.000000	8.110796
762.000000	8.152728
763.000000	8.162589
764.000000	8.220601
765.000000	8.262433
766.000000	8.290956
767.000000	8.328333
768.000000	8.331215
769.000000	8.362779
770.000000	8.392726
771.000000	8.439363
772.000000	8.419466
773.000000	8.531880
774.000000	8.557215
775.000000	8.564326
776.000000	8.712992
777.000000	8.659383
778.000000	8.672335
779.000000	8.736162
780.000000	8.649137
781.000000	8.701725
782.000000	8.727668
783.000000	8.714293
784.000000	8.656136
785.000000	8.629120
786.000000	8.705312
787.000000	8.668733
788.000000	8.511403
789.000000	8.557492
790.000000	8.449429
791.000000	8.455212
792.000000	8.394274
793.000000	8.336682
794.000000	8.357757
795.000000	8.238757
796.000000	8.230566
797.000000	8.194839
798.000000	8.291232
799.000000	8.231354
800.000000	8.072699
801.000000	8.050764
802.000000	8.123783
803.000000	8.126538
804.000000	8.291467
805.000000	8.154325
806.000000	8.211035
807.000000	8.254596
808.000000	8.227490
809.000000	8.220293
810.000000	8.328842
811.000000	8.292784
812.000000	8.360623
813.000000	8.482256
814.000000	8.449436
815.000000	8.434292
816.000000	8.493908
817.000000	8.541133
818.000000	8.479081
819.000000	8.449455
820.000000	8.407648
821.000000	8.404920
822.000000	8.330355
823.000000	8.255583
824.000000	8.246370
825.000000	8.139109
826.000000	8.065918
827.000000	8.048474
828.000000	7.843585
829.000000	7.790253
830.000000	7.834832
831.000000	7.731661
832.000000	7.604281
833.000000	7.717511
834.000000	7.554073
835.000000	7.369196
836.000000	7.443079
837.000000	7.332089
838.000000	7.343119
839.000000	7.308341
840.000000	7.131116
841.000000	7.132679
842.000000	7.254895
843.000000	7.110849
844.000000	7.090727
845.000000	6.898251
846.000000	6.891430
847.000000	6.877996
848.000000	6.711247
849.000000	6.616514
850.000000	6.745002
851.000000	6.637912
852.000000	6.601013
853.000000	6.463734
854.000000	6.459030
855.000000	6.150988
856.000000	6.156493
857.000000	5.902178
858.000000	6.069177
859.000000	3.883636
860.000000	4.765816
861.000000	4.468089
862.000000	5.044753
863.000000	5.289454
864.000000	5.505987
865.000000	5.623786
866.000000	5.609303
867.000000	5.634829
868.000000	6.356287
869.000000	6.048825
870.000000	5.974690
871.000000	6.307788
872.000000	6.479050
873.000000	6.820928
874.000000	6.581247
875.000000	6.498636
876.000000	6.663682
877.000000	6.806228
878.000000	6.678802
879.000000	6.561348
880.000000	6.645605
881.000000	6.575575
882.000000	6.857976
883.000000	6.926998
884.000000	6.907835
885.000000	6.900661
886.000000	6.908655
887.000000	7.013795
888.000000	7.047075
889.000000	7.093999
890.000000	7.205278
891.000000	7.158037
892.000000	7.198874
893.000000	7.180899
894.000000	7.232726
895.000000	7.321340
896.000000	7.246658
897.000000	7.408771
898.000000	7.503869
899.000000	7.434258
900.000000	7.427979
901.000000	7.402486
902.000000	7.350363
903.000000	7.376232
904.000000	7.436785
905.000000	7.399373
906.000000	7.534109
907.000000	7.560034
908.000000	7.551970
909.000000	7.577738
910.000000	7.611065
911.000000	7.549279
912.000000	7.430988
913.000000	7.469957
914.000000	7.491834
915.000000	7.373654
916.000000	7.335131
917.000000	7.356115
918.000000	7.304727
919.000000	7.262331
920.000000	7.295445
921.000000	7.247784
922.000000	7.163742
923.000000	7.133202
924.000000	7.114616
925.000000	7.109335
926.000000	7.066554
927.000000	7.033364
928.000000	7.006788
929.000000	7.001923
930.000000	6.993213
931.000000	6.927315
932.000000	6.969118
933.000000	7.028903
934.000000	7.016466
935.000000	7.044032
936.000000	7.067685
937.000000	7.011025
938.000000	6.980480
939.000000	7.009068
940.000000	7.060801
941.000000	7.083565
942.000000	7.109628
943.000000	7.067054
944.000000	7.085878
945.000000	7.125518
946.000000	7.093507
947.000000	7.073794
948.000000	7.051151
949.000000	7.017764
950.000000	6.995815
951.000000	6.971326
952.000000	7.015406
953.000000	6.958957
954.000000	6.892406
955.000000	6.872466
956.000000	6.874224
957.000000	6.874003
958.000000	6.804740
959.000000	6.741592
960.000000	6.745692
961.000000	6.725946
962.000000	6.670064
963.000000	6.644135
964.000000	6.654787
965.000000	6.647910
966.000000	6.578059
967.000000	6.524214
968.000000	6.471880
969.000000	6.434107
970.000000	6.422540
971.000000	6.391951
972.000000	6.358198
973.000000	6.325480
974.000000	6.316004
975.000000	6.286195
976.000000	6.272947
977.000000	6.257904
978.000000	6.285631
979.000000	6.281154
980.000000	6.237787
981.000000	6.240058
982.000000	6.248585
983.000000	6.211897
984.000000	6.240828
985.000000	6.259691
986.000000	6.252529
987.000000	6.239040
988.000000	6.245821
989.000000	6.270798
990.000000	6.263944
991.000000	6.278247
992.000000	6.273733
993.000000	6.268834
994.000000	6.247494
995.000000	6.225101
996.000000	6.223577
997.000000	6.235260
998.000000	6.212314
999.000000	6.221755
1000.000000	6.231059
1001.000000	6.238367
1002.000000	6.221091
1003.000000	6.196713
1004.000000	6.179179
1005.000000	6.168098
1006.000000	6.156245
1007.000000	6.145176
1008.000000	6.146884
1009.000000	6.154863
1010.000000	6.135506
1011.000000	6.150168
1012.000000	6.118726
1013.000000	6.081862
1014.000000	6.068632
1015.000000	6.100492
1016.000000	6.086668
1017.000000	6.064389
1018.000000	6.037969
1019.000000	6.050648
1020.000000	6.041961
1021.000000	6.062925
1022.000000	6.048005
1023.000000	6.046599
1024.000000	6.041382
1025.000000	6.038620
1026.000000	6.059920
1027.000000	6.031417
1028.000000	6.045552
1029.000000	6.045015
1030.000000	6.039362
1031.000000	6.043626
1032.000000	6.055029
1033.000000	6.070665
1034.000000	6.046089
1035.000000	6.071987
1036.000000	6.060715
1037.000000	6.077934
1038.000000	6.068764
1039.000000	6.075029
1040.000000	6.062211
1041.000000	6.066671
1042.000000	6.059010
1043.000000	6.062380
1044.000000	6.050119
1045.000000	6.064843
1046.000000	6.072350
1047.000000	6.081618
1048.000000	6.067098
1049.000000	6.064974
1050.000000	6.071373
1051.000000	6.068139
1052.000000	6.061291
1053.000000	6.054647
1054.000000	6.067417
1055.000000	6.070803
1056.000000	6.079135
1057.000000	6.066193
1058.000000	6.046580
1059.000000	6.062286
1060.000000	6.086928
1061.000000	6.097394
1062.000000	6.095477
1063.000000	6.105261
1064.000000	6.111293
1065.000000	6.105767
1066.000000	6.112730
1067.000000	6.108892
1068.000000	6.129023
1069.000000	6.124608
1070.000000	6.163112
1071.000000	6.159403
1072.000000	6.143457
1073.000000	6.174889
1074.000000	6.182620
1075.000000	6.216237
1076.000000	6.197674
1077.000000	6.213987
1078.000000	6.234372
1079.000000	6.218012
1080.000000	6.226069
1081.000000	6.253528
1082.000000	6.245424
1083.000000	6.262868
1084.000000	6.244989
1085.000000	6.239856
1086.000000	6.237805
1087.000000	6.257989
1088.000000	6.263132
1089.000000	6.268983
1090.000000	6.266312
1091.000000	6.281804
1092.000000	6.263564
1093.000000	6.265656
1094.000000	6.277423
1095.000000	6.264119
1096.000000	6.273171
1097.000000	6.289891
1098.000000	6.291976
1099.000000	6.279121
1100.000000	6.270180
1101.000000	6.290191
1102.000000	6.271925
1103.000000	6.281776
1104.000000	6.287959
1105.000000	6.278701
1106.000000	6.265363
1107.000000	6.280913
1108.000000	6.269212
1109.000000	6.263273
1110.000000	6.276301
1111.000000	6.268220
1112.000000	6.284193
1113.000000	6.279899
1114.000000	6.282643
1115.000000	6.262106
1116.000000	6.266908
1117.000000	6.283448
1118.000000	6.281593
1119.000000	6.291118
1120.000000	6.285807
1121.000000	6.296467
1122.000000	6.285421
1123.000000	6.290152
1124.000000	6.298369
1125.000000	6.299683
1126.000000	6.277525
1127.000000	6.276416
1128.000000	6.279710
1129.000000	6.260995
1130.000000	6.256504
1131.000000	6.276851
1132.000000	6.280172
1133.000000	6.273636
1134.000000	6.257567
1135.000000	6.226708
1136.000000	6.235119
1137.000000	6.253595
1138.000000	6.221806
1139.000000	6.198108
1140.000000	6.185868
1141.000000	6.180304
1142.000000	6.157110
1143.000000	6.145461
1144.000000	6.118459
1145.000000	6.126000
1146.000000	6.099878
1147.000000	6.071232
1148.000000	6.046797
1149.000000	6.011598
1150.000000	5.992976
1151.000000	5.993894
1152.000000	5.967623
1153.000000	5.951733
1154.000000	5.964715
1155.000000	5.952036
1156.000000	5.955073
1157.000000	5.954397
1158.000000	5.943224
1159.000000	5.932275
1160.000000	5.936306
1161.000000	5.932177
1162.000000	5.904007
1163.000000	5.890822
1164.000000	5.856258
1165.000000	5.846286
1166.000000	5.836640
1167.000000	5.820139
1168.000000	5.786008
1169.000000	5.787516
1170.000000	5.770868
1171.000000	5.738375
1172.000000	5.729289
1173.000000	5.707490
1174.000000	5.684288
1175.000000	5.667201
1176.000000	5.663265
1177.000000	5.638598
1178.000000	5.624197
1179.000000	5.610531
1180.000000	5.577862
1181.000000	5.568874
1182.000000	5.557799
1183.000000	5.545707
1184.000000	5.491836
1185.000000	5.470843
1186.000000	5.455059
1187.000000	5.435709
1188.000000	5.425993
1189.000000	5.407854
1190.000000	5.421570
1191.000000	5.431197
1192.000000	5.444855
1193.000000	5.467889
1194.000000	5.500426
1195.000000	5.521740
1196.000000	5.552122
1197.000000	5.571660
1198.000000	5.601406
1199.000000	5.617664
1200.000000	5.619899
1201.000000	5.649442
1202.000000	5.669819
1203.000000	5.671521
1204.000000	5.680208
1205.000000	5.693218
1206.000000	5.705134
1207.000000	5.717445
1208.000000	5.731275
1209.000000	5.743976
1210.000000	5.754656
1211.000000	5.757733
1212.000000	5.762732
1213.000000	5.783714
1214.000000	5.792574
1215.000000	5.789664
1216.000000	5.793865
1217.000000	5.808345
1218.000000	5.822913
1219.000000	5.839095
1220.000000	5.840451
1221.000000	5.844923
1222.000000	5.848178
1223.000000	5.861164
1224.000000	5.872803
1225.000000	5.879393
1226.000000	5.883650
1227.000000	5.892262
1228.000000	5.906979
1229.000000	5.908506
1230.000000	5.910344
1231.000000	5.918453
1232.000000	5.932508
1233.000000	5.940537
1234.000000	5.936231
1235.000000	5.947131
1236.000000	5.950776
1237.000000	5.954150
1238.000000	5.961610
1239.000000	5.970341
1240.000000	5.972669
1241.000000	5.974454
1242.000000	5.977626
1243.000000	5.988624
1244.000000	6.011344
1245.000000	6.015634
1246.000000	6.019815
1247.000000	6.036404
1248.000000	6.053585
1249.000000	6.057775
1250.000000	6.069862
1251.000000	6.079587
1252.000000	6.085921
1253.000000	6.082007
1254.000000	6.087107
1255.000000	6.081599
1256.000000	6.084361
1257.000000	6.090645
1258.000000	6.092812
1259.000000	6.085636
1260.000000	6.086746
1261.000000	6.083767
1262.000000	6.074998
1263.000000	6.071548
1264.000000	6.063696
1265.000000	6.061278
1266.000000	6.071239
1267.000000	6.058808
1268.000000	6.046896
1269.000000	6.040407
1270.000000	6.044031
1271.000000	6.041065
1272.000000	6.022051
1273.000000	6.007437
1274.000000	6.018531
1275.000000	6.005209
1276.000000	6.002265
1277.000000	5.987364
1278.000000	5.979830
1279.000000	5.970393
1280.000000	5.967804
1281.000000	5.968530
1282.000000	5.973629
1283.000000	5.981406
1284.000000	5.978361
1285.000000	5.970237
1286.000000	5.970914
1287.000000	5.976630
1288.000000	5.982349
1289.000000	5.985172
1290.000000	5.987530
1291.000000	5.979094
1292.000000	5.976143
1293.000000	5.970798
1294.000000	5.967198
1295.000000	5.963524
1296.000000	5.960596
1297.000000	5.971885
1298.000000	5.976676
1299.000000	5.960654
1300.000000	5.951723
1301.000000	5.956502
1302.000000	5.954244
1303.000000	5.938672
1304.000000	5.928402
1305.000000	5.917023
1306.000000	5.921047
1307.000000	5.918982
1308.000000	5.916208
1309.000000	5.915256
1310.000000	5.906870
1311.000000	5.897990
1312.000000	5.885098
1313.000000	5.875343
1314.000000	5.866421
1315.000000	5.871114
1316.000000	5.852574
1317.000000	5.835586
1318.000000	5.831439
1319.000000	5.830745
1320.000000	5.825228
1321.000000	5.812568
1322.000000	5.783077
1323.000000	5.784595
1324.000000	5.774214
1325.000000	5.770093
1326.000000	5.768304
1327.000000	5.752655
1328.000000	5.742485
1329.000000	5.728342
1330.000000	5.711078
1331.000000	5.702676
1332.000000	5.688386
1333.000000	5.677476
1334.000000	5.660604
1335.000000	5.652167
1336.000000	5.624775
1337.000000	5.630620
1338.000000	5.598776
1339.000000	5.577031
1340.000000	5.572529
1341.000000	5.564411
1342.000000	5.529950
1343.000000	5.520172
1344.000000	5.491759
1345.000000	5.481761
1346.000000	5.465224
1347.000000	5.431448
1348.000000	5.402476
1349.000000	5.415805
1350.000000	5.388301
1351.000000	5.391467
1352.000000	5.376166
1353.000000	5.339927
1354.000000	5.338061
1355.000000	5.289040
1356.000000	5.247196
1357.000000	5.215469
1358.000000	5.205196
1359.000000	5.186441
1360.000000	5.188711
1361.000000	5.137757
1362.000000	5.068970
1363.000000	5.117831
1364.000000	5.107001
1365.000000	5.035386
1366.000000	5.054177
1367.000000	5.062332
1368.000000	5.007412
1369.000000	4.992138
1370.000000	4.994743
1371.000000	4.928337
1372.000000	4.896684
1373.000000	4.917745
1374.000000	4.878010
1375.000000	4.851293
1376.000000	4.818205
1377.000000	4.789504
1378.000000	4.768633
1379.000000	4.741821
1380.000000	4.695721
1381.000000	4.684543
1382.000000	4.612425
1383.000000	4.522204
1384.000000	4.503844
1385.000000	4.441941
1386.000000	4.373532
1387.000000	4.330127
1388.000000	4.221289
1389.000000	4.169229
1390.000000	4.106738
1391.000000	4.060792
1392.000000	3.993982
1393.000000	3.934382
1394.000000	3.893807
1395.000000	3.839992
1396.000000	3.748584
1397.000000	3.683403
1398.000000	3.662868
1399.000000	3.630823
1400.000000	3.585353
1401.000000	3.509496
1402.000000	3.443744
1403.000000	3.424353
1404.000000	3.361466
1405.000000	3.321783
1406.000000	3.277156
1407.000000	3.236704
1408.000000	3.193166
1409.000000	3.150343
1410.000000	3.101823
1411.000000	3.059333
1412.000000	3.017501
1413.000000	2.993263
1414.000000	2.972698
1415.000000	2.923250
1416.000000	2.875336
1417.000000	2.852588
1418.000000	2.839279
1419.000000	2.821587
1420.000000	2.810337
1421.000000	2.783623
1422.000000	2.768219
1423.000000	2.754191
1424.000000	2.745797
1425.000000	2.733726
1426.000000	2.721162
1427.000000	2.734571
1428.000000	2.727922
1429.000000	2.713136
1430.000000	2.703590
1431.000000	2.725260
1432.000000	2.703064
1433.000000	2.701244
1434.000000	2.695857
1435.000000	2.704237
1436.000000	2.676637
1437.000000	2.704760
1438.000000	2.700692
1439.000000	2.692873
1440.000000	2.711258
1441.000000	2.703262
1442.000000	2.721924
1443.000000	2.714606
1444.000000	2.710131
1445.000000	2.728131
1446.000000	2.722385
1447.000000	2.728515
1448.000000	2.731923
1449.000000	2.754738
1450.000000	2.758368
1451.000000	2.763431
1452.000000	2.749717
1453.000000	2.744803
1454.000000	2.759287
1455.000000	2.776546
1456.000000	2.781501
1457.000000	2.778260
1458.000000	2.773258
1459.000000	2.785278
1460.000000	2.783659
1461.000000	2.788546
1462.000000	2.783472
1463.000000	2.811453
1464.000000	2.802896
1465.000000	2.811333
1466.000000	2.797677
1467.000000	2.810731
1468.000000	2.814630
1469.000000	2.812982
1470.000000	2.837731
1471.000000	2.823149
1472.000000	2.821602
1473.000000	2.822046
1474.000000	2.833089
1475.000000	2.833078
1476.000000	2.828226
1477.000000	2.822151
1478.000000	2.827861
1479.000000	2.836243
1480.000000	2.838730
1481.000000	2.847672
1482.000000	2.846773
1483.000000	2.852498
1484.000000	2.844738
1485.000000	2.861318
1486.000000	2.859495
1487.000000	2.858754
1488.000000	2.858426
1489.000000	2.861077
1490.000000	2.861829
1491.000000	2.858521
1492.000000	2.871007
1493.000000	2.872215
1494.000000	2.875245
1495.000000	2.879660
1496.000000	2.878757
1497.000000	2.874738
1498.000000	2.881537
1499.000000	2.886120
1500.000000	2.892839
1501.000000	2.899448
1502.000000	2.895010
1503.000000	2.909163
1504.000000	2.903965
1505.000000	2.928526
1506.000000	2.919932
1507.000000	2.911790
1508.000000	2.922955
1509.000000	2.924056
1510.000000	2.930071
1511.000000	2.938518
1512.000000	2.940307
1513.000000	2.949638
1514.000000	2.950173
1515.000000	2.965861
1516.000000	2.975336
1517.000000	2.988169
1518.000000	2.993970
1519.000000	2.996304
1520.000000	3.001870
1521.000000	3.003929
1522.000000	3.014128
1523.000000	3.026097
1524.000000	3.026786
1525.000000	3.036858
1526.000000	3.042049
1527.000000	3.041929
1528.000000	3.056883
1529.000000	3.061963
1530.000000	3.060468
1531.000000	3.067276
1532.000000	3.088284
1533.000000	3.088819
1534.000000	3.088108
1535.000000	3.099077
1536.000000	3.109031
1537.000000	3.107885
1538.000000	3.113854
1539.000000	3.116157
1540.000000	3.128224
1541.000000	3.133506
1542.000000	3.139974
1543.000000	3.149812
1544.000000	3.156325
1545.000000	3.165686
1546.000000	3.175419
1547.000000	3.186813
1548.000000	3.194571
1549.000000	3.211805
1550.000000	3.216810
1551.000000	3.216287
1552.000000	3.221696
1553.000000	3.231522
1554.000000	3.247850
1555.000000	3.250461
1556.000000	3.258875
1557.000000	3.260500
1558.000000	3.264735
1559.000000	3.275940
1560.000000	3.283927
1561.000000	3.291322
1562.000000	3.293662
1563.000000	3.296548
1564.000000	3.303394
1565.000000	3.309465
1566.000000	3.316231
1567.000000	3.320932
1568.000000	3.325462
1569.000000	3.332978
1570.000000	3.338248
1571.000000	3.341467
1572.000000	3.343633
1573.000000	3.350577
1574.000000	3.367949
1575.000000	3.376985
1576.000000	3.372418
1577.000000	3.372662
1578.000000	3.380297
1579.000000	3.385977
1580.000000	3.391154
1581.000000	3.400480
1582.000000	3.410208
1583.000000	3.413988
1584.000000	3.418658
1585.000000	3.417100
1586.000000	3.425553
1587.000000	3.434672
1588.000000	3.429226
1589.000000	3.438164
1590.000000	3.449932
1591.000000	3.453853
1592.000000	3.456772
1593.000000	3.460244
1594.000000	3.468808
1595.000000	3.466914
1596.000000	3.470751
1597.000000	3.483570
1598.000000	3.493142
1599.000000	3.503182
1600.000000	3.505594
1601.000000	3.504342
1602.000000	3.518259
1603.000000	3.521187
1604.000000	3.522005
1605.000000	3.528021
1606.000000	3.534900
1607.000000	3.530395
1608.000000	3.531452
1609.000000	3.539532
1610.000000	3.553173
1611.000000	3.550805
1612.000000	3.559144
1613.000000	3.564937
1614.000000	3.563215
1615.000000	3.567841
1616.000000	3.572362
1617.000000	3.572735
1618.000000	3.566964
1619.000000	3.564886
1620.000000	3.578558
1621.000000	3.579165
1622.000000	3.580038
1623.000000	3.585297
1624.000000	3.588861
1625.000000	3.584107
1626.000000	3.596698
1627.000000	3.589035
1628.000000	3.592283
1629.000000	3.594054
1630.000000	3.603628
1631.000000	3.607400
1632.000000	3.615780
1633.000000	3.626692
1634.000000	3.618593
1635.000000	3.619223
1636.000000	3.614583
1637.000000	3.616696
1638.000000	3.624324
1639.000000	3.626334
1640.000000	3.629223
1641.000000	3.632169
1642.000000	3.641744
1643.000000	3.623864
1644.000000	3.627934
1645.000000	3.637501
1646.000000	3.639766
1647.000000	3.636183
1648.000000	3.642100
1649.000000	3.653908
1650.000000	3.637039
1651.000000	3.647799
1652.000000	3.649338
1653.000000	3.632970
1654.000000	3.631848
1655.000000	3.636353
1656.000000	3.641656
1657.000000	3.632786
1658.000000	3.619006
1659.000000	3.623618
1660.000000	3.604415
1661.000000	3.603946
1662.000000	3.603002
1663.000000	3.590312
1664.000000	3.577979
1665.000000	3.573264
1666.000000	3.559218
1667.000000	3.559995
1668.000000	3.532053
1669.000000	3.527288
1670.000000	3.511699
1671.000000	3.503697
1672.000000	3.476053
1673.000000	3.470824
1674.000000	3.460291
1675.000000	3.438130
1676.000000	3.429715
1677.000000	3.417472
1678.000000	3.400423
1679.000000	3.400533
1680.000000	3.397304
1681.000000	3.393016
1682.000000	3.384924
1683.000000	3.378105
1684.000000	3.382282
1685.000000	3.376612
1686.000000	3.372474
1687.000000	3.367731
1688.000000	3.359667
1689.000000	3.346532
1690.000000	3.350887
1691.000000	3.331851
1692.000000	3.352661
1693.000000	3.343491
1694.000000	3.349922
1695.000000	3.361022
1696.000000	3.378741
1697.000000	3.378743
1698.000000	3.386100
1699.000000	3.400601
1700.000000	3.399893
1701.000000	3.412317
1702.000000	3.400355
1703.000000	3.412168
1704.000000	3.423473
1705.000000	3.412035
1706.000000	3.419462
1707.000000	3.401847
1708.000000	3.409195
1709.000000	3.390855
1710.000000	3.391022
1711.000000	3.381795
1712.000000	3.370139
1713.000000	3.377422
1714.000000	3.362498
1715.000000	3.339075
1716.000000	3.343135
1717.000000	3.340270
1718.000000	3.316744
1719.000000	3.306949
1720.000000	3.294715
1721.000000	3.277047
1722.000000	3.274435
1723.000000	3.256254
1724.000000	3.247277
1725.000000	3.240303
1726.000000	3.230972
1727.000000	3.238986
1728.000000	3.242791
1729.000000	3.219994
1730.000000	3.230491
1731.000000	3.233912
1732.000000	3.235941
1733.000000	3.239445
1734.000000	3.248022
1735.000000	3.250508
1736.000000	3.261304
1737.000000	3.250995
1738.000000	3.266186
1739.000000	3.267263
1740.000000	3.271252
1741.000000	3.268141
1742.000000	3.272229
1743.000000	3.257848
1744.000000	3.243652
1745.000000	3.231978
1746.000000	3.242182
1747.000000	3.238353
1748.000000	3.234266
1749.000000	3.231312
1750.000000	3.239265
1751.000000	3.225904
1752.000000	3.222214
1753.000000	3.223635
1754.000000	3.215349
1755.000000	3.204718
1756.000000	3.217002
1757.000000	3.208098
1758.000000	3.184702
1759.000000	3.198890
1760.000000	3.201515
1761.000000	3.204639
1762.000000	3.216127
1763.000000	3.213701
1764.000000	3.215123
1765.000000	3.213775
1766.000000	3.222223
1767.000000	3.218542
1768.000000	3.200784
1769.000000	3.201239
1770.000000	3.209556
1771.000000	3.212008
1772.000000	3.198972
1773.000000	3.203841
1774.000000	3.199068
1775.000000	3.198398
1776.000000	3.200678
1777.000000	3.194035
1778.000000	3.182136
1779.000000	3.192545
1780.000000	3.184490
1781.000000	3.166594
1782.000000	3.174042
1783.000000	3.182329
1784.000000	3.177207
1785.000000	3.174427
1786.000000	3.170993
1787.000000	3.158719
1788.000000	3.154175
1789.000000	3.155152
1790.000000	3.154658
1791.000000	3.145556
1792.000000	3.145063
1793.000000	3.160546
1794.000000	3.156059
1795.000000	3.146109
1796.000000	3.153526
1797.000000	3.157610
1798.000000	3.154182
1799.000000	3.155163
1800.000000	3.153037
1801.000000	3.158784
1802.000000	3.161860
1803.000000	3.157377
1804.000000	3.155982
1805.000000	3.164453
1806.000000	3.168429
1807.000000	3.174067
1808.000000	3.177632
1809.000000	3.179792
1810.000000	3.182428
1811.000000	3.187457
1812.000000	3.188739
1813.000000	3.189142
1814.000000	3.186474
1815.000000	3.177172
1816.000000	3.184568
1817.000000	3.189236
1818.000000	3.198113
1819.000000	3.210714
1820.000000	3.211950
1821.000000	3.212524
1822.000000	3.207982
1823.000000	3.198493
1824.000000	3.198454
1825.000000	3.196605
1826.000000	3.200880
1827.000000	3.205053
1828.000000	3.203620
1829.000000	3.207939
1830.000000	3.202668
1831.000000	3.201628
1832.000000	3.198175
1833.000000	3.194843
1834.000000	3.198342
1835.000000	3.192931
1836.000000	3.187154
1837.000000	3.176891
1838.000000	3.171594
1839.000000	3.182657
1840.000000	3.185733
1841.000000	3.178634
1842.000000	3.171163
1843.000000	3.168732
1844.000000	3.167222
1845.000000	3.168649
1846.000000	3.157039
1847.000000	3.138254
1848.000000	3.125448
1849.000000	3.128649
1850.000000	3.111703
1851.000000	3.098172
1852.000000	3.091929
1853.000000	3.055780
1854.000000	3.034491
1855.000000	3.040642
1856.000000	3.007869
1857.000000	2.987411
1858.000000	2.976029
1859.000000	2.939542
1860.000000	2.904446
1861.000000	2.886735
1862.000000	2.873759
1863.000000	2.840500
1864.000000	2.819079
1865.000000	2.793855
1866.000000	2.771564
1867.000000	2.736527
1868.000000	2.709783
1869.000000	2.670402
1870.000000	2.617951
1871.000000	2.582636
1872.000000	2.544361
1873.000000	2.525233
1874.000000	2.474887
1875.000000	2.435549
1876.000000	2.416673
1877.000000	2.409198
1878.000000	2.356839
1879.000000	2.340291
1880.000000	2.317517
1881.000000	2.304981
1882.000000	2.258133
1883.000000	2.257991
1884.000000	2.259969
1885.000000	2.259858
1886.000000	2.247758
1887.000000	2.222438
1888.000000	2.227684
1889.000000	2.244789
1890.000000	2.275656
1891.000000	2.228819
1892.000000	2.248761
1893.000000	2.260790
1894.000000	2.203518
1895.000000	2.169003
1896.000000	2.221258
1897.000000	2.185968
1898.000000	2.223297
1899.000000	2.278430
1900.000000	2.297375
1901.000000	2.136620
1902.000000	2.221626
1903.000000	2.202765
1904.000000	2.200730
1905.000000	2.336009
1906.000000	2.334969
1907.000000	2.300469
1908.000000	2.193105
1909.000000	2.144999
1910.000000	2.210442
1911.000000	2.231088
1912.000000	2.197983
1913.000000	2.187114
1914.000000	2.187208
1915.000000	2.160155
1916.000000	2.269374
1917.000000	2.162366
1918.000000	2.107607
1919.000000	2.195380
1920.000000	2.272727
1921.000000	2.182224
1922.000000	2.149261
1923.000000	2.183304
1924.000000	2.185517
1925.000000	2.172849
1926.000000	2.120009
1927.000000	2.110064
1928.000000	2.118732
1929.000000	2.143775
1930.000000	2.141608
1931.000000	2.145590
1932.000000	2.094413
1933.000000	2.116477
1934.000000	2.134339
1935.000000	2.142223
1936.000000	2.127400
1937.000000	2.102138
1938.000000	2.133718
1939.000000	2.170790
1940.000000	2.183893
1941.000000	2.146118
1942.000000	2.133001
1943.000000	2.105720
1944.000000	2.130917
1945.000000	2.119975
1946.000000	2.166683
1947.000000	2.131216
1948.000000	2.134449
1949.000000	2.140347
1950.000000	2.140517
1951.000000	2.206555
1952.000000	2.182573
1953.000000	2.182250
1954.000000	2.197759
1955.000000	2.196281
1956.000000	2.224669
1957.000000	2.273248
1958.000000	2.256877
1959.000000	2.242085
1960.000000	2.258650
1961.000000	2.235173
1962.000000	2.252742
1963.000000	2.289732
1964.000000	2.272058
1965.000000	2.290732
1966.000000	2.268250
1967.000000	2.327184
1968.000000	2.312203
1969.000000	2.326339
1970.000000	2.312955
1971.000000	2.336506
1972.000000	2.366093
1973.000000	2.364408
1974.000000	2.359637
1975.000000	2.371583
1976.000000	2.356239
1977.000000	2.348597
1978.000000	2.373400
1979.000000	2.377566
1980.000000	2.394164
1981.000000	2.375707
1982.000000	2.392500
1983.000000	2.407985
1984.000000	2.395179
1985.000000	2.383001
1986.000000	2.403599
1987.000000	2.392387
1988.000000	2.391013
1989.000000	2.417475
1990.000000	2.420636
1991.000000	2.410604
1992.000000	2.383523
1993.000000	2.363427
1994.000000	2.365462
1995.000000	2.404887
1996.000000	2.409723
1997.000000	2.438274
1998.000000	2.446817
1999.000000	2.423043
2000.000000	2.391748
2001.000000	2.384069
2002.000000	2.387610
2003.000000	2.400838
2004.000000	2.419477
2005.000000	2.396474
2006.000000	2.408612
2007.000000	2.400307
2008.000000	2.362618
2009.000000	2.424235
2010.000000	2.480619
2011.000000	2.449178
2012.000000	2.409011
2013.000000	2.416238
2014.000000	2.474576
2015.000000	2.444108
2016.000000	2.395195
2017.000000	2.370006
2018.000000	2.393435
2019.000000	2.389189
2020.000000	2.421784
2021.000000	2.399157
2022.000000	2.348021
2023.000000	2.379294
2024.000000	2.405329
2025.000000	2.431535
2026.000000	2.378242
2027.000000	2.381049
2028.000000	2.324219
2029.000000	2.327030
2030.000000	2.361500
2031.000000	2.342915
2032.000000	2.302092
2033.000000	2.305899
2034.000000	2.356117
2035.000000	2.333365
2036.000000	2.297165
2037.000000	2.344120
2038.000000	2.367969
2039.000000	2.326852
2040.000000	2.274933
2041.000000	2.298423
2042.000000	2.279561
2043.000000	2.252757
2044.000000	2.240215
2045.000000	2.193922
2046.000000	2.282850
2047.000000	2.203968
2048.000000	2.175985
2049.000000	2.180262
2050.000000	2.271998
2051.000000	2.210439
2052.000000	2.181572
2053.000000	2.211868
2054.000000	2.243662
2055.000000	2.222957
2056.000000	2.234232
2057.000000	2.178680
2058.000000	2.236594
2059.000000	2.326034
2060.000000	2.383022
2061.000000	2.216946
2062.000000	2.240509
2063.000000	2.307431
2064.000000	2.255958
2065.000000	2.325607
2066.000000	2.238071
2067.000000	2.386311
2068.000000	2.322791
2069.000000	2.256920
2070.000000	2.348066
2071.000000	2.483652
2072.000000	2.421927
2073.000000	2.296569
2074.000000	2.332277
2075.000000	2.400682
2076.000000	2.427792
2077.000000	2.358630
2078.000000	2.361584
2079.000000	2.397169
2080.000000	2.526174
2081.000000	2.503584
2082.000000	2.327610
2083.000000	2.455685
2084.000000	2.485627
2085.000000	2.570931
2086.000000	2.423066
2087.000000	2.394565
2088.000000	2.322899
2089.000000	2.460785
2090.000000	2.430347
2091.000000	2.346943
2092.000000	2.406490
2093.000000	2.395046
2094.000000	2.443395
2095.000000	2.425432
2096.000000	2.351264
2097.000000	2.339656
2098.000000	2.381455
2099.000000	2.376127
2100.000000	2.362097
2101.000000	2.566157
2102.000000	2.413504
2103.000000	2.274798
2104.000000	2.531853
2105.000000	2.462004
2106.000000	2.444341
2107.000000	2.548313
2108.000000	2.537680
2109.000000	2.646057
2110.000000	2.485068
2111.000000	2.558653
2112.000000	2.442636
2113.000000	2.360077
2114.000000	2.505354
2115.000000	2.569428
2116.000000	2.524485
2117.000000	2.514228
2118.000000	2.483794
2119.000000	2.476745
2120.000000	2.447161
2121.000000	2.626404
2122.000000	2.591795
2123.000000	2.357822
2124.000000	2.490644
2125.000000	2.640997
2126.000000	2.508905
2127.000000	2.568470
2128.000000	2.470830
2129.000000	2.265262
2130.000000	2.686740
2131.000000	2.570679
2132.000000	2.460061
2133.000000	2.510615
2134.000000	2.365275
2135.000000	2.303428
2136.000000	2.493488
2137.000000	2.501125
2138.000000	2.423998
2139.000000	2.530456
2140.000000	2.640348
2141.000000	2.493576
2142.000000	2.626499
2143.000000	2.412574
2144.000000	2.456831
2145.000000	2.368709
2146.000000	2.350522
2147.000000	2.276965
2148.000000	2.334606
2149.000000	2.262018
2150.000000	2.505051
2151.000000	2.495061
2152.000000	2.354977
2153.000000	2.363723
2154.000000	2.443556
2155.000000	2.367355
2156.000000	2.280782
2157.000000	2.332615
2158.000000	2.265664
2159.000000	2.224665
2160.000000	2.465044
2161.000000	2.375907
2162.000000	2.448907
2163.000000	2.489239
2164.000000	2.404515
2165.000000	2.200474
2166.000000	2.381331
2167.000000	2.350615
2168.000000	2.317783
2169.000000	2.410708
2170.000000	2.357305
2171.000000	2.367958
2172.000000	2.277287
2173.000000	2.254816
2174.000000	2.269560
2175.000000	2.401324
2176.000000	2.324552
2177.000000	2.305548
2178.000000	2.381113
2179.000000	2.441022
2180.000000	2.458467
2181.000000	2.425298
2182.000000	2.231603
2183.000000	2.267542
2184.000000	2.231664
2185.000000	2.348911
2186.000000	2.245585
2187.000000	2.288198
2188.000000	2.264157
2189.000000	2.444262
2190.000000	2.289319
2191.000000	2.288486
2192.000000	2.298607
2193.000000	2.227537
2194.000000	2.358123
2195.000000	2.358913
2196.000000	2.272609
2197.000000	2.344704
2198.000000	2.424210
2199.000000	2.364750
2200.000000	2.384289
2201.000000	2.440564
2202.000000	2.460995
2203.000000	2.456403
2204.000000	2.291313
2205.000000	2.435192
2206.000000	2.528785
2207.000000	2.429084
2208.000000	2.388347
2209.000000	2.473967
2210.000000	2.496517
2211.000000	2.319835
2212.000000	2.318242
2213.000000	2.399299
2214.000000	2.472608
2215.000000	2.371942
2216.000000	2.426179
2217.000000	2.416625
2218.000000	2.416932
2219.000000	2.511954
2220.000000	2.567035
2221.000000	2.636986
2222.000000	2.526827
2223.000000	2.514059
2224.000000	2.514210
2225.000000	2.512985
2226.000000	2.502002
2227.000000	2.533539
2228.000000	2.584323
2229.000000	2.546800
2230.000000	2.579826
2231.000000	2.577281
2232.000000	2.557424
2233.000000	2.494607
2234.000000	2.514391
2235.000000	2.545067
2236.000000	2.427451
2237.000000	2.482968
2238.000000	2.506480
2239.000000	2.591702
2240.000000	2.614581
2241.000000	2.645630
2242.000000	2.655810
2243.000000	2.594191
2244.000000	2.522725
2245.000000	2.419086
2246.000000	2.578742
2247.000000	2.600581
2248.000000	2.368647
2249.000000	2.397578
2250.000000	2.479753
2251.000000	2.367787
2252.000000	2.287100
2253.000000	2.392978
2254.000000	2.406591
2255.000000	2.415529
2256.000000	2.350759
2257.000000	2.355065
2258.000000	2.385750
2259.000000	2.329779
2260.000000	2.195526
2261.000000	2.185245
2262.000000	2.215659
2263.000000	2.149316
2264.000000	2.139333
2265.000000	2.158786
2266.000000	2.133248
2267.000000	2.123469
2268.000000	2.067678
2269.000000	2.143264
2270.000000	2.279802
2271.000000	2.341763
2272.000000	2.327314
2273.000000	2.229579
2274.000000	2.127677
2275.000000	2.160516
2276.000000	2.184496
2277.000000	2.207861
2278.000000	2.242926
2279.000000	2.239152
2280.000000	2.406898
2281.000000	2.420718
2282.000000	2.210081
2283.000000	2.088231
2284.000000	2.118597
2285.000000	2.379685
2286.000000	2.550935
2287.000000	2.560763
2288.000000	2.441709
2289.000000	2.330710
2290.000000	2.354326
2291.000000	2.290643
2292.000000	2.267339
2293.000000	2.212276
2294.000000	2.259439
2295.000000	2.262677
2296.000000	2.209138
2297.000000	2.168720
2298.000000	2.350931
2299.000000	2.448892
2300.000000	2.046332
2301.000000	2.258996
2302.000000	2.408094
2303.000000	2.368861
2304.000000	2.202160
2305.000000	2.048537
2306.000000	2.003301
2307.000000	2.160899
2308.000000	2.350461
2309.000000	2.160920
2310.000000	2.125304
2311.000000	2.144861
2312.000000	2.099150
2313.000000	2.082871
2314.000000	2.202522
2315.000000	2.340907
2316.000000	2.474982
2317.000000	2.359860
2318.000000	2.491245
2319.000000	2.510477
2320.000000	2.483789
2321.000000	2.660233
2322.000000	2.500187
2323.000000	2.389040
2324.000000	2.609231
2325.000000	2.719964
2326.000000	2.602017
2327.000000	2.628871
2328.000000	2.718864
2329.000000	2.667493
2330.000000	2.877637
2331.000000	2.774276
2332.000000	3.002305
2333.000000	2.876323
2334.000000	2.682809
2335.000000	2.875476
2336.000000	2.617443
2337.000000	2.885329
2338.000000	2.989911
2339.000000	2.931637
2340.000000	2.925353
2341.000000	3.085817
2342.000000	3.014050
2343.000000	2.850548
2344.000000	2.201860
2345.000000	2.646373
2346.000000	2.767081
2347.000000	2.912799
2348.000000	2.289817
2349.000000	2.429281
2350.000000	2.872776
2351.000000	3.063128
2352.000000	2.665136
2353.000000	2.392052
2354.000000	2.822852
2355.000000	2.731606
2356.000000	2.583725
2357.000000	2.910409
2358.000000	3.004960
2359.000000	2.677399
2360.000000	2.982692
2361.000000	2.923467
2362.000000	3.287237
2363.000000	3.316609
2364.000000	3.192032
2365.000000	2.904589
2366.000000	3.071207
2367.000000	3.072450
2368.000000	3.185460
2369.000000	3.280496
2370.000000	3.130382
2371.000000	3.118064
2372.000000	3.413291
2373.000000	2.870027
2374.000000	3.085848
2375.000000	3.060116
2376.000000	2.926109
2377.000000	3.039488
2378.000000	3.267866
2379.000000	2.952862
2380.000000	3.325326
2381.000000	3.506768
2382.000000	3.457262
2383.000000	3.286566
2384.000000	2.726246
2385.000000	3.411788
2386.000000	2.937101
2387.000000	3.460482
2388.000000	2.818137
2389.000000	3.105151
2390.000000	3.194064
2391.000000	2.841533
2392.000000	3.194471
2393.000000	3.050485
2394.000000	3.604682
2395.000000	3.266839
2396.000000	3.028272
2397.000000	2.898334
2398.000000	2.974271
2399.000000	3.759607
2400.000000	3.409294
2401.000000	1.449670
2402.000000	1.463737
2403.000000	1.450211
2404.000000	1.437552
2405.000000	1.429219
2406.000000	1.415447
2407.000000	1.426297
2408.000000	1.422071
2409.000000	1.411484
2410.000000	1.409117
2411.000000	1.402773
2412.000000	1.417237
2413.000000	1.399855
2414.000000	1.401019
2415.000000	1.394001
2416.000000	1.389682
2417.000000	1.383571
2418.000000	1.377102
2419.000000	1.340875
2420.000000	1.336653
2421.000000	1.340373
2422.000000	1.355854
2423.000000	1.375281
2424.000000	1.417307
2425.000000	1.383857
2426.000000	1.316033
2427.000000	1.304605
2428.000000	1.302861
2429.000000	1.304268
2430.000000	1.284138
2431.000000	1.242331
2432.000000	1.230919
2433.000000	1.235719
2434.000000	1.225767
2435.000000	1.199783
2436.000000	1.198897
2437.000000	1.143586
2438.000000	1.139991
2439.000000	1.121156
2440.000000	1.128988
2441.000000	1.119481
2442.000000	1.101905
2443.000000	1.078177
2444.000000	1.061973
2445.000000	1.065110
2446.000000	1.034038
2447.000000	1.032250
2448.000000	1.006676
2449.000000	0.984483
2450.000000	1.003319
2451.000000	0.988846
2452.000000	0.951398
2453.000000	0.939513
2454.000000	0.934864
2455.000000	0.934192
2456.000000	0.926658
2457.000000	0.918729
2458.000000	0.898253
2459.000000	0.853250
2460.000000	0.845845
2461.000000	0.876910
2462.000000	0.864115
2463.000000	0.851519
2464.000000	0.855881
2465.000000	0.863404
2466.000000	0.827709
2467.000000	0.798928
2468.000000	0.812233
2469.000000	0.820481
2470.000000	0.829949
2471.000000	0.826766
2472.000000	0.806809
2473.000000	0.794379
2474.000000	0.815068
2475.000000	0.800644
2476.000000	0.809277
2477.000000	0.749255
2478.000000	0.779382
2479.000000	0.810262
2480.000000	0.757235
2481.000000	0.776202
2482.000000	0.736808
2483.000000	0.794770
2484.000000	0.776490
2485.000000	0.811692
2486.000000	0.778517
2487.000000	0.809117
2488.000000	0.738967
2489.000000	0.718331
2490.000000	0.628437
2491.000000	0.716281
2492.000000	0.746867
2493.000000	0.701929
2494.000000	0.815468
2495.000000	0.746937
2496.000000	0.804154
2497.000000	0.766145
2498.000000	0.666117
2499.000000	0.756217
2500.000000	0.876337
