PE UV       SUBTECH     SPECTRUM    ASCII       PEDS        4.00        
   -1
CICIMAUCR0104-3.Sample.ASC
24/04/22
09:54:19.00
24/04/22
09:54:19.00
Vinicio Soto Monge
C. resplendens
250,000000
1
Lambda 1050
1050L1511233
PerkinElmer UV WinLab 6.3.2.0749 / 2.02.05 Lambda 900 UV/VIS/NIR, Aug  7 2015 09:38:08

0
0
3350/servo 860,8/2
0
0
UV/VIS
1
1
1
DoubleDePol,CommonBeamDepol,RBeamAtt,SBeamAtt,60mm sphere, WB InGaAs Detector
0
0
0
0
Program
Program
3350/servo 860,8/2
3350/0,2 860,8/0,2
3350/0,2 860,8/0,2
0
15.00
 
 
 
0
 
860,8
319,2
860,8
Front
100
on
S:100 R:100
0
0
0
0
 
0
 
 
 
0
 
 
0
0
0
0
0
 
 
 
 
0
0


0
0
#HDR
-1
-1
#GR
nm
%R
1.0
0.0
2500,000000
-1,000000
2251
8
90,434600
6,014800
#DATA
250.000000	0.128972
251.000000	0.102949
252.000000	0.098430
253.000000	0.082997
254.000000	0.082829
255.000000	0.074586
256.000000	0.134817
257.000000	0.130791
258.000000	0.099171
259.000000	0.102676
260.000000	0.101238
261.000000	0.104810
262.000000	0.130473
263.000000	0.132514
264.000000	0.081624
265.000000	0.130339
266.000000	0.131311
267.000000	0.098016
268.000000	0.092931
269.000000	0.039421
270.000000	0.046004
271.000000	0.083436
272.000000	0.089614
273.000000	0.062483
274.000000	0.080262
275.000000	0.106667
276.000000	0.088870
277.000000	0.060040
278.000000	0.064363
279.000000	0.046847
280.000000	0.076077
281.000000	0.094334
282.000000	0.084425
283.000000	0.094300
284.000000	0.056731
285.000000	0.087218
286.000000	0.064893
287.000000	0.066182
288.000000	0.044409
289.000000	0.072539
290.000000	0.045753
291.000000	0.061684
292.000000	0.038350
293.000000	0.031163
294.000000	0.075234
295.000000	0.076164
296.000000	0.061628
297.000000	0.096398
298.000000	0.073840
299.000000	0.068955
300.000000	0.048746
301.000000	0.036443
302.000000	0.017234
303.000000	0.087000
304.000000	0.031862
305.000000	0.053181
306.000000	0.053940
307.000000	0.057362
308.000000	0.055068
309.000000	0.051706
310.000000	0.024476
311.000000	0.054143
312.000000	0.061167
313.000000	0.054392
314.000000	0.041862
315.000000	0.041680
316.000000	0.055337
317.000000	0.282546
318.000000	0.378323
319.000000	0.308680
320.000000	0.323337
321.000000	0.224873
322.000000	0.268639
323.000000	0.198880
324.000000	0.193714
325.000000	0.304297
326.000000	0.202153
327.000000	0.156402
328.000000	0.136012
329.000000	0.141029
330.000000	0.080860
331.000000	0.217076
332.000000	0.152909
333.000000	0.089069
334.000000	0.065420
335.000000	0.136595
336.000000	0.143914
337.000000	0.087076
338.000000	0.098202
339.000000	0.086842
340.000000	0.081109
341.000000	0.145263
342.000000	0.096264
343.000000	0.121466
344.000000	0.084892
345.000000	0.186183
346.000000	0.086101
347.000000	0.138079
348.000000	0.040474
349.000000	0.071439
350.000000	0.090022
351.000000	0.076539
352.000000	0.045452
353.000000	0.044743
354.000000	0.091925
355.000000	0.017352
356.000000	0.028915
357.000000	0.091911
358.000000	0.088749
359.000000	0.093965
360.000000	0.017151
361.000000	0.020496
362.000000	0.075295
363.000000	0.075117
364.000000	0.043879
365.000000	0.064723
366.000000	0.135581
367.000000	0.116595
368.000000	0.048863
369.000000	0.084271
370.000000	0.142599
371.000000	0.204624
372.000000	0.160067
373.000000	0.235557
374.000000	0.221004
375.000000	0.200706
376.000000	0.299698
377.000000	0.236495
378.000000	0.271431
379.000000	0.298023
380.000000	0.315179
381.000000	0.363839
382.000000	0.404633
383.000000	0.426250
384.000000	0.463687
385.000000	0.497304
386.000000	0.532409
387.000000	0.574375
388.000000	0.617124
389.000000	0.650237
390.000000	0.685832
391.000000	0.718209
392.000000	0.754179
393.000000	0.785503
394.000000	0.815103
395.000000	0.830447
396.000000	0.858889
397.000000	0.867297
398.000000	0.875509
399.000000	0.883170
400.000000	0.861001
401.000000	0.857761
402.000000	0.858783
403.000000	0.848098
404.000000	0.819011
405.000000	0.769326
406.000000	0.733288
407.000000	0.688869
408.000000	0.649736
409.000000	0.620392
410.000000	0.569558
411.000000	0.518104
412.000000	0.464183
413.000000	0.419580
414.000000	0.374900
415.000000	0.335185
416.000000	0.322761
417.000000	0.325944
418.000000	0.318980
419.000000	0.346324
420.000000	0.385335
421.000000	0.410595
422.000000	0.442743
423.000000	0.497513
424.000000	0.543774
425.000000	0.582730
426.000000	0.633725
427.000000	0.694615
428.000000	0.750724
429.000000	0.808864
430.000000	0.877014
431.000000	0.928713
432.000000	0.985782
433.000000	1.045090
434.000000	1.093391
435.000000	1.150616
436.000000	1.233482
437.000000	1.295756
438.000000	1.341270
439.000000	1.407967
440.000000	1.463353
441.000000	1.518813
442.000000	1.575411
443.000000	1.618912
444.000000	1.674003
445.000000	1.704802
446.000000	1.722013
447.000000	1.751198
448.000000	1.772617
449.000000	1.770643
450.000000	1.748111
451.000000	1.725124
452.000000	1.696203
453.000000	1.636993
454.000000	1.570980
455.000000	1.480920
456.000000	1.366912
457.000000	1.256320
458.000000	1.141509
459.000000	1.000838
460.000000	0.863572
461.000000	0.764904
462.000000	0.710996
463.000000	0.706595
464.000000	0.746630
465.000000	0.835255
466.000000	0.948978
467.000000	1.081945
468.000000	1.194129
469.000000	1.285614
470.000000	1.375255
471.000000	1.429222
472.000000	1.440520
473.000000	1.427534
474.000000	1.396397
475.000000	1.329455
476.000000	1.232746
477.000000	1.145176
478.000000	1.048286
479.000000	0.959492
480.000000	0.891789
481.000000	0.834205
482.000000	0.792155
483.000000	0.771344
484.000000	0.765411
485.000000	0.802406
486.000000	0.843936
487.000000	0.874980
488.000000	0.932563
489.000000	0.995983
490.000000	1.060992
491.000000	1.104037
492.000000	1.166099
493.000000	1.188358
494.000000	1.166169
495.000000	1.122089
496.000000	1.056860
497.000000	0.959411
498.000000	0.839304
499.000000	0.697690
500.000000	0.542360
501.000000	0.413907
502.000000	0.355556
503.000000	0.463876
504.000000	0.671864
505.000000	0.927691
506.000000	1.170028
507.000000	1.443756
508.000000	1.718026
509.000000	1.987830
510.000000	2.230506
511.000000	2.466859
512.000000	2.685625
513.000000	2.876626
514.000000	3.018206
515.000000	3.147534
516.000000	3.241350
517.000000	3.308556
518.000000	3.350256
519.000000	3.363373
520.000000	3.373161
521.000000	3.326162
522.000000	3.271650
523.000000	3.184251
524.000000	3.073742
525.000000	2.943135
526.000000	2.777886
527.000000	2.599607
528.000000	2.401606
529.000000	2.179664
530.000000	1.960588
531.000000	1.733764
532.000000	1.518499
533.000000	1.305822
534.000000	1.136985
535.000000	0.974575
536.000000	0.852359
537.000000	0.796715
538.000000	0.807987
539.000000	0.869932
540.000000	0.953457
541.000000	1.037829
542.000000	1.162673
543.000000	1.268740
544.000000	1.348372
545.000000	1.467687
546.000000	1.586342
547.000000	1.730190
548.000000	1.816516
549.000000	1.924337
550.000000	2.029581
551.000000	2.113493
552.000000	2.217692
553.000000	2.332467
554.000000	2.413712
555.000000	2.485840
556.000000	2.573229
557.000000	2.621517
558.000000	2.692381
559.000000	2.742015
560.000000	2.814703
561.000000	2.863033
562.000000	2.906203
563.000000	2.933574
564.000000	2.968335
565.000000	2.989001
566.000000	3.016642
567.000000	3.042375
568.000000	3.093009
569.000000	3.102535
570.000000	3.161002
571.000000	3.197364
572.000000	3.216767
573.000000	3.255362
574.000000	3.312218
575.000000	3.362919
576.000000	3.411536
577.000000	3.440297
578.000000	3.495858
579.000000	3.548122
580.000000	3.611254
581.000000	3.658372
582.000000	3.720252
583.000000	3.747743
584.000000	3.794376
585.000000	3.808069
586.000000	3.883480
587.000000	3.937736
588.000000	3.991155
589.000000	4.079116
590.000000	4.124801
591.000000	4.223532
592.000000	4.282350
593.000000	4.321672
594.000000	4.389297
595.000000	4.452626
596.000000	4.563971
597.000000	4.619165
598.000000	4.704482
599.000000	4.742777
600.000000	4.823274
601.000000	4.901293
602.000000	4.979846
603.000000	5.003530
604.000000	5.067375
605.000000	5.143538
606.000000	5.247574
607.000000	5.328119
608.000000	5.410223
609.000000	5.468377
610.000000	5.568456
611.000000	5.623245
612.000000	5.636324
613.000000	5.729190
614.000000	5.793362
615.000000	5.802412
616.000000	5.807993
617.000000	5.800064
618.000000	5.782025
619.000000	5.728750
620.000000	5.708434
621.000000	5.691034
622.000000	5.628694
623.000000	5.562112
624.000000	5.510620
625.000000	5.474664
626.000000	5.365991
627.000000	5.297788
628.000000	5.197829
629.000000	5.109384
630.000000	4.967275
631.000000	4.814474
632.000000	4.651053
633.000000	4.425766
634.000000	4.206151
635.000000	3.932907
636.000000	3.627174
637.000000	3.276828
638.000000	2.971409
639.000000	2.574344
640.000000	2.196450
641.000000	1.764627
642.000000	1.376813
643.000000	0.995572
644.000000	0.699726
645.000000	0.586514
646.000000	0.742634
647.000000	0.995642
648.000000	1.259481
649.000000	1.539304
650.000000	1.767160
651.000000	1.962486
652.000000	2.160554
653.000000	2.305249
654.000000	2.382962
655.000000	2.424278
656.000000	2.453141
657.000000	2.456163
658.000000	2.422154
659.000000	2.377784
660.000000	2.299457
661.000000	2.147687
662.000000	2.021261
663.000000	1.919892
664.000000	1.774877
665.000000	1.595462
666.000000	1.474887
667.000000	1.387437
668.000000	1.225626
669.000000	1.118433
670.000000	1.063323
671.000000	1.006759
672.000000	0.953234
673.000000	0.922657
674.000000	0.991553
675.000000	1.034635
676.000000	1.063626
677.000000	1.127489
678.000000	1.188819
679.000000	1.218045
680.000000	1.205926
681.000000	1.245262
682.000000	1.236977
683.000000	1.265620
684.000000	1.260965
685.000000	1.307841
686.000000	1.278526
687.000000	1.253961
688.000000	1.269628
689.000000	1.269807
690.000000	1.236939
691.000000	1.249560
692.000000	1.254416
693.000000	1.243039
694.000000	1.179447
695.000000	1.190894
696.000000	1.149402
697.000000	1.096176
698.000000	1.063807
699.000000	1.038042
700.000000	1.018246
701.000000	0.979221
702.000000	0.907369
703.000000	0.813772
704.000000	0.754984
705.000000	0.743460
706.000000	0.684281
707.000000	0.620941
708.000000	0.580600
709.000000	0.536130
710.000000	0.498436
711.000000	0.438902
712.000000	0.423093
713.000000	0.396543
714.000000	0.355742
715.000000	0.285508
716.000000	0.256566
717.000000	0.286871
718.000000	0.294186
719.000000	0.284639
720.000000	0.308772
721.000000	0.343048
722.000000	0.352375
723.000000	0.352215
724.000000	0.387124
725.000000	0.443019
726.000000	0.488505
727.000000	0.507541
728.000000	0.566626
729.000000	0.651194
730.000000	0.714413
731.000000	0.813351
732.000000	0.850435
733.000000	0.894843
734.000000	0.958880
735.000000	1.033580
736.000000	1.096702
737.000000	1.167016
738.000000	1.241529
739.000000	1.311989
740.000000	1.381978
741.000000	1.417517
742.000000	1.473173
743.000000	1.549506
744.000000	1.585672
745.000000	1.670914
746.000000	1.767477
747.000000	1.795897
748.000000	1.824013
749.000000	1.866766
750.000000	1.914441
751.000000	1.985929
752.000000	2.087082
753.000000	2.174469
754.000000	2.203550
755.000000	2.306833
756.000000	2.360213
757.000000	2.399489
758.000000	2.491908
759.000000	2.529105
760.000000	2.594686
761.000000	2.676815
762.000000	2.700435
763.000000	2.723482
764.000000	2.717699
765.000000	2.656702
766.000000	2.575247
767.000000	2.549120
768.000000	2.598814
769.000000	2.599815
770.000000	2.615997
771.000000	2.620795
772.000000	2.546597
773.000000	2.427666
774.000000	2.384086
775.000000	2.396565
776.000000	2.425230
777.000000	2.361849
778.000000	2.334188
779.000000	2.416336
780.000000	2.426953
781.000000	2.371335
782.000000	2.377951
783.000000	2.301253
784.000000	2.300337
785.000000	2.354813
786.000000	2.373747
787.000000	2.278269
788.000000	2.304003
789.000000	2.332474
790.000000	2.340503
791.000000	2.378621
792.000000	2.434909
793.000000	2.491051
794.000000	2.523016
795.000000	2.537947
796.000000	2.608255
797.000000	2.628870
798.000000	2.857723
799.000000	2.780450
800.000000	2.833763
801.000000	2.751259
802.000000	2.816074
803.000000	2.815369
804.000000	2.798234
805.000000	2.761644
806.000000	2.675965
807.000000	2.610772
808.000000	2.582135
809.000000	2.567378
810.000000	2.533897
811.000000	2.663476
812.000000	2.681617
813.000000	2.646293
814.000000	2.547547
815.000000	2.418036
816.000000	2.461571
817.000000	2.535586
818.000000	2.555561
819.000000	2.524961
820.000000	2.557445
821.000000	2.452167
822.000000	2.444624
823.000000	2.573811
824.000000	2.667989
825.000000	2.486870
826.000000	2.468700
827.000000	2.489467
828.000000	2.476134
829.000000	2.381425
830.000000	2.417897
831.000000	2.468046
832.000000	2.513468
833.000000	2.275063
834.000000	2.260100
835.000000	2.429144
836.000000	2.333002
837.000000	2.121123
838.000000	2.169185
839.000000	2.009267
840.000000	2.009014
841.000000	1.919482
842.000000	1.838446
843.000000	1.577461
844.000000	1.402447
845.000000	1.445985
846.000000	1.358509
847.000000	1.284598
848.000000	1.105760
849.000000	1.258005
850.000000	1.099263
851.000000	0.851123
852.000000	0.884478
853.000000	0.887139
854.000000	0.685173
855.000000	0.958663
856.000000	0.498256
857.000000	0.719429
858.000000	0.695826
859.000000	1.175259
860.000000	1.331486
861.000000	1.355371
862.000000	1.303346
863.000000	1.269476
864.000000	1.201657
865.000000	1.063948
866.000000	0.933208
867.000000	0.881318
868.000000	0.809753
869.000000	0.731055
870.000000	0.636973
871.000000	0.565357
872.000000	0.495432
873.000000	0.433057
874.000000	0.388921
875.000000	0.306062
876.000000	0.253676
877.000000	0.174204
878.000000	0.128877
879.000000	0.064188
880.000000	0.034315
881.000000	0.059215
882.000000	0.136088
883.000000	0.245672
884.000000	0.300105
885.000000	0.344546
886.000000	0.401799
887.000000	0.513596
888.000000	0.589652
889.000000	0.648407
890.000000	0.698736
891.000000	0.736100
892.000000	0.809973
893.000000	0.907907
894.000000	0.964195
895.000000	1.035060
896.000000	1.126985
897.000000	1.172940
898.000000	1.251888
899.000000	1.340572
900.000000	1.425841
901.000000	1.524375
902.000000	1.541275
903.000000	1.607965
904.000000	1.668411
905.000000	1.728909
906.000000	1.793112
907.000000	1.863756
908.000000	1.927292
909.000000	1.905468
910.000000	1.923942
911.000000	1.944673
912.000000	1.996274
913.000000	2.021878
914.000000	2.033161
915.000000	2.025487
916.000000	2.030091
917.000000	2.051248
918.000000	2.061908
919.000000	2.092668
920.000000	2.107370
921.000000	2.117141
922.000000	2.164141
923.000000	2.188948
924.000000	2.189921
925.000000	2.211171
926.000000	2.236697
927.000000	2.250837
928.000000	2.284009
929.000000	2.287039
930.000000	2.298274
931.000000	2.338012
932.000000	2.351187
933.000000	2.369807
934.000000	2.411976
935.000000	2.440515
936.000000	2.431937
937.000000	2.459722
938.000000	2.496757
939.000000	2.509014
940.000000	2.557221
941.000000	2.570596
942.000000	2.612139
943.000000	2.642737
944.000000	2.660788
945.000000	2.693408
946.000000	2.712536
947.000000	2.723865
948.000000	2.756894
949.000000	2.789417
950.000000	2.823509
951.000000	2.857832
952.000000	2.885706
953.000000	2.900507
954.000000	2.932865
955.000000	2.962361
956.000000	2.994393
957.000000	3.050149
958.000000	3.108284
959.000000	3.147898
960.000000	3.188390
961.000000	3.254373
962.000000	3.305104
963.000000	3.346630
964.000000	3.387358
965.000000	3.424869
966.000000	3.455799
967.000000	3.492404
968.000000	3.526766
969.000000	3.570028
970.000000	3.609157
971.000000	3.634332
972.000000	3.666306
973.000000	3.702334
974.000000	3.716027
975.000000	3.745471
976.000000	3.776351
977.000000	3.806546
978.000000	3.835725
979.000000	3.867568
980.000000	3.896079
981.000000	3.915545
982.000000	3.949038
983.000000	3.972595
984.000000	3.984805
985.000000	4.017886
986.000000	4.056506
987.000000	4.083560
988.000000	4.110519
989.000000	4.138226
990.000000	4.160102
991.000000	4.191749
992.000000	4.218290
993.000000	4.239739
994.000000	4.265852
995.000000	4.296226
996.000000	4.330095
997.000000	4.360545
998.000000	4.383405
999.000000	4.404826
1000.000000	4.442517
1001.000000	4.464904
1002.000000	4.496485
1003.000000	4.532971
1004.000000	4.558923
1005.000000	4.591088
1006.000000	4.623611
1007.000000	4.671640
1008.000000	4.711089
1009.000000	4.746291
1010.000000	4.783260
1011.000000	4.824567
1012.000000	4.867360
1013.000000	4.881654
1014.000000	4.915879
1015.000000	4.942930
1016.000000	4.960553
1017.000000	4.985010
1018.000000	4.992896
1019.000000	5.011198
1020.000000	5.027173
1021.000000	5.035496
1022.000000	5.059073
1023.000000	5.080279
1024.000000	5.093696
1025.000000	5.109870
1026.000000	5.127369
1027.000000	5.133865
1028.000000	5.152624
1029.000000	5.180666
1030.000000	5.187359
1031.000000	5.199869
1032.000000	5.226230
1033.000000	5.249236
1034.000000	5.264614
1035.000000	5.285599
1036.000000	5.306949
1037.000000	5.329194
1038.000000	5.351630
1039.000000	5.377389
1040.000000	5.394349
1041.000000	5.413982
1042.000000	5.437149
1043.000000	5.453927
1044.000000	5.467206
1045.000000	5.474680
1046.000000	5.486954
1047.000000	5.494841
1048.000000	5.497203
1049.000000	5.495827
1050.000000	5.497796
1051.000000	5.503951
1052.000000	5.513271
1053.000000	5.511517
1054.000000	5.503151
1055.000000	5.508161
1056.000000	5.507734
1057.000000	5.505264
1058.000000	5.497294
1059.000000	5.493446
1060.000000	5.493944
1061.000000	5.486968
1062.000000	5.476892
1063.000000	5.463588
1064.000000	5.464352
1065.000000	5.466916
1066.000000	5.460784
1067.000000	5.461443
1068.000000	5.462781
1069.000000	5.451891
1070.000000	5.452408
1071.000000	5.453127
1072.000000	5.460831
1073.000000	5.465844
1074.000000	5.469042
1075.000000	5.466264
1076.000000	5.467204
1077.000000	5.468749
1078.000000	5.464752
1079.000000	5.480648
1080.000000	5.475521
1081.000000	5.477643
1082.000000	5.484207
1083.000000	5.494764
1084.000000	5.485536
1085.000000	5.481436
1086.000000	5.475861
1087.000000	5.492006
1088.000000	5.492534
1089.000000	5.492360
1090.000000	5.493671
1091.000000	5.498057
1092.000000	5.500022
1093.000000	5.517405
1094.000000	5.524340
1095.000000	5.514797
1096.000000	5.521091
1097.000000	5.544674
1098.000000	5.554770
1099.000000	5.564385
1100.000000	5.567250
1101.000000	5.578715
1102.000000	5.603462
1103.000000	5.603014
1104.000000	5.615306
1105.000000	5.632228
1106.000000	5.652690
1107.000000	5.667915
1108.000000	5.687891
1109.000000	5.711685
1110.000000	5.709263
1111.000000	5.721189
1112.000000	5.746188
1113.000000	5.741290
1114.000000	5.747634
1115.000000	5.769044
1116.000000	5.789697
1117.000000	5.805883
1118.000000	5.824018
1119.000000	5.837255
1120.000000	5.859946
1121.000000	5.892009
1122.000000	5.924381
1123.000000	5.952766
1124.000000	5.976845
1125.000000	6.005421
1126.000000	6.057809
1127.000000	6.087810
1128.000000	6.137507
1129.000000	6.199377
1130.000000	6.286428
1131.000000	6.385103
1132.000000	6.479323
1133.000000	6.589708
1134.000000	6.709877
1135.000000	6.872503
1136.000000	7.030188
1137.000000	7.204316
1138.000000	7.359669
1139.000000	7.531718
1140.000000	7.701110
1141.000000	7.865065
1142.000000	8.022147
1143.000000	8.188411
1144.000000	8.359737
1145.000000	8.494593
1146.000000	8.572441
1147.000000	8.636953
1148.000000	8.645188
1149.000000	8.626528
1150.000000	8.588222
1151.000000	8.555711
1152.000000	8.543361
1153.000000	8.531572
1154.000000	8.539390
1155.000000	8.580580
1156.000000	8.641796
1157.000000	8.755588
1158.000000	8.870737
1159.000000	9.034912
1160.000000	9.180158
1161.000000	9.341283
1162.000000	9.496044
1163.000000	9.676623
1164.000000	9.825330
1165.000000	10.026786
1166.000000	10.221439
1167.000000	10.393258
1168.000000	10.572702
1169.000000	10.741760
1170.000000	10.918978
1171.000000	11.104757
1172.000000	11.298531
1173.000000	11.467191
1174.000000	11.651299
1175.000000	11.831260
1176.000000	12.019862
1177.000000	12.195314
1178.000000	12.404923
1179.000000	12.661047
1180.000000	12.952817
1181.000000	13.261664
1182.000000	13.591574
1183.000000	13.903061
1184.000000	14.148097
1185.000000	14.313354
1186.000000	14.401056
1187.000000	14.416974
1188.000000	14.341965
1189.000000	14.198313
1190.000000	13.989707
1191.000000	13.735596
1192.000000	13.457270
1193.000000	13.204068
1194.000000	12.994353
1195.000000	12.836742
1196.000000	12.710352
1197.000000	12.623742
1198.000000	12.572909
1199.000000	12.541491
1200.000000	12.528649
1201.000000	12.536969
1202.000000	12.546067
1203.000000	12.577467
1204.000000	12.612475
1205.000000	12.635853
1206.000000	12.633215
1207.000000	12.655745
1208.000000	12.652909
1209.000000	12.644422
1210.000000	12.623065
1211.000000	12.584705
1212.000000	12.551983
1213.000000	12.517063
1214.000000	12.453174
1215.000000	12.405986
1216.000000	12.355146
1217.000000	12.285872
1218.000000	12.216755
1219.000000	12.144531
1220.000000	12.061872
1221.000000	11.977251
1222.000000	11.880069
1223.000000	11.789530
1224.000000	11.690476
1225.000000	11.597292
1226.000000	11.500305
1227.000000	11.400444
1228.000000	11.292857
1229.000000	11.194182
1230.000000	11.089987
1231.000000	10.988706
1232.000000	10.877617
1233.000000	10.797702
1234.000000	10.705086
1235.000000	10.613960
1236.000000	10.528023
1237.000000	10.442928
1238.000000	10.364010
1239.000000	10.271558
1240.000000	10.212108
1241.000000	10.134589
1242.000000	10.068360
1243.000000	9.999489
1244.000000	9.950182
1245.000000	9.904463
1246.000000	9.854546
1247.000000	9.814808
1248.000000	9.784248
1249.000000	9.741932
1250.000000	9.710209
1251.000000	9.685659
1252.000000	9.671682
1253.000000	9.639442
1254.000000	9.613636
1255.000000	9.600722
1256.000000	9.574551
1257.000000	9.538243
1258.000000	9.516658
1259.000000	9.495674
1260.000000	9.480651
1261.000000	9.450208
1262.000000	9.422386
1263.000000	9.400503
1264.000000	9.377614
1265.000000	9.352491
1266.000000	9.322439
1267.000000	9.295669
1268.000000	9.270384
1269.000000	9.226432
1270.000000	9.195354
1271.000000	9.178739
1272.000000	9.146438
1273.000000	9.117028
1274.000000	9.087729
1275.000000	9.055841
1276.000000	9.033725
1277.000000	9.001510
1278.000000	8.971119
1279.000000	8.934645
1280.000000	8.897135
1281.000000	8.868189
1282.000000	8.838404
1283.000000	8.804057
1284.000000	8.776803
1285.000000	8.745436
1286.000000	8.721497
1287.000000	8.697144
1288.000000	8.672007
1289.000000	8.649345
1290.000000	8.630888
1291.000000	8.614077
1292.000000	8.599583
1293.000000	8.590095
1294.000000	8.579855
1295.000000	8.572906
1296.000000	8.571871
1297.000000	8.567841
1298.000000	8.571687
1299.000000	8.562044
1300.000000	8.549759
1301.000000	8.549846
1302.000000	8.550850
1303.000000	8.552698
1304.000000	8.552271
1305.000000	8.552778
1306.000000	8.564936
1307.000000	8.576203
1308.000000	8.582952
1309.000000	8.595815
1310.000000	8.617869
1311.000000	8.634366
1312.000000	8.653936
1313.000000	8.679202
1314.000000	8.709208
1315.000000	8.731649
1316.000000	8.757914
1317.000000	8.798387
1318.000000	8.832638
1319.000000	8.871198
1320.000000	8.913195
1321.000000	8.947853
1322.000000	8.991646
1323.000000	9.041247
1324.000000	9.084891
1325.000000	9.126675
1326.000000	9.181081
1327.000000	9.236178
1328.000000	9.293734
1329.000000	9.362571
1330.000000	9.421878
1331.000000	9.491761
1332.000000	9.567030
1333.000000	9.635174
1334.000000	9.712828
1335.000000	9.805315
1336.000000	9.883263
1337.000000	9.965814
1338.000000	10.069728
1339.000000	10.161369
1340.000000	10.258747
1341.000000	10.364139
1342.000000	10.476130
1343.000000	10.592062
1344.000000	10.717050
1345.000000	10.845217
1346.000000	10.999668
1347.000000	11.137544
1348.000000	11.309808
1349.000000	11.504487
1350.000000	11.704246
1351.000000	11.939744
1352.000000	12.224634
1353.000000	12.514731
1354.000000	12.799957
1355.000000	13.124558
1356.000000	13.379257
1357.000000	13.507723
1358.000000	13.575514
1359.000000	13.598631
1360.000000	13.581763
1361.000000	13.615572
1362.000000	13.670470
1363.000000	13.728530
1364.000000	13.775376
1365.000000	13.848173
1366.000000	13.904417
1367.000000	13.960056
1368.000000	14.076706
1369.000000	14.232542
1370.000000	14.341048
1371.000000	14.502059
1372.000000	14.692231
1373.000000	14.870972
1374.000000	14.992191
1375.000000	15.113846
1376.000000	15.175790
1377.000000	15.206790
1378.000000	15.200513
1379.000000	15.173789
1380.000000	15.211074
1381.000000	15.217131
1382.000000	15.268814
1383.000000	15.389726
1384.000000	15.497099
1385.000000	15.665341
1386.000000	15.730043
1387.000000	15.807905
1388.000000	15.847944
1389.000000	15.934683
1390.000000	15.892583
1391.000000	15.842296
1392.000000	15.816566
1393.000000	15.796508
1394.000000	15.734188
1395.000000	15.701210
1396.000000	15.699698
1397.000000	15.649475
1398.000000	15.591512
1399.000000	15.551201
1400.000000	15.599530
1401.000000	15.658097
1402.000000	15.739969
1403.000000	15.715711
1404.000000	15.793901
1405.000000	15.856616
1406.000000	15.904561
1407.000000	15.950738
1408.000000	15.978850
1409.000000	15.989613
1410.000000	16.007852
1411.000000	15.965160
1412.000000	15.907465
1413.000000	15.849709
1414.000000	15.815867
1415.000000	15.793420
1416.000000	15.733439
1417.000000	15.690888
1418.000000	15.658888
1419.000000	15.653503
1420.000000	15.667091
1421.000000	15.667141
1422.000000	15.621632
1423.000000	15.631449
1424.000000	15.631765
1425.000000	15.664056
1426.000000	15.671929
1427.000000	15.654442
1428.000000	15.681547
1429.000000	15.700461
1430.000000	15.706474
1431.000000	15.687920
1432.000000	15.723139
1433.000000	15.715708
1434.000000	15.714956
1435.000000	15.716902
1436.000000	15.706668
1437.000000	15.714615
1438.000000	15.727670
1439.000000	15.755594
1440.000000	15.759980
1441.000000	15.763324
1442.000000	15.801055
1443.000000	15.831089
1444.000000	15.833667
1445.000000	15.870770
1446.000000	15.895504
1447.000000	15.931186
1448.000000	15.922860
1449.000000	15.940372
1450.000000	15.957586
1451.000000	15.994019
1452.000000	15.993215
1453.000000	16.006506
1454.000000	16.006109
1455.000000	15.999969
1456.000000	16.024691
1457.000000	16.004113
1458.000000	16.007314
1459.000000	15.988437
1460.000000	15.984627
1461.000000	15.975411
1462.000000	15.955898
1463.000000	15.937412
1464.000000	15.932282
1465.000000	15.910908
1466.000000	15.877951
1467.000000	15.854655
1468.000000	15.828031
1469.000000	15.792825
1470.000000	15.762755
1471.000000	15.750529
1472.000000	15.720875
1473.000000	15.701161
1474.000000	15.665521
1475.000000	15.639609
1476.000000	15.607650
1477.000000	15.606190
1478.000000	15.591750
1479.000000	15.579317
1480.000000	15.558996
1481.000000	15.554629
1482.000000	15.528255
1483.000000	15.523826
1484.000000	15.507793
1485.000000	15.493570
1486.000000	15.467984
1487.000000	15.456430
1488.000000	15.441821
1489.000000	15.420154
1490.000000	15.396435
1491.000000	15.381300
1492.000000	15.369666
1493.000000	15.359251
1494.000000	15.350511
1495.000000	15.331725
1496.000000	15.331619
1497.000000	15.331661
1498.000000	15.325285
1499.000000	15.333524
1500.000000	15.344536
1501.000000	15.360914
1502.000000	15.365009
1503.000000	15.385768
1504.000000	15.410867
1505.000000	15.424802
1506.000000	15.434502
1507.000000	15.450047
1508.000000	15.486357
1509.000000	15.511390
1510.000000	15.540613
1511.000000	15.564628
1512.000000	15.589144
1513.000000	15.614863
1514.000000	15.650238
1515.000000	15.679317
1516.000000	15.691521
1517.000000	15.727329
1518.000000	15.761193
1519.000000	15.788252
1520.000000	15.819375
1521.000000	15.850116
1522.000000	15.876007
1523.000000	15.909859
1524.000000	15.940260
1525.000000	15.966421
1526.000000	15.998013
1527.000000	16.016439
1528.000000	16.041054
1529.000000	16.073295
1530.000000	16.104990
1531.000000	16.133525
1532.000000	16.148847
1533.000000	16.179421
1534.000000	16.214493
1535.000000	16.243345
1536.000000	16.272531
1537.000000	16.303220
1538.000000	16.331499
1539.000000	16.359075
1540.000000	16.389568
1541.000000	16.431246
1542.000000	16.455542
1543.000000	16.482988
1544.000000	16.516326
1545.000000	16.548737
1546.000000	16.589791
1547.000000	16.630401
1548.000000	16.671565
1549.000000	16.720680
1550.000000	16.773359
1551.000000	16.814916
1552.000000	16.862670
1553.000000	16.912107
1554.000000	16.955354
1555.000000	17.001878
1556.000000	17.034419
1557.000000	17.060923
1558.000000	17.092642
1559.000000	17.130152
1560.000000	17.167540
1561.000000	17.180630
1562.000000	17.198142
1563.000000	17.212651
1564.000000	17.227279
1565.000000	17.238997
1566.000000	17.244332
1567.000000	17.247787
1568.000000	17.247863
1569.000000	17.245993
1570.000000	17.249092
1571.000000	17.255194
1572.000000	17.250163
1573.000000	17.245893
1574.000000	17.247061
1575.000000	17.255862
1576.000000	17.252925
1577.000000	17.254568
1578.000000	17.265622
1579.000000	17.269917
1580.000000	17.272871
1581.000000	17.275287
1582.000000	17.277020
1583.000000	17.296030
1584.000000	17.308807
1585.000000	17.320171
1586.000000	17.322765
1587.000000	17.313315
1588.000000	17.308364
1589.000000	17.316704
1590.000000	17.311441
1591.000000	17.319343
1592.000000	17.329575
1593.000000	17.328938
1594.000000	17.319778
1595.000000	17.307169
1596.000000	17.312667
1597.000000	17.315035
1598.000000	17.306344
1599.000000	17.307329
1600.000000	17.310574
1601.000000	17.309652
1602.000000	17.308946
1603.000000	17.309430
1604.000000	17.314253
1605.000000	17.306761
1606.000000	17.298536
1607.000000	17.290363
1608.000000	17.285485
1609.000000	17.283515
1610.000000	17.267484
1611.000000	17.248562
1612.000000	17.233473
1613.000000	17.208958
1614.000000	17.197740
1615.000000	17.181171
1616.000000	17.147668
1617.000000	17.121478
1618.000000	17.086894
1619.000000	17.058687
1620.000000	17.021768
1621.000000	17.000472
1622.000000	16.968059
1623.000000	16.932229
1624.000000	16.907773
1625.000000	16.875752
1626.000000	16.849636
1627.000000	16.832775
1628.000000	16.794986
1629.000000	16.771150
1630.000000	16.740087
1631.000000	16.724893
1632.000000	16.699101
1633.000000	16.669247
1634.000000	16.647654
1635.000000	16.627306
1636.000000	16.592331
1637.000000	16.561788
1638.000000	16.524966
1639.000000	16.501202
1640.000000	16.479626
1641.000000	16.441999
1642.000000	16.395579
1643.000000	16.379028
1644.000000	16.338913
1645.000000	16.310318
1646.000000	16.290489
1647.000000	16.274824
1648.000000	16.237045
1649.000000	16.212960
1650.000000	16.201033
1651.000000	16.179935
1652.000000	16.144228
1653.000000	16.122607
1654.000000	16.117402
1655.000000	16.087435
1656.000000	16.052174
1657.000000	16.023800
1658.000000	15.992540
1659.000000	15.980481
1660.000000	15.942971
1661.000000	15.896280
1662.000000	15.864035
1663.000000	15.819969
1664.000000	15.804727
1665.000000	15.758656
1666.000000	15.744172
1667.000000	15.721859
1668.000000	15.696103
1669.000000	15.688748
1670.000000	15.701526
1671.000000	15.705549
1672.000000	15.743914
1673.000000	15.821448
1674.000000	15.886278
1675.000000	16.025682
1676.000000	16.185618
1677.000000	16.388827
1678.000000	16.650808
1679.000000	16.891897
1680.000000	17.161451
1681.000000	17.407663
1682.000000	17.585508
1683.000000	17.701870
1684.000000	17.691961
1685.000000	17.624920
1686.000000	17.507650
1687.000000	17.403363
1688.000000	17.352845
1689.000000	17.328473
1690.000000	17.396235
1691.000000	17.509347
1692.000000	17.648610
1693.000000	17.794562
1694.000000	17.900136
1695.000000	17.976006
1696.000000	17.989210
1697.000000	17.939141
1698.000000	17.877733
1699.000000	17.782467
1700.000000	17.655032
1701.000000	17.542141
1702.000000	17.449618
1703.000000	17.355512
1704.000000	17.289351
1705.000000	17.263826
1706.000000	17.186135
1707.000000	17.123707
1708.000000	17.067749
1709.000000	17.010027
1710.000000	16.945914
1711.000000	16.876410
1712.000000	16.820870
1713.000000	16.756569
1714.000000	16.680946
1715.000000	16.616625
1716.000000	16.534916
1717.000000	16.450139
1718.000000	16.349437
1719.000000	16.230164
1720.000000	16.113826
1721.000000	16.002193
1722.000000	15.930000
1723.000000	15.883681
1724.000000	15.858740
1725.000000	15.855451
1726.000000	15.902811
1727.000000	15.980242
1728.000000	16.062306
1729.000000	16.149844
1730.000000	16.250653
1731.000000	16.347309
1732.000000	16.419532
1733.000000	16.482684
1734.000000	16.508921
1735.000000	16.509693
1736.000000	16.486637
1737.000000	16.404067
1738.000000	16.307448
1739.000000	16.209549
1740.000000	16.074292
1741.000000	15.958787
1742.000000	15.847406
1743.000000	15.744090
1744.000000	15.648043
1745.000000	15.583102
1746.000000	15.535071
1747.000000	15.490454
1748.000000	15.462392
1749.000000	15.441535
1750.000000	15.428708
1751.000000	15.415349
1752.000000	15.413144
1753.000000	15.425286
1754.000000	15.440801
1755.000000	15.473158
1756.000000	15.501774
1757.000000	15.543608
1758.000000	15.616091
1759.000000	15.677641
1760.000000	15.737738
1761.000000	15.794771
1762.000000	15.830304
1763.000000	15.863641
1764.000000	15.876830
1765.000000	15.871924
1766.000000	15.855903
1767.000000	15.829035
1768.000000	15.784073
1769.000000	15.745183
1770.000000	15.681911
1771.000000	15.624672
1772.000000	15.576067
1773.000000	15.509503
1774.000000	15.444273
1775.000000	15.400813
1776.000000	15.357809
1777.000000	15.303388
1778.000000	15.254747
1779.000000	15.216831
1780.000000	15.184148
1781.000000	15.144472
1782.000000	15.100325
1783.000000	15.058124
1784.000000	15.013353
1785.000000	14.972362
1786.000000	14.923240
1787.000000	14.885419
1788.000000	14.833620
1789.000000	14.775767
1790.000000	14.736063
1791.000000	14.698079
1792.000000	14.675951
1793.000000	14.654758
1794.000000	14.624494
1795.000000	14.605151
1796.000000	14.587121
1797.000000	14.567813
1798.000000	14.548447
1799.000000	14.544290
1800.000000	14.525793
1801.000000	14.503610
1802.000000	14.496499
1803.000000	14.476347
1804.000000	14.452575
1805.000000	14.434334
1806.000000	14.421278
1807.000000	14.409400
1808.000000	14.390749
1809.000000	14.371989
1810.000000	14.357355
1811.000000	14.360825
1812.000000	14.363735
1813.000000	14.358715
1814.000000	14.368360
1815.000000	14.371344
1816.000000	14.375671
1817.000000	14.368116
1818.000000	14.361604
1819.000000	14.367401
1820.000000	14.370598
1821.000000	14.363279
1822.000000	14.357400
1823.000000	14.331521
1824.000000	14.278126
1825.000000	14.244617
1826.000000	14.210612
1827.000000	14.170978
1828.000000	14.140959
1829.000000	14.117737
1830.000000	14.076732
1831.000000	14.030296
1832.000000	13.992987
1833.000000	13.958659
1834.000000	13.935014
1835.000000	13.909920
1836.000000	13.883792
1837.000000	13.867952
1838.000000	13.859266
1839.000000	13.849983
1840.000000	13.848245
1841.000000	13.842168
1842.000000	13.834278
1843.000000	13.796811
1844.000000	13.754251
1845.000000	13.733745
1846.000000	13.682045
1847.000000	13.658554
1848.000000	13.634841
1849.000000	13.562048
1850.000000	13.513750
1851.000000	13.471946
1852.000000	13.424147
1853.000000	13.369130
1854.000000	13.319199
1855.000000	13.252540
1856.000000	13.187316
1857.000000	13.148621
1858.000000	13.106136
1859.000000	13.059833
1860.000000	13.028804
1861.000000	12.997957
1862.000000	12.960711
1863.000000	12.923715
1864.000000	12.901483
1865.000000	12.895714
1866.000000	12.891395
1867.000000	12.896878
1868.000000	12.900875
1869.000000	12.922971
1870.000000	12.943767
1871.000000	12.961156
1872.000000	12.991561
1873.000000	13.030145
1874.000000	13.066205
1875.000000	13.104463
1876.000000	13.160535
1877.000000	13.221199
1878.000000	13.304677
1879.000000	13.382219
1880.000000	13.455580
1881.000000	13.547036
1882.000000	13.617033
1883.000000	13.669173
1884.000000	13.703589
1885.000000	13.695193
1886.000000	13.636035
1887.000000	13.554821
1888.000000	13.427282
1889.000000	13.313492
1890.000000	13.153441
1891.000000	12.968411
1892.000000	12.750647
1893.000000	12.530209
1894.000000	12.323911
1895.000000	12.123958
1896.000000	11.948697
1897.000000	11.782166
1898.000000	11.607639
1899.000000	11.381951
1900.000000	11.163143
1901.000000	10.939024
1902.000000	10.740241
1903.000000	10.577252
1904.000000	10.400402
1905.000000	10.244320
1906.000000	10.054154
1907.000000	9.846572
1908.000000	9.693398
1909.000000	9.560174
1910.000000	9.440918
1911.000000	9.364135
1912.000000	9.227562
1913.000000	9.128752
1914.000000	9.016427
1915.000000	8.905922
1916.000000	8.811798
1917.000000	8.741082
1918.000000	8.668447
1919.000000	8.602501
1920.000000	8.555279
1921.000000	8.494668
1922.000000	8.423296
1923.000000	8.372967
1924.000000	8.326427
1925.000000	8.286256
1926.000000	8.256753
1927.000000	8.228678
1928.000000	8.202980
1929.000000	8.191053
1930.000000	8.168472
1931.000000	8.133215
1932.000000	8.130540
1933.000000	8.109380
1934.000000	8.104982
1935.000000	8.115573
1936.000000	8.132792
1937.000000	8.132725
1938.000000	8.132689
1939.000000	8.144886
1940.000000	8.167671
1941.000000	8.167487
1942.000000	8.184830
1943.000000	8.202448
1944.000000	8.203517
1945.000000	8.249646
1946.000000	8.272187
1947.000000	8.298770
1948.000000	8.321823
1949.000000	8.353583
1950.000000	8.372820
1951.000000	8.401136
1952.000000	8.424099
1953.000000	8.471140
1954.000000	8.499457
1955.000000	8.521727
1956.000000	8.558633
1957.000000	8.594111
1958.000000	8.624271
1959.000000	8.654745
1960.000000	8.689204
1961.000000	8.709695
1962.000000	8.755147
1963.000000	8.777258
1964.000000	8.801512
1965.000000	8.839679
1966.000000	8.848396
1967.000000	8.879863
1968.000000	8.899472
1969.000000	8.909944
1970.000000	8.968798
1971.000000	8.988559
1972.000000	9.001788
1973.000000	9.022138
1974.000000	9.050663
1975.000000	9.066763
1976.000000	9.091834
1977.000000	9.115554
1978.000000	9.134073
1979.000000	9.172501
1980.000000	9.196379
1981.000000	9.224401
1982.000000	9.247013
1983.000000	9.274907
1984.000000	9.305255
1985.000000	9.344913
1986.000000	9.366734
1987.000000	9.399334
1988.000000	9.428168
1989.000000	9.454505
1990.000000	9.479963
1991.000000	9.518089
1992.000000	9.551873
1993.000000	9.574409
1994.000000	9.599662
1995.000000	9.633232
1996.000000	9.671984
1997.000000	9.694545
1998.000000	9.722157
1999.000000	9.753803
2000.000000	9.768095
2001.000000	9.792695
2002.000000	9.845632
2003.000000	9.851100
2004.000000	9.866918
2005.000000	9.904794
2006.000000	9.905508
2007.000000	9.942940
2008.000000	9.947468
2009.000000	9.972207
2010.000000	9.984482
2011.000000	9.984403
2012.000000	10.003805
2013.000000	10.014715
2014.000000	10.033802
2015.000000	10.036973
2016.000000	10.047003
2017.000000	10.049311
2018.000000	10.051677
2019.000000	10.063958
2020.000000	10.064335
2021.000000	10.052237
2022.000000	10.046543
2023.000000	10.045077
2024.000000	10.047408
2025.000000	10.048806
2026.000000	10.024610
2027.000000	10.011508
2028.000000	10.000001
2029.000000	10.001647
2030.000000	9.977643
2031.000000	9.956684
2032.000000	9.942673
2033.000000	9.920620
2034.000000	9.892822
2035.000000	9.862212
2036.000000	9.835991
2037.000000	9.804235
2038.000000	9.767437
2039.000000	9.729484
2040.000000	9.705405
2041.000000	9.666562
2042.000000	9.627764
2043.000000	9.598612
2044.000000	9.565305
2045.000000	9.522044
2046.000000	9.478430
2047.000000	9.438391
2048.000000	9.408713
2049.000000	9.377181
2050.000000	9.341098
2051.000000	9.319892
2052.000000	9.322385
2053.000000	9.316112
2054.000000	9.322544
2055.000000	9.341084
2056.000000	9.356195
2057.000000	9.392979
2058.000000	9.431466
2059.000000	9.478526
2060.000000	9.531305
2061.000000	9.581939
2062.000000	9.633449
2063.000000	9.696475
2064.000000	9.764117
2065.000000	9.834938
2066.000000	9.902175
2067.000000	9.970077
2068.000000	10.044089
2069.000000	10.109066
2070.000000	10.171573
2071.000000	10.236133
2072.000000	10.301587
2073.000000	10.364444
2074.000000	10.409150
2075.000000	10.455988
2076.000000	10.510833
2077.000000	10.548616
2078.000000	10.586381
2079.000000	10.613564
2080.000000	10.651184
2081.000000	10.679103
2082.000000	10.695740
2083.000000	10.705388
2084.000000	10.703129
2085.000000	10.705733
2086.000000	10.715332
2087.000000	10.714581
2088.000000	10.700238
2089.000000	10.685431
2090.000000	10.677087
2091.000000	10.668467
2092.000000	10.654705
2093.000000	10.641691
2094.000000	10.625062
2095.000000	10.600531
2096.000000	10.579866
2097.000000	10.569654
2098.000000	10.547973
2099.000000	10.526950
2100.000000	10.516234
2101.000000	10.510505
2102.000000	10.494865
2103.000000	10.474452
2104.000000	10.462127
2105.000000	10.445076
2106.000000	10.433326
2107.000000	10.416493
2108.000000	10.404394
2109.000000	10.380781
2110.000000	10.349556
2111.000000	10.344695
2112.000000	10.316364
2113.000000	10.293107
2114.000000	10.271365
2115.000000	10.245160
2116.000000	10.221750
2117.000000	10.185690
2118.000000	10.167619
2119.000000	10.146616
2120.000000	10.101231
2121.000000	10.066133
2122.000000	10.033933
2123.000000	9.993425
2124.000000	9.951495
2125.000000	9.919352
2126.000000	9.878456
2127.000000	9.836178
2128.000000	9.789172
2129.000000	9.746020
2130.000000	9.710859
2131.000000	9.667762
2132.000000	9.614850
2133.000000	9.567751
2134.000000	9.520173
2135.000000	9.469659
2136.000000	9.415467
2137.000000	9.366660
2138.000000	9.310846
2139.000000	9.261662
2140.000000	9.199707
2141.000000	9.141261
2142.000000	9.089535
2143.000000	9.030563
2144.000000	8.970403
2145.000000	8.909550
2146.000000	8.858380
2147.000000	8.805358
2148.000000	8.739349
2149.000000	8.692560
2150.000000	8.634126
2151.000000	8.580132
2152.000000	8.529974
2153.000000	8.460018
2154.000000	8.413511
2155.000000	8.362848
2156.000000	8.324512
2157.000000	8.281667
2158.000000	8.225411
2159.000000	8.182545
2160.000000	8.151228
2161.000000	8.116614
2162.000000	8.102290
2163.000000	8.056220
2164.000000	8.037660
2165.000000	8.016730
2166.000000	8.012979
2167.000000	7.987019
2168.000000	7.968033
2169.000000	7.950584
2170.000000	7.964419
2171.000000	7.947976
2172.000000	7.937476
2173.000000	7.933343
2174.000000	7.928367
2175.000000	7.935986
2176.000000	7.933963
2177.000000	7.938794
2178.000000	7.937056
2179.000000	7.924881
2180.000000	7.929399
2181.000000	7.945061
2182.000000	7.960892
2183.000000	7.952285
2184.000000	7.963737
2185.000000	7.968407
2186.000000	7.955875
2187.000000	7.956442
2188.000000	7.973453
2189.000000	7.982605
2190.000000	7.969336
2191.000000	7.990631
2192.000000	8.002003
2193.000000	7.996792
2194.000000	8.005780
2195.000000	8.025096
2196.000000	8.029528
2197.000000	8.036558
2198.000000	8.052864
2199.000000	8.074116
2200.000000	8.087075
2201.000000	8.112677
2202.000000	8.107718
2203.000000	8.134394
2204.000000	8.156528
2205.000000	8.178595
2206.000000	8.195977
2207.000000	8.222185
2208.000000	8.252720
2209.000000	8.284589
2210.000000	8.297828
2211.000000	8.330051
2212.000000	8.383261
2213.000000	8.418697
2214.000000	8.449957
2215.000000	8.503949
2216.000000	8.533827
2217.000000	8.574585
2218.000000	8.630650
2219.000000	8.660968
2220.000000	8.708049
2221.000000	8.770261
2222.000000	8.823076
2223.000000	8.870348
2224.000000	8.932241
2225.000000	8.960561
2226.000000	9.020634
2227.000000	9.060553
2228.000000	9.107018
2229.000000	9.143483
2230.000000	9.190373
2231.000000	9.236164
2232.000000	9.279876
2233.000000	9.320204
2234.000000	9.349475
2235.000000	9.381044
2236.000000	9.418951
2237.000000	9.441281
2238.000000	9.472226
2239.000000	9.512299
2240.000000	9.527853
2241.000000	9.535097
2242.000000	9.544378
2243.000000	9.564530
2244.000000	9.587980
2245.000000	9.603167
2246.000000	9.581610
2247.000000	9.608315
2248.000000	9.613080
2249.000000	9.632120
2250.000000	9.619378
2251.000000	9.635776
2252.000000	9.646764
2253.000000	9.664659
2254.000000	9.700939
2255.000000	9.698103
2256.000000	9.707216
2257.000000	9.751851
2258.000000	9.790002
2259.000000	9.841535
2260.000000	9.841835
2261.000000	9.892497
2262.000000	9.901015
2263.000000	9.928596
2264.000000	9.954789
2265.000000	9.968089
2266.000000	9.985664
2267.000000	9.997645
2268.000000	10.004497
2269.000000	9.994191
2270.000000	9.988966
2271.000000	9.961191
2272.000000	9.953631
2273.000000	9.920923
2274.000000	9.892410
2275.000000	9.872342
2276.000000	9.825701
2277.000000	9.785782
2278.000000	9.753940
2279.000000	9.705478
2280.000000	9.642164
2281.000000	9.592959
2282.000000	9.538687
2283.000000	9.492276
2284.000000	9.434469
2285.000000	9.386184
2286.000000	9.351096
2287.000000	9.300565
2288.000000	9.280585
2289.000000	9.252516
2290.000000	9.232444
2291.000000	9.240350
2292.000000	9.241584
2293.000000	9.239899
2294.000000	9.276626
2295.000000	9.301122
2296.000000	9.342085
2297.000000	9.387295
2298.000000	9.444350
2299.000000	9.486075
2300.000000	9.538920
2301.000000	9.603325
2302.000000	9.657170
2303.000000	9.692760
2304.000000	9.755836
2305.000000	9.797362
2306.000000	9.815945
2307.000000	9.830944
2308.000000	9.843868
2309.000000	9.844457
2310.000000	9.834838
2311.000000	9.838241
2312.000000	9.814326
2313.000000	9.769061
2314.000000	9.744963
2315.000000	9.705210
2316.000000	9.668507
2317.000000	9.623343
2318.000000	9.555632
2319.000000	9.494286
2320.000000	9.443926
2321.000000	9.391791
2322.000000	9.328079
2323.000000	9.257006
2324.000000	9.199137
2325.000000	9.136822
2326.000000	9.087979
2327.000000	9.040939
2328.000000	8.983528
2329.000000	8.913959
2330.000000	8.853981
2331.000000	8.816800
2332.000000	8.792180
2333.000000	8.762251
2334.000000	8.723853
2335.000000	8.708996
2336.000000	8.696379
2337.000000	8.691438
2338.000000	8.687479
2339.000000	8.675285
2340.000000	8.689811
2341.000000	8.708109
2342.000000	8.733863
2343.000000	8.758677
2344.000000	8.781427
2345.000000	8.819329
2346.000000	8.847418
2347.000000	8.884796
2348.000000	8.918236
2349.000000	8.939892
2350.000000	8.963703
2351.000000	8.987450
2352.000000	8.992285
2353.000000	8.986920
2354.000000	8.989789
2355.000000	8.990420
2356.000000	8.968574
2357.000000	8.944157
2358.000000	8.916417
2359.000000	8.883604
2360.000000	8.849937
2361.000000	8.814723
2362.000000	8.779425
2363.000000	8.748464
2364.000000	8.701988
2365.000000	8.656207
2366.000000	8.620484
2367.000000	8.588327
2368.000000	8.563565
2369.000000	8.539365
2370.000000	8.527166
2371.000000	8.508519
2372.000000	8.491512
2373.000000	8.478761
2374.000000	8.470409
2375.000000	8.465682
2376.000000	8.461099
2377.000000	8.457090
2378.000000	8.459759
2379.000000	8.452001
2380.000000	8.439887
2381.000000	8.440635
2382.000000	8.430940
2383.000000	8.422857
2384.000000	8.431176
2385.000000	8.437635
2386.000000	8.443419
2387.000000	8.429122
2388.000000	8.415776
2389.000000	8.401896
2390.000000	8.400857
2391.000000	8.414837
2392.000000	8.414183
2393.000000	8.404409
2394.000000	8.399091
2395.000000	8.414970
2396.000000	8.406778
2397.000000	8.397500
2398.000000	8.395170
2399.000000	8.376736
2400.000000	8.367813
2401.000000	8.362850
2402.000000	8.357498
2403.000000	8.346459
2404.000000	8.319692
2405.000000	8.296069
2406.000000	8.286419
2407.000000	8.294107
2408.000000	8.285041
2409.000000	8.234661
2410.000000	8.194738
2411.000000	8.186546
2412.000000	8.150648
2413.000000	8.124859
2414.000000	8.094906
2415.000000	8.042870
2416.000000	8.016035
2417.000000	7.990999
2418.000000	7.955597
2419.000000	7.919441
2420.000000	7.884154
2421.000000	7.835136
2422.000000	7.779615
2423.000000	7.730165
2424.000000	7.652985
2425.000000	7.597949
2426.000000	7.564949
2427.000000	7.521281
2428.000000	7.488044
2429.000000	7.444369
2430.000000	7.401029
2431.000000	7.358779
2432.000000	7.321683
2433.000000	7.282641
2434.000000	7.252949
2435.000000	7.216243
2436.000000	7.175180
2437.000000	7.137577
2438.000000	7.108930
2439.000000	7.053103
2440.000000	7.020582
2441.000000	6.979170
2442.000000	6.930233
2443.000000	6.896081
2444.000000	6.869571
2445.000000	6.826175
2446.000000	6.786107
2447.000000	6.757783
2448.000000	6.708828
2449.000000	6.661599
2450.000000	6.648307
2451.000000	6.613397
2452.000000	6.580323
2453.000000	6.538096
2454.000000	6.495802
2455.000000	6.455603
2456.000000	6.451380
2457.000000	6.436134
2458.000000	6.397203
2459.000000	6.352947
2460.000000	6.344659
2461.000000	6.291092
2462.000000	6.300924
2463.000000	6.269619
2464.000000	6.227992
2465.000000	6.220456
2466.000000	6.198042
2467.000000	6.181971
2468.000000	6.134084
2469.000000	6.095972
2470.000000	6.072357
2471.000000	6.042115
2472.000000	6.015260
2473.000000	6.014509
2474.000000	5.986424
2475.000000	5.949490
2476.000000	5.932514
2477.000000	5.871216
2478.000000	5.869340
2479.000000	5.869597
2480.000000	5.849945
2481.000000	5.836446
2482.000000	5.778328
2483.000000	5.796456
2484.000000	5.806446
2485.000000	5.816276
2486.000000	5.757047
2487.000000	5.717642
2488.000000	5.743991
2489.000000	5.743857
2490.000000	5.674944
2491.000000	5.728317
2492.000000	5.715235
2493.000000	5.682332
2494.000000	5.653825
2495.000000	5.616587
2496.000000	5.669415
2497.000000	5.709423
2498.000000	5.708866
2499.000000	5.633883
2500.000000	5.694431
