PE UV       SUBTECH     SPECTRUM    ASCII       PEDS        4.00        
   -1
CICIMAUCR0158-5.Sample.ASC
24/04/25
13:52:02.00
24/04/25
13:52:02.00
Vinicio Soto Monge
C. cupreomarginata
250,000000
1
Lambda 1050
1050L1511233
PerkinElmer UV WinLab 6.3.2.0749 / 2.02.05 Lambda 900 UV/VIS/NIR, Aug  7 2015 09:38:08

0
0
3350/servo 860,8/2
0
0
UV/VIS
1
1
1
DoubleDePol,CommonBeamDepol,RBeamAtt,SBeamAtt,60mm sphere, WB InGaAs Detector
0
0
0
0
Program
Program
3350/servo 860,8/2
3350/0,2 860,8/0,2
3350/0,2 860,8/0,2
0
15.00
 
 
 
0
 
860,8
319,2
860,8
Front
100
on
S:100 R:100
0
0
0
0
 
0
 
 
 
0
 
 
0
0
0
0
0
 
 
 
 
0
0


0
0
#HDR
-1
-1
#GR
nm
%R
1.0
0.0
2500,000000
-1,000000
2251
8
68,614000
5,280700
#DATA
250.000000	1.228960
251.000000	1.206854
252.000000	1.213619
253.000000	1.192079
254.000000	1.171644
255.000000	1.183386
256.000000	1.184460
257.000000	1.171122
258.000000	1.163707
259.000000	1.162496
260.000000	1.172250
261.000000	1.156805
262.000000	1.143857
263.000000	1.134351
264.000000	1.137171
265.000000	1.125160
266.000000	1.132658
267.000000	1.123908
268.000000	1.120235
269.000000	1.099517
270.000000	1.086793
271.000000	1.104553
272.000000	1.107967
273.000000	1.091935
274.000000	1.099203
275.000000	1.085461
276.000000	1.077394
277.000000	1.066875
278.000000	1.064693
279.000000	1.061495
280.000000	1.061922
281.000000	1.048349
282.000000	1.064457
283.000000	1.062970
284.000000	1.073937
285.000000	1.081453
286.000000	1.074129
287.000000	1.066826
288.000000	1.066135
289.000000	1.062086
290.000000	1.057126
291.000000	1.042578
292.000000	1.045761
293.000000	1.049827
294.000000	1.028104
295.000000	1.038054
296.000000	1.055576
297.000000	1.041855
298.000000	1.029383
299.000000	1.027991
300.000000	1.038572
301.000000	1.036342
302.000000	1.030646
303.000000	1.044311
304.000000	1.037822
305.000000	1.040410
306.000000	1.032756
307.000000	1.039389
308.000000	1.047510
309.000000	1.040041
310.000000	1.036054
311.000000	1.040341
312.000000	1.032804
313.000000	1.051685
314.000000	1.057409
315.000000	1.029703
316.000000	0.956664
317.000000	0.978078
318.000000	1.039124
319.000000	1.150252
320.000000	1.105180
321.000000	1.042492
322.000000	1.002013
323.000000	0.912045
324.000000	0.983404
325.000000	1.017101
326.000000	1.002313
327.000000	0.911039
328.000000	0.950311
329.000000	0.999445
330.000000	0.909923
331.000000	0.902274
332.000000	1.014518
333.000000	1.031084
334.000000	1.013965
335.000000	0.961478
336.000000	0.968756
337.000000	1.021214
338.000000	0.980080
339.000000	0.931554
340.000000	0.920741
341.000000	0.900444
342.000000	0.927160
343.000000	0.938725
344.000000	0.926685
345.000000	0.864381
346.000000	0.887725
347.000000	0.950656
348.000000	0.902412
349.000000	0.895182
350.000000	0.909531
351.000000	0.864601
352.000000	0.921617
353.000000	0.933713
354.000000	0.950792
355.000000	0.966689
356.000000	0.942458
357.000000	0.935056
358.000000	0.941432
359.000000	0.980649
360.000000	1.003426
361.000000	1.007060
362.000000	1.033961
363.000000	1.045831
364.000000	1.059154
365.000000	1.045421
366.000000	1.067287
367.000000	1.117445
368.000000	1.135104
369.000000	1.154310
370.000000	1.180034
371.000000	1.205887
372.000000	1.282026
373.000000	1.266711
374.000000	1.338285
375.000000	1.407988
376.000000	1.405607
377.000000	1.432881
378.000000	1.468307
379.000000	1.520922
380.000000	1.566720
381.000000	1.625621
382.000000	1.677254
383.000000	1.737821
384.000000	1.796890
385.000000	1.854997
386.000000	1.922375
387.000000	1.991254
388.000000	2.045590
389.000000	2.111365
390.000000	2.174977
391.000000	2.237168
392.000000	2.307315
393.000000	2.376283
394.000000	2.435880
395.000000	2.491179
396.000000	2.544089
397.000000	2.612010
398.000000	2.666464
399.000000	2.708797
400.000000	2.767099
401.000000	2.809534
402.000000	2.852542
403.000000	2.896403
404.000000	2.938265
405.000000	2.967175
406.000000	2.998987
407.000000	3.033042
408.000000	3.062015
409.000000	3.088455
410.000000	3.106218
411.000000	3.120956
412.000000	3.129525
413.000000	3.144060
414.000000	3.146562
415.000000	3.154345
416.000000	3.154065
417.000000	3.156945
418.000000	3.147909
419.000000	3.138535
420.000000	3.127935
421.000000	3.117940
422.000000	3.103946
423.000000	3.090340
424.000000	3.077641
425.000000	3.057835
426.000000	3.053100
427.000000	3.021381
428.000000	3.016922
429.000000	3.011666
430.000000	3.010829
431.000000	3.001328
432.000000	3.017157
433.000000	3.021111
434.000000	3.040355
435.000000	3.064427
436.000000	3.101321
437.000000	3.137759
438.000000	3.181489
439.000000	3.243911
440.000000	3.301551
441.000000	3.361701
442.000000	3.433417
443.000000	3.516795
444.000000	3.597759
445.000000	3.677089
446.000000	3.761011
447.000000	3.843188
448.000000	3.923493
449.000000	4.008529
450.000000	4.095037
451.000000	4.176017
452.000000	4.244141
453.000000	4.332923
454.000000	4.408803
455.000000	4.483734
456.000000	4.557417
457.000000	4.624509
458.000000	4.690921
459.000000	4.743476
460.000000	4.809734
461.000000	4.858776
462.000000	4.914487
463.000000	4.963600
464.000000	5.014780
465.000000	5.066739
466.000000	5.115699
467.000000	5.156162
468.000000	5.196706
469.000000	5.239732
470.000000	5.288855
471.000000	5.332651
472.000000	5.382612
473.000000	5.430964
474.000000	5.477183
475.000000	5.530921
476.000000	5.591924
477.000000	5.648254
478.000000	5.709244
479.000000	5.776267
480.000000	5.844402
481.000000	5.904594
482.000000	5.969999
483.000000	6.040851
484.000000	6.126134
485.000000	6.209834
486.000000	6.295111
487.000000	6.379947
488.000000	6.469333
489.000000	6.554534
490.000000	6.665629
491.000000	6.781604
492.000000	6.883127
493.000000	6.992909
494.000000	7.102271
495.000000	7.211678
496.000000	7.328117
497.000000	7.446595
498.000000	7.556941
499.000000	7.674492
500.000000	7.801642
501.000000	7.933071
502.000000	8.076791
503.000000	8.202842
504.000000	8.340636
505.000000	8.480834
506.000000	8.623274
507.000000	8.770669
508.000000	8.923459
509.000000	9.088111
510.000000	9.254334
511.000000	9.441875
512.000000	9.625920
513.000000	9.813786
514.000000	10.006418
515.000000	10.207299
516.000000	10.408694
517.000000	10.638152
518.000000	10.863862
519.000000	11.099919
520.000000	11.334012
521.000000	11.572369
522.000000	11.824456
523.000000	12.074826
524.000000	12.335062
525.000000	12.597614
526.000000	12.851953
527.000000	13.117892
528.000000	13.386208
529.000000	13.645111
530.000000	13.904642
531.000000	14.167509
532.000000	14.431347
533.000000	14.695025
534.000000	14.951706
535.000000	15.202471
536.000000	15.453060
537.000000	15.687027
538.000000	15.912688
539.000000	16.129815
540.000000	16.343080
541.000000	16.545381
542.000000	16.744146
543.000000	16.936781
544.000000	17.129487
545.000000	17.289308
546.000000	17.447004
547.000000	17.590776
548.000000	17.729744
549.000000	17.848639
550.000000	17.970342
551.000000	18.072412
552.000000	18.169991
553.000000	18.252781
554.000000	18.324488
555.000000	18.387799
556.000000	18.438276
557.000000	18.503742
558.000000	18.555279
559.000000	18.615736
560.000000	18.691771
561.000000	18.721820
562.000000	18.731445
563.000000	18.739403
564.000000	18.750526
565.000000	18.750166
566.000000	18.759744
567.000000	18.746333
568.000000	18.726721
569.000000	18.703182
570.000000	18.669773
571.000000	18.631987
572.000000	18.586466
573.000000	18.543788
574.000000	18.496106
575.000000	18.436464
576.000000	18.377941
577.000000	18.318845
578.000000	18.254145
579.000000	18.189577
580.000000	18.120465
581.000000	18.020756
582.000000	17.945667
583.000000	17.866634
584.000000	17.776723
585.000000	17.683496
586.000000	17.599631
587.000000	17.524092
588.000000	17.444751
589.000000	17.355341
590.000000	17.261254
591.000000	17.171461
592.000000	17.081840
593.000000	16.984616
594.000000	16.890390
595.000000	16.779060
596.000000	16.672888
597.000000	16.566852
598.000000	16.437773
599.000000	16.313659
600.000000	16.175578
601.000000	16.034945
602.000000	15.882902
603.000000	15.717251
604.000000	15.544517
605.000000	15.366802
606.000000	15.193978
607.000000	15.018654
608.000000	14.855931
609.000000	14.677817
610.000000	14.488074
611.000000	14.319885
612.000000	14.141628
613.000000	13.963005
614.000000	13.791272
615.000000	13.613212
616.000000	13.453145
617.000000	13.266948
618.000000	13.079436
619.000000	12.906332
620.000000	12.726383
621.000000	12.542080
622.000000	12.351834
623.000000	12.177004
624.000000	12.017164
625.000000	11.872990
626.000000	11.733911
627.000000	11.603810
628.000000	11.493175
629.000000	11.397384
630.000000	11.316660
631.000000	11.268152
632.000000	11.236185
633.000000	11.202798
634.000000	11.195988
635.000000	11.207054
636.000000	11.232699
637.000000	11.272872
638.000000	11.337740
639.000000	11.402122
640.000000	11.449595
641.000000	11.508850
642.000000	11.596286
643.000000	11.675091
644.000000	11.742650
645.000000	11.807183
646.000000	11.888027
647.000000	11.964221
648.000000	12.022771
649.000000	12.091259
650.000000	12.166354
651.000000	12.231491
652.000000	12.298582
653.000000	12.369299
654.000000	12.413204
655.000000	12.447367
656.000000	12.484664
657.000000	12.508862
658.000000	12.524228
659.000000	12.530946
660.000000	12.538819
661.000000	12.537076
662.000000	12.537208
663.000000	12.547713
664.000000	12.552519
665.000000	12.546969
666.000000	12.540542
667.000000	12.516849
668.000000	12.499439
669.000000	12.482214
670.000000	12.461593
671.000000	12.453642
672.000000	12.424807
673.000000	12.388661
674.000000	12.358172
675.000000	12.336286
676.000000	12.324732
677.000000	12.311533
678.000000	12.301227
679.000000	12.272820
680.000000	12.241002
681.000000	12.227456
682.000000	12.213582
683.000000	12.200609
684.000000	12.190722
685.000000	12.177968
686.000000	12.168817
687.000000	12.153063
688.000000	12.149260
689.000000	12.156174
690.000000	12.146639
691.000000	12.156122
692.000000	12.168952
693.000000	12.190774
694.000000	12.213587
695.000000	12.244153
696.000000	12.269378
697.000000	12.292839
698.000000	12.309155
699.000000	12.330536
700.000000	12.359528
701.000000	12.397334
702.000000	12.432059
703.000000	12.450223
704.000000	12.491393
705.000000	12.506154
706.000000	12.532448
707.000000	12.550676
708.000000	12.557059
709.000000	12.594699
710.000000	12.609539
711.000000	12.608961
712.000000	12.632828
713.000000	12.640998
714.000000	12.622483
715.000000	12.647896
716.000000	12.660168
717.000000	12.657747
718.000000	12.659843
719.000000	12.683451
720.000000	12.672090
721.000000	12.657181
722.000000	12.670511
723.000000	12.676736
724.000000	12.613652
725.000000	12.626081
726.000000	12.653196
727.000000	12.632949
728.000000	12.622436
729.000000	12.618756
730.000000	12.603551
731.000000	12.601337
732.000000	12.597388
733.000000	12.577577
734.000000	12.580937
735.000000	12.585141
736.000000	12.588728
737.000000	12.578670
738.000000	12.566926
739.000000	12.576638
740.000000	12.568086
741.000000	12.570591
742.000000	12.561685
743.000000	12.540614
744.000000	12.530549
745.000000	12.545354
746.000000	12.536841
747.000000	12.568357
748.000000	12.536433
749.000000	12.547159
750.000000	12.552228
751.000000	12.545544
752.000000	12.552886
753.000000	12.588494
754.000000	12.560597
755.000000	12.591642
756.000000	12.616522
757.000000	12.608562
758.000000	12.626673
759.000000	12.652974
760.000000	12.685661
761.000000	12.682417
762.000000	12.692743
763.000000	12.690008
764.000000	12.748211
765.000000	12.729960
766.000000	12.744846
767.000000	12.779292
768.000000	12.793311
769.000000	12.774471
770.000000	12.813653
771.000000	12.857669
772.000000	12.899287
773.000000	12.865122
774.000000	12.925032
775.000000	12.926205
776.000000	12.937694
777.000000	12.950505
778.000000	12.976478
779.000000	12.919970
780.000000	12.955021
781.000000	12.965446
782.000000	12.898007
783.000000	12.872054
784.000000	12.920196
785.000000	12.897173
786.000000	12.914720
787.000000	12.914528
788.000000	12.910589
789.000000	12.867401
790.000000	12.873415
791.000000	12.896353
792.000000	12.845152
793.000000	12.858512
794.000000	12.845504
795.000000	12.797888
796.000000	12.740071
797.000000	12.814536
798.000000	12.778859
799.000000	12.802905
800.000000	12.793726
801.000000	12.724690
802.000000	12.772615
803.000000	12.686229
804.000000	12.703201
805.000000	12.716694
806.000000	12.660007
807.000000	12.679560
808.000000	12.708811
809.000000	12.638193
810.000000	12.580919
811.000000	12.592270
812.000000	12.573746
813.000000	12.548771
814.000000	12.500584
815.000000	12.543924
816.000000	12.529037
817.000000	12.545301
818.000000	12.450751
819.000000	12.417045
820.000000	12.449357
821.000000	12.349954
822.000000	12.304312
823.000000	12.285533
824.000000	12.212358
825.000000	12.301104
826.000000	12.222015
827.000000	12.089273
828.000000	12.175005
829.000000	12.098536
830.000000	11.942397
831.000000	11.877129
832.000000	11.866409
833.000000	11.880622
834.000000	11.805505
835.000000	11.757545
836.000000	11.712113
837.000000	11.553204
838.000000	11.629818
839.000000	11.576432
840.000000	11.523676
841.000000	11.499732
842.000000	11.384750
843.000000	11.379967
844.000000	11.347843
845.000000	11.311216
846.000000	11.285729
847.000000	11.047106
848.000000	11.011247
849.000000	11.030593
850.000000	11.112241
851.000000	11.054107
852.000000	11.054174
853.000000	10.940718
854.000000	10.978838
855.000000	10.760112
856.000000	10.698381
857.000000	10.842091
858.000000	10.610080
859.000000	11.037133
860.000000	10.876257
861.000000	10.891694
862.000000	11.143134
863.000000	11.016443
864.000000	10.794662
865.000000	10.802377
866.000000	10.657108
867.000000	10.521147
868.000000	10.231208
869.000000	10.754889
870.000000	10.839258
871.000000	10.833690
872.000000	10.795291
873.000000	10.844071
874.000000	10.893304
875.000000	10.810246
876.000000	10.789087
877.000000	10.746744
878.000000	10.735766
879.000000	10.838614
880.000000	10.942956
881.000000	10.810069
882.000000	10.654487
883.000000	10.576733
884.000000	10.578436
885.000000	10.606950
886.000000	10.569958
887.000000	10.501105
888.000000	10.617709
889.000000	10.653295
890.000000	10.536960
891.000000	10.613699
892.000000	10.418214
893.000000	10.344778
894.000000	10.373228
895.000000	10.208844
896.000000	10.120331
897.000000	10.213084
898.000000	10.174536
899.000000	10.133602
900.000000	10.225554
901.000000	10.104541
902.000000	10.112819
903.000000	10.002477
904.000000	9.958674
905.000000	10.057188
906.000000	9.958495
907.000000	9.917821
908.000000	9.900415
909.000000	9.857059
910.000000	9.902009
911.000000	9.821518
912.000000	9.745762
913.000000	9.689916
914.000000	9.677622
915.000000	9.727516
916.000000	9.729069
917.000000	9.694523
918.000000	9.726471
919.000000	9.742058
920.000000	9.654398
921.000000	9.639829
922.000000	9.686669
923.000000	9.611175
924.000000	9.615704
925.000000	9.652127
926.000000	9.672593
927.000000	9.631309
928.000000	9.610105
929.000000	9.567010
930.000000	9.568981
931.000000	9.589459
932.000000	9.574313
933.000000	9.513284
934.000000	9.470038
935.000000	9.450846
936.000000	9.470872
937.000000	9.477735
938.000000	9.454703
939.000000	9.447720
940.000000	9.396827
941.000000	9.416868
942.000000	9.410980
943.000000	9.399021
944.000000	9.377212
945.000000	9.368942
946.000000	9.400832
947.000000	9.401772
948.000000	9.398709
949.000000	9.386372
950.000000	9.348140
951.000000	9.365940
952.000000	9.397855
953.000000	9.357050
954.000000	9.359153
955.000000	9.356867
956.000000	9.294490
957.000000	9.277518
958.000000	9.290767
959.000000	9.307333
960.000000	9.297869
961.000000	9.321753
962.000000	9.327482
963.000000	9.301372
964.000000	9.316719
965.000000	9.296548
966.000000	9.291733
967.000000	9.287733
968.000000	9.288410
969.000000	9.325684
970.000000	9.339325
971.000000	9.316776
972.000000	9.312137
973.000000	9.328651
974.000000	9.360849
975.000000	9.379750
976.000000	9.366208
977.000000	9.376570
978.000000	9.388846
979.000000	9.391926
980.000000	9.428862
981.000000	9.434784
982.000000	9.396126
983.000000	9.412355
984.000000	9.446544
985.000000	9.446160
986.000000	9.437979
987.000000	9.461209
988.000000	9.443175
989.000000	9.452305
990.000000	9.436729
991.000000	9.472248
992.000000	9.492458
993.000000	9.486321
994.000000	9.503797
995.000000	9.512264
996.000000	9.510274
997.000000	9.515778
998.000000	9.540167
999.000000	9.529879
1000.000000	9.552795
1001.000000	9.569382
1002.000000	9.579058
1003.000000	9.552340
1004.000000	9.566212
1005.000000	9.557386
1006.000000	9.556883
1007.000000	9.551503
1008.000000	9.584368
1009.000000	9.578256
1010.000000	9.594013
1011.000000	9.612867
1012.000000	9.588304
1013.000000	9.603383
1014.000000	9.591379
1015.000000	9.571842
1016.000000	9.594204
1017.000000	9.607743
1018.000000	9.611713
1019.000000	9.607584
1020.000000	9.624300
1021.000000	9.607505
1022.000000	9.622969
1023.000000	9.619995
1024.000000	9.635483
1025.000000	9.637357
1026.000000	9.645532
1027.000000	9.625401
1028.000000	9.654362
1029.000000	9.626754
1030.000000	9.645185
1031.000000	9.648936
1032.000000	9.652298
1033.000000	9.658282
1034.000000	9.652616
1035.000000	9.661285
1036.000000	9.671227
1037.000000	9.667557
1038.000000	9.692061
1039.000000	9.681030
1040.000000	9.678732
1041.000000	9.678972
1042.000000	9.671805
1043.000000	9.679876
1044.000000	9.704745
1045.000000	9.726285
1046.000000	9.729848
1047.000000	9.724264
1048.000000	9.716930
1049.000000	9.740527
1050.000000	9.725535
1051.000000	9.736840
1052.000000	9.737587
1053.000000	9.761403
1054.000000	9.774726
1055.000000	9.755015
1056.000000	9.771581
1057.000000	9.793630
1058.000000	9.777240
1059.000000	9.810020
1060.000000	9.816680
1061.000000	9.833612
1062.000000	9.824043
1063.000000	9.844503
1064.000000	9.849208
1065.000000	9.839376
1066.000000	9.861435
1067.000000	9.882043
1068.000000	9.872608
1069.000000	9.893795
1070.000000	9.908411
1071.000000	9.905043
1072.000000	9.928889
1073.000000	9.919565
1074.000000	9.930534
1075.000000	9.941744
1076.000000	9.941752
1077.000000	9.938713
1078.000000	9.961943
1079.000000	9.956104
1080.000000	9.957943
1081.000000	10.001878
1082.000000	10.001657
1083.000000	10.005630
1084.000000	9.979221
1085.000000	9.984634
1086.000000	10.006980
1087.000000	10.012907
1088.000000	10.017831
1089.000000	10.030606
1090.000000	10.036701
1091.000000	10.050257
1092.000000	10.023266
1093.000000	10.033485
1094.000000	10.044032
1095.000000	10.057268
1096.000000	10.038444
1097.000000	10.053720
1098.000000	10.054477
1099.000000	10.041323
1100.000000	10.046713
1101.000000	10.050349
1102.000000	10.065324
1103.000000	10.037068
1104.000000	10.059576
1105.000000	10.060084
1106.000000	10.050952
1107.000000	10.056911
1108.000000	10.053832
1109.000000	10.047418
1110.000000	10.050791
1111.000000	10.040146
1112.000000	10.046387
1113.000000	10.042470
1114.000000	10.035925
1115.000000	10.039070
1116.000000	10.055890
1117.000000	10.041073
1118.000000	10.034987
1119.000000	10.042593
1120.000000	10.044619
1121.000000	10.047683
1122.000000	10.036844
1123.000000	10.043698
1124.000000	10.027421
1125.000000	10.019962
1126.000000	10.017605
1127.000000	9.994415
1128.000000	10.005627
1129.000000	9.993557
1130.000000	9.983624
1131.000000	9.965253
1132.000000	9.946351
1133.000000	9.933893
1134.000000	9.930242
1135.000000	9.940949
1136.000000	9.911102
1137.000000	9.883155
1138.000000	9.860828
1139.000000	9.839706
1140.000000	9.825791
1141.000000	9.810501
1142.000000	9.798987
1143.000000	9.770774
1144.000000	9.781648
1145.000000	9.775615
1146.000000	9.758966
1147.000000	9.743684
1148.000000	9.735223
1149.000000	9.721962
1150.000000	9.718670
1151.000000	9.720325
1152.000000	9.708553
1153.000000	9.698295
1154.000000	9.688984
1155.000000	9.674586
1156.000000	9.661443
1157.000000	9.650146
1158.000000	9.637240
1159.000000	9.617283
1160.000000	9.596180
1161.000000	9.583907
1162.000000	9.569005
1163.000000	9.544459
1164.000000	9.528704
1165.000000	9.526850
1166.000000	9.506254
1167.000000	9.478028
1168.000000	9.461274
1169.000000	9.457848
1170.000000	9.439308
1171.000000	9.425228
1172.000000	9.417329
1173.000000	9.404786
1174.000000	9.387935
1175.000000	9.376498
1176.000000	9.365609
1177.000000	9.356802
1178.000000	9.350967
1179.000000	9.345139
1180.000000	9.332304
1181.000000	9.326761
1182.000000	9.325073
1183.000000	9.317874
1184.000000	9.318025
1185.000000	9.315525
1186.000000	9.308262
1187.000000	9.303629
1188.000000	9.310606
1189.000000	9.318946
1190.000000	9.324287
1191.000000	9.333665
1192.000000	9.347268
1193.000000	9.350316
1194.000000	9.361453
1195.000000	9.377131
1196.000000	9.381986
1197.000000	9.387664
1198.000000	9.402845
1199.000000	9.415924
1200.000000	9.433848
1201.000000	9.449085
1202.000000	9.459437
1203.000000	9.474020
1204.000000	9.485790
1205.000000	9.489656
1206.000000	9.494832
1207.000000	9.504055
1208.000000	9.502858
1209.000000	9.504043
1210.000000	9.517043
1211.000000	9.532867
1212.000000	9.535719
1213.000000	9.547620
1214.000000	9.556283
1215.000000	9.562041
1216.000000	9.574185
1217.000000	9.577890
1218.000000	9.574903
1219.000000	9.572088
1220.000000	9.569044
1221.000000	9.575033
1222.000000	9.578316
1223.000000	9.574666
1224.000000	9.579499
1225.000000	9.586675
1226.000000	9.590891
1227.000000	9.594400
1228.000000	9.593080
1229.000000	9.595115
1230.000000	9.595400
1231.000000	9.594376
1232.000000	9.599306
1233.000000	9.592955
1234.000000	9.591299
1235.000000	9.594919
1236.000000	9.597818
1237.000000	9.595679
1238.000000	9.595945
1239.000000	9.598558
1240.000000	9.602300
1241.000000	9.611829
1242.000000	9.596479
1243.000000	9.602558
1244.000000	9.610019
1245.000000	9.611417
1246.000000	9.621001
1247.000000	9.624294
1248.000000	9.627189
1249.000000	9.626243
1250.000000	9.626291
1251.000000	9.630175
1252.000000	9.644257
1253.000000	9.643174
1254.000000	9.638882
1255.000000	9.640780
1256.000000	9.632097
1257.000000	9.632963
1258.000000	9.629944
1259.000000	9.630796
1260.000000	9.633279
1261.000000	9.632707
1262.000000	9.626812
1263.000000	9.624363
1264.000000	9.616678
1265.000000	9.622247
1266.000000	9.612182
1267.000000	9.615893
1268.000000	9.610276
1269.000000	9.601037
1270.000000	9.599254
1271.000000	9.594347
1272.000000	9.591912
1273.000000	9.597944
1274.000000	9.601286
1275.000000	9.596184
1276.000000	9.594196
1277.000000	9.593934
1278.000000	9.596827
1279.000000	9.597090
1280.000000	9.592506
1281.000000	9.597697
1282.000000	9.599132
1283.000000	9.603349
1284.000000	9.608805
1285.000000	9.604791
1286.000000	9.611492
1287.000000	9.610705
1288.000000	9.616201
1289.000000	9.621259
1290.000000	9.617215
1291.000000	9.625531
1292.000000	9.627886
1293.000000	9.620409
1294.000000	9.621623
1295.000000	9.626720
1296.000000	9.625373
1297.000000	9.614831
1298.000000	9.612594
1299.000000	9.616293
1300.000000	9.611637
1301.000000	9.606752
1302.000000	9.603141
1303.000000	9.600093
1304.000000	9.608813
1305.000000	9.608556
1306.000000	9.592845
1307.000000	9.586084
1308.000000	9.601225
1309.000000	9.583581
1310.000000	9.568009
1311.000000	9.573610
1312.000000	9.571104
1313.000000	9.565746
1314.000000	9.558635
1315.000000	9.557304
1316.000000	9.536647
1317.000000	9.534154
1318.000000	9.526721
1319.000000	9.528705
1320.000000	9.521146
1321.000000	9.513191
1322.000000	9.494611
1323.000000	9.499461
1324.000000	9.492888
1325.000000	9.479957
1326.000000	9.471235
1327.000000	9.459601
1328.000000	9.450814
1329.000000	9.434429
1330.000000	9.424941
1331.000000	9.421186
1332.000000	9.411081
1333.000000	9.415091
1334.000000	9.386554
1335.000000	9.371151
1336.000000	9.361051
1337.000000	9.345894
1338.000000	9.328391
1339.000000	9.308625
1340.000000	9.290430
1341.000000	9.289126
1342.000000	9.260195
1343.000000	9.235750
1344.000000	9.221821
1345.000000	9.204432
1346.000000	9.178919
1347.000000	9.161079
1348.000000	9.169410
1349.000000	9.139293
1350.000000	9.094774
1351.000000	9.084606
1352.000000	9.077744
1353.000000	9.036826
1354.000000	9.018582
1355.000000	9.051454
1356.000000	9.025007
1357.000000	8.982056
1358.000000	8.957232
1359.000000	8.971016
1360.000000	8.970427
1361.000000	8.930913
1362.000000	9.001309
1363.000000	8.990238
1364.000000	8.914892
1365.000000	8.957385
1366.000000	8.930362
1367.000000	8.887139
1368.000000	8.915909
1369.000000	8.919519
1370.000000	8.849049
1371.000000	8.834754
1372.000000	8.837892
1373.000000	8.808810
1374.000000	8.766058
1375.000000	8.757586
1376.000000	8.733103
1377.000000	8.704513
1378.000000	8.684895
1379.000000	8.660253
1380.000000	8.646646
1381.000000	8.635988
1382.000000	8.634491
1383.000000	8.673246
1384.000000	8.622970
1385.000000	8.564120
1386.000000	8.512092
1387.000000	8.450850
1388.000000	8.426796
1389.000000	8.392238
1390.000000	8.337909
1391.000000	8.256684
1392.000000	8.243448
1393.000000	8.235664
1394.000000	8.151840
1395.000000	8.115665
1396.000000	8.134852
1397.000000	8.096583
1398.000000	8.005664
1399.000000	7.928679
1400.000000	7.935532
1401.000000	7.959954
1402.000000	7.887173
1403.000000	7.794897
1404.000000	7.753510
1405.000000	7.731554
1406.000000	7.677867
1407.000000	7.647908
1408.000000	7.613687
1409.000000	7.571013
1410.000000	7.545170
1411.000000	7.487911
1412.000000	7.437515
1413.000000	7.413000
1414.000000	7.393278
1415.000000	7.388146
1416.000000	7.348151
1417.000000	7.299078
1418.000000	7.264113
1419.000000	7.247977
1420.000000	7.234794
1421.000000	7.211379
1422.000000	7.191674
1423.000000	7.162350
1424.000000	7.149045
1425.000000	7.122109
1426.000000	7.102835
1427.000000	7.087767
1428.000000	7.077691
1429.000000	7.063956
1430.000000	7.047157
1431.000000	7.032282
1432.000000	7.040076
1433.000000	7.021818
1434.000000	7.010588
1435.000000	6.993651
1436.000000	6.970046
1437.000000	6.961702
1438.000000	6.966665
1439.000000	6.964457
1440.000000	6.952689
1441.000000	6.936279
1442.000000	6.923731
1443.000000	6.909913
1444.000000	6.901308
1445.000000	6.901860
1446.000000	6.907234
1447.000000	6.895346
1448.000000	6.877958
1449.000000	6.871230
1450.000000	6.871907
1451.000000	6.865361
1452.000000	6.853333
1453.000000	6.842771
1454.000000	6.826856
1455.000000	6.815082
1456.000000	6.809418
1457.000000	6.804777
1458.000000	6.788363
1459.000000	6.777505
1460.000000	6.764186
1461.000000	6.753568
1462.000000	6.746740
1463.000000	6.735248
1464.000000	6.734303
1465.000000	6.732989
1466.000000	6.724667
1467.000000	6.711134
1468.000000	6.705222
1469.000000	6.700664
1470.000000	6.697652
1471.000000	6.691169
1472.000000	6.685616
1473.000000	6.679284
1474.000000	6.661380
1475.000000	6.654289
1476.000000	6.654050
1477.000000	6.649816
1478.000000	6.641171
1479.000000	6.631396
1480.000000	6.625200
1481.000000	6.623603
1482.000000	6.614099
1483.000000	6.601589
1484.000000	6.596503
1485.000000	6.586323
1486.000000	6.571029
1487.000000	6.565546
1488.000000	6.565275
1489.000000	6.556347
1490.000000	6.543223
1491.000000	6.523778
1492.000000	6.511536
1493.000000	6.503808
1494.000000	6.497416
1495.000000	6.485718
1496.000000	6.473390
1497.000000	6.476691
1498.000000	6.473981
1499.000000	6.468648
1500.000000	6.471348
1501.000000	6.473479
1502.000000	6.469679
1503.000000	6.464809
1504.000000	6.466525
1505.000000	6.470920
1506.000000	6.470770
1507.000000	6.478878
1508.000000	6.480855
1509.000000	6.482735
1510.000000	6.482903
1511.000000	6.491295
1512.000000	6.488035
1513.000000	6.490060
1514.000000	6.489055
1515.000000	6.497186
1516.000000	6.507663
1517.000000	6.513599
1518.000000	6.509679
1519.000000	6.520012
1520.000000	6.529153
1521.000000	6.526751
1522.000000	6.535315
1523.000000	6.548002
1524.000000	6.548275
1525.000000	6.558108
1526.000000	6.556240
1527.000000	6.553015
1528.000000	6.558332
1529.000000	6.571806
1530.000000	6.576761
1531.000000	6.592266
1532.000000	6.604560
1533.000000	6.601565
1534.000000	6.610715
1535.000000	6.615763
1536.000000	6.628085
1537.000000	6.633215
1538.000000	6.628055
1539.000000	6.644236
1540.000000	6.647063
1541.000000	6.646215
1542.000000	6.651286
1543.000000	6.653695
1544.000000	6.668324
1545.000000	6.675747
1546.000000	6.682041
1547.000000	6.692209
1548.000000	6.694468
1549.000000	6.700860
1550.000000	6.719006
1551.000000	6.733710
1552.000000	6.730550
1553.000000	6.749489
1554.000000	6.756462
1555.000000	6.760170
1556.000000	6.764516
1557.000000	6.782591
1558.000000	6.776774
1559.000000	6.775641
1560.000000	6.780232
1561.000000	6.778922
1562.000000	6.781419
1563.000000	6.784586
1564.000000	6.769748
1565.000000	6.760990
1566.000000	6.777154
1567.000000	6.777408
1568.000000	6.770768
1569.000000	6.761578
1570.000000	6.753979
1571.000000	6.762574
1572.000000	6.749405
1573.000000	6.749485
1574.000000	6.735375
1575.000000	6.733201
1576.000000	6.752722
1577.000000	6.752324
1578.000000	6.758876
1579.000000	6.750653
1580.000000	6.753665
1581.000000	6.763145
1582.000000	6.758852
1583.000000	6.753352
1584.000000	6.776267
1585.000000	6.777697
1586.000000	6.789371
1587.000000	6.791477
1588.000000	6.793580
1589.000000	6.805985
1590.000000	6.794144
1591.000000	6.804995
1592.000000	6.814913
1593.000000	6.809885
1594.000000	6.808994
1595.000000	6.811726
1596.000000	6.820407
1597.000000	6.810866
1598.000000	6.821718
1599.000000	6.829891
1600.000000	6.830228
1601.000000	6.836026
1602.000000	6.827559
1603.000000	6.841571
1604.000000	6.843402
1605.000000	6.832426
1606.000000	6.851658
1607.000000	6.837426
1608.000000	6.844358
1609.000000	6.828294
1610.000000	6.841367
1611.000000	6.833473
1612.000000	6.845535
1613.000000	6.848541
1614.000000	6.833864
1615.000000	6.825650
1616.000000	6.831423
1617.000000	6.823827
1618.000000	6.828297
1619.000000	6.831494
1620.000000	6.796684
1621.000000	6.809694
1622.000000	6.797700
1623.000000	6.812982
1624.000000	6.817366
1625.000000	6.818323
1626.000000	6.832067
1627.000000	6.808780
1628.000000	6.823682
1629.000000	6.814826
1630.000000	6.817065
1631.000000	6.821660
1632.000000	6.839801
1633.000000	6.843691
1634.000000	6.832080
1635.000000	6.835024
1636.000000	6.829087
1637.000000	6.824786
1638.000000	6.835003
1639.000000	6.821066
1640.000000	6.824013
1641.000000	6.814806
1642.000000	6.824611
1643.000000	6.804551
1644.000000	6.813088
1645.000000	6.814266
1646.000000	6.802847
1647.000000	6.811247
1648.000000	6.816247
1649.000000	6.806944
1650.000000	6.796777
1651.000000	6.811398
1652.000000	6.804035
1653.000000	6.796022
1654.000000	6.794804
1655.000000	6.777697
1656.000000	6.774196
1657.000000	6.762170
1658.000000	6.747352
1659.000000	6.734934
1660.000000	6.717771
1661.000000	6.710341
1662.000000	6.698044
1663.000000	6.677975
1664.000000	6.654703
1665.000000	6.647781
1666.000000	6.621305
1667.000000	6.601391
1668.000000	6.565362
1669.000000	6.555445
1670.000000	6.534523
1671.000000	6.514360
1672.000000	6.478889
1673.000000	6.440390
1674.000000	6.416100
1675.000000	6.382443
1676.000000	6.356070
1677.000000	6.326799
1678.000000	6.296103
1679.000000	6.268917
1680.000000	6.241521
1681.000000	6.207093
1682.000000	6.165104
1683.000000	6.128369
1684.000000	6.108875
1685.000000	6.075098
1686.000000	6.048130
1687.000000	6.020310
1688.000000	5.997708
1689.000000	5.984579
1690.000000	5.988173
1691.000000	5.972832
1692.000000	5.971594
1693.000000	5.972941
1694.000000	5.981287
1695.000000	5.990043
1696.000000	5.991567
1697.000000	5.981273
1698.000000	5.978411
1699.000000	5.989970
1700.000000	5.987882
1701.000000	6.008933
1702.000000	6.014114
1703.000000	6.001015
1704.000000	6.000674
1705.000000	6.004060
1706.000000	6.004894
1707.000000	5.999535
1708.000000	5.985466
1709.000000	5.966102
1710.000000	5.944487
1711.000000	5.934734
1712.000000	5.917606
1713.000000	5.909779
1714.000000	5.887411
1715.000000	5.860623
1716.000000	5.843942
1717.000000	5.811324
1718.000000	5.764146
1719.000000	5.743666
1720.000000	5.727350
1721.000000	5.699369
1722.000000	5.693841
1723.000000	5.684111
1724.000000	5.661846
1725.000000	5.647664
1726.000000	5.646377
1727.000000	5.663852
1728.000000	5.648609
1729.000000	5.623866
1730.000000	5.635850
1731.000000	5.648466
1732.000000	5.637038
1733.000000	5.646235
1734.000000	5.659359
1735.000000	5.652040
1736.000000	5.643097
1737.000000	5.644530
1738.000000	5.648153
1739.000000	5.656277
1740.000000	5.675465
1741.000000	5.679357
1742.000000	5.683175
1743.000000	5.692916
1744.000000	5.690290
1745.000000	5.699399
1746.000000	5.718397
1747.000000	5.729278
1748.000000	5.731748
1749.000000	5.742388
1750.000000	5.750234
1751.000000	5.764040
1752.000000	5.772098
1753.000000	5.768162
1754.000000	5.771049
1755.000000	5.773810
1756.000000	5.776183
1757.000000	5.782818
1758.000000	5.780206
1759.000000	5.783530
1760.000000	5.785172
1761.000000	5.794337
1762.000000	5.807493
1763.000000	5.805077
1764.000000	5.823207
1765.000000	5.836279
1766.000000	5.836556
1767.000000	5.854317
1768.000000	5.860486
1769.000000	5.855800
1770.000000	5.865322
1771.000000	5.869982
1772.000000	5.859501
1773.000000	5.875534
1774.000000	5.897470
1775.000000	5.895263
1776.000000	5.898694
1777.000000	5.912015
1778.000000	5.908036
1779.000000	5.922646
1780.000000	5.919634
1781.000000	5.919725
1782.000000	5.915285
1783.000000	5.906469
1784.000000	5.919186
1785.000000	5.914078
1786.000000	5.912959
1787.000000	5.931748
1788.000000	5.916142
1789.000000	5.914588
1790.000000	5.916588
1791.000000	5.921457
1792.000000	5.907440
1793.000000	5.913409
1794.000000	5.931363
1795.000000	5.918890
1796.000000	5.916630
1797.000000	5.925975
1798.000000	5.928516
1799.000000	5.935575
1800.000000	5.936608
1801.000000	5.939481
1802.000000	5.956332
1803.000000	5.954209
1804.000000	5.929270
1805.000000	5.939000
1806.000000	5.961072
1807.000000	5.957371
1808.000000	5.963740
1809.000000	5.945461
1810.000000	5.931795
1811.000000	5.953778
1812.000000	5.977169
1813.000000	5.987034
1814.000000	5.963997
1815.000000	5.941535
1816.000000	5.991098
1817.000000	5.985043
1818.000000	5.996018
1819.000000	5.963619
1820.000000	5.983773
1821.000000	6.007558
1822.000000	6.032252
1823.000000	6.018112
1824.000000	5.984467
1825.000000	5.963041
1826.000000	6.007666
1827.000000	6.031837
1828.000000	6.006851
1829.000000	6.003664
1830.000000	6.054862
1831.000000	6.040859
1832.000000	6.025201
1833.000000	6.010306
1834.000000	6.023643
1835.000000	6.045628
1836.000000	6.057759
1837.000000	6.067084
1838.000000	6.048106
1839.000000	6.067713
1840.000000	6.068695
1841.000000	5.992995
1842.000000	6.074654
1843.000000	6.069770
1844.000000	6.046529
1845.000000	5.977194
1846.000000	5.979777
1847.000000	6.070385
1848.000000	6.089112
1849.000000	6.071451
1850.000000	6.015055
1851.000000	5.996117
1852.000000	5.947294
1853.000000	6.037374
1854.000000	6.044716
1855.000000	5.949199
1856.000000	5.966084
1857.000000	6.010796
1858.000000	5.966189
1859.000000	5.948422
1860.000000	5.991095
1861.000000	6.015485
1862.000000	5.952245
1863.000000	5.919047
1864.000000	5.914597
1865.000000	5.902566
1866.000000	5.831056
1867.000000	5.826489
1868.000000	5.831688
1869.000000	5.825979
1870.000000	5.786784
1871.000000	5.911816
1872.000000	5.825000
1873.000000	5.859435
1874.000000	5.757068
1875.000000	5.666809
1876.000000	5.653521
1877.000000	5.659885
1878.000000	5.599434
1879.000000	5.502625
1880.000000	5.475091
1881.000000	5.444171
1882.000000	5.444242
1883.000000	5.343986
1884.000000	5.335557
1885.000000	5.261348
1886.000000	5.220290
1887.000000	5.171954
1888.000000	5.059965
1889.000000	5.021659
1890.000000	4.999450
1891.000000	4.867764
1892.000000	4.826703
1893.000000	4.785776
1894.000000	4.707480
1895.000000	4.673282
1896.000000	4.594294
1897.000000	4.530240
1898.000000	4.525286
1899.000000	4.445582
1900.000000	4.412053
1901.000000	4.248508
1902.000000	4.272760
1903.000000	4.185606
1904.000000	4.165504
1905.000000	4.050808
1906.000000	4.015262
1907.000000	3.936724
1908.000000	3.886759
1909.000000	3.844178
1910.000000	3.800894
1911.000000	3.801340
1912.000000	3.673919
1913.000000	3.685492
1914.000000	3.664036
1915.000000	3.640926
1916.000000	3.542331
1917.000000	3.519708
1918.000000	3.443157
1919.000000	3.431961
1920.000000	3.344012
1921.000000	3.339014
1922.000000	3.341538
1923.000000	3.329699
1924.000000	3.249744
1925.000000	3.281553
1926.000000	3.287845
1927.000000	3.263336
1928.000000	3.217605
1929.000000	3.172750
1930.000000	3.180423
1931.000000	3.158562
1932.000000	3.137062
1933.000000	3.143934
1934.000000	3.121513
1935.000000	3.080162
1936.000000	3.101821
1937.000000	3.079237
1938.000000	3.050941
1939.000000	3.046846
1940.000000	3.045242
1941.000000	3.046333
1942.000000	3.054703
1943.000000	3.034846
1944.000000	3.044338
1945.000000	3.057146
1946.000000	3.034426
1947.000000	3.043252
1948.000000	3.059349
1949.000000	3.050638
1950.000000	3.065340
1951.000000	3.082529
1952.000000	3.075733
1953.000000	3.058946
1954.000000	3.067389
1955.000000	3.079981
1956.000000	3.073671
1957.000000	3.069812
1958.000000	3.097496
1959.000000	3.120318
1960.000000	3.138147
1961.000000	3.146835
1962.000000	3.120178
1963.000000	3.114403
1964.000000	3.121862
1965.000000	3.156767
1966.000000	3.160205
1967.000000	3.192433
1968.000000	3.206079
1969.000000	3.180873
1970.000000	3.159071
1971.000000	3.160152
1972.000000	3.184940
1973.000000	3.224376
1974.000000	3.182055
1975.000000	3.184498
1976.000000	3.217939
1977.000000	3.243248
1978.000000	3.278872
1979.000000	3.263050
1980.000000	3.272874
1981.000000	3.323375
1982.000000	3.313943
1983.000000	3.303322
1984.000000	3.316640
1985.000000	3.311700
1986.000000	3.326530
1987.000000	3.347558
1988.000000	3.354183
1989.000000	3.403237
1990.000000	3.418637
1991.000000	3.401035
1992.000000	3.401848
1993.000000	3.396445
1994.000000	3.396946
1995.000000	3.396060
1996.000000	3.408317
1997.000000	3.451892
1998.000000	3.434862
1999.000000	3.465762
2000.000000	3.505778
2001.000000	3.502389
2002.000000	3.523884
2003.000000	3.505980
2004.000000	3.467815
2005.000000	3.497088
2006.000000	3.518796
2007.000000	3.517975
2008.000000	3.532806
2009.000000	3.557331
2010.000000	3.544964
2011.000000	3.492626
2012.000000	3.507551
2013.000000	3.533909
2014.000000	3.531469
2015.000000	3.504462
2016.000000	3.490429
2017.000000	3.512229
2018.000000	3.525816
2019.000000	3.540456
2020.000000	3.542492
2021.000000	3.516232
2022.000000	3.503033
2023.000000	3.472737
2024.000000	3.476971
2025.000000	3.471529
2026.000000	3.478981
2027.000000	3.533683
2028.000000	3.532825
2029.000000	3.491584
2030.000000	3.486453
2031.000000	3.498145
2032.000000	3.467942
2033.000000	3.419840
2034.000000	3.394035
2035.000000	3.410373
2036.000000	3.491633
2037.000000	3.463074
2038.000000	3.391158
2039.000000	3.408452
2040.000000	3.431766
2041.000000	3.407283
2042.000000	3.342134
2043.000000	3.356251
2044.000000	3.349066
2045.000000	3.335744
2046.000000	3.290045
2047.000000	3.303161
2048.000000	3.226910
2049.000000	3.215778
2050.000000	3.278174
2051.000000	3.288827
2052.000000	3.262347
2053.000000	3.287451
2054.000000	3.240222
2055.000000	3.279360
2056.000000	3.326306
2057.000000	3.379169
2058.000000	3.420773
2059.000000	3.366974
2060.000000	3.385492
2061.000000	3.466335
2062.000000	3.507118
2063.000000	3.582037
2064.000000	3.544983
2065.000000	3.572426
2066.000000	3.688991
2067.000000	3.740824
2068.000000	3.743572
2069.000000	3.766135
2070.000000	3.854273
2071.000000	3.832172
2072.000000	3.867074
2073.000000	3.806995
2074.000000	3.823819
2075.000000	3.996346
2076.000000	3.973383
2077.000000	3.992219
2078.000000	4.075522
2079.000000	4.052898
2080.000000	4.041551
2081.000000	4.059617
2082.000000	4.127177
2083.000000	4.100317
2084.000000	4.062720
2085.000000	4.217220
2086.000000	4.007018
2087.000000	4.143011
2088.000000	4.179980
2089.000000	4.239142
2090.000000	4.176263
2091.000000	4.233828
2092.000000	4.179342
2093.000000	4.264534
2094.000000	4.102041
2095.000000	4.162691
2096.000000	4.327754
2097.000000	4.240467
2098.000000	4.166608
2099.000000	4.314638
2100.000000	4.113057
2101.000000	4.213100
2102.000000	4.154328
2103.000000	4.116957
2104.000000	4.088516
2105.000000	4.271770
2106.000000	4.178031
2107.000000	4.250252
2108.000000	4.141230
2109.000000	4.145122
2110.000000	4.110261
2111.000000	4.219521
2112.000000	4.214867
2113.000000	4.182898
2114.000000	4.113057
2115.000000	4.270033
2116.000000	4.244222
2117.000000	4.163125
2118.000000	3.982368
2119.000000	4.011878
2120.000000	4.128863
2121.000000	4.005883
2122.000000	4.039849
2123.000000	3.886392
2124.000000	4.085652
2125.000000	4.245449
2126.000000	3.938698
2127.000000	3.986452
2128.000000	3.844026
2129.000000	3.922094
2130.000000	3.983885
2131.000000	3.739534
2132.000000	3.893571
2133.000000	3.842887
2134.000000	3.823668
2135.000000	3.755133
2136.000000	3.761688
2137.000000	3.808418
2138.000000	3.822103
2139.000000	3.646425
2140.000000	3.712732
2141.000000	3.303913
2142.000000	3.587519
2143.000000	3.526913
2144.000000	3.488501
2145.000000	3.633619
2146.000000	3.617277
2147.000000	3.642592
2148.000000	3.448230
2149.000000	3.452566
2150.000000	3.242353
2151.000000	3.393566
2152.000000	3.324087
2153.000000	3.234053
2154.000000	3.342083
2155.000000	3.202101
2156.000000	3.168430
2157.000000	3.111381
2158.000000	3.036519
2159.000000	3.136469
2160.000000	3.063843
2161.000000	3.006821
2162.000000	3.027277
2163.000000	2.987382
2164.000000	2.828625
2165.000000	2.928658
2166.000000	3.007870
2167.000000	3.083310
2168.000000	2.913428
2169.000000	3.084392
2170.000000	3.108636
2171.000000	2.889878
2172.000000	2.861592
2173.000000	2.809001
2174.000000	2.778226
2175.000000	2.913134
2176.000000	2.942241
2177.000000	2.965677
2178.000000	3.016917
2179.000000	2.952447
2180.000000	2.873821
2181.000000	3.055767
2182.000000	2.907817
2183.000000	2.867642
2184.000000	2.902442
2185.000000	2.911739
2186.000000	2.887499
2187.000000	2.760280
2188.000000	2.915426
2189.000000	2.952656
2190.000000	2.977321
2191.000000	2.998808
2192.000000	2.913645
2193.000000	2.900543
2194.000000	2.998054
2195.000000	2.850702
2196.000000	2.733520
2197.000000	2.800661
2198.000000	2.844856
2199.000000	2.824907
2200.000000	2.935759
2201.000000	3.045745
2202.000000	2.872537
2203.000000	2.932920
2204.000000	2.990670
2205.000000	2.973287
2206.000000	2.897942
2207.000000	2.977863
2208.000000	2.960510
2209.000000	2.989994
2210.000000	3.006751
2211.000000	2.974350
2212.000000	2.951419
2213.000000	2.864646
2214.000000	3.014308
2215.000000	3.105153
2216.000000	3.054711
2217.000000	2.988689
2218.000000	3.063395
2219.000000	3.172143
2220.000000	3.094022
2221.000000	3.111203
2222.000000	3.162612
2223.000000	3.177816
2224.000000	3.254560
2225.000000	3.295522
2226.000000	3.201501
2227.000000	3.291920
2228.000000	3.287124
2229.000000	3.326951
2230.000000	3.264618
2231.000000	3.319958
2232.000000	3.282089
2233.000000	3.355802
2234.000000	3.325318
2235.000000	3.211157
2236.000000	3.320295
2237.000000	3.373608
2238.000000	3.412169
2239.000000	3.353468
2240.000000	3.273698
2241.000000	3.306470
2242.000000	3.263906
2243.000000	3.272843
2244.000000	3.109519
2245.000000	3.234356
2246.000000	3.268010
2247.000000	3.151677
2248.000000	3.219436
2249.000000	3.248106
2250.000000	3.175789
2251.000000	3.320447
2252.000000	3.348664
2253.000000	3.103134
2254.000000	3.119488
2255.000000	3.113832
2256.000000	3.113465
2257.000000	3.167374
2258.000000	3.034661
2259.000000	3.036673
2260.000000	3.140060
2261.000000	3.083005
2262.000000	3.141248
2263.000000	3.262824
2264.000000	3.090013
2265.000000	2.992905
2266.000000	3.072537
2267.000000	3.026631
2268.000000	3.100007
2269.000000	3.133379
2270.000000	3.100495
2271.000000	3.072504
2272.000000	3.017015
2273.000000	3.094359
2274.000000	3.089605
2275.000000	2.999996
2276.000000	2.994453
2277.000000	3.210301
2278.000000	3.202743
2279.000000	2.888112
2280.000000	2.777961
2281.000000	2.982751
2282.000000	2.948075
2283.000000	2.940973
2284.000000	3.035798
2285.000000	2.939970
2286.000000	2.854934
2287.000000	2.781896
2288.000000	2.882769
2289.000000	2.785621
2290.000000	2.886568
2291.000000	2.887145
2292.000000	2.798506
2293.000000	2.800672
2294.000000	2.735170
2295.000000	2.707621
2296.000000	2.859762
2297.000000	2.902931
2298.000000	2.832523
2299.000000	2.802594
2300.000000	2.866678
2301.000000	3.056013
2302.000000	3.019090
2303.000000	3.052301
2304.000000	2.980047
2305.000000	2.756014
2306.000000	2.981459
2307.000000	3.065583
2308.000000	2.776224
2309.000000	2.906975
2310.000000	3.122165
2311.000000	3.114443
2312.000000	3.088062
2313.000000	3.151339
2314.000000	3.139196
2315.000000	3.131604
2316.000000	3.252766
2317.000000	3.337143
2318.000000	3.299897
2319.000000	3.268664
2320.000000	3.282233
2321.000000	3.064308
2322.000000	3.254825
2323.000000	3.294334
2324.000000	3.516316
2325.000000	3.343802
2326.000000	3.312955
2327.000000	3.481073
2328.000000	3.203704
2329.000000	3.058530
2330.000000	3.094511
2331.000000	3.070101
2332.000000	3.137300
2333.000000	3.396653
2334.000000	3.583468
2335.000000	3.309209
2336.000000	3.357418
2337.000000	3.260236
2338.000000	3.410951
2339.000000	3.630283
2340.000000	3.387883
2341.000000	3.518515
2342.000000	3.366771
2343.000000	3.251448
2344.000000	3.235265
2345.000000	3.298253
2346.000000	3.252341
2347.000000	2.960046
2348.000000	3.532950
2349.000000	3.348364
2350.000000	3.405345
2351.000000	3.307911
2352.000000	3.480933
2353.000000	3.238236
2354.000000	3.171969
2355.000000	3.246554
2356.000000	3.162642
2357.000000	3.385206
2358.000000	3.657487
2359.000000	3.442173
2360.000000	3.264228
2361.000000	3.341825
2362.000000	3.771967
2363.000000	3.854434
2364.000000	3.575306
2365.000000	3.378707
2366.000000	3.327307
2367.000000	3.574008
2368.000000	3.157813
2369.000000	3.217967
2370.000000	3.731294
2371.000000	3.456569
2372.000000	3.860902
2373.000000	3.590808
2374.000000	3.443151
2375.000000	3.459330
2376.000000	3.203531
2377.000000	3.227547
2378.000000	3.268544
2379.000000	3.248276
2380.000000	3.400891
2381.000000	3.448723
2382.000000	3.582155
2383.000000	3.516945
2384.000000	3.251683
2385.000000	3.505868
2386.000000	3.239400
2387.000000	3.523966
2388.000000	3.357963
2389.000000	3.386485
2390.000000	3.634375
2391.000000	3.895623
2392.000000	3.198264
2393.000000	3.368073
2394.000000	3.238469
2395.000000	3.483604
2396.000000	3.258511
2397.000000	3.206721
2398.000000	3.650082
2399.000000	3.664536
2400.000000	3.015164
2401.000000	0.710814
2402.000000	0.706294
2403.000000	0.700295
2404.000000	0.692500
2405.000000	0.684988
2406.000000	0.696450
2407.000000	0.709501
2408.000000	0.681215
2409.000000	0.648931
2410.000000	0.617539
2411.000000	0.602686
2412.000000	0.598026
2413.000000	0.591965
2414.000000	0.590290
2415.000000	0.592782
2416.000000	0.597919
2417.000000	0.587909
2418.000000	0.587243
2419.000000	0.598750
2420.000000	0.601447
2421.000000	0.593187
2422.000000	0.599190
2423.000000	0.607023
2424.000000	0.597789
2425.000000	0.587654
2426.000000	0.597634
2427.000000	0.594969
2428.000000	0.592933
2429.000000	0.585982
2430.000000	0.595572
2431.000000	0.590454
2432.000000	0.592986
2433.000000	0.590673
2434.000000	0.590854
2435.000000	0.591896
2436.000000	0.595274
2437.000000	0.593423
2438.000000	0.577056
2439.000000	0.575441
2440.000000	0.585150
2441.000000	0.582122
2442.000000	0.568121
2443.000000	0.572066
2444.000000	0.577381
2445.000000	0.575237
2446.000000	0.583643
2447.000000	0.584383
2448.000000	0.582179
2449.000000	0.567747
2450.000000	0.576211
2451.000000	0.599629
2452.000000	0.609783
2453.000000	0.598508
2454.000000	0.589647
2455.000000	0.589176
2456.000000	0.591024
2457.000000	0.614122
2458.000000	0.598970
2459.000000	0.604312
2460.000000	0.612038
2461.000000	0.623090
2462.000000	0.604400
2463.000000	0.627132
2464.000000	0.632845
2465.000000	0.662698
2466.000000	0.649678
2467.000000	0.636868
2468.000000	0.655451
2469.000000	0.650409
2470.000000	0.656396
2471.000000	0.656002
2472.000000	0.649028
2473.000000	0.647412
2474.000000	0.663789
2475.000000	0.681206
2476.000000	0.666071
2477.000000	0.703614
2478.000000	0.684139
2479.000000	0.699951
2480.000000	0.673000
2481.000000	0.669311
2482.000000	0.716389
2483.000000	0.695130
2484.000000	0.695162
2485.000000	0.663054
2486.000000	0.688192
2487.000000	0.741624
2488.000000	0.704050
2489.000000	0.698813
2490.000000	0.724841
2491.000000	0.708800
2492.000000	0.709530
2493.000000	0.743392
2494.000000	0.737619
2495.000000	0.702607
2496.000000	0.723875
2497.000000	0.811458
2498.000000	0.711891
2499.000000	0.690108
2500.000000	0.739526
