PE UV       SUBTECH     SPECTRUM    ASCII       PEDS        4.00        
   -1
CICIMAUCR0008-5.Sample.ASC
24/04/25
10:02:58.00
24/04/25
10:02:58.00
Vinicio Soto Monge
C. kalinini
250,000000
1
Lambda 1050
1050L1511233
PerkinElmer UV WinLab 6.3.2.0749 / 2.02.05 Lambda 900 UV/VIS/NIR, Aug  7 2015 09:38:08

0
0
3350/servo 860,8/2
0
0
UV/VIS
1
1
1
DoubleDePol,CommonBeamDepol,RBeamAtt,SBeamAtt,60mm sphere, WB InGaAs Detector
0
0
0
0
Program
Program
3350/servo 860,8/2
3350/0,2 860,8/0,2
3350/0,2 860,8/0,2
0
15.00
 
 
 
0
 
860,8
319,2
860,8
Front
100
on
S:100 R:100
0
0
0
0
 
0
 
 
 
0
 
 
0
0
0
0
0
 
 
 
 
0
0


0
0
#HDR
-1
-1
#GR
nm
%R
1.0
0.0
2500,000000
-1,000000
2251
8
95,184700
4,916500
#DATA
250.000000	0.360883
251.000000	0.309168
252.000000	0.297643
253.000000	0.304377
254.000000	0.303450
255.000000	0.296051
256.000000	0.322043
257.000000	0.310583
258.000000	0.269298
259.000000	0.289402
260.000000	0.276251
261.000000	0.312296
262.000000	0.293928
263.000000	0.301553
264.000000	0.282012
265.000000	0.282151
266.000000	0.263180
267.000000	0.301867
268.000000	0.260494
269.000000	0.286669
270.000000	0.262377
271.000000	0.275594
272.000000	0.256696
273.000000	0.253136
274.000000	0.236910
275.000000	0.240076
276.000000	0.254338
277.000000	0.227964
278.000000	0.218570
279.000000	0.271002
280.000000	0.235037
281.000000	0.227065
282.000000	0.201833
283.000000	0.241786
284.000000	0.236593
285.000000	0.194996
286.000000	0.214293
287.000000	0.217733
288.000000	0.209319
289.000000	0.246337
290.000000	0.207355
291.000000	0.211676
292.000000	0.214856
293.000000	0.253165
294.000000	0.195944
295.000000	0.196356
296.000000	0.203299
297.000000	0.199351
298.000000	0.190116
299.000000	0.189463
300.000000	0.186761
301.000000	0.203444
302.000000	0.204511
303.000000	0.165259
304.000000	0.204941
305.000000	0.214507
306.000000	0.196949
307.000000	0.210236
308.000000	0.189964
309.000000	0.173902
310.000000	0.172660
311.000000	0.182418
312.000000	0.179462
313.000000	0.203797
314.000000	0.163512
315.000000	0.179722
316.000000	0.232863
317.000000	0.721776
318.000000	0.449550
319.000000	0.432307
320.000000	0.378859
321.000000	0.400657
322.000000	0.473009
323.000000	0.399590
324.000000	0.448442
325.000000	0.333883
326.000000	0.286021
327.000000	0.345738
328.000000	0.233991
329.000000	0.303549
330.000000	0.250755
331.000000	0.301679
332.000000	0.273957
333.000000	0.278141
334.000000	0.216046
335.000000	0.147166
336.000000	0.213249
337.000000	0.191463
338.000000	0.211916
339.000000	0.135199
340.000000	0.200389
341.000000	0.168950
342.000000	0.081671
343.000000	0.141977
344.000000	0.147391
345.000000	0.176358
346.000000	0.181114
347.000000	0.140088
348.000000	0.123202
349.000000	0.097823
350.000000	0.187386
351.000000	0.163869
352.000000	0.057364
353.000000	0.072899
354.000000	0.075872
355.000000	0.100564
356.000000	0.079898
357.000000	0.040482
358.000000	0.047489
359.000000	0.082339
360.000000	0.148323
361.000000	0.076030
362.000000	0.112714
363.000000	0.152416
364.000000	0.143902
365.000000	0.176598
366.000000	0.177664
367.000000	0.254797
368.000000	0.298550
369.000000	0.269192
370.000000	0.345505
371.000000	0.384206
372.000000	0.405013
373.000000	0.437152
374.000000	0.575045
375.000000	0.595255
376.000000	0.472926
377.000000	0.372916
378.000000	0.413191
379.000000	0.451950
380.000000	0.499477
381.000000	0.539135
382.000000	0.584512
383.000000	0.639261
384.000000	0.671989
385.000000	0.737417
386.000000	0.794847
387.000000	0.827583
388.000000	0.874833
389.000000	0.922964
390.000000	0.968403
391.000000	1.011290
392.000000	1.051450
393.000000	1.092447
394.000000	1.125235
395.000000	1.158593
396.000000	1.186810
397.000000	1.196787
398.000000	1.216299
399.000000	1.226158
400.000000	1.219005
401.000000	1.208050
402.000000	1.193509
403.000000	1.174335
404.000000	1.132345
405.000000	1.096908
406.000000	1.063466
407.000000	1.018074
408.000000	0.960105
409.000000	0.902674
410.000000	0.847799
411.000000	0.795531
412.000000	0.736130
413.000000	0.693054
414.000000	0.681875
415.000000	0.693436
416.000000	0.700135
417.000000	0.740242
418.000000	0.812416
419.000000	0.903995
420.000000	0.985764
421.000000	1.088145
422.000000	1.210275
423.000000	1.319190
424.000000	1.422947
425.000000	1.529547
426.000000	1.638323
427.000000	1.753263
428.000000	1.859364
429.000000	1.974644
430.000000	2.091796
431.000000	2.177918
432.000000	2.247746
433.000000	2.331779
434.000000	2.416628
435.000000	2.495180
436.000000	2.569024
437.000000	2.622545
438.000000	2.683890
439.000000	2.744089
440.000000	2.790131
441.000000	2.833267
442.000000	2.871445
443.000000	2.906516
444.000000	2.953869
445.000000	3.003796
446.000000	3.037834
447.000000	3.059431
448.000000	3.058873
449.000000	3.050780
450.000000	3.035536
451.000000	3.025621
452.000000	3.012367
453.000000	2.974940
454.000000	2.931882
455.000000	2.872824
456.000000	2.809218
457.000000	2.735438
458.000000	2.656647
459.000000	2.570044
460.000000	2.474286
461.000000	2.367992
462.000000	2.250505
463.000000	2.148699
464.000000	2.039060
465.000000	1.910923
466.000000	1.796223
467.000000	1.686336
468.000000	1.578302
469.000000	1.482034
470.000000	1.394671
471.000000	1.315801
472.000000	1.251827
473.000000	1.198014
474.000000	1.151584
475.000000	1.110389
476.000000	1.083025
477.000000	1.060526
478.000000	1.057511
479.000000	1.048067
480.000000	1.020173
481.000000	0.991024
482.000000	0.955472
483.000000	0.922315
484.000000	0.906479
485.000000	0.881919
486.000000	0.862624
487.000000	0.847418
488.000000	0.831634
489.000000	0.815353
490.000000	0.789839
491.000000	0.766069
492.000000	0.769306
493.000000	0.770016
494.000000	0.762647
495.000000	0.762628
496.000000	0.771097
497.000000	0.783752
498.000000	0.803225
499.000000	0.828830
500.000000	0.894402
501.000000	0.945907
502.000000	0.993353
503.000000	1.047328
504.000000	1.099789
505.000000	1.167323
506.000000	1.221059
507.000000	1.261039
508.000000	1.316238
509.000000	1.364338
510.000000	1.425735
511.000000	1.482788
512.000000	1.543692
513.000000	1.582121
514.000000	1.641472
515.000000	1.706973
516.000000	1.789618
517.000000	1.896226
518.000000	1.998610
519.000000	2.126243
520.000000	2.274406
521.000000	2.423828
522.000000	2.617783
523.000000	2.809033
524.000000	2.993670
525.000000	3.200648
526.000000	3.424755
527.000000	3.652842
528.000000	3.878724
529.000000	4.117817
530.000000	4.357200
531.000000	4.607344
532.000000	4.858501
533.000000	5.101150
534.000000	5.347642
535.000000	5.601943
536.000000	5.858909
537.000000	6.104639
538.000000	6.314413
539.000000	6.534455
540.000000	6.754839
541.000000	6.965536
542.000000	7.176328
543.000000	7.371206
544.000000	7.569464
545.000000	7.773255
546.000000	7.974024
547.000000	8.151896
548.000000	8.332906
549.000000	8.533556
550.000000	8.697366
551.000000	8.873269
552.000000	9.041675
553.000000	9.232034
554.000000	9.414820
555.000000	9.574829
556.000000	9.752881
557.000000	9.890863
558.000000	10.079539
559.000000	10.213581
560.000000	10.659462
561.000000	10.823694
562.000000	10.917079
563.000000	11.032079
564.000000	11.113259
565.000000	11.182783
566.000000	11.270786
567.000000	11.350225
568.000000	11.443098
569.000000	11.506056
570.000000	11.573949
571.000000	11.657619
572.000000	11.750587
573.000000	11.820927
574.000000	11.893700
575.000000	11.934775
576.000000	11.994502
577.000000	11.996533
578.000000	12.043370
579.000000	12.093403
580.000000	12.086824
581.000000	12.140488
582.000000	12.170372
583.000000	12.175839
584.000000	12.181700
585.000000	12.164580
586.000000	12.107054
587.000000	12.054589
588.000000	11.964524
589.000000	11.845525
590.000000	11.755052
591.000000	11.629966
592.000000	11.540880
593.000000	11.403746
594.000000	11.279658
595.000000	11.167474
596.000000	11.074518
597.000000	10.921892
598.000000	10.767816
599.000000	10.577146
600.000000	10.378869
601.000000	10.191741
602.000000	9.965029
603.000000	9.733275
604.000000	9.511968
605.000000	9.272205
606.000000	9.048619
607.000000	8.828733
608.000000	8.594373
609.000000	8.328058
610.000000	8.083010
611.000000	7.841063
612.000000	7.599425
613.000000	7.320781
614.000000	7.093461
615.000000	6.813460
616.000000	6.555292
617.000000	6.322800
618.000000	6.101084
619.000000	5.833479
620.000000	5.582327
621.000000	5.379925
622.000000	5.172195
623.000000	4.974253
624.000000	4.809608
625.000000	4.650910
626.000000	4.510219
627.000000	4.404050
628.000000	4.312258
629.000000	4.235322
630.000000	4.169557
631.000000	4.158782
632.000000	4.129824
633.000000	4.115666
634.000000	4.122556
635.000000	4.139263
636.000000	4.190036
637.000000	4.222476
638.000000	4.256625
639.000000	4.314685
640.000000	4.384446
641.000000	4.455203
642.000000	4.552235
643.000000	4.599233
644.000000	4.688449
645.000000	4.741870
646.000000	4.820506
647.000000	4.873337
648.000000	4.952829
649.000000	5.034522
650.000000	5.121849
651.000000	5.176985
652.000000	5.212426
653.000000	5.279175
654.000000	5.261216
655.000000	5.262604
656.000000	5.265445
657.000000	5.260016
658.000000	5.264919
659.000000	5.247083
660.000000	5.242622
661.000000	5.203271
662.000000	5.160079
663.000000	5.124981
664.000000	5.104316
665.000000	5.032622
666.000000	4.997829
667.000000	4.974619
668.000000	4.998321
669.000000	5.037557
670.000000	5.070776
671.000000	5.114440
672.000000	5.178693
673.000000	5.267607
674.000000	5.356922
675.000000	5.494667
676.000000	5.635679
677.000000	5.757734
678.000000	5.899422
679.000000	6.056502
680.000000	6.265084
681.000000	6.437588
682.000000	6.617285
683.000000	6.839875
684.000000	7.022194
685.000000	7.185812
686.000000	7.377257
687.000000	7.598438
688.000000	7.833101
689.000000	7.984656
690.000000	8.126231
691.000000	8.225597
692.000000	8.316504
693.000000	8.421388
694.000000	8.473163
695.000000	8.548991
696.000000	8.626230
697.000000	8.715235
698.000000	8.804298
699.000000	8.774165
700.000000	8.752564
701.000000	8.775601
702.000000	8.784091
703.000000	8.821532
704.000000	8.818852
705.000000	8.813972
706.000000	8.827311
707.000000	8.749086
708.000000	8.703642
709.000000	8.710273
710.000000	8.704608
711.000000	8.698501
712.000000	8.693996
713.000000	8.723294
714.000000	8.698224
715.000000	8.690273
716.000000	8.738880
717.000000	8.748712
718.000000	8.756340
719.000000	8.730538
720.000000	8.761636
721.000000	8.793961
722.000000	8.820943
723.000000	8.888047
724.000000	8.948516
725.000000	8.971406
726.000000	8.999292
727.000000	9.021165
728.000000	9.056632
729.000000	9.124960
730.000000	9.162095
731.000000	9.151967
732.000000	9.218060
733.000000	9.264103
734.000000	9.319276
735.000000	9.386880
736.000000	9.442568
737.000000	9.531325
738.000000	9.599424
739.000000	9.632229
740.000000	9.716814
741.000000	9.805186
742.000000	9.845995
743.000000	9.928393
744.000000	10.009297
745.000000	10.091641
746.000000	10.199045
747.000000	10.280187
748.000000	10.326008
749.000000	10.376397
750.000000	10.444008
751.000000	10.531942
752.000000	10.643970
753.000000	10.718498
754.000000	10.766874
755.000000	10.853384
756.000000	10.926893
757.000000	10.969471
758.000000	11.065844
759.000000	11.142596
760.000000	11.147280
761.000000	11.209199
762.000000	11.281760
763.000000	11.296328
764.000000	11.372252
765.000000	11.454934
766.000000	11.469518
767.000000	11.524596
768.000000	11.546959
769.000000	11.596329
770.000000	11.602278
771.000000	11.584079
772.000000	11.617430
773.000000	11.654955
774.000000	11.648951
775.000000	11.657998
776.000000	11.668543
777.000000	11.674303
778.000000	11.622332
779.000000	11.611947
780.000000	11.611088
781.000000	11.516582
782.000000	11.424130
783.000000	11.411904
784.000000	11.386279
785.000000	11.270613
786.000000	11.189417
787.000000	11.072677
788.000000	10.979667
789.000000	10.953403
790.000000	10.869043
791.000000	10.682638
792.000000	10.590823
793.000000	10.525477
794.000000	10.356420
795.000000	10.237309
796.000000	10.127219
797.000000	9.941067
798.000000	9.850678
799.000000	9.679288
800.000000	9.526514
801.000000	9.402496
802.000000	9.200118
803.000000	9.091814
804.000000	8.988940
805.000000	8.838970
806.000000	8.670841
807.000000	8.600250
808.000000	8.414133
809.000000	8.284156
810.000000	8.143046
811.000000	8.019495
812.000000	7.884609
813.000000	7.737279
814.000000	7.616821
815.000000	7.486212
816.000000	7.363726
817.000000	7.319756
818.000000	7.236484
819.000000	7.048339
820.000000	6.981161
821.000000	6.903112
822.000000	6.885000
823.000000	6.836029
824.000000	6.811022
825.000000	6.771483
826.000000	6.626603
827.000000	6.626153
828.000000	6.593914
829.000000	6.596206
830.000000	6.556650
831.000000	6.601512
832.000000	6.564381
833.000000	6.618780
834.000000	6.557823
835.000000	6.600200
836.000000	6.687619
837.000000	6.739776
838.000000	6.569103
839.000000	6.597056
840.000000	6.524036
841.000000	6.731748
842.000000	6.859934
843.000000	6.970808
844.000000	6.763000
845.000000	6.785107
846.000000	7.052131
847.000000	6.966057
848.000000	7.006238
849.000000	7.271030
850.000000	7.217386
851.000000	7.223906
852.000000	7.067030
853.000000	7.213287
854.000000	6.949100
855.000000	7.020928
856.000000	7.234879
857.000000	7.135693
858.000000	7.876188
859.000000	6.916380
860.000000	6.966724
861.000000	7.010070
862.000000	7.064000
863.000000	7.132254
864.000000	7.182793
865.000000	7.199167
866.000000	7.237469
867.000000	7.281465
868.000000	7.406643
869.000000	7.660167
870.000000	7.985338
871.000000	8.256771
872.000000	8.533104
873.000000	8.829759
874.000000	9.069991
875.000000	9.240631
876.000000	9.421733
877.000000	9.591562
878.000000	9.770435
879.000000	9.888251
880.000000	10.077778
881.000000	10.201060
882.000000	10.336790
883.000000	10.440955
884.000000	10.558047
885.000000	10.651721
886.000000	10.752783
887.000000	10.843461
888.000000	10.945710
889.000000	11.003959
890.000000	11.110599
891.000000	11.169763
892.000000	11.216540
893.000000	11.287783
894.000000	11.319720
895.000000	11.384321
896.000000	11.406137
897.000000	11.435413
898.000000	11.478322
899.000000	11.483660
900.000000	11.492645
901.000000	11.507806
902.000000	11.515751
903.000000	11.525686
904.000000	11.519065
905.000000	11.513067
906.000000	11.503441
907.000000	11.488044
908.000000	11.454513
909.000000	11.419857
910.000000	11.377718
911.000000	11.320608
912.000000	11.304073
913.000000	11.267813
914.000000	11.226309
915.000000	11.155358
916.000000	11.091392
917.000000	11.042985
918.000000	10.975960
919.000000	10.919950
920.000000	10.873766
921.000000	10.818007
922.000000	10.762886
923.000000	10.667721
924.000000	10.616693
925.000000	10.565375
926.000000	10.496714
927.000000	10.443223
928.000000	10.346993
929.000000	10.268395
930.000000	10.198521
931.000000	10.144435
932.000000	10.069866
933.000000	9.986615
934.000000	9.926337
935.000000	9.851950
936.000000	9.782766
937.000000	9.708694
938.000000	9.643545
939.000000	9.574687
940.000000	9.505262
941.000000	9.420794
942.000000	9.335313
943.000000	9.287816
944.000000	9.194362
945.000000	9.086528
946.000000	8.958306
947.000000	8.860351
948.000000	8.788970
949.000000	8.711803
950.000000	8.632733
951.000000	8.555795
952.000000	8.481991
953.000000	8.413277
954.000000	8.340713
955.000000	8.265630
956.000000	8.192493
957.000000	8.136891
958.000000	8.055893
959.000000	8.000775
960.000000	7.943954
961.000000	7.891585
962.000000	7.824241
963.000000	7.737634
964.000000	7.670646
965.000000	7.598016
966.000000	7.549540
967.000000	7.494473
968.000000	7.433059
969.000000	7.362019
970.000000	7.311384
971.000000	7.253518
972.000000	7.203150
973.000000	7.157127
974.000000	7.130366
975.000000	7.064999
976.000000	7.012011
977.000000	6.959868
978.000000	6.922612
979.000000	6.873710
980.000000	6.832196
981.000000	6.800606
982.000000	6.765289
983.000000	6.716106
984.000000	6.682478
985.000000	6.632937
986.000000	6.581643
987.000000	6.545378
988.000000	6.519867
989.000000	6.484640
990.000000	6.450921
991.000000	6.418482
992.000000	6.395605
993.000000	6.354851
994.000000	6.312266
995.000000	6.284114
996.000000	6.253327
997.000000	6.224851
998.000000	6.208585
999.000000	6.186246
1000.000000	6.151911
1001.000000	6.125323
1002.000000	6.100027
1003.000000	6.077625
1004.000000	6.046975
1005.000000	6.028662
1006.000000	6.018243
1007.000000	5.984664
1008.000000	5.964150
1009.000000	5.942546
1010.000000	5.918027
1011.000000	5.891276
1012.000000	5.856132
1013.000000	5.835693
1014.000000	5.823454
1015.000000	5.797816
1016.000000	5.771584
1017.000000	5.754113
1018.000000	5.725607
1019.000000	5.698394
1020.000000	5.675595
1021.000000	5.655785
1022.000000	5.640021
1023.000000	5.607100
1024.000000	5.579925
1025.000000	5.573499
1026.000000	5.551801
1027.000000	5.527855
1028.000000	5.510491
1029.000000	5.493982
1030.000000	5.481578
1031.000000	5.466301
1032.000000	5.450867
1033.000000	5.425726
1034.000000	5.402024
1035.000000	5.387829
1036.000000	5.388899
1037.000000	5.373865
1038.000000	5.353536
1039.000000	5.343511
1040.000000	5.335009
1041.000000	5.327417
1042.000000	5.315682
1043.000000	5.296779
1044.000000	5.294900
1045.000000	5.286162
1046.000000	5.265979
1047.000000	5.259599
1048.000000	5.255513
1049.000000	5.246840
1050.000000	5.223952
1051.000000	5.219191
1052.000000	5.204901
1053.000000	5.187231
1054.000000	5.176623
1055.000000	5.164966
1056.000000	5.152597
1057.000000	5.140810
1058.000000	5.131454
1059.000000	5.118356
1060.000000	5.102686
1061.000000	5.096664
1062.000000	5.096879
1063.000000	5.078963
1064.000000	5.078294
1065.000000	5.068587
1066.000000	5.054348
1067.000000	5.046820
1068.000000	5.032798
1069.000000	5.023862
1070.000000	5.000621
1071.000000	4.977154
1072.000000	4.971050
1073.000000	4.966771
1074.000000	4.958393
1075.000000	4.957573
1076.000000	4.946509
1077.000000	4.926417
1078.000000	4.917836
1079.000000	4.923945
1080.000000	4.913256
1081.000000	4.894685
1082.000000	4.898224
1083.000000	4.900187
1084.000000	4.896456
1085.000000	4.896583
1086.000000	4.879168
1087.000000	4.870569
1088.000000	4.870518
1089.000000	4.876142
1090.000000	4.872578
1091.000000	4.865221
1092.000000	4.863329
1093.000000	4.873255
1094.000000	4.862590
1095.000000	4.849455
1096.000000	4.847965
1097.000000	4.859318
1098.000000	4.857622
1099.000000	4.862848
1100.000000	4.855015
1101.000000	4.853684
1102.000000	4.843069
1103.000000	4.844788
1104.000000	4.844193
1105.000000	4.835790
1106.000000	4.836817
1107.000000	4.834097
1108.000000	4.832665
1109.000000	4.824325
1110.000000	4.815123
1111.000000	4.806014
1112.000000	4.801727
1113.000000	4.792203
1114.000000	4.770384
1115.000000	4.771748
1116.000000	4.761595
1117.000000	4.746198
1118.000000	4.737473
1119.000000	4.730101
1120.000000	4.735621
1121.000000	4.731266
1122.000000	4.726895
1123.000000	4.732478
1124.000000	4.708239
1125.000000	4.695964
1126.000000	4.680235
1127.000000	4.697767
1128.000000	4.692622
1129.000000	4.693302
1130.000000	4.723893
1131.000000	4.727926
1132.000000	4.746649
1133.000000	4.746874
1134.000000	4.737809
1135.000000	4.810717
1136.000000	4.827953
1137.000000	4.854569
1138.000000	4.839484
1139.000000	4.842452
1140.000000	4.846572
1141.000000	4.865464
1142.000000	4.880045
1143.000000	4.907188
1144.000000	4.894547
1145.000000	4.903110
1146.000000	4.883824
1147.000000	4.848960
1148.000000	4.819515
1149.000000	4.780580
1150.000000	4.783776
1151.000000	4.780732
1152.000000	4.773783
1153.000000	4.800410
1154.000000	4.821080
1155.000000	4.866706
1156.000000	4.886730
1157.000000	4.941333
1158.000000	5.001087
1159.000000	5.044827
1160.000000	5.084510
1161.000000	5.103238
1162.000000	5.137716
1163.000000	5.160943
1164.000000	5.189845
1165.000000	5.200117
1166.000000	5.221750
1167.000000	5.254449
1168.000000	5.267769
1169.000000	5.284404
1170.000000	5.298838
1171.000000	5.312704
1172.000000	5.345308
1173.000000	5.324184
1174.000000	5.368256
1175.000000	5.339040
1176.000000	5.370795
1177.000000	5.388134
1178.000000	5.419472
1179.000000	5.495269
1180.000000	5.555815
1181.000000	5.577529
1182.000000	5.608657
1183.000000	5.602908
1184.000000	5.571462
1185.000000	5.537324
1186.000000	5.484862
1187.000000	5.417196
1188.000000	5.347548
1189.000000	5.283213
1190.000000	5.207901
1191.000000	5.139153
1192.000000	5.083091
1193.000000	5.049834
1194.000000	5.023501
1195.000000	5.022077
1196.000000	5.030172
1197.000000	5.057937
1198.000000	5.051648
1199.000000	5.068965
1200.000000	5.077796
1201.000000	5.106021
1202.000000	5.119616
1203.000000	5.113984
1204.000000	5.131335
1205.000000	5.132666
1206.000000	5.146484
1207.000000	5.147390
1208.000000	5.130812
1209.000000	5.121368
1210.000000	5.115784
1211.000000	5.121226
1212.000000	5.114018
1213.000000	5.110490
1214.000000	5.102631
1215.000000	5.082553
1216.000000	5.063452
1217.000000	5.061772
1218.000000	5.037592
1219.000000	5.030704
1220.000000	4.999476
1221.000000	4.987853
1222.000000	4.961980
1223.000000	4.935222
1224.000000	4.913938
1225.000000	4.888480
1226.000000	4.861724
1227.000000	4.842156
1228.000000	4.819329
1229.000000	4.791922
1230.000000	4.768408
1231.000000	4.737040
1232.000000	4.713249
1233.000000	4.693340
1234.000000	4.674554
1235.000000	4.645204
1236.000000	4.609925
1237.000000	4.586907
1238.000000	4.578074
1239.000000	4.558402
1240.000000	4.535352
1241.000000	4.506254
1242.000000	4.482325
1243.000000	4.458006
1244.000000	4.456470
1245.000000	4.452766
1246.000000	4.434726
1247.000000	4.439883
1248.000000	4.433595
1249.000000	4.423873
1250.000000	4.399839
1251.000000	4.403400
1252.000000	4.400074
1253.000000	4.377782
1254.000000	4.369353
1255.000000	4.373857
1256.000000	4.354232
1257.000000	4.345501
1258.000000	4.333126
1259.000000	4.321148
1260.000000	4.312311
1261.000000	4.305080
1262.000000	4.295057
1263.000000	4.283967
1264.000000	4.271891
1265.000000	4.258326
1266.000000	4.244570
1267.000000	4.237478
1268.000000	4.216604
1269.000000	4.200085
1270.000000	4.199645
1271.000000	4.182593
1272.000000	4.176255
1273.000000	4.155007
1274.000000	4.143857
1275.000000	4.130566
1276.000000	4.113162
1277.000000	4.102691
1278.000000	4.090333
1279.000000	4.072646
1280.000000	4.063793
1281.000000	4.056326
1282.000000	4.044408
1283.000000	4.034579
1284.000000	4.023115
1285.000000	4.016351
1286.000000	4.018440
1287.000000	4.004102
1288.000000	3.997208
1289.000000	4.001681
1290.000000	3.996356
1291.000000	3.986356
1292.000000	3.986481
1293.000000	3.989356
1294.000000	3.982085
1295.000000	3.966322
1296.000000	3.954693
1297.000000	3.946564
1298.000000	3.934775
1299.000000	3.929492
1300.000000	3.925780
1301.000000	3.925984
1302.000000	3.915798
1303.000000	3.905480
1304.000000	3.908532
1305.000000	3.913853
1306.000000	3.908706
1307.000000	3.906213
1308.000000	3.906967
1309.000000	3.900703
1310.000000	3.902248
1311.000000	3.907706
1312.000000	3.907036
1313.000000	3.911091
1314.000000	3.913153
1315.000000	3.908943
1316.000000	3.911786
1317.000000	3.912566
1318.000000	3.915631
1319.000000	3.930923
1320.000000	3.943050
1321.000000	3.957548
1322.000000	3.968383
1323.000000	3.966730
1324.000000	3.978108
1325.000000	3.987764
1326.000000	4.003906
1327.000000	4.020237
1328.000000	4.028887
1329.000000	4.045479
1330.000000	4.067649
1331.000000	4.085394
1332.000000	4.112642
1333.000000	4.135088
1334.000000	4.152174
1335.000000	4.178587
1336.000000	4.207349
1337.000000	4.239322
1338.000000	4.255245
1339.000000	4.275795
1340.000000	4.302024
1341.000000	4.327133
1342.000000	4.363393
1343.000000	4.407640
1344.000000	4.437978
1345.000000	4.484298
1346.000000	4.515339
1347.000000	4.544883
1348.000000	4.600384
1349.000000	4.649253
1350.000000	4.713076
1351.000000	4.789343
1352.000000	4.871293
1353.000000	4.928640
1354.000000	4.972840
1355.000000	5.015818
1356.000000	5.026477
1357.000000	4.989302
1358.000000	4.973084
1359.000000	4.951658
1360.000000	4.911830
1361.000000	4.928010
1362.000000	4.974550
1363.000000	5.013334
1364.000000	4.997215
1365.000000	5.013385
1366.000000	5.044645
1367.000000	5.052163
1368.000000	5.076682
1369.000000	5.123030
1370.000000	5.139951
1371.000000	5.159095
1372.000000	5.185043
1373.000000	5.212783
1374.000000	5.209871
1375.000000	5.196317
1376.000000	5.170659
1377.000000	5.148030
1378.000000	5.128872
1379.000000	5.121122
1380.000000	5.128233
1381.000000	5.116915
1382.000000	5.148049
1383.000000	5.188642
1384.000000	5.201493
1385.000000	5.215115
1386.000000	5.182897
1387.000000	5.154953
1388.000000	5.119767
1389.000000	5.109767
1390.000000	5.076284
1391.000000	5.065185
1392.000000	5.028900
1393.000000	5.007467
1394.000000	4.980968
1395.000000	4.961117
1396.000000	4.939192
1397.000000	4.962984
1398.000000	4.959606
1399.000000	4.928636
1400.000000	4.927184
1401.000000	4.927926
1402.000000	4.998706
1403.000000	4.957875
1404.000000	4.946359
1405.000000	4.892496
1406.000000	4.894434
1407.000000	4.860523
1408.000000	4.843924
1409.000000	4.795171
1410.000000	4.775796
1411.000000	4.731320
1412.000000	4.699841
1413.000000	4.648555
1414.000000	4.623004
1415.000000	4.621444
1416.000000	4.609134
1417.000000	4.587967
1418.000000	4.533229
1419.000000	4.555495
1420.000000	4.524352
1421.000000	4.509427
1422.000000	4.493546
1423.000000	4.475673
1424.000000	4.438611
1425.000000	4.447813
1426.000000	4.429261
1427.000000	4.406244
1428.000000	4.384639
1429.000000	4.381675
1430.000000	4.351438
1431.000000	4.326947
1432.000000	4.316011
1433.000000	4.306179
1434.000000	4.289295
1435.000000	4.282043
1436.000000	4.270584
1437.000000	4.251156
1438.000000	4.217610
1439.000000	4.238221
1440.000000	4.221406
1441.000000	4.205064
1442.000000	4.198225
1443.000000	4.180330
1444.000000	4.174922
1445.000000	4.155821
1446.000000	4.141058
1447.000000	4.137082
1448.000000	4.134029
1449.000000	4.082602
1450.000000	4.081211
1451.000000	4.055972
1452.000000	4.057992
1453.000000	4.052760
1454.000000	4.019255
1455.000000	4.000945
1456.000000	3.993360
1457.000000	3.988259
1458.000000	3.962788
1459.000000	3.958544
1460.000000	3.930556
1461.000000	3.939637
1462.000000	3.919568
1463.000000	3.910314
1464.000000	3.897798
1465.000000	3.871178
1466.000000	3.867519
1467.000000	3.864362
1468.000000	3.866465
1469.000000	3.858167
1470.000000	3.841473
1471.000000	3.839068
1472.000000	3.822495
1473.000000	3.820026
1474.000000	3.818317
1475.000000	3.813758
1476.000000	3.806119
1477.000000	3.799568
1478.000000	3.788983
1479.000000	3.789694
1480.000000	3.785549
1481.000000	3.787177
1482.000000	3.776940
1483.000000	3.791378
1484.000000	3.795220
1485.000000	3.774080
1486.000000	3.779903
1487.000000	3.782908
1488.000000	3.784690
1489.000000	3.783772
1490.000000	3.781850
1491.000000	3.776523
1492.000000	3.793138
1493.000000	3.798931
1494.000000	3.802622
1495.000000	3.790565
1496.000000	3.793248
1497.000000	3.802504
1498.000000	3.812205
1499.000000	3.813634
1500.000000	3.823175
1501.000000	3.832158
1502.000000	3.833076
1503.000000	3.848488
1504.000000	3.865243
1505.000000	3.872765
1506.000000	3.880735
1507.000000	3.884308
1508.000000	3.910165
1509.000000	3.912345
1510.000000	3.918960
1511.000000	3.930894
1512.000000	3.943816
1513.000000	3.953867
1514.000000	3.968114
1515.000000	3.981175
1516.000000	3.990271
1517.000000	3.998342
1518.000000	4.007457
1519.000000	4.031283
1520.000000	4.041052
1521.000000	4.053008
1522.000000	4.053384
1523.000000	4.065894
1524.000000	4.072322
1525.000000	4.067220
1526.000000	4.079692
1527.000000	4.081769
1528.000000	4.087270
1529.000000	4.094073
1530.000000	4.102235
1531.000000	4.106318
1532.000000	4.111581
1533.000000	4.109800
1534.000000	4.113192
1535.000000	4.120877
1536.000000	4.116342
1537.000000	4.120415
1538.000000	4.131264
1539.000000	4.126469
1540.000000	4.125998
1541.000000	4.128953
1542.000000	4.125885
1543.000000	4.124908
1544.000000	4.120913
1545.000000	4.114823
1546.000000	4.116617
1547.000000	4.113613
1548.000000	4.105789
1549.000000	4.105173
1550.000000	4.115452
1551.000000	4.116586
1552.000000	4.124140
1553.000000	4.126629
1554.000000	4.115812
1555.000000	4.117102
1556.000000	4.124154
1557.000000	4.129417
1558.000000	4.129092
1559.000000	4.123784
1560.000000	4.124270
1561.000000	4.121160
1562.000000	4.109560
1563.000000	4.100625
1564.000000	4.101691
1565.000000	4.098657
1566.000000	4.083843
1567.000000	4.064895
1568.000000	4.058231
1569.000000	4.055621
1570.000000	4.043238
1571.000000	4.030588
1572.000000	4.022677
1573.000000	4.023479
1574.000000	4.019655
1575.000000	4.013967
1576.000000	4.013294
1577.000000	4.005443
1578.000000	3.997834
1579.000000	4.004194
1580.000000	4.007887
1581.000000	4.006049
1582.000000	3.997352
1583.000000	4.003200
1584.000000	4.006340
1585.000000	4.009574
1586.000000	4.005702
1587.000000	4.006982
1588.000000	4.019390
1589.000000	4.025728
1590.000000	4.028639
1591.000000	4.034744
1592.000000	4.035921
1593.000000	4.043484
1594.000000	4.047770
1595.000000	4.059256
1596.000000	4.076322
1597.000000	4.085855
1598.000000	4.094797
1599.000000	4.107994
1600.000000	4.114042
1601.000000	4.127964
1602.000000	4.139287
1603.000000	4.152955
1604.000000	4.170845
1605.000000	4.185051
1606.000000	4.201423
1607.000000	4.201595
1608.000000	4.213347
1609.000000	4.235567
1610.000000	4.244788
1611.000000	4.245385
1612.000000	4.262532
1613.000000	4.275071
1614.000000	4.279744
1615.000000	4.292820
1616.000000	4.304839
1617.000000	4.309149
1618.000000	4.314213
1619.000000	4.320531
1620.000000	4.341757
1621.000000	4.352436
1622.000000	4.352302
1623.000000	4.365081
1624.000000	4.380239
1625.000000	4.385495
1626.000000	4.397183
1627.000000	4.413276
1628.000000	4.415966
1629.000000	4.423504
1630.000000	4.443731
1631.000000	4.444294
1632.000000	4.446419
1633.000000	4.455948
1634.000000	4.470715
1635.000000	4.471654
1636.000000	4.472749
1637.000000	4.476252
1638.000000	4.482076
1639.000000	4.464398
1640.000000	4.467315
1641.000000	4.488544
1642.000000	4.480305
1643.000000	4.484532
1644.000000	4.487596
1645.000000	4.482969
1646.000000	4.487039
1647.000000	4.484739
1648.000000	4.483059
1649.000000	4.491825
1650.000000	4.482834
1651.000000	4.480997
1652.000000	4.477257
1653.000000	4.474344
1654.000000	4.476881
1655.000000	4.477373
1656.000000	4.468370
1657.000000	4.464697
1658.000000	4.435652
1659.000000	4.434254
1660.000000	4.419255
1661.000000	4.402155
1662.000000	4.393576
1663.000000	4.379287
1664.000000	4.374664
1665.000000	4.350829
1666.000000	4.337623
1667.000000	4.310262
1668.000000	4.302026
1669.000000	4.269817
1670.000000	4.263749
1671.000000	4.226255
1672.000000	4.209279
1673.000000	4.184172
1674.000000	4.159771
1675.000000	4.146532
1676.000000	4.103084
1677.000000	4.053452
1678.000000	4.027300
1679.000000	3.989247
1680.000000	3.923473
1681.000000	3.841554
1682.000000	3.763904
1683.000000	3.668188
1684.000000	3.615848
1685.000000	3.558193
1686.000000	3.523256
1687.000000	3.503729
1688.000000	3.478656
1689.000000	3.498380
1690.000000	3.480779
1691.000000	3.447892
1692.000000	3.447704
1693.000000	3.412041
1694.000000	3.370530
1695.000000	3.368469
1696.000000	3.350450
1697.000000	3.344098
1698.000000	3.335906
1699.000000	3.357477
1700.000000	3.368301
1701.000000	3.401851
1702.000000	3.418850
1703.000000	3.435494
1704.000000	3.468543
1705.000000	3.479805
1706.000000	3.488380
1707.000000	3.488400
1708.000000	3.503888
1709.000000	3.499047
1710.000000	3.498689
1711.000000	3.510477
1712.000000	3.517854
1713.000000	3.493614
1714.000000	3.495106
1715.000000	3.478704
1716.000000	3.471314
1717.000000	3.455128
1718.000000	3.451980
1719.000000	3.433672
1720.000000	3.432075
1721.000000	3.422641
1722.000000	3.420934
1723.000000	3.413840
1724.000000	3.412957
1725.000000	3.416331
1726.000000	3.420710
1727.000000	3.416971
1728.000000	3.410354
1729.000000	3.402334
1730.000000	3.387341
1731.000000	3.388815
1732.000000	3.373612
1733.000000	3.363679
1734.000000	3.365457
1735.000000	3.364619
1736.000000	3.377496
1737.000000	3.386430
1738.000000	3.401923
1739.000000	3.438279
1740.000000	3.464082
1741.000000	3.476589
1742.000000	3.519511
1743.000000	3.565416
1744.000000	3.590514
1745.000000	3.608723
1746.000000	3.642955
1747.000000	3.671218
1748.000000	3.684120
1749.000000	3.707955
1750.000000	3.716638
1751.000000	3.736379
1752.000000	3.746948
1753.000000	3.758869
1754.000000	3.775179
1755.000000	3.782861
1756.000000	3.762890
1757.000000	3.774827
1758.000000	3.775904
1759.000000	3.775904
1760.000000	3.773093
1761.000000	3.772940
1762.000000	3.759714
1763.000000	3.759951
1764.000000	3.760006
1765.000000	3.770234
1766.000000	3.773078
1767.000000	3.769034
1768.000000	3.773552
1769.000000	3.797175
1770.000000	3.792881
1771.000000	3.804286
1772.000000	3.822536
1773.000000	3.831671
1774.000000	3.838599
1775.000000	3.860069
1776.000000	3.875637
1777.000000	3.881823
1778.000000	3.885525
1779.000000	3.896858
1780.000000	3.896943
1781.000000	3.898334
1782.000000	3.908992
1783.000000	3.906361
1784.000000	3.900175
1785.000000	3.906743
1786.000000	3.895359
1787.000000	3.898425
1788.000000	3.912757
1789.000000	3.912394
1790.000000	3.910861
1791.000000	3.912747
1792.000000	3.905869
1793.000000	3.898897
1794.000000	3.895147
1795.000000	3.887836
1796.000000	3.886859
1797.000000	3.881478
1798.000000	3.879669
1799.000000	3.884956
1800.000000	3.891008
1801.000000	3.876063
1802.000000	3.872218
1803.000000	3.871545
1804.000000	3.872624
1805.000000	3.871787
1806.000000	3.869410
1807.000000	3.885069
1808.000000	3.895203
1809.000000	3.892364
1810.000000	3.890052
1811.000000	3.882509
1812.000000	3.876166
1813.000000	3.878994
1814.000000	3.887659
1815.000000	3.885288
1816.000000	3.880009
1817.000000	3.880161
1818.000000	3.885276
1819.000000	3.878855
1820.000000	3.865967
1821.000000	3.861795
1822.000000	3.872630
1823.000000	3.882629
1824.000000	3.882264
1825.000000	3.867463
1826.000000	3.843504
1827.000000	3.835592
1828.000000	3.839937
1829.000000	3.845140
1830.000000	3.844369
1831.000000	3.841625
1832.000000	3.850495
1833.000000	3.860860
1834.000000	3.863849
1835.000000	3.859555
1836.000000	3.858783
1837.000000	3.861169
1838.000000	3.864776
1839.000000	3.869296
1840.000000	3.872301
1841.000000	3.873032
1842.000000	3.889373
1843.000000	3.907383
1844.000000	3.920178
1845.000000	3.931300
1846.000000	3.906293
1847.000000	3.879674
1848.000000	3.875907
1849.000000	3.896265
1850.000000	3.921175
1851.000000	3.935483
1852.000000	3.928760
1853.000000	3.901136
1854.000000	3.898548
1855.000000	3.904532
1856.000000	3.903556
1857.000000	3.917270
1858.000000	3.917159
1859.000000	3.900916
1860.000000	3.897196
1861.000000	3.909901
1862.000000	3.917565
1863.000000	3.911725
1864.000000	3.907894
1865.000000	3.904215
1866.000000	3.898900
1867.000000	3.887702
1868.000000	3.885668
1869.000000	3.891007
1870.000000	3.872793
1871.000000	3.856791
1872.000000	3.857244
1873.000000	3.861193
1874.000000	3.852541
1875.000000	3.844963
1876.000000	3.830867
1877.000000	3.821606
1878.000000	3.821225
1879.000000	3.791805
1880.000000	3.765854
1881.000000	3.751873
1882.000000	3.715531
1883.000000	3.644802
1884.000000	3.601645
1885.000000	3.548070
1886.000000	3.479512
1887.000000	3.425033
1888.000000	3.391280
1889.000000	3.341212
1890.000000	3.280020
1891.000000	3.239436
1892.000000	3.197137
1893.000000	3.153861
1894.000000	3.109299
1895.000000	3.072145
1896.000000	3.038293
1897.000000	3.007823
1898.000000	2.956664
1899.000000	2.901621
1900.000000	2.846360
1901.000000	2.810556
1902.000000	2.767881
1903.000000	2.729124
1904.000000	2.687095
1905.000000	2.640851
1906.000000	2.609099
1907.000000	2.565734
1908.000000	2.519487
1909.000000	2.489502
1910.000000	2.455962
1911.000000	2.422220
1912.000000	2.372069
1913.000000	2.345368
1914.000000	2.307259
1915.000000	2.274685
1916.000000	2.251402
1917.000000	2.216639
1918.000000	2.191136
1919.000000	2.145464
1920.000000	2.104441
1921.000000	2.053937
1922.000000	2.036503
1923.000000	2.021926
1924.000000	2.008006
1925.000000	1.980886
1926.000000	1.942541
1927.000000	1.904862
1928.000000	1.881308
1929.000000	1.877465
1930.000000	1.869648
1931.000000	1.846779
1932.000000	1.832488
1933.000000	1.819015
1934.000000	1.801534
1935.000000	1.795532
1936.000000	1.775078
1937.000000	1.758138
1938.000000	1.768743
1939.000000	1.749731
1940.000000	1.736203
1941.000000	1.741325
1942.000000	1.746684
1943.000000	1.740104
1944.000000	1.745129
1945.000000	1.738387
1946.000000	1.751509
1947.000000	1.743836
1948.000000	1.749448
1949.000000	1.749332
1950.000000	1.756190
1951.000000	1.763353
1952.000000	1.757495
1953.000000	1.753909
1954.000000	1.764858
1955.000000	1.770157
1956.000000	1.775692
1957.000000	1.771056
1958.000000	1.778924
1959.000000	1.804848
1960.000000	1.800378
1961.000000	1.806171
1962.000000	1.811021
1963.000000	1.817387
1964.000000	1.832048
1965.000000	1.841419
1966.000000	1.853658
1967.000000	1.852938
1968.000000	1.870559
1969.000000	1.844121
1970.000000	1.889308
1971.000000	1.885411
1972.000000	1.883715
1973.000000	1.900311
1974.000000	1.900211
1975.000000	1.905172
1976.000000	1.918699
1977.000000	1.925171
1978.000000	1.936855
1979.000000	1.946927
1980.000000	1.951850
1981.000000	1.979164
1982.000000	1.977465
1983.000000	1.994915
1984.000000	1.994685
1985.000000	2.015318
1986.000000	2.023098
1987.000000	2.039231
1988.000000	2.044477
1989.000000	2.042134
1990.000000	2.056026
1991.000000	2.064710
1992.000000	2.071416
1993.000000	2.088505
1994.000000	2.101965
1995.000000	2.115160
1996.000000	2.105725
1997.000000	2.131321
1998.000000	2.143742
1999.000000	2.156951
2000.000000	2.149736
2001.000000	2.149837
2002.000000	2.160562
2003.000000	2.161081
2004.000000	2.177478
2005.000000	2.177577
2006.000000	2.174256
2007.000000	2.172559
2008.000000	2.184159
2009.000000	2.193090
2010.000000	2.184290
2011.000000	2.190171
2012.000000	2.204786
2013.000000	2.189578
2014.000000	2.188815
2015.000000	2.195946
2016.000000	2.192029
2017.000000	2.191580
2018.000000	2.174976
2019.000000	2.179160
2020.000000	2.170487
2021.000000	2.162469
2022.000000	2.157202
2023.000000	2.161080
2024.000000	2.145790
2025.000000	2.141870
2026.000000	2.143210
2027.000000	2.128612
2028.000000	2.112795
2029.000000	2.099893
2030.000000	2.090442
2031.000000	2.085047
2032.000000	2.064960
2033.000000	2.051534
2034.000000	2.047971
2035.000000	2.039683
2036.000000	1.994650
2037.000000	1.989122
2038.000000	1.980202
2039.000000	1.962104
2040.000000	1.938577
2041.000000	1.921121
2042.000000	1.894880
2043.000000	1.875473
2044.000000	1.854401
2045.000000	1.837656
2046.000000	1.817050
2047.000000	1.800386
2048.000000	1.768516
2049.000000	1.756076
2050.000000	1.731957
2051.000000	1.721582
2052.000000	1.714779
2053.000000	1.697931
2054.000000	1.683688
2055.000000	1.673248
2056.000000	1.670253
2057.000000	1.667722
2058.000000	1.667823
2059.000000	1.664130
2060.000000	1.673163
2061.000000	1.684352
2062.000000	1.692759
2063.000000	1.685482
2064.000000	1.696298
2065.000000	1.709377
2066.000000	1.721100
2067.000000	1.732695
2068.000000	1.736704
2069.000000	1.744574
2070.000000	1.757054
2071.000000	1.767261
2072.000000	1.768614
2073.000000	1.767047
2074.000000	1.767342
2075.000000	1.785446
2076.000000	1.788884
2077.000000	1.802073
2078.000000	1.802305
2079.000000	1.801569
2080.000000	1.818848
2081.000000	1.825067
2082.000000	1.814470
2083.000000	1.815333
2084.000000	1.831370
2085.000000	1.834255
2086.000000	1.837779
2087.000000	1.835962
2088.000000	1.834144
2089.000000	1.838928
2090.000000	1.847386
2091.000000	1.840251
2092.000000	1.834578
2093.000000	1.840660
2094.000000	1.841108
2095.000000	1.842829
2096.000000	1.845774
2097.000000	1.839448
2098.000000	1.840956
2099.000000	1.836731
2100.000000	1.836772
2101.000000	1.841971
2102.000000	1.848630
2103.000000	1.857859
2104.000000	1.845779
2105.000000	1.842011
2106.000000	1.846566
2107.000000	1.840673
2108.000000	1.838997
2109.000000	1.832632
2110.000000	1.823875
2111.000000	1.823921
2112.000000	1.827649
2113.000000	1.824101
2114.000000	1.815134
2115.000000	1.811128
2116.000000	1.813989
2117.000000	1.814195
2118.000000	1.798291
2119.000000	1.777554
2120.000000	1.777702
2121.000000	1.779986
2122.000000	1.772556
2123.000000	1.759085
2124.000000	1.745740
2125.000000	1.726341
2126.000000	1.715081
2127.000000	1.713484
2128.000000	1.708841
2129.000000	1.707529
2130.000000	1.684451
2131.000000	1.670196
2132.000000	1.659415
2133.000000	1.644333
2134.000000	1.630549
2135.000000	1.617847
2136.000000	1.604768
2137.000000	1.584853
2138.000000	1.584203
2139.000000	1.583448
2140.000000	1.554885
2141.000000	1.543166
2142.000000	1.530788
2143.000000	1.505332
2144.000000	1.490434
2145.000000	1.492130
2146.000000	1.476824
2147.000000	1.465499
2148.000000	1.450754
2149.000000	1.430623
2150.000000	1.419843
2151.000000	1.415861
2152.000000	1.406711
2153.000000	1.389842
2154.000000	1.361458
2155.000000	1.348661
2156.000000	1.340530
2157.000000	1.329910
2158.000000	1.326610
2159.000000	1.314426
2160.000000	1.314201
2161.000000	1.296638
2162.000000	1.304332
2163.000000	1.289596
2164.000000	1.270978
2165.000000	1.268844
2166.000000	1.279010
2167.000000	1.280698
2168.000000	1.275053
2169.000000	1.264923
2170.000000	1.259904
2171.000000	1.262372
2172.000000	1.268310
2173.000000	1.261689
2174.000000	1.268919
2175.000000	1.270449
2176.000000	1.278465
2177.000000	1.275121
2178.000000	1.262424
2179.000000	1.261251
2180.000000	1.263353
2181.000000	1.263859
2182.000000	1.265308
2183.000000	1.267890
2184.000000	1.264808
2185.000000	1.269368
2186.000000	1.262696
2187.000000	1.273858
2188.000000	1.274832
2189.000000	1.269747
2190.000000	1.263339
2191.000000	1.275118
2192.000000	1.292185
2193.000000	1.284619
2194.000000	1.284599
2195.000000	1.294736
2196.000000	1.301403
2197.000000	1.291256
2198.000000	1.301753
2199.000000	1.311203
2200.000000	1.299098
2201.000000	1.297030
2202.000000	1.298601
2203.000000	1.286328
2204.000000	1.310433
2205.000000	1.321065
2206.000000	1.309774
2207.000000	1.310926
2208.000000	1.310838
2209.000000	1.310151
2210.000000	1.330799
2211.000000	1.332210
2212.000000	1.333888
2213.000000	1.344920
2214.000000	1.366501
2215.000000	1.362148
2216.000000	1.365797
2217.000000	1.378514
2218.000000	1.398003
2219.000000	1.397349
2220.000000	1.410127
2221.000000	1.419324
2222.000000	1.427658
2223.000000	1.429545
2224.000000	1.431447
2225.000000	1.444387
2226.000000	1.456579
2227.000000	1.457919
2228.000000	1.460734
2229.000000	1.453182
2230.000000	1.456833
2231.000000	1.475734
2232.000000	1.462587
2233.000000	1.442786
2234.000000	1.459119
2235.000000	1.454021
2236.000000	1.426539
2237.000000	1.451593
2238.000000	1.426438
2239.000000	1.417861
2240.000000	1.401214
2241.000000	1.383935
2242.000000	1.377805
2243.000000	1.358216
2244.000000	1.345234
2245.000000	1.318119
2246.000000	1.314228
2247.000000	1.289303
2248.000000	1.258093
2249.000000	1.226750
2250.000000	1.198865
2251.000000	1.158865
2252.000000	1.114877
2253.000000	1.083493
2254.000000	1.049928
2255.000000	1.008797
2256.000000	0.958718
2257.000000	0.914705
2258.000000	0.881186
2259.000000	0.834589
2260.000000	0.808107
2261.000000	0.740469
2262.000000	0.720335
2263.000000	0.689288
2264.000000	0.676321
2265.000000	0.636726
2266.000000	0.619976
2267.000000	0.597231
2268.000000	0.584022
2269.000000	0.561230
2270.000000	0.559978
2271.000000	0.556742
2272.000000	0.538683
2273.000000	0.550843
2274.000000	0.549977
2275.000000	0.540867
2276.000000	0.545591
2277.000000	0.545695
2278.000000	0.551460
2279.000000	0.565266
2280.000000	0.575418
2281.000000	0.576977
2282.000000	0.555631
2283.000000	0.574036
2284.000000	0.580265
2285.000000	0.576586
2286.000000	0.582518
2287.000000	0.588858
2288.000000	0.586364
2289.000000	0.581437
2290.000000	0.573410
2291.000000	0.575308
2292.000000	0.564657
2293.000000	0.551195
2294.000000	0.547866
2295.000000	0.535971
2296.000000	0.524638
2297.000000	0.509069
2298.000000	0.505278
2299.000000	0.496152
2300.000000	0.492172
2301.000000	0.481109
2302.000000	0.472418
2303.000000	0.486075
2304.000000	0.480766
2305.000000	0.471586
2306.000000	0.467967
2307.000000	0.475605
2308.000000	0.494760
2309.000000	0.493464
2310.000000	0.490731
2311.000000	0.507282
2312.000000	0.519237
2313.000000	0.525900
2314.000000	0.538622
2315.000000	0.539656
2316.000000	0.544586
2317.000000	0.548168
2318.000000	0.553174
2319.000000	0.570686
2320.000000	0.585308
2321.000000	0.591722
2322.000000	0.597474
2323.000000	0.597812
2324.000000	0.603241
2325.000000	0.608343
2326.000000	0.614743
2327.000000	0.624316
2328.000000	0.627477
2329.000000	0.634476
2330.000000	0.636958
2331.000000	0.646276
2332.000000	0.640987
2333.000000	0.637541
2334.000000	0.645195
2335.000000	0.634598
2336.000000	0.638061
2337.000000	0.652060
2338.000000	0.656490
2339.000000	0.652503
2340.000000	0.647660
2341.000000	0.646791
2342.000000	0.642304
2343.000000	0.630881
2344.000000	0.638442
2345.000000	0.650876
2346.000000	0.640934
2347.000000	0.631689
2348.000000	0.642532
2349.000000	0.652224
2350.000000	0.657345
2351.000000	0.666283
2352.000000	0.672587
2353.000000	0.680812
2354.000000	0.690806
2355.000000	0.695469
2356.000000	0.699674
2357.000000	0.693988
2358.000000	0.691461
2359.000000	0.705122
2360.000000	0.714695
2361.000000	0.712424
2362.000000	0.710591
2363.000000	0.721561
2364.000000	0.718284
2365.000000	0.714521
2366.000000	0.723322
2367.000000	0.730036
2368.000000	0.734589
2369.000000	0.737855
2370.000000	0.741732
2371.000000	0.748632
2372.000000	0.748898
2373.000000	0.738146
2374.000000	0.737701
2375.000000	0.740285
2376.000000	0.740713
2377.000000	0.737215
2378.000000	0.742729
2379.000000	0.746799
2380.000000	0.748036
2381.000000	0.742788
2382.000000	0.744482
2383.000000	0.736363
2384.000000	0.741185
2385.000000	0.746965
2386.000000	0.737521
2387.000000	0.743131
2388.000000	0.744564
2389.000000	0.736060
2390.000000	0.738383
2391.000000	0.738771
2392.000000	0.729056
2393.000000	0.725159
2394.000000	0.727734
2395.000000	0.739950
2396.000000	0.742152
2397.000000	0.739986
2398.000000	0.728918
2399.000000	0.725587
2400.000000	0.733527
2401.000000	0.740743
2402.000000	0.737998
2403.000000	0.730444
2404.000000	0.733566
2405.000000	0.734921
2406.000000	0.728046
2407.000000	0.735027
2408.000000	0.725783
2409.000000	0.714473
2410.000000	0.720273
2411.000000	0.734957
2412.000000	0.735634
2413.000000	0.714336
2414.000000	0.694823
2415.000000	0.672983
2416.000000	0.678970
2417.000000	0.685455
2418.000000	0.669754
2419.000000	0.678754
2420.000000	0.702398
2421.000000	0.688982
2422.000000	0.690557
2423.000000	0.684063
2424.000000	0.662055
2425.000000	0.668752
2426.000000	0.691855
2427.000000	0.724357
2428.000000	0.722955
2429.000000	0.718138
2430.000000	0.714985
2431.000000	0.698094
2432.000000	0.678201
2433.000000	0.675470
2434.000000	0.677971
2435.000000	0.657516
2436.000000	0.654241
2437.000000	0.649727
2438.000000	0.655212
2439.000000	0.638960
2440.000000	0.634777
2441.000000	0.625592
2442.000000	0.625774
2443.000000	0.622995
2444.000000	0.617567
2445.000000	0.609482
2446.000000	0.601413
2447.000000	0.591641
2448.000000	0.587684
2449.000000	0.599781
2450.000000	0.596276
2451.000000	0.594464
2452.000000	0.605193
2453.000000	0.587358
2454.000000	0.573096
2455.000000	0.585673
2456.000000	0.581516
2457.000000	0.569521
2458.000000	0.550075
2459.000000	0.547399
2460.000000	0.538064
2461.000000	0.544131
2462.000000	0.525482
2463.000000	0.515262
2464.000000	0.497584
2465.000000	0.470984
2466.000000	0.489893
2467.000000	0.458583
2468.000000	0.459675
2469.000000	0.441221
2470.000000	0.456414
2471.000000	0.466489
2472.000000	0.426135
2473.000000	0.431108
2474.000000	0.442689
2475.000000	0.426290
2476.000000	0.443822
2477.000000	0.411735
2478.000000	0.423761
2479.000000	0.415423
2480.000000	0.434442
2481.000000	0.442627
2482.000000	0.378052
2483.000000	0.418188
2484.000000	0.402402
2485.000000	0.403645
2486.000000	0.359548
2487.000000	0.355704
2488.000000	0.390472
2489.000000	0.404068
2490.000000	0.386030
2491.000000	0.392521
2492.000000	0.337453
2493.000000	0.420797
2494.000000	0.391491
2495.000000	0.414916
2496.000000	0.432418
2497.000000	0.470648
2498.000000	0.493429
2499.000000	0.372014
2500.000000	0.393282
