PE UV       SUBTECH     SPECTRUM    ASCII       PEDS        4.00        
   -1
CICIMAUCR0018-7.Sample.ASC
24/04/25
15:44:01.00
24/04/25
15:44:01.00
Vinicio Soto Monge
C. cupreomarginata
250,000000
1
Lambda 1050
1050L1511233
PerkinElmer UV WinLab 6.3.2.0749 / 2.02.05 Lambda 900 UV/VIS/NIR, Aug  7 2015 09:38:08

0
0
3350/servo 860,8/2
0
0
UV/VIS
1
1
1
DoubleDePol,CommonBeamDepol,RBeamAtt,SBeamAtt,60mm sphere, WB InGaAs Detector
0
0
0
0
Program
Program
3350/servo 860,8/2
3350/0,2 860,8/0,2
3350/0,2 860,8/0,2
0
15.00
 
 
 
0
 
860,8
319,2
860,8
Front
100
on
S:100 R:100
0
0
0
0
 
0
 
 
 
0
 
 
0
0
0
0
0
 
 
 
 
0
0


0
0
#HDR
-1
-1
#GR
nm
%R
1.0
0.0
2500,000000
-1,000000
2251
8
71,516000
5,467700
#DATA
250.000000	0.200197
251.000000	0.183397
252.000000	0.188319
253.000000	0.190278
254.000000	0.181714
255.000000	0.196439
256.000000	0.146366
257.000000	0.196822
258.000000	0.187458
259.000000	0.183923
260.000000	0.172873
261.000000	0.181932
262.000000	0.188642
263.000000	0.186403
264.000000	0.185077
265.000000	0.185743
266.000000	0.176623
267.000000	0.209559
268.000000	0.174463
269.000000	0.183215
270.000000	0.185268
271.000000	0.167518
272.000000	0.181080
273.000000	0.180667
274.000000	0.210261
275.000000	0.186884
276.000000	0.159012
277.000000	0.209919
278.000000	0.188424
279.000000	0.165378
280.000000	0.176371
281.000000	0.152336
282.000000	0.171507
283.000000	0.174474
284.000000	0.150915
285.000000	0.170690
286.000000	0.173710
287.000000	0.173693
288.000000	0.179478
289.000000	0.178855
290.000000	0.196162
291.000000	0.186554
292.000000	0.192038
293.000000	0.196259
294.000000	0.177729
295.000000	0.168261
296.000000	0.126681
297.000000	0.171390
298.000000	0.173749
299.000000	0.189675
300.000000	0.175936
301.000000	0.167863
302.000000	0.172333
303.000000	0.175385
304.000000	0.186271
305.000000	0.179924
306.000000	0.188797
307.000000	0.205958
308.000000	0.217283
309.000000	0.204624
310.000000	0.200397
311.000000	0.214299
312.000000	0.171129
313.000000	0.163015
314.000000	0.154560
315.000000	0.147386
316.000000	0.186224
317.000000	0.220851
318.000000	0.501630
319.000000	0.358043
320.000000	0.198488
321.000000	0.144108
322.000000	0.108033
323.000000	0.223432
324.000000	0.365740
325.000000	0.273262
326.000000	0.213165
327.000000	0.282076
328.000000	0.322527
329.000000	0.246913
330.000000	0.160404
331.000000	0.235509
332.000000	0.196579
333.000000	0.278249
334.000000	0.084087
335.000000	0.159614
336.000000	0.295909
337.000000	0.244622
338.000000	0.237998
339.000000	0.168840
340.000000	0.191593
341.000000	0.162995
342.000000	0.138444
343.000000	0.163347
344.000000	0.200652
345.000000	0.148904
346.000000	0.271231
347.000000	0.166461
348.000000	0.210915
349.000000	0.195616
350.000000	0.202934
351.000000	0.235219
352.000000	0.243590
353.000000	0.200971
354.000000	0.154086
355.000000	0.208701
356.000000	0.249739
357.000000	0.206717
358.000000	0.176671
359.000000	0.201901
360.000000	0.154240
361.000000	0.213453
362.000000	0.148461
363.000000	0.209760
364.000000	0.286944
365.000000	0.198530
366.000000	0.140559
367.000000	0.171801
368.000000	0.251809
369.000000	0.191853
370.000000	0.174900
371.000000	0.157873
372.000000	0.093027
373.000000	0.201527
374.000000	0.322966
375.000000	0.315652
376.000000	0.240256
377.000000	0.185438
378.000000	0.173162
379.000000	0.179550
380.000000	0.184546
381.000000	0.190824
382.000000	0.197149
383.000000	0.193379
384.000000	0.206027
385.000000	0.215104
386.000000	0.219300
387.000000	0.228965
388.000000	0.240434
389.000000	0.239655
390.000000	0.256712
391.000000	0.264862
392.000000	0.267342
393.000000	0.288127
394.000000	0.293489
395.000000	0.296754
396.000000	0.306217
397.000000	0.321682
398.000000	0.330195
399.000000	0.337980
400.000000	0.350694
401.000000	0.354176
402.000000	0.353294
403.000000	0.371176
404.000000	0.384141
405.000000	0.385020
406.000000	0.400759
407.000000	0.400564
408.000000	0.400519
409.000000	0.402739
410.000000	0.412643
411.000000	0.415996
412.000000	0.421010
413.000000	0.426960
414.000000	0.443800
415.000000	0.456608
416.000000	0.460205
417.000000	0.458806
418.000000	0.460929
419.000000	0.466349
420.000000	0.473309
421.000000	0.481742
422.000000	0.484691
423.000000	0.492931
424.000000	0.504554
425.000000	0.509078
426.000000	0.520842
427.000000	0.534899
428.000000	0.538928
429.000000	0.550298
430.000000	0.561484
431.000000	0.571938
432.000000	0.579987
433.000000	0.589434
434.000000	0.602470
435.000000	0.601734
436.000000	0.610719
437.000000	0.621284
438.000000	0.628467
439.000000	0.643801
440.000000	0.655377
441.000000	0.655352
442.000000	0.660693
443.000000	0.661917
444.000000	0.660182
445.000000	0.657792
446.000000	0.651686
447.000000	0.645495
448.000000	0.627149
449.000000	0.608015
450.000000	0.584232
451.000000	0.565152
452.000000	0.548863
453.000000	0.521654
454.000000	0.489243
455.000000	0.464540
456.000000	0.446837
457.000000	0.447853
458.000000	0.437892
459.000000	0.426014
460.000000	0.441562
461.000000	0.458596
462.000000	0.481571
463.000000	0.508234
464.000000	0.535715
465.000000	0.566845
466.000000	0.597898
467.000000	0.635646
468.000000	0.664656
469.000000	0.690634
470.000000	0.719205
471.000000	0.741142
472.000000	0.764778
473.000000	0.793611
474.000000	0.820867
475.000000	0.845104
476.000000	0.865621
477.000000	0.889531
478.000000	0.903599
479.000000	0.913827
480.000000	0.919298
481.000000	0.923053
482.000000	0.928790
483.000000	0.931776
484.000000	0.927390
485.000000	0.907454
486.000000	0.892116
487.000000	0.879557
488.000000	0.859241
489.000000	0.846849
490.000000	0.840844
491.000000	0.831157
492.000000	0.813633
493.000000	0.802263
494.000000	0.789199
495.000000	0.793741
496.000000	0.797553
497.000000	0.808914
498.000000	0.829967
499.000000	0.854294
500.000000	0.868488
501.000000	0.889606
502.000000	0.929796
503.000000	0.972930
504.000000	1.021311
505.000000	1.070238
506.000000	1.108718
507.000000	1.139289
508.000000	1.181298
509.000000	1.212016
510.000000	1.242820
511.000000	1.267571
512.000000	1.309545
513.000000	1.338859
514.000000	1.365327
515.000000	1.402333
516.000000	1.429272
517.000000	1.447710
518.000000	1.481303
519.000000	1.525132
520.000000	1.564154
521.000000	1.614885
522.000000	1.662751
523.000000	1.707504
524.000000	1.772695
525.000000	1.821774
526.000000	1.874952
527.000000	1.941053
528.000000	1.990422
529.000000	2.038264
530.000000	2.074813
531.000000	2.104151
532.000000	2.128924
533.000000	2.148267
534.000000	2.161139
535.000000	2.176838
536.000000	2.191537
537.000000	2.184449
538.000000	2.172414
539.000000	2.175635
540.000000	2.156338
541.000000	2.152711
542.000000	2.141575
543.000000	2.130607
544.000000	2.110959
545.000000	2.101251
546.000000	2.085737
547.000000	2.060314
548.000000	2.056585
549.000000	2.047921
550.000000	2.038198
551.000000	2.029576
552.000000	2.040745
553.000000	2.038644
554.000000	2.029543
555.000000	2.041862
556.000000	2.057417
557.000000	2.072714
558.000000	2.075581
559.000000	2.102963
560.000000	2.164755
561.000000	2.192343
562.000000	2.210285
563.000000	2.248338
564.000000	2.249995
565.000000	2.266307
566.000000	2.290930
567.000000	2.303783
568.000000	2.291214
569.000000	2.313639
570.000000	2.330683
571.000000	2.328278
572.000000	2.338271
573.000000	2.338447
574.000000	2.340834
575.000000	2.331883
576.000000	2.357943
577.000000	2.354634
578.000000	2.365465
579.000000	2.356922
580.000000	2.361021
581.000000	2.382474
582.000000	2.402960
583.000000	2.415080
584.000000	2.455378
585.000000	2.470157
586.000000	2.504515
587.000000	2.519128
588.000000	2.542606
589.000000	2.554134
590.000000	2.554660
591.000000	2.573437
592.000000	2.574834
593.000000	2.607077
594.000000	2.559658
595.000000	2.577249
596.000000	2.568994
597.000000	2.561295
598.000000	2.566137
599.000000	2.586365
600.000000	2.594955
601.000000	2.597740
602.000000	2.623109
603.000000	2.645344
604.000000	2.697157
605.000000	2.715365
606.000000	2.759275
607.000000	2.823123
608.000000	2.868309
609.000000	2.903072
610.000000	2.955038
611.000000	2.993027
612.000000	3.024072
613.000000	3.036415
614.000000	3.045859
615.000000	3.080155
616.000000	3.089683
617.000000	3.057270
618.000000	3.028158
619.000000	2.944958
620.000000	2.894015
621.000000	2.814292
622.000000	2.694409
623.000000	2.572138
624.000000	2.429943
625.000000	2.277348
626.000000	2.126396
627.000000	1.947752
628.000000	1.789058
629.000000	1.610368
630.000000	1.462051
631.000000	1.318047
632.000000	1.199204
633.000000	1.122915
634.000000	1.066454
635.000000	1.064959
636.000000	1.086932
637.000000	1.137163
638.000000	1.201446
639.000000	1.275162
640.000000	1.342629
641.000000	1.429056
642.000000	1.474373
643.000000	1.530411
644.000000	1.584340
645.000000	1.633573
646.000000	1.663188
647.000000	1.689650
648.000000	1.707147
649.000000	1.733690
650.000000	1.732794
651.000000	1.724866
652.000000	1.741966
653.000000	1.727927
654.000000	1.716734
655.000000	1.690566
656.000000	1.680214
657.000000	1.676363
658.000000	1.625599
659.000000	1.611616
660.000000	1.555257
661.000000	1.537735
662.000000	1.528978
663.000000	1.502996
664.000000	1.499957
665.000000	1.506994
666.000000	1.480376
667.000000	1.468419
668.000000	1.458661
669.000000	1.459435
670.000000	1.462058
671.000000	1.477297
672.000000	1.460584
673.000000	1.450106
674.000000	1.440142
675.000000	1.419433
676.000000	1.414770
677.000000	1.438379
678.000000	1.417773
679.000000	1.392854
680.000000	1.378943
681.000000	1.373134
682.000000	1.354051
683.000000	1.327069
684.000000	1.322102
685.000000	1.329360
686.000000	1.309172
687.000000	1.312925
688.000000	1.331368
689.000000	1.361466
690.000000	1.393798
691.000000	1.432125
692.000000	1.464865
693.000000	1.494115
694.000000	1.530131
695.000000	1.558408
696.000000	1.593410
697.000000	1.623407
698.000000	1.646131
699.000000	1.668852
700.000000	1.686051
701.000000	1.695894
702.000000	1.700103
703.000000	1.725552
704.000000	1.729115
705.000000	1.722956
706.000000	1.770138
707.000000	1.785136
708.000000	1.803288
709.000000	1.819812
710.000000	1.804432
711.000000	1.804635
712.000000	1.823175
713.000000	1.845654
714.000000	1.850187
715.000000	1.830284
716.000000	1.847480
717.000000	1.853936
718.000000	1.868870
719.000000	1.858174
720.000000	1.860473
721.000000	1.885348
722.000000	1.913915
723.000000	1.917476
724.000000	1.927417
725.000000	1.936116
726.000000	1.951389
727.000000	1.959296
728.000000	1.943948
729.000000	1.931565
730.000000	1.937858
731.000000	1.968416
732.000000	1.972264
733.000000	1.984873
734.000000	2.019732
735.000000	2.035975
736.000000	2.036398
737.000000	2.052133
738.000000	2.082023
739.000000	2.111968
740.000000	2.142109
741.000000	2.168328
742.000000	2.185326
743.000000	2.211531
744.000000	2.202210
745.000000	2.206365
746.000000	2.245999
747.000000	2.226984
748.000000	2.247020
749.000000	2.264847
750.000000	2.250673
751.000000	2.242727
752.000000	2.237744
753.000000	2.260388
754.000000	2.315012
755.000000	2.329013
756.000000	2.324142
757.000000	2.321167
758.000000	2.309490
759.000000	2.342695
760.000000	2.377879
761.000000	2.395187
762.000000	2.396201
763.000000	2.402973
764.000000	2.379710
765.000000	2.417941
766.000000	2.428054
767.000000	2.397748
768.000000	2.433014
769.000000	2.439531
770.000000	2.463309
771.000000	2.508284
772.000000	2.468024
773.000000	2.475271
774.000000	2.522164
775.000000	2.525543
776.000000	2.541408
777.000000	2.567940
778.000000	2.559037
779.000000	2.583003
780.000000	2.667358
781.000000	2.683755
782.000000	2.705471
783.000000	2.713199
784.000000	2.727656
785.000000	2.747528
786.000000	2.722668
787.000000	2.756828
788.000000	2.771024
789.000000	2.757965
790.000000	2.760944
791.000000	2.747311
792.000000	2.813801
793.000000	2.813750
794.000000	2.832300
795.000000	2.843006
796.000000	2.843083
797.000000	2.825768
798.000000	2.851836
799.000000	2.863686
800.000000	2.916541
801.000000	2.958108
802.000000	2.945962
803.000000	2.943541
804.000000	2.972574
805.000000	2.998464
806.000000	2.949770
807.000000	2.983013
808.000000	2.966063
809.000000	2.956683
810.000000	2.997954
811.000000	2.985144
812.000000	2.930609
813.000000	2.900658
814.000000	2.960960
815.000000	2.982251
816.000000	2.953961
817.000000	2.964638
818.000000	3.040574
819.000000	3.015608
820.000000	3.000820
821.000000	3.070302
822.000000	3.011332
823.000000	3.025897
824.000000	3.095874
825.000000	3.097498
826.000000	3.112815
827.000000	3.126378
828.000000	3.151608
829.000000	3.103403
830.000000	3.112096
831.000000	3.163813
832.000000	3.179758
833.000000	3.243848
834.000000	3.308349
835.000000	3.313682
836.000000	3.266246
837.000000	3.205418
838.000000	3.355770
839.000000	3.425459
840.000000	3.395403
841.000000	3.526976
842.000000	3.336566
843.000000	3.562881
844.000000	3.462799
845.000000	3.609689
846.000000	3.636019
847.000000	3.650840
848.000000	3.753062
849.000000	3.582232
850.000000	3.624775
851.000000	3.565452
852.000000	3.668834
853.000000	3.800987
854.000000	3.735094
855.000000	3.698695
856.000000	3.544986
857.000000	3.541375
858.000000	3.419428
859.000000	3.565916
860.000000	3.575391
861.000000	3.598462
862.000000	3.607562
863.000000	3.600339
864.000000	3.592862
865.000000	3.604998
866.000000	3.696547
867.000000	3.816841
868.000000	3.927409
869.000000	3.959136
870.000000	3.989922
871.000000	4.002944
872.000000	4.090276
873.000000	4.085816
874.000000	4.047020
875.000000	3.998417
876.000000	4.016553
877.000000	3.987598
878.000000	3.987843
879.000000	3.957025
880.000000	3.969854
881.000000	3.982928
882.000000	3.929033
883.000000	3.913298
884.000000	3.855203
885.000000	3.856511
886.000000	3.812559
887.000000	3.794223
888.000000	3.775828
889.000000	3.781758
890.000000	3.725808
891.000000	3.716347
892.000000	3.671989
893.000000	3.635740
894.000000	3.604857
895.000000	3.600372
896.000000	3.581848
897.000000	3.558803
898.000000	3.537240
899.000000	3.530417
900.000000	3.517051
901.000000	3.479285
902.000000	3.473430
903.000000	3.473811
904.000000	3.461866
905.000000	3.460470
906.000000	3.469916
907.000000	3.470134
908.000000	3.485896
909.000000	3.471343
910.000000	3.471310
911.000000	3.519103
912.000000	3.543531
913.000000	3.554769
914.000000	3.575959
915.000000	3.594919
916.000000	3.614853
917.000000	3.630566
918.000000	3.659974
919.000000	3.680884
920.000000	3.671418
921.000000	3.685762
922.000000	3.706763
923.000000	3.741205
924.000000	3.758964
925.000000	3.773560
926.000000	3.789830
927.000000	3.793716
928.000000	3.819269
929.000000	3.860080
930.000000	3.864895
931.000000	3.859219
932.000000	3.884472
933.000000	3.898398
934.000000	3.904601
935.000000	3.890507
936.000000	3.912433
937.000000	3.920387
938.000000	3.916149
939.000000	3.910990
940.000000	3.910852
941.000000	3.889046
942.000000	3.889649
943.000000	3.878719
944.000000	3.852774
945.000000	3.846189
946.000000	3.831352
947.000000	3.810331
948.000000	3.798865
949.000000	3.787007
950.000000	3.766387
951.000000	3.762821
952.000000	3.750142
953.000000	3.731735
954.000000	3.737379
955.000000	3.727972
956.000000	3.715503
957.000000	3.720004
958.000000	3.719341
959.000000	3.717095
960.000000	3.714027
961.000000	3.720757
962.000000	3.733311
963.000000	3.741724
964.000000	3.750585
965.000000	3.757233
966.000000	3.774543
967.000000	3.799315
968.000000	3.820532
969.000000	3.850095
970.000000	3.870252
971.000000	3.899616
972.000000	3.943635
973.000000	3.989714
974.000000	4.015775
975.000000	4.060669
976.000000	4.097354
977.000000	4.147518
978.000000	4.184779
979.000000	4.234593
980.000000	4.276155
981.000000	4.326069
982.000000	4.370869
983.000000	4.402076
984.000000	4.424675
985.000000	4.462050
986.000000	4.495393
987.000000	4.525987
988.000000	4.547892
989.000000	4.582379
990.000000	4.603799
991.000000	4.617617
992.000000	4.633468
993.000000	4.640380
994.000000	4.655233
995.000000	4.667268
996.000000	4.664777
997.000000	4.671009
998.000000	4.675638
999.000000	4.666401
1000.000000	4.672345
1001.000000	4.666481
1002.000000	4.660451
1003.000000	4.650059
1004.000000	4.636796
1005.000000	4.627816
1006.000000	4.611631
1007.000000	4.599346
1008.000000	4.580803
1009.000000	4.559200
1010.000000	4.538390
1011.000000	4.522956
1012.000000	4.510894
1013.000000	4.493859
1014.000000	4.474611
1015.000000	4.456403
1016.000000	4.442784
1017.000000	4.431481
1018.000000	4.419099
1019.000000	4.406602
1020.000000	4.393025
1021.000000	4.391687
1022.000000	4.384980
1023.000000	4.375318
1024.000000	4.376304
1025.000000	4.375978
1026.000000	4.381983
1027.000000	4.383977
1028.000000	4.386014
1029.000000	4.393525
1030.000000	4.403388
1031.000000	4.413255
1032.000000	4.421579
1033.000000	4.441158
1034.000000	4.461690
1035.000000	4.476451
1036.000000	4.485959
1037.000000	4.488460
1038.000000	4.506415
1039.000000	4.529352
1040.000000	4.548984
1041.000000	4.570044
1042.000000	4.590498
1043.000000	4.608993
1044.000000	4.623139
1045.000000	4.639011
1046.000000	4.662907
1047.000000	4.686684
1048.000000	4.704799
1049.000000	4.725558
1050.000000	4.749831
1051.000000	4.765307
1052.000000	4.784894
1053.000000	4.814583
1054.000000	4.838593
1055.000000	4.865880
1056.000000	4.891923
1057.000000	4.911024
1058.000000	4.937937
1059.000000	4.959658
1060.000000	4.983412
1061.000000	5.006640
1062.000000	5.021579
1063.000000	5.040567
1064.000000	5.057021
1065.000000	5.074168
1066.000000	5.088270
1067.000000	5.104813
1068.000000	5.119926
1069.000000	5.138414
1070.000000	5.152384
1071.000000	5.160182
1072.000000	5.167183
1073.000000	5.171306
1074.000000	5.181728
1075.000000	5.200929
1076.000000	5.210604
1077.000000	5.212992
1078.000000	5.215497
1079.000000	5.222278
1080.000000	5.235075
1081.000000	5.241763
1082.000000	5.244364
1083.000000	5.251981
1084.000000	5.252806
1085.000000	5.251825
1086.000000	5.258557
1087.000000	5.258878
1088.000000	5.260838
1089.000000	5.250157
1090.000000	5.255422
1091.000000	5.252645
1092.000000	5.254440
1093.000000	5.250645
1094.000000	5.246929
1095.000000	5.245555
1096.000000	5.242627
1097.000000	5.236636
1098.000000	5.238672
1099.000000	5.222600
1100.000000	5.222632
1101.000000	5.220581
1102.000000	5.223723
1103.000000	5.207187
1104.000000	5.211312
1105.000000	5.204805
1106.000000	5.200539
1107.000000	5.191920
1108.000000	5.179228
1109.000000	5.173744
1110.000000	5.178722
1111.000000	5.172224
1112.000000	5.162804
1113.000000	5.150501
1114.000000	5.151007
1115.000000	5.151653
1116.000000	5.158309
1117.000000	5.149331
1118.000000	5.144016
1119.000000	5.141585
1120.000000	5.147264
1121.000000	5.130020
1122.000000	5.128263
1123.000000	5.115356
1124.000000	5.112298
1125.000000	5.099219
1126.000000	5.088694
1127.000000	5.078019
1128.000000	5.072710
1129.000000	5.056436
1130.000000	5.033983
1131.000000	5.001270
1132.000000	4.975122
1133.000000	4.960660
1134.000000	4.954904
1135.000000	4.915108
1136.000000	4.886678
1137.000000	4.850852
1138.000000	4.820749
1139.000000	4.800231
1140.000000	4.777132
1141.000000	4.769676
1142.000000	4.747960
1143.000000	4.728354
1144.000000	4.719338
1145.000000	4.717749
1146.000000	4.713931
1147.000000	4.708462
1148.000000	4.716810
1149.000000	4.730876
1150.000000	4.727808
1151.000000	4.727682
1152.000000	4.740664
1153.000000	4.724918
1154.000000	4.713763
1155.000000	4.699022
1156.000000	4.706389
1157.000000	4.677668
1158.000000	4.653059
1159.000000	4.638706
1160.000000	4.612549
1161.000000	4.582935
1162.000000	4.566516
1163.000000	4.540936
1164.000000	4.533022
1165.000000	4.506156
1166.000000	4.488330
1167.000000	4.457798
1168.000000	4.451201
1169.000000	4.442641
1170.000000	4.420842
1171.000000	4.406204
1172.000000	4.391142
1173.000000	4.380468
1174.000000	4.363026
1175.000000	4.358364
1176.000000	4.361846
1177.000000	4.336778
1178.000000	4.331818
1179.000000	4.328448
1180.000000	4.319474
1181.000000	4.321395
1182.000000	4.328439
1183.000000	4.357761
1184.000000	4.368983
1185.000000	4.382917
1186.000000	4.401245
1187.000000	4.426693
1188.000000	4.443028
1189.000000	4.446728
1190.000000	4.453835
1191.000000	4.447210
1192.000000	4.447315
1193.000000	4.427258
1194.000000	4.407381
1195.000000	4.404029
1196.000000	4.399090
1197.000000	4.385523
1198.000000	4.385423
1199.000000	4.384378
1200.000000	4.385633
1201.000000	4.391567
1202.000000	4.394725
1203.000000	4.405394
1204.000000	4.418085
1205.000000	4.427179
1206.000000	4.438356
1207.000000	4.445455
1208.000000	4.460370
1209.000000	4.461879
1210.000000	4.474316
1211.000000	4.483232
1212.000000	4.475843
1213.000000	4.498501
1214.000000	4.494703
1215.000000	4.493708
1216.000000	4.499507
1217.000000	4.498757
1218.000000	4.508891
1219.000000	4.511920
1220.000000	4.520318
1221.000000	4.518973
1222.000000	4.518271
1223.000000	4.524274
1224.000000	4.534473
1225.000000	4.527928
1226.000000	4.536186
1227.000000	4.539535
1228.000000	4.544437
1229.000000	4.547836
1230.000000	4.553425
1231.000000	4.547478
1232.000000	4.556546
1233.000000	4.559008
1234.000000	4.566985
1235.000000	4.568736
1236.000000	4.571822
1237.000000	4.575832
1238.000000	4.587119
1239.000000	4.590912
1240.000000	4.606132
1241.000000	4.613378
1242.000000	4.610423
1243.000000	4.621891
1244.000000	4.625925
1245.000000	4.630474
1246.000000	4.637975
1247.000000	4.644326
1248.000000	4.662423
1249.000000	4.662287
1250.000000	4.671389
1251.000000	4.670084
1252.000000	4.670944
1253.000000	4.684752
1254.000000	4.688931
1255.000000	4.687049
1256.000000	4.692317
1257.000000	4.699386
1258.000000	4.698626
1259.000000	4.695474
1260.000000	4.696904
1261.000000	4.697694
1262.000000	4.698311
1263.000000	4.697868
1264.000000	4.693945
1265.000000	4.702087
1266.000000	4.699140
1267.000000	4.701833
1268.000000	4.705744
1269.000000	4.703360
1270.000000	4.706456
1271.000000	4.703209
1272.000000	4.700969
1273.000000	4.699885
1274.000000	4.697086
1275.000000	4.690994
1276.000000	4.686525
1277.000000	4.690031
1278.000000	4.687794
1279.000000	4.688416
1280.000000	4.685359
1281.000000	4.686529
1282.000000	4.693553
1283.000000	4.695069
1284.000000	4.689423
1285.000000	4.686833
1286.000000	4.688873
1287.000000	4.683639
1288.000000	4.687507
1289.000000	4.688717
1290.000000	4.682066
1291.000000	4.686661
1292.000000	4.687377
1293.000000	4.687503
1294.000000	4.679737
1295.000000	4.669862
1296.000000	4.670229
1297.000000	4.671610
1298.000000	4.663142
1299.000000	4.655749
1300.000000	4.654923
1301.000000	4.650417
1302.000000	4.647358
1303.000000	4.647561
1304.000000	4.641029
1305.000000	4.636235
1306.000000	4.631403
1307.000000	4.623797
1308.000000	4.622813
1309.000000	4.620713
1310.000000	4.612669
1311.000000	4.607509
1312.000000	4.598358
1313.000000	4.596198
1314.000000	4.591484
1315.000000	4.582050
1316.000000	4.574761
1317.000000	4.579231
1318.000000	4.574941
1319.000000	4.572035
1320.000000	4.564045
1321.000000	4.560503
1322.000000	4.558936
1323.000000	4.551766
1324.000000	4.550572
1325.000000	4.550987
1326.000000	4.546739
1327.000000	4.540741
1328.000000	4.533478
1329.000000	4.534153
1330.000000	4.533354
1331.000000	4.521149
1332.000000	4.507240
1333.000000	4.503910
1334.000000	4.506335
1335.000000	4.505583
1336.000000	4.493610
1337.000000	4.482028
1338.000000	4.474274
1339.000000	4.472833
1340.000000	4.471270
1341.000000	4.469792
1342.000000	4.459320
1343.000000	4.447081
1344.000000	4.441833
1345.000000	4.428582
1346.000000	4.412824
1347.000000	4.411849
1348.000000	4.405918
1349.000000	4.393927
1350.000000	4.383484
1351.000000	4.377238
1352.000000	4.368441
1353.000000	4.367922
1354.000000	4.397162
1355.000000	4.401458
1356.000000	4.406227
1357.000000	4.427527
1358.000000	4.450306
1359.000000	4.457590
1360.000000	4.446982
1361.000000	4.465552
1362.000000	4.445909
1363.000000	4.434904
1364.000000	4.431869
1365.000000	4.422668
1366.000000	4.412565
1367.000000	4.423189
1368.000000	4.427605
1369.000000	4.409719
1370.000000	4.409490
1371.000000	4.412735
1372.000000	4.417689
1373.000000	4.403374
1374.000000	4.412497
1375.000000	4.436170
1376.000000	4.447287
1377.000000	4.453468
1378.000000	4.452757
1379.000000	4.457087
1380.000000	4.442739
1381.000000	4.453069
1382.000000	4.416368
1383.000000	4.393895
1384.000000	4.382262
1385.000000	4.370777
1386.000000	4.369754
1387.000000	4.374362
1388.000000	4.376604
1389.000000	4.346747
1390.000000	4.339046
1391.000000	4.351622
1392.000000	4.352128
1393.000000	4.334082
1394.000000	4.325571
1395.000000	4.322639
1396.000000	4.301015
1397.000000	4.257489
1398.000000	4.232483
1399.000000	4.251865
1400.000000	4.243570
1401.000000	4.202947
1402.000000	4.160660
1403.000000	4.157973
1404.000000	4.154073
1405.000000	4.152351
1406.000000	4.127571
1407.000000	4.111543
1408.000000	4.092931
1409.000000	4.064883
1410.000000	4.064107
1411.000000	4.032689
1412.000000	4.020379
1413.000000	4.014017
1414.000000	4.011410
1415.000000	4.005050
1416.000000	3.967619
1417.000000	3.949747
1418.000000	3.950726
1419.000000	3.944959
1420.000000	3.939562
1421.000000	3.930832
1422.000000	3.907691
1423.000000	3.910774
1424.000000	3.892402
1425.000000	3.879874
1426.000000	3.871369
1427.000000	3.874284
1428.000000	3.869081
1429.000000	3.859535
1430.000000	3.852285
1431.000000	3.857045
1432.000000	3.855791
1433.000000	3.848830
1434.000000	3.855199
1435.000000	3.833919
1436.000000	3.826278
1437.000000	3.830988
1438.000000	3.822808
1439.000000	3.826370
1440.000000	3.832771
1441.000000	3.821584
1442.000000	3.816382
1443.000000	3.819048
1444.000000	3.817877
1445.000000	3.823595
1446.000000	3.815377
1447.000000	3.814785
1448.000000	3.806564
1449.000000	3.817641
1450.000000	3.824386
1451.000000	3.821623
1452.000000	3.832574
1453.000000	3.809871
1454.000000	3.814674
1455.000000	3.820634
1456.000000	3.819102
1457.000000	3.815666
1458.000000	3.816581
1459.000000	3.811454
1460.000000	3.816404
1461.000000	3.820420
1462.000000	3.818588
1463.000000	3.836960
1464.000000	3.842939
1465.000000	3.854945
1466.000000	3.852065
1467.000000	3.848056
1468.000000	3.840059
1469.000000	3.843357
1470.000000	3.843881
1471.000000	3.847870
1472.000000	3.844391
1473.000000	3.837569
1474.000000	3.833715
1475.000000	3.831885
1476.000000	3.826108
1477.000000	3.829210
1478.000000	3.814927
1479.000000	3.821681
1480.000000	3.818966
1481.000000	3.810660
1482.000000	3.817869
1483.000000	3.810009
1484.000000	3.811281
1485.000000	3.800409
1486.000000	3.798150
1487.000000	3.800212
1488.000000	3.803014
1489.000000	3.799361
1490.000000	3.790314
1491.000000	3.779379
1492.000000	3.775133
1493.000000	3.783497
1494.000000	3.772956
1495.000000	3.771698
1496.000000	3.766994
1497.000000	3.768306
1498.000000	3.764958
1499.000000	3.760776
1500.000000	3.758169
1501.000000	3.755843
1502.000000	3.761368
1503.000000	3.759753
1504.000000	3.758850
1505.000000	3.754870
1506.000000	3.758885
1507.000000	3.769005
1508.000000	3.771494
1509.000000	3.769519
1510.000000	3.759826
1511.000000	3.765666
1512.000000	3.760762
1513.000000	3.766925
1514.000000	3.771464
1515.000000	3.770853
1516.000000	3.762847
1517.000000	3.767229
1518.000000	3.771719
1519.000000	3.774411
1520.000000	3.782839
1521.000000	3.782997
1522.000000	3.785838
1523.000000	3.781846
1524.000000	3.782120
1525.000000	3.786423
1526.000000	3.788453
1527.000000	3.785807
1528.000000	3.779990
1529.000000	3.787451
1530.000000	3.786396
1531.000000	3.782907
1532.000000	3.786509
1533.000000	3.782202
1534.000000	3.784173
1535.000000	3.785765
1536.000000	3.787645
1537.000000	3.783824
1538.000000	3.785654
1539.000000	3.795517
1540.000000	3.787825
1541.000000	3.791360
1542.000000	3.798888
1543.000000	3.795093
1544.000000	3.796785
1545.000000	3.803341
1546.000000	3.805065
1547.000000	3.812984
1548.000000	3.818106
1549.000000	3.823712
1550.000000	3.826144
1551.000000	3.837072
1552.000000	3.847533
1553.000000	3.855961
1554.000000	3.866476
1555.000000	3.871310
1556.000000	3.875077
1557.000000	3.875992
1558.000000	3.878409
1559.000000	3.894157
1560.000000	3.904288
1561.000000	3.901936
1562.000000	3.899151
1563.000000	3.903179
1564.000000	3.911006
1565.000000	3.909507
1566.000000	3.911227
1567.000000	3.917170
1568.000000	3.917378
1569.000000	3.921826
1570.000000	3.928763
1571.000000	3.932883
1572.000000	3.932904
1573.000000	3.937524
1574.000000	3.946688
1575.000000	3.955003
1576.000000	3.959864
1577.000000	3.961833
1578.000000	3.975237
1579.000000	3.987769
1580.000000	3.993214
1581.000000	4.000870
1582.000000	4.009351
1583.000000	4.019285
1584.000000	4.037094
1585.000000	4.047740
1586.000000	4.058703
1587.000000	4.064660
1588.000000	4.069862
1589.000000	4.086860
1590.000000	4.096883
1591.000000	4.109147
1592.000000	4.122288
1593.000000	4.127733
1594.000000	4.141955
1595.000000	4.155558
1596.000000	4.159566
1597.000000	4.169533
1598.000000	4.183617
1599.000000	4.195058
1600.000000	4.211233
1601.000000	4.213293
1602.000000	4.218830
1603.000000	4.229091
1604.000000	4.240233
1605.000000	4.254834
1606.000000	4.267580
1607.000000	4.279640
1608.000000	4.286623
1609.000000	4.289149
1610.000000	4.297187
1611.000000	4.303373
1612.000000	4.319161
1613.000000	4.328589
1614.000000	4.332417
1615.000000	4.333399
1616.000000	4.346084
1617.000000	4.356313
1618.000000	4.357495
1619.000000	4.350552
1620.000000	4.356969
1621.000000	4.363909
1622.000000	4.362705
1623.000000	4.372852
1624.000000	4.369699
1625.000000	4.381749
1626.000000	4.386783
1627.000000	4.392514
1628.000000	4.388456
1629.000000	4.393993
1630.000000	4.400136
1631.000000	4.393617
1632.000000	4.391157
1633.000000	4.395307
1634.000000	4.390506
1635.000000	4.388282
1636.000000	4.392704
1637.000000	4.391609
1638.000000	4.390216
1639.000000	4.388496
1640.000000	4.391861
1641.000000	4.381520
1642.000000	4.373173
1643.000000	4.377330
1644.000000	4.370600
1645.000000	4.368683
1646.000000	4.366322
1647.000000	4.365537
1648.000000	4.358547
1649.000000	4.354712
1650.000000	4.353802
1651.000000	4.343962
1652.000000	4.341135
1653.000000	4.332449
1654.000000	4.330383
1655.000000	4.321031
1656.000000	4.315209
1657.000000	4.297732
1658.000000	4.290964
1659.000000	4.277454
1660.000000	4.259684
1661.000000	4.262341
1662.000000	4.249235
1663.000000	4.222756
1664.000000	4.216219
1665.000000	4.203892
1666.000000	4.189984
1667.000000	4.172294
1668.000000	4.169619
1669.000000	4.143493
1670.000000	4.119110
1671.000000	4.110118
1672.000000	4.100395
1673.000000	4.081400
1674.000000	4.074065
1675.000000	4.078074
1676.000000	4.044366
1677.000000	4.030236
1678.000000	4.031997
1679.000000	4.016277
1680.000000	4.008145
1681.000000	3.985877
1682.000000	3.983463
1683.000000	3.978493
1684.000000	3.955948
1685.000000	3.941191
1686.000000	3.922347
1687.000000	3.904368
1688.000000	3.896263
1689.000000	3.879748
1690.000000	3.865682
1691.000000	3.867072
1692.000000	3.863994
1693.000000	3.851842
1694.000000	3.851335
1695.000000	3.869373
1696.000000	3.858065
1697.000000	3.868752
1698.000000	3.874270
1699.000000	3.882053
1700.000000	3.872110
1701.000000	3.882267
1702.000000	3.896853
1703.000000	3.887304
1704.000000	3.875186
1705.000000	3.879349
1706.000000	3.878986
1707.000000	3.866299
1708.000000	3.869225
1709.000000	3.854043
1710.000000	3.853570
1711.000000	3.844666
1712.000000	3.832676
1713.000000	3.812489
1714.000000	3.794513
1715.000000	3.778898
1716.000000	3.762419
1717.000000	3.761207
1718.000000	3.741352
1719.000000	3.710950
1720.000000	3.698247
1721.000000	3.680428
1722.000000	3.673392
1723.000000	3.666274
1724.000000	3.642442
1725.000000	3.635450
1726.000000	3.636360
1727.000000	3.642665
1728.000000	3.636954
1729.000000	3.635570
1730.000000	3.634408
1731.000000	3.637798
1732.000000	3.646572
1733.000000	3.639841
1734.000000	3.639784
1735.000000	3.654940
1736.000000	3.666242
1737.000000	3.679020
1738.000000	3.678208
1739.000000	3.694674
1740.000000	3.712847
1741.000000	3.713870
1742.000000	3.727022
1743.000000	3.723147
1744.000000	3.727854
1745.000000	3.727413
1746.000000	3.729846
1747.000000	3.737935
1748.000000	3.746337
1749.000000	3.747727
1750.000000	3.747541
1751.000000	3.755046
1752.000000	3.763688
1753.000000	3.757285
1754.000000	3.765471
1755.000000	3.761815
1756.000000	3.762737
1757.000000	3.767528
1758.000000	3.761979
1759.000000	3.773308
1760.000000	3.778451
1761.000000	3.778202
1762.000000	3.789652
1763.000000	3.806670
1764.000000	3.810240
1765.000000	3.806050
1766.000000	3.828788
1767.000000	3.831053
1768.000000	3.834417
1769.000000	3.846621
1770.000000	3.856516
1771.000000	3.857715
1772.000000	3.865844
1773.000000	3.875982
1774.000000	3.874237
1775.000000	3.883893
1776.000000	3.890238
1777.000000	3.890798
1778.000000	3.895167
1779.000000	3.905752
1780.000000	3.895846
1781.000000	3.900062
1782.000000	3.908934
1783.000000	3.907579
1784.000000	3.914354
1785.000000	3.919630
1786.000000	3.919905
1787.000000	3.921838
1788.000000	3.919191
1789.000000	3.925073
1790.000000	3.925938
1791.000000	3.928284
1792.000000	3.929916
1793.000000	3.931328
1794.000000	3.933477
1795.000000	3.937234
1796.000000	3.944688
1797.000000	3.942046
1798.000000	3.948546
1799.000000	3.946982
1800.000000	3.953440
1801.000000	3.959605
1802.000000	3.967547
1803.000000	3.963669
1804.000000	3.965612
1805.000000	3.968928
1806.000000	3.968604
1807.000000	3.982446
1808.000000	3.984117
1809.000000	3.986684
1810.000000	3.988680
1811.000000	3.985922
1812.000000	3.989835
1813.000000	3.996496
1814.000000	3.995760
1815.000000	3.995689
1816.000000	4.003629
1817.000000	4.000444
1818.000000	3.998514
1819.000000	4.003067
1820.000000	4.009038
1821.000000	4.010904
1822.000000	4.012040
1823.000000	4.009142
1824.000000	4.005014
1825.000000	4.011106
1826.000000	4.007800
1827.000000	4.001759
1828.000000	3.999631
1829.000000	4.001725
1830.000000	4.006540
1831.000000	4.006603
1832.000000	3.996236
1833.000000	3.990410
1834.000000	3.991705
1835.000000	3.990706
1836.000000	3.990747
1837.000000	3.987659
1838.000000	3.978221
1839.000000	3.974517
1840.000000	3.980797
1841.000000	3.983280
1842.000000	3.988359
1843.000000	3.983942
1844.000000	3.971595
1845.000000	3.971670
1846.000000	3.971626
1847.000000	3.966166
1848.000000	3.960299
1849.000000	3.956960
1850.000000	3.944988
1851.000000	3.936223
1852.000000	3.924028
1853.000000	3.918389
1854.000000	3.912312
1855.000000	3.889863
1856.000000	3.877627
1857.000000	3.869899
1858.000000	3.857050
1859.000000	3.841809
1860.000000	3.837353
1861.000000	3.823728
1862.000000	3.807682
1863.000000	3.800322
1864.000000	3.790789
1865.000000	3.776169
1866.000000	3.764078
1867.000000	3.752146
1868.000000	3.730175
1869.000000	3.707881
1870.000000	3.684410
1871.000000	3.669846
1872.000000	3.648851
1873.000000	3.639080
1874.000000	3.625081
1875.000000	3.610169
1876.000000	3.593478
1877.000000	3.584271
1878.000000	3.561693
1879.000000	3.524723
1880.000000	3.501111
1881.000000	3.474640
1882.000000	3.431798
1883.000000	3.387599
1884.000000	3.333659
1885.000000	3.282522
1886.000000	3.237847
1887.000000	3.174769
1888.000000	3.114420
1889.000000	3.049984
1890.000000	2.992062
1891.000000	2.921696
1892.000000	2.848863
1893.000000	2.787093
1894.000000	2.734106
1895.000000	2.676717
1896.000000	2.611572
1897.000000	2.552559
1898.000000	2.483247
1899.000000	2.422318
1900.000000	2.368040
1901.000000	2.307186
1902.000000	2.247352
1903.000000	2.199336
1904.000000	2.152760
1905.000000	2.094013
1906.000000	2.040450
1907.000000	1.998007
1908.000000	1.954332
1909.000000	1.914070
1910.000000	1.867356
1911.000000	1.831084
1912.000000	1.791279
1913.000000	1.750908
1914.000000	1.709822
1915.000000	1.666975
1916.000000	1.638649
1917.000000	1.602244
1918.000000	1.571478
1919.000000	1.537642
1920.000000	1.509908
1921.000000	1.480147
1922.000000	1.448780
1923.000000	1.418391
1924.000000	1.398299
1925.000000	1.383930
1926.000000	1.355731
1927.000000	1.334778
1928.000000	1.318953
1929.000000	1.306112
1930.000000	1.293277
1931.000000	1.280760
1932.000000	1.271528
1933.000000	1.251250
1934.000000	1.265528
1935.000000	1.247433
1936.000000	1.253609
1937.000000	1.243811
1938.000000	1.236522
1939.000000	1.238308
1940.000000	1.238567
1941.000000	1.251577
1942.000000	1.251365
1943.000000	1.252920
1944.000000	1.265041
1945.000000	1.260349
1946.000000	1.270525
1947.000000	1.279742
1948.000000	1.291830
1949.000000	1.288762
1950.000000	1.296081
1951.000000	1.315585
1952.000000	1.320798
1953.000000	1.327619
1954.000000	1.349420
1955.000000	1.358811
1956.000000	1.368842
1957.000000	1.386438
1958.000000	1.386720
1959.000000	1.400773
1960.000000	1.408594
1961.000000	1.422847
1962.000000	1.439353
1963.000000	1.446409
1964.000000	1.458122
1965.000000	1.475150
1966.000000	1.489421
1967.000000	1.497060
1968.000000	1.515459
1969.000000	1.527916
1970.000000	1.528164
1971.000000	1.548083
1972.000000	1.563347
1973.000000	1.563093
1974.000000	1.581902
1975.000000	1.606518
1976.000000	1.616735
1977.000000	1.626253
1978.000000	1.639370
1979.000000	1.652767
1980.000000	1.669914
1981.000000	1.691495
1982.000000	1.702434
1983.000000	1.714714
1984.000000	1.731056
1985.000000	1.754196
1986.000000	1.758275
1987.000000	1.773452
1988.000000	1.787314
1989.000000	1.809759
1990.000000	1.816640
1991.000000	1.825711
1992.000000	1.844881
1993.000000	1.849889
1994.000000	1.862036
1995.000000	1.879792
1996.000000	1.883983
1997.000000	1.901583
1998.000000	1.915357
1999.000000	1.921889
2000.000000	1.929364
2001.000000	1.940261
2002.000000	1.948633
2003.000000	1.963146
2004.000000	1.968995
2005.000000	1.974266
2006.000000	1.981387
2007.000000	1.985144
2008.000000	2.002850
2009.000000	2.004699
2010.000000	2.012176
2011.000000	2.016729
2012.000000	2.013515
2013.000000	2.017365
2014.000000	2.013930
2015.000000	2.023706
2016.000000	2.036101
2017.000000	2.036122
2018.000000	2.026689
2019.000000	2.023482
2020.000000	2.028964
2021.000000	2.028361
2022.000000	2.020006
2023.000000	2.021161
2024.000000	2.019566
2025.000000	2.024030
2026.000000	2.021243
2027.000000	2.017723
2028.000000	2.015459
2029.000000	2.005408
2030.000000	2.005215
2031.000000	2.000751
2032.000000	1.999222
2033.000000	1.988509
2034.000000	1.982211
2035.000000	1.969816
2036.000000	1.957078
2037.000000	1.957210
2038.000000	1.954888
2039.000000	1.944512
2040.000000	1.931841
2041.000000	1.916872
2042.000000	1.902102
2043.000000	1.892746
2044.000000	1.878719
2045.000000	1.867493
2046.000000	1.856759
2047.000000	1.850861
2048.000000	1.827650
2049.000000	1.818116
2050.000000	1.815059
2051.000000	1.818088
2052.000000	1.812519
2053.000000	1.802823
2054.000000	1.795792
2055.000000	1.807414
2056.000000	1.818707
2057.000000	1.818028
2058.000000	1.822158
2059.000000	1.828229
2060.000000	1.834529
2061.000000	1.837393
2062.000000	1.849135
2063.000000	1.868288
2064.000000	1.881673
2065.000000	1.896041
2066.000000	1.909194
2067.000000	1.923049
2068.000000	1.931931
2069.000000	1.943222
2070.000000	1.952189
2071.000000	1.962040
2072.000000	1.975275
2073.000000	1.997121
2074.000000	2.003900
2075.000000	2.006280
2076.000000	2.019695
2077.000000	2.027579
2078.000000	2.040809
2079.000000	2.043007
2080.000000	2.047273
2081.000000	2.055976
2082.000000	2.058896
2083.000000	2.064646
2084.000000	2.070588
2085.000000	2.081490
2086.000000	2.080346
2087.000000	2.081536
2088.000000	2.086554
2089.000000	2.088319
2090.000000	2.091817
2091.000000	2.089942
2092.000000	2.084413
2093.000000	2.089050
2094.000000	2.085886
2095.000000	2.079111
2096.000000	2.090753
2097.000000	2.095954
2098.000000	2.087577
2099.000000	2.090532
2100.000000	2.100408
2101.000000	2.095889
2102.000000	2.086663
2103.000000	2.087693
2104.000000	2.092254
2105.000000	2.094140
2106.000000	2.098902
2107.000000	2.102670
2108.000000	2.095687
2109.000000	2.092557
2110.000000	2.094060
2111.000000	2.091487
2112.000000	2.088806
2113.000000	2.085004
2114.000000	2.088931
2115.000000	2.092090
2116.000000	2.086032
2117.000000	2.084882
2118.000000	2.075628
2119.000000	2.069408
2120.000000	2.075076
2121.000000	2.067789
2122.000000	2.061453
2123.000000	2.056778
2124.000000	2.049515
2125.000000	2.045163
2126.000000	2.037907
2127.000000	2.034855
2128.000000	2.026142
2129.000000	2.020594
2130.000000	2.003681
2131.000000	1.997735
2132.000000	1.991896
2133.000000	1.980279
2134.000000	1.969473
2135.000000	1.963832
2136.000000	1.953122
2137.000000	1.935695
2138.000000	1.932168
2139.000000	1.927438
2140.000000	1.906598
2141.000000	1.903191
2142.000000	1.893341
2143.000000	1.881080
2144.000000	1.872453
2145.000000	1.860367
2146.000000	1.844789
2147.000000	1.829811
2148.000000	1.825331
2149.000000	1.812797
2150.000000	1.802459
2151.000000	1.805375
2152.000000	1.795516
2153.000000	1.782707
2154.000000	1.771818
2155.000000	1.756199
2156.000000	1.744412
2157.000000	1.736342
2158.000000	1.731123
2159.000000	1.728995
2160.000000	1.738698
2161.000000	1.725357
2162.000000	1.712382
2163.000000	1.711762
2164.000000	1.705808
2165.000000	1.695203
2166.000000	1.693615
2167.000000	1.689462
2168.000000	1.694794
2169.000000	1.676458
2170.000000	1.680030
2171.000000	1.694289
2172.000000	1.694651
2173.000000	1.684822
2174.000000	1.691344
2175.000000	1.688163
2176.000000	1.688923
2177.000000	1.697668
2178.000000	1.702622
2179.000000	1.705931
2180.000000	1.696338
2181.000000	1.683607
2182.000000	1.695932
2183.000000	1.713338
2184.000000	1.703706
2185.000000	1.711909
2186.000000	1.703662
2187.000000	1.707760
2188.000000	1.705255
2189.000000	1.706859
2190.000000	1.704938
2191.000000	1.712847
2192.000000	1.723144
2193.000000	1.725775
2194.000000	1.723668
2195.000000	1.721669
2196.000000	1.719738
2197.000000	1.711665
2198.000000	1.723072
2199.000000	1.709078
2200.000000	1.711666
2201.000000	1.708473
2202.000000	1.715653
2203.000000	1.727210
2204.000000	1.724131
2205.000000	1.725440
2206.000000	1.736062
2207.000000	1.737130
2208.000000	1.734244
2209.000000	1.737821
2210.000000	1.746380
2211.000000	1.734931
2212.000000	1.737670
2213.000000	1.761697
2214.000000	1.757928
2215.000000	1.764430
2216.000000	1.773661
2217.000000	1.766259
2218.000000	1.793567
2219.000000	1.807485
2220.000000	1.803337
2221.000000	1.798300
2222.000000	1.803551
2223.000000	1.817028
2224.000000	1.818856
2225.000000	1.811698
2226.000000	1.826316
2227.000000	1.813189
2228.000000	1.822504
2229.000000	1.839264
2230.000000	1.822574
2231.000000	1.834685
2232.000000	1.824138
2233.000000	1.817765
2234.000000	1.806787
2235.000000	1.808218
2236.000000	1.811001
2237.000000	1.792481
2238.000000	1.778856
2239.000000	1.767701
2240.000000	1.765700
2241.000000	1.744514
2242.000000	1.735647
2243.000000	1.711188
2244.000000	1.691884
2245.000000	1.681181
2246.000000	1.647877
2247.000000	1.640778
2248.000000	1.613695
2249.000000	1.583035
2250.000000	1.557958
2251.000000	1.536695
2252.000000	1.484001
2253.000000	1.466435
2254.000000	1.422908
2255.000000	1.404511
2256.000000	1.365970
2257.000000	1.319829
2258.000000	1.285363
2259.000000	1.257966
2260.000000	1.214746
2261.000000	1.174499
2262.000000	1.148973
2263.000000	1.120920
2264.000000	1.101628
2265.000000	1.076882
2266.000000	1.071726
2267.000000	1.046756
2268.000000	1.034531
2269.000000	1.021652
2270.000000	1.002764
2271.000000	1.009537
2272.000000	0.993898
2273.000000	1.007903
2274.000000	0.996905
2275.000000	1.005806
2276.000000	1.011908
2277.000000	1.009093
2278.000000	1.010924
2279.000000	1.031845
2280.000000	1.035973
2281.000000	1.023652
2282.000000	1.038881
2283.000000	1.046985
2284.000000	1.058388
2285.000000	1.046569
2286.000000	1.053259
2287.000000	1.067354
2288.000000	1.052407
2289.000000	1.054377
2290.000000	1.044325
2291.000000	1.046982
2292.000000	1.040719
2293.000000	1.021410
2294.000000	1.019246
2295.000000	1.012968
2296.000000	0.995449
2297.000000	0.985142
2298.000000	0.985315
2299.000000	0.963200
2300.000000	0.939353
2301.000000	0.930646
2302.000000	0.921764
2303.000000	0.905532
2304.000000	0.896252
2305.000000	0.910901
2306.000000	0.889105
2307.000000	0.890523
2308.000000	0.900336
2309.000000	0.893647
2310.000000	0.905921
2311.000000	0.920650
2312.000000	0.921805
2313.000000	0.926390
2314.000000	0.940844
2315.000000	0.958341
2316.000000	0.966055
2317.000000	0.984862
2318.000000	1.013692
2319.000000	1.014710
2320.000000	1.028828
2321.000000	1.040846
2322.000000	1.046512
2323.000000	1.054351
2324.000000	1.073766
2325.000000	1.088048
2326.000000	1.083977
2327.000000	1.079008
2328.000000	1.091591
2329.000000	1.096211
2330.000000	1.111650
2331.000000	1.095266
2332.000000	1.086701
2333.000000	1.099930
2334.000000	1.105501
2335.000000	1.092804
2336.000000	1.086068
2337.000000	1.086194
2338.000000	1.090325
2339.000000	1.093544
2340.000000	1.089453
2341.000000	1.068125
2342.000000	1.061383
2343.000000	1.058056
2344.000000	1.045472
2345.000000	1.035838
2346.000000	1.039205
2347.000000	1.033086
2348.000000	1.024624
2349.000000	1.022577
2350.000000	1.007575
2351.000000	0.998162
2352.000000	1.002990
2353.000000	0.996576
2354.000000	0.994564
2355.000000	0.993993
2356.000000	0.997695
2357.000000	0.989542
2358.000000	0.989886
2359.000000	1.000646
2360.000000	1.014438
2361.000000	1.012880
2362.000000	1.002750
2363.000000	1.012296
2364.000000	1.013171
2365.000000	1.009483
2366.000000	1.023003
2367.000000	1.031871
2368.000000	1.029783
2369.000000	1.035856
2370.000000	1.041000
2371.000000	1.034710
2372.000000	1.027591
2373.000000	1.030360
2374.000000	1.036305
2375.000000	1.031500
2376.000000	1.023652
2377.000000	1.025680
2378.000000	1.021199
2379.000000	1.021563
2380.000000	1.024313
2381.000000	1.024593
2382.000000	1.022294
2383.000000	1.013834
2384.000000	1.008223
2385.000000	1.009485
2386.000000	1.000012
2387.000000	0.991198
2388.000000	0.994891
2389.000000	0.985231
2390.000000	0.979526
2391.000000	0.977586
2392.000000	0.974842
2393.000000	0.967915
2394.000000	0.955056
2395.000000	0.954496
2396.000000	0.943491
2397.000000	0.939639
2398.000000	0.934376
2399.000000	0.919724
2400.000000	0.912785
2401.000000	0.920603
2402.000000	0.917031
2403.000000	0.901027
2404.000000	0.890433
2405.000000	0.886344
2406.000000	0.883006
2407.000000	0.887060
2408.000000	0.877928
2409.000000	0.867904
2410.000000	0.852530
2411.000000	0.841169
2412.000000	0.827391
2413.000000	0.822138
2414.000000	0.816822
2415.000000	0.815769
2416.000000	0.811064
2417.000000	0.807509
2418.000000	0.801676
2419.000000	0.797103
2420.000000	0.792323
2421.000000	0.789581
2422.000000	0.784192
2423.000000	0.773587
2424.000000	0.774392
2425.000000	0.767747
2426.000000	0.774264
2427.000000	0.767060
2428.000000	0.742955
2429.000000	0.736768
2430.000000	0.735806
2431.000000	0.730283
2432.000000	0.718193
2433.000000	0.721526
2434.000000	0.710960
2435.000000	0.693300
2436.000000	0.691814
2437.000000	0.687591
2438.000000	0.682686
2439.000000	0.669649
2440.000000	0.661534
2441.000000	0.646188
2442.000000	0.643403
2443.000000	0.626418
2444.000000	0.627267
2445.000000	0.611081
2446.000000	0.615589
2447.000000	0.608561
2448.000000	0.578211
2449.000000	0.575837
2450.000000	0.573540
2451.000000	0.566097
2452.000000	0.559626
2453.000000	0.561539
2454.000000	0.518972
2455.000000	0.515326
2456.000000	0.516216
2457.000000	0.508068
2458.000000	0.494655
2459.000000	0.508864
2460.000000	0.512697
2461.000000	0.501698
2462.000000	0.493596
2463.000000	0.487269
2464.000000	0.500573
2465.000000	0.465211
2466.000000	0.466155
2467.000000	0.485989
2468.000000	0.489838
2469.000000	0.494467
2470.000000	0.480784
2471.000000	0.491566
2472.000000	0.455237
2473.000000	0.474738
2474.000000	0.491485
2475.000000	0.449789
2476.000000	0.478171
2477.000000	0.490563
2478.000000	0.434481
2479.000000	0.444538
2480.000000	0.446107
2481.000000	0.489245
2482.000000	0.447336
2483.000000	0.492855
2484.000000	0.480612
2485.000000	0.480929
2486.000000	0.515361
2487.000000	0.501231
2488.000000	0.483528
2489.000000	0.458783
2490.000000	0.500953
2491.000000	0.524167
2492.000000	0.467569
2493.000000	0.503982
2494.000000	0.479618
2495.000000	0.491011
2496.000000	0.506356
2497.000000	0.486800
2498.000000	0.431814
2499.000000	0.502943
2500.000000	0.477651
