PE UV       SUBTECH     SPECTRUM    ASCII       PEDS        4.00        
   -1
CICIMAUCR0158-5.Sample.ASC
24/04/25
13:52:02.00
24/04/25
13:52:02.00
Vinicio Soto Monge
C. cupreomarginata
250,000000
1
Lambda 1050
1050L1511233
PerkinElmer UV WinLab 6.3.2.0749 / 2.02.05 Lambda 900 UV/VIS/NIR, Aug  7 2015 09:38:08

0
0
3350/servo 860,8/2
0
0
UV/VIS
1
1
1
DoubleDePol,CommonBeamDepol,RBeamAtt,SBeamAtt,60mm sphere, WB InGaAs Detector
0
0
0
0
Program
Program
3350/servo 860,8/2
3350/0,2 860,8/0,2
3350/0,2 860,8/0,2
0
15.00
 
 
 
0
 
860,8
319,2
860,8
Front
100
on
S:100 R:100
0
0
0
0
 
0
 
 
 
0
 
 
0
0
0
0
0
 
 
 
 
0
0


0
0
#HDR
-1
-1
#GR
nm
%R
1.0
0.0
2500,000000
-1,000000
2251
8
68,614000
5,280700
#DATA
250.000000	0.644440
251.000000	0.633071
252.000000	0.644244
253.000000	0.625430
254.000000	0.630215
255.000000	0.616261
256.000000	0.638037
257.000000	0.637617
258.000000	0.635898
259.000000	0.641987
260.000000	0.651200
261.000000	0.645005
262.000000	0.623476
263.000000	0.605619
264.000000	0.632949
265.000000	0.608377
266.000000	0.629332
267.000000	0.616613
268.000000	0.613819
269.000000	0.615165
270.000000	0.604590
271.000000	0.593437
272.000000	0.615629
273.000000	0.626996
274.000000	0.585827
275.000000	0.573857
276.000000	0.573068
277.000000	0.575828
278.000000	0.594696
279.000000	0.572062
280.000000	0.582157
281.000000	0.572494
282.000000	0.606419
283.000000	0.589580
284.000000	0.594903
285.000000	0.605302
286.000000	0.594158
287.000000	0.584799
288.000000	0.590826
289.000000	0.572595
290.000000	0.584407
291.000000	0.588028
292.000000	0.585806
293.000000	0.603399
294.000000	0.551862
295.000000	0.618982
296.000000	0.585924
297.000000	0.595590
298.000000	0.601593
299.000000	0.576390
300.000000	0.606611
301.000000	0.626757
302.000000	0.599565
303.000000	0.611455
304.000000	0.592630
305.000000	0.598122
306.000000	0.596060
307.000000	0.593251
308.000000	0.605020
309.000000	0.601094
310.000000	0.582132
311.000000	0.594872
312.000000	0.584155
313.000000	0.626186
314.000000	0.619424
315.000000	0.599610
316.000000	0.610056
317.000000	0.301280
318.000000	0.449087
319.000000	0.681336
320.000000	0.616059
321.000000	0.529649
322.000000	0.474743
323.000000	0.486360
324.000000	0.487264
325.000000	0.519374
326.000000	0.544121
327.000000	0.529719
328.000000	0.521387
329.000000	0.457304
330.000000	0.565529
331.000000	0.580245
332.000000	0.656511
333.000000	0.688044
334.000000	0.580534
335.000000	0.518644
336.000000	0.554546
337.000000	0.557509
338.000000	0.552462
339.000000	0.516982
340.000000	0.555981
341.000000	0.544020
342.000000	0.524777
343.000000	0.550720
344.000000	0.580510
345.000000	0.533751
346.000000	0.611485
347.000000	0.607094
348.000000	0.543435
349.000000	0.586722
350.000000	0.665723
351.000000	0.587833
352.000000	0.606057
353.000000	0.632920
354.000000	0.649703
355.000000	0.666214
356.000000	0.676322
357.000000	0.689201
358.000000	0.661545
359.000000	0.701417
360.000000	0.715467
361.000000	0.719479
362.000000	0.729471
363.000000	0.786960
364.000000	0.795397
365.000000	0.800981
366.000000	0.860649
367.000000	0.914348
368.000000	0.904124
369.000000	0.905128
370.000000	0.998538
371.000000	1.014671
372.000000	1.080505
373.000000	1.071956
374.000000	1.132456
375.000000	1.188118
376.000000	1.116718
377.000000	1.162839
378.000000	1.171111
379.000000	1.208430
380.000000	1.228212
381.000000	1.251559
382.000000	1.274986
383.000000	1.298969
384.000000	1.319329
385.000000	1.338523
386.000000	1.353690
387.000000	1.377793
388.000000	1.382964
389.000000	1.396977
390.000000	1.399501
391.000000	1.400273
392.000000	1.414784
393.000000	1.425459
394.000000	1.414323
395.000000	1.411209
396.000000	1.408817
397.000000	1.416294
398.000000	1.412198
399.000000	1.404321
400.000000	1.402095
401.000000	1.385865
402.000000	1.376827
403.000000	1.367921
404.000000	1.350214
405.000000	1.341272
406.000000	1.331970
407.000000	1.321883
408.000000	1.312514
409.000000	1.311535
410.000000	1.304038
411.000000	1.305229
412.000000	1.294298
413.000000	1.284773
414.000000	1.281298
415.000000	1.283175
416.000000	1.280774
417.000000	1.273668
418.000000	1.277060
419.000000	1.276880
420.000000	1.278714
421.000000	1.289131
422.000000	1.285517
423.000000	1.297615
424.000000	1.321545
425.000000	1.329647
426.000000	1.362418
427.000000	1.379240
428.000000	1.404947
429.000000	1.433861
430.000000	1.481303
431.000000	1.515482
432.000000	1.560123
433.000000	1.595890
434.000000	1.649946
435.000000	1.706489
436.000000	1.769555
437.000000	1.824335
438.000000	1.867322
439.000000	1.937943
440.000000	1.989543
441.000000	2.035976
442.000000	2.079679
443.000000	2.132314
444.000000	2.186193
445.000000	2.208875
446.000000	2.227904
447.000000	2.252898
448.000000	2.259534
449.000000	2.265628
450.000000	2.262452
451.000000	2.262260
452.000000	2.243723
453.000000	2.251938
454.000000	2.235078
455.000000	2.219128
456.000000	2.217954
457.000000	2.200372
458.000000	2.198999
459.000000	2.181580
460.000000	2.194169
461.000000	2.202886
462.000000	2.213599
463.000000	2.221187
464.000000	2.248101
465.000000	2.273583
466.000000	2.302532
467.000000	2.321434
468.000000	2.347327
469.000000	2.380758
470.000000	2.425022
471.000000	2.450742
472.000000	2.499237
473.000000	2.541713
474.000000	2.579401
475.000000	2.616888
476.000000	2.656270
477.000000	2.697451
478.000000	2.738346
479.000000	2.784181
480.000000	2.828403
481.000000	2.867676
482.000000	2.932442
483.000000	2.983794
484.000000	3.033209
485.000000	3.067941
486.000000	3.121289
487.000000	3.159192
488.000000	3.218151
489.000000	3.277684
490.000000	3.335819
491.000000	3.417159
492.000000	3.474812
493.000000	3.535290
494.000000	3.601076
495.000000	3.672305
496.000000	3.756124
497.000000	3.822795
498.000000	3.915655
499.000000	3.989195
500.000000	4.090225
501.000000	4.184246
502.000000	4.290223
503.000000	4.388805
504.000000	4.493824
505.000000	4.594337
506.000000	4.700435
507.000000	4.793181
508.000000	4.902002
509.000000	5.013575
510.000000	5.127632
511.000000	5.259512
512.000000	5.372166
513.000000	5.492201
514.000000	5.615651
515.000000	5.727726
516.000000	5.844504
517.000000	5.971618
518.000000	6.107526
519.000000	6.247973
520.000000	6.378071
521.000000	6.494415
522.000000	6.630963
523.000000	6.741600
524.000000	6.867814
525.000000	6.995660
526.000000	7.103938
527.000000	7.201967
528.000000	7.287828
529.000000	7.353256
530.000000	7.419389
531.000000	7.457662
532.000000	7.483015
533.000000	7.498433
534.000000	7.487043
535.000000	7.458736
536.000000	7.422886
537.000000	7.362656
538.000000	7.278549
539.000000	7.189416
540.000000	7.079500
541.000000	6.971219
542.000000	6.861622
543.000000	6.741226
544.000000	6.637390
545.000000	6.538406
546.000000	6.453211
547.000000	6.360857
548.000000	6.291292
549.000000	6.242019
550.000000	6.202776
551.000000	6.168727
552.000000	6.140756
553.000000	6.117747
554.000000	6.091927
555.000000	6.061243
556.000000	6.039849
557.000000	6.019095
558.000000	5.983912
559.000000	5.957513
560.000000	5.925486
561.000000	5.898104
562.000000	5.830322
563.000000	5.763581
564.000000	5.687586
565.000000	5.639901
566.000000	5.574993
567.000000	5.525887
568.000000	5.464082
569.000000	5.426223
570.000000	5.389160
571.000000	5.343645
572.000000	5.302105
573.000000	5.286537
574.000000	5.255797
575.000000	5.227326
576.000000	5.208762
577.000000	5.186638
578.000000	5.165348
579.000000	5.146983
580.000000	5.121287
581.000000	5.074870
582.000000	5.056866
583.000000	5.038441
584.000000	5.012262
585.000000	4.986058
586.000000	4.982737
587.000000	4.949662
588.000000	4.929576
589.000000	4.933136
590.000000	4.947120
591.000000	4.925545
592.000000	4.911318
593.000000	4.924508
594.000000	4.909059
595.000000	4.900909
596.000000	4.883401
597.000000	4.884099
598.000000	4.870333
599.000000	4.840370
600.000000	4.839070
601.000000	4.818872
602.000000	4.823703
603.000000	4.809774
604.000000	4.801409
605.000000	4.786091
606.000000	4.774082
607.000000	4.772658
608.000000	4.805895
609.000000	4.790587
610.000000	4.794537
611.000000	4.799500
612.000000	4.792394
613.000000	4.783381
614.000000	4.758349
615.000000	4.739658
616.000000	4.724575
617.000000	4.682784
618.000000	4.628695
619.000000	4.598209
620.000000	4.560361
621.000000	4.527217
622.000000	4.505935
623.000000	4.501120
624.000000	4.530592
625.000000	4.582941
626.000000	4.644969
627.000000	4.718935
628.000000	4.819716
629.000000	4.937519
630.000000	5.071796
631.000000	5.213055
632.000000	5.350976
633.000000	5.482145
634.000000	5.628136
635.000000	5.737097
636.000000	5.857448
637.000000	5.973023
638.000000	6.070053
639.000000	6.165228
640.000000	6.219140
641.000000	6.287281
642.000000	6.353048
643.000000	6.384506
644.000000	6.400105
645.000000	6.430289
646.000000	6.451583
647.000000	6.441650
648.000000	6.447177
649.000000	6.462705
650.000000	6.473197
651.000000	6.462305
652.000000	6.460628
653.000000	6.441885
654.000000	6.408457
655.000000	6.368158
656.000000	6.321862
657.000000	6.273750
658.000000	6.197019
659.000000	6.143475
660.000000	6.072919
661.000000	6.001563
662.000000	5.938950
663.000000	5.912944
664.000000	5.871079
665.000000	5.838757
666.000000	5.820218
667.000000	5.781777
668.000000	5.767849
669.000000	5.762998
670.000000	5.754324
671.000000	5.757794
672.000000	5.760183
673.000000	5.763092
674.000000	5.776314
675.000000	5.776215
676.000000	5.785524
677.000000	5.835567
678.000000	5.869606
679.000000	5.883959
680.000000	5.904723
681.000000	5.947413
682.000000	5.971666
683.000000	6.011943
684.000000	6.060841
685.000000	6.084207
686.000000	6.123845
687.000000	6.147758
688.000000	6.181119
689.000000	6.216974
690.000000	6.267673
691.000000	6.317357
692.000000	6.367515
693.000000	6.423483
694.000000	6.479146
695.000000	6.535374
696.000000	6.607279
697.000000	6.652040
698.000000	6.689362
699.000000	6.731859
700.000000	6.750353
701.000000	6.798981
702.000000	6.821631
703.000000	6.851435
704.000000	6.871879
705.000000	6.879427
706.000000	6.887407
707.000000	6.913666
708.000000	6.899040
709.000000	6.939189
710.000000	6.928380
711.000000	6.942482
712.000000	6.958746
713.000000	6.929975
714.000000	6.892577
715.000000	6.910487
716.000000	6.923297
717.000000	6.905575
718.000000	6.884883
719.000000	6.909191
720.000000	6.894856
721.000000	6.844445
722.000000	6.865166
723.000000	6.889443
724.000000	6.829950
725.000000	6.839557
726.000000	6.856219
727.000000	6.836474
728.000000	6.835255
729.000000	6.826058
730.000000	6.851810
731.000000	6.889299
732.000000	6.890147
733.000000	6.918935
734.000000	6.933718
735.000000	6.969414
736.000000	6.970372
737.000000	6.966288
738.000000	6.965522
739.000000	6.983156
740.000000	7.015346
741.000000	7.051904
742.000000	7.076609
743.000000	7.082943
744.000000	7.073341
745.000000	7.106424
746.000000	7.104466
747.000000	7.135719
748.000000	7.144902
749.000000	7.157272
750.000000	7.194365
751.000000	7.196275
752.000000	7.201624
753.000000	7.250501
754.000000	7.222850
755.000000	7.279859
756.000000	7.313728
757.000000	7.307312
758.000000	7.325024
759.000000	7.371085
760.000000	7.395816
761.000000	7.429871
762.000000	7.408299
763.000000	7.370167
764.000000	7.413812
765.000000	7.412353
766.000000	7.407261
767.000000	7.445243
768.000000	7.469842
769.000000	7.462917
770.000000	7.431173
771.000000	7.448572
772.000000	7.453185
773.000000	7.422247
774.000000	7.462637
775.000000	7.450561
776.000000	7.431628
777.000000	7.415863
778.000000	7.471174
779.000000	7.390850
780.000000	7.403164
781.000000	7.409396
782.000000	7.303712
783.000000	7.285538
784.000000	7.368777
785.000000	7.317909
786.000000	7.383274
787.000000	7.315031
788.000000	7.285329
789.000000	7.304482
790.000000	7.260847
791.000000	7.305684
792.000000	7.255687
793.000000	7.249829
794.000000	7.303767
795.000000	7.273671
796.000000	7.263614
797.000000	7.324465
798.000000	7.250174
799.000000	7.322114
800.000000	7.317828
801.000000	7.291065
802.000000	7.393359
803.000000	7.319272
804.000000	7.345900
805.000000	7.393802
806.000000	7.347092
807.000000	7.391767
808.000000	7.406072
809.000000	7.405274
810.000000	7.391264
811.000000	7.369045
812.000000	7.373874
813.000000	7.362294
814.000000	7.395682
815.000000	7.511872
816.000000	7.474061
817.000000	7.482065
818.000000	7.406459
819.000000	7.359997
820.000000	7.474871
821.000000	7.394583
822.000000	7.443450
823.000000	7.438001
824.000000	7.324191
825.000000	7.473069
826.000000	7.344774
827.000000	7.302261
828.000000	7.367167
829.000000	7.379852
830.000000	7.241623
831.000000	7.205014
832.000000	7.247328
833.000000	7.270076
834.000000	7.220005
835.000000	7.325309
836.000000	7.260712
837.000000	7.057384
838.000000	7.210134
839.000000	7.259468
840.000000	7.222673
841.000000	7.303425
842.000000	7.248315
843.000000	7.308837
844.000000	7.395908
845.000000	7.448942
846.000000	7.551683
847.000000	7.276338
848.000000	7.302640
849.000000	7.467067
850.000000	7.540620
851.000000	7.497033
852.000000	7.694929
853.000000	7.618494
854.000000	7.673586
855.000000	7.593072
856.000000	7.647033
857.000000	7.703603
858.000000	6.720522
859.000000	7.702716
860.000000	8.039174
861.000000	8.015105
862.000000	7.849839
863.000000	7.887680
864.000000	7.974726
865.000000	7.559476
866.000000	7.423136
867.000000	7.484794
868.000000	7.151289
869.000000	7.325530
870.000000	6.993299
871.000000	6.800142
872.000000	6.532634
873.000000	6.750845
874.000000	6.518483
875.000000	6.242306
876.000000	6.270756
877.000000	6.154485
878.000000	5.966050
879.000000	6.010291
880.000000	5.927565
881.000000	5.784161
882.000000	5.609338
883.000000	5.497766
884.000000	5.590442
885.000000	5.533845
886.000000	5.201155
887.000000	5.198616
888.000000	5.238629
889.000000	5.191996
890.000000	5.179186
891.000000	5.083345
892.000000	5.001150
893.000000	4.934518
894.000000	5.020798
895.000000	4.842854
896.000000	4.787149
897.000000	4.813767
898.000000	4.816201
899.000000	4.710014
900.000000	4.739629
901.000000	4.836644
902.000000	4.788597
903.000000	4.718383
904.000000	4.692321
905.000000	4.748271
906.000000	4.741702
907.000000	4.741077
908.000000	4.739899
909.000000	4.767021
910.000000	4.820591
911.000000	4.811936
912.000000	4.760172
913.000000	4.721010
914.000000	4.733619
915.000000	4.849149
916.000000	4.974149
917.000000	4.964359
918.000000	4.998973
919.000000	5.051396
920.000000	5.032505
921.000000	5.017407
922.000000	5.064901
923.000000	5.076990
924.000000	5.100861
925.000000	5.110201
926.000000	5.130155
927.000000	5.176583
928.000000	5.212008
929.000000	5.226198
930.000000	5.216714
931.000000	5.224806
932.000000	5.234860
933.000000	5.266387
934.000000	5.247771
935.000000	5.223848
936.000000	5.284496
937.000000	5.260686
938.000000	5.263312
939.000000	5.308716
940.000000	5.303166
941.000000	5.314243
942.000000	5.317265
943.000000	5.344994
944.000000	5.324103
945.000000	5.316408
946.000000	5.376820
947.000000	5.401782
948.000000	5.436617
949.000000	5.471308
950.000000	5.467242
951.000000	5.526908
952.000000	5.521777
953.000000	5.494811
954.000000	5.525838
955.000000	5.569957
956.000000	5.559782
957.000000	5.567656
958.000000	5.589618
959.000000	5.606594
960.000000	5.624803
961.000000	5.663123
962.000000	5.697967
963.000000	5.708276
964.000000	5.789062
965.000000	5.798356
966.000000	5.805008
967.000000	5.817853
968.000000	5.847778
969.000000	5.886099
970.000000	5.935559
971.000000	5.941059
972.000000	5.954149
973.000000	6.024609
974.000000	6.052045
975.000000	6.070102
976.000000	6.090364
977.000000	6.112435
978.000000	6.123537
979.000000	6.167104
980.000000	6.174601
981.000000	6.199766
982.000000	6.217248
983.000000	6.244232
984.000000	6.269376
985.000000	6.297824
986.000000	6.282931
987.000000	6.293520
988.000000	6.294610
989.000000	6.296746
990.000000	6.315715
991.000000	6.359403
992.000000	6.362818
993.000000	6.356966
994.000000	6.383037
995.000000	6.404439
996.000000	6.400641
997.000000	6.389706
998.000000	6.425950
999.000000	6.427794
1000.000000	6.447296
1001.000000	6.445601
1002.000000	6.443876
1003.000000	6.444353
1004.000000	6.469052
1005.000000	6.470816
1006.000000	6.464167
1007.000000	6.464295
1008.000000	6.501871
1009.000000	6.498020
1010.000000	6.516854
1011.000000	6.528981
1012.000000	6.525754
1013.000000	6.531015
1014.000000	6.533207
1015.000000	6.539663
1016.000000	6.540183
1017.000000	6.573464
1018.000000	6.584439
1019.000000	6.580414
1020.000000	6.605381
1021.000000	6.595617
1022.000000	6.601380
1023.000000	6.611542
1024.000000	6.622990
1025.000000	6.633481
1026.000000	6.644550
1027.000000	6.650504
1028.000000	6.693846
1029.000000	6.679402
1030.000000	6.714162
1031.000000	6.714085
1032.000000	6.702141
1033.000000	6.714448
1034.000000	6.733770
1035.000000	6.739561
1036.000000	6.781664
1037.000000	6.785389
1038.000000	6.795993
1039.000000	6.785912
1040.000000	6.798553
1041.000000	6.816909
1042.000000	6.826714
1043.000000	6.829238
1044.000000	6.861475
1045.000000	6.872772
1046.000000	6.894801
1047.000000	6.894276
1048.000000	6.883468
1049.000000	6.931869
1050.000000	6.924976
1051.000000	6.943232
1052.000000	6.965226
1053.000000	6.983788
1054.000000	7.008035
1055.000000	7.003931
1056.000000	6.993400
1057.000000	7.005986
1058.000000	7.016958
1059.000000	7.064352
1060.000000	7.076919
1061.000000	7.077399
1062.000000	7.098695
1063.000000	7.102708
1064.000000	7.134106
1065.000000	7.117231
1066.000000	7.152371
1067.000000	7.152422
1068.000000	7.150526
1069.000000	7.181103
1070.000000	7.186463
1071.000000	7.199533
1072.000000	7.208639
1073.000000	7.202419
1074.000000	7.220221
1075.000000	7.229979
1076.000000	7.249851
1077.000000	7.243261
1078.000000	7.261232
1079.000000	7.262223
1080.000000	7.262700
1081.000000	7.297478
1082.000000	7.299450
1083.000000	7.298649
1084.000000	7.285542
1085.000000	7.287012
1086.000000	7.316624
1087.000000	7.321042
1088.000000	7.334681
1089.000000	7.336653
1090.000000	7.348577
1091.000000	7.355630
1092.000000	7.326171
1093.000000	7.351439
1094.000000	7.347517
1095.000000	7.358335
1096.000000	7.352884
1097.000000	7.348963
1098.000000	7.363977
1099.000000	7.357714
1100.000000	7.366938
1101.000000	7.362221
1102.000000	7.379783
1103.000000	7.354720
1104.000000	7.368696
1105.000000	7.371524
1106.000000	7.379833
1107.000000	7.390070
1108.000000	7.381333
1109.000000	7.377647
1110.000000	7.381217
1111.000000	7.379666
1112.000000	7.391106
1113.000000	7.384912
1114.000000	7.395632
1115.000000	7.392599
1116.000000	7.417951
1117.000000	7.402282
1118.000000	7.402945
1119.000000	7.413161
1120.000000	7.417364
1121.000000	7.414776
1122.000000	7.417521
1123.000000	7.436204
1124.000000	7.425186
1125.000000	7.421625
1126.000000	7.427381
1127.000000	7.404572
1128.000000	7.412634
1129.000000	7.405774
1130.000000	7.396895
1131.000000	7.384561
1132.000000	7.373598
1133.000000	7.362029
1134.000000	7.380889
1135.000000	7.414311
1136.000000	7.380882
1137.000000	7.340607
1138.000000	7.345423
1139.000000	7.328686
1140.000000	7.314266
1141.000000	7.326952
1142.000000	7.319655
1143.000000	7.294160
1144.000000	7.311698
1145.000000	7.323689
1146.000000	7.314257
1147.000000	7.304061
1148.000000	7.299312
1149.000000	7.291666
1150.000000	7.300819
1151.000000	7.297364
1152.000000	7.297057
1153.000000	7.289339
1154.000000	7.285649
1155.000000	7.275224
1156.000000	7.269519
1157.000000	7.268864
1158.000000	7.250841
1159.000000	7.235358
1160.000000	7.223361
1161.000000	7.214446
1162.000000	7.201130
1163.000000	7.185329
1164.000000	7.176448
1165.000000	7.173811
1166.000000	7.158907
1167.000000	7.138300
1168.000000	7.126582
1169.000000	7.123158
1170.000000	7.113798
1171.000000	7.105597
1172.000000	7.109140
1173.000000	7.097536
1174.000000	7.082639
1175.000000	7.080237
1176.000000	7.061787
1177.000000	7.052832
1178.000000	7.055808
1179.000000	7.053628
1180.000000	7.042136
1181.000000	7.033505
1182.000000	7.025590
1183.000000	7.017512
1184.000000	7.023088
1185.000000	7.026977
1186.000000	7.022473
1187.000000	7.014522
1188.000000	7.020901
1189.000000	7.024731
1190.000000	7.028277
1191.000000	7.040247
1192.000000	7.049150
1193.000000	7.052518
1194.000000	7.063480
1195.000000	7.075212
1196.000000	7.082788
1197.000000	7.083970
1198.000000	7.092668
1199.000000	7.105942
1200.000000	7.122717
1201.000000	7.124336
1202.000000	7.137772
1203.000000	7.144052
1204.000000	7.148049
1205.000000	7.145487
1206.000000	7.153599
1207.000000	7.164551
1208.000000	7.165519
1209.000000	7.173016
1210.000000	7.182513
1211.000000	7.194114
1212.000000	7.199899
1213.000000	7.204586
1214.000000	7.204711
1215.000000	7.213050
1216.000000	7.224430
1217.000000	7.225982
1218.000000	7.227612
1219.000000	7.223101
1220.000000	7.228094
1221.000000	7.233158
1222.000000	7.236475
1223.000000	7.239803
1224.000000	7.252576
1225.000000	7.263130
1226.000000	7.269567
1227.000000	7.277902
1228.000000	7.279168
1229.000000	7.283349
1230.000000	7.293975
1231.000000	7.295514
1232.000000	7.303051
1233.000000	7.313823
1234.000000	7.318530
1235.000000	7.318827
1236.000000	7.336879
1237.000000	7.334303
1238.000000	7.338595
1239.000000	7.357937
1240.000000	7.364852
1241.000000	7.377736
1242.000000	7.376349
1243.000000	7.383290
1244.000000	7.395803
1245.000000	7.398701
1246.000000	7.416731
1247.000000	7.427672
1248.000000	7.432242
1249.000000	7.439561
1250.000000	7.441564
1251.000000	7.446329
1252.000000	7.461088
1253.000000	7.467725
1254.000000	7.462664
1255.000000	7.466002
1256.000000	7.467821
1257.000000	7.473213
1258.000000	7.471824
1259.000000	7.475179
1260.000000	7.480198
1261.000000	7.483533
1262.000000	7.486951
1263.000000	7.490017
1264.000000	7.488481
1265.000000	7.492417
1266.000000	7.491068
1267.000000	7.497908
1268.000000	7.501283
1269.000000	7.505821
1270.000000	7.503594
1271.000000	7.504345
1272.000000	7.505773
1273.000000	7.513234
1274.000000	7.523973
1275.000000	7.530284
1276.000000	7.533578
1277.000000	7.531101
1278.000000	7.539644
1279.000000	7.551920
1280.000000	7.545275
1281.000000	7.552728
1282.000000	7.566770
1283.000000	7.574384
1284.000000	7.579935
1285.000000	7.579111
1286.000000	7.591931
1287.000000	7.597109
1288.000000	7.608668
1289.000000	7.609932
1290.000000	7.612873
1291.000000	7.618600
1292.000000	7.626634
1293.000000	7.626560
1294.000000	7.623925
1295.000000	7.630393
1296.000000	7.632829
1297.000000	7.631086
1298.000000	7.639022
1299.000000	7.639702
1300.000000	7.634571
1301.000000	7.630851
1302.000000	7.628727
1303.000000	7.633221
1304.000000	7.638693
1305.000000	7.638765
1306.000000	7.619916
1307.000000	7.624206
1308.000000	7.636952
1309.000000	7.628756
1310.000000	7.618518
1311.000000	7.617208
1312.000000	7.615697
1313.000000	7.614008
1314.000000	7.607889
1315.000000	7.604832
1316.000000	7.596425
1317.000000	7.596980
1318.000000	7.589945
1319.000000	7.587927
1320.000000	7.587724
1321.000000	7.576971
1322.000000	7.566220
1323.000000	7.569244
1324.000000	7.567817
1325.000000	7.559918
1326.000000	7.551702
1327.000000	7.532425
1328.000000	7.526835
1329.000000	7.517224
1330.000000	7.495147
1331.000000	7.490128
1332.000000	7.487631
1333.000000	7.494500
1334.000000	7.465157
1335.000000	7.453100
1336.000000	7.445096
1337.000000	7.431860
1338.000000	7.418240
1339.000000	7.382629
1340.000000	7.374781
1341.000000	7.373477
1342.000000	7.340552
1343.000000	7.320233
1344.000000	7.302595
1345.000000	7.275348
1346.000000	7.247151
1347.000000	7.228842
1348.000000	7.244164
1349.000000	7.199002
1350.000000	7.148217
1351.000000	7.135717
1352.000000	7.140526
1353.000000	7.106601
1354.000000	7.074322
1355.000000	7.114021
1356.000000	7.092916
1357.000000	7.057666
1358.000000	7.020297
1359.000000	7.015036
1360.000000	7.030579
1361.000000	7.013629
1362.000000	7.122964
1363.000000	7.059606
1364.000000	6.975893
1365.000000	7.056463
1366.000000	7.006842
1367.000000	6.953484
1368.000000	6.998367
1369.000000	6.976953
1370.000000	6.918430
1371.000000	6.922337
1372.000000	6.930089
1373.000000	6.875128
1374.000000	6.839549
1375.000000	6.835310
1376.000000	6.810809
1377.000000	6.766941
1378.000000	6.763786
1379.000000	6.737831
1380.000000	6.741976
1381.000000	6.735145
1382.000000	6.755317
1383.000000	6.827819
1384.000000	6.758294
1385.000000	6.669620
1386.000000	6.623179
1387.000000	6.560244
1388.000000	6.551314
1389.000000	6.514831
1390.000000	6.459335
1391.000000	6.351428
1392.000000	6.379097
1393.000000	6.386819
1394.000000	6.287479
1395.000000	6.252048
1396.000000	6.300559
1397.000000	6.276985
1398.000000	6.150066
1399.000000	6.037693
1400.000000	6.068885
1401.000000	6.126891
1402.000000	6.043322
1403.000000	5.913567
1404.000000	5.874833
1405.000000	5.866827
1406.000000	5.798440
1407.000000	5.772333
1408.000000	5.695751
1409.000000	5.652065
1410.000000	5.630022
1411.000000	5.572252
1412.000000	5.505011
1413.000000	5.450257
1414.000000	5.431371
1415.000000	5.411277
1416.000000	5.368826
1417.000000	5.310015
1418.000000	5.284934
1419.000000	5.269759
1420.000000	5.239159
1421.000000	5.205382
1422.000000	5.169361
1423.000000	5.142781
1424.000000	5.122233
1425.000000	5.077981
1426.000000	5.043994
1427.000000	5.047040
1428.000000	5.029390
1429.000000	5.002415
1430.000000	4.971575
1431.000000	4.957143
1432.000000	4.971906
1433.000000	4.940586
1434.000000	4.915309
1435.000000	4.901208
1436.000000	4.874828
1437.000000	4.864294
1438.000000	4.864676
1439.000000	4.850880
1440.000000	4.831286
1441.000000	4.826126
1442.000000	4.810880
1443.000000	4.783645
1444.000000	4.767227
1445.000000	4.760623
1446.000000	4.760348
1447.000000	4.746943
1448.000000	4.729515
1449.000000	4.719547
1450.000000	4.716254
1451.000000	4.705538
1452.000000	4.683756
1453.000000	4.665220
1454.000000	4.654143
1455.000000	4.640782
1456.000000	4.628638
1457.000000	4.621766
1458.000000	4.601724
1459.000000	4.591137
1460.000000	4.576392
1461.000000	4.570589
1462.000000	4.549868
1463.000000	4.542236
1464.000000	4.528786
1465.000000	4.519897
1466.000000	4.505379
1467.000000	4.488531
1468.000000	4.477355
1469.000000	4.478650
1470.000000	4.477715
1471.000000	4.467270
1472.000000	4.456317
1473.000000	4.440066
1474.000000	4.425257
1475.000000	4.411875
1476.000000	4.405644
1477.000000	4.404847
1478.000000	4.393321
1479.000000	4.380187
1480.000000	4.375565
1481.000000	4.370671
1482.000000	4.357207
1483.000000	4.338017
1484.000000	4.334563
1485.000000	4.325620
1486.000000	4.321374
1487.000000	4.316761
1488.000000	4.312368
1489.000000	4.308205
1490.000000	4.301107
1491.000000	4.285268
1492.000000	4.274995
1493.000000	4.270153
1494.000000	4.264754
1495.000000	4.254463
1496.000000	4.257808
1497.000000	4.260420
1498.000000	4.254981
1499.000000	4.254231
1500.000000	4.266690
1501.000000	4.271796
1502.000000	4.268103
1503.000000	4.271309
1504.000000	4.273625
1505.000000	4.275870
1506.000000	4.281702
1507.000000	4.287628
1508.000000	4.292199
1509.000000	4.296537
1510.000000	4.303626
1511.000000	4.314412
1512.000000	4.319180
1513.000000	4.329571
1514.000000	4.335925
1515.000000	4.340851
1516.000000	4.352584
1517.000000	4.351769
1518.000000	4.347949
1519.000000	4.368308
1520.000000	4.370767
1521.000000	4.359835
1522.000000	4.373062
1523.000000	4.382601
1524.000000	4.386933
1525.000000	4.393364
1526.000000	4.405944
1527.000000	4.414121
1528.000000	4.408903
1529.000000	4.423380
1530.000000	4.430314
1531.000000	4.440297
1532.000000	4.445794
1533.000000	4.444343
1534.000000	4.450068
1535.000000	4.463091
1536.000000	4.475141
1537.000000	4.467717
1538.000000	4.479555
1539.000000	4.487728
1540.000000	4.489458
1541.000000	4.497547
1542.000000	4.501826
1543.000000	4.500575
1544.000000	4.515850
1545.000000	4.518642
1546.000000	4.536613
1547.000000	4.544469
1548.000000	4.550072
1549.000000	4.561823
1550.000000	4.579599
1551.000000	4.592456
1552.000000	4.591957
1553.000000	4.612531
1554.000000	4.617729
1555.000000	4.617631
1556.000000	4.625741
1557.000000	4.649316
1558.000000	4.639519
1559.000000	4.647661
1560.000000	4.655288
1561.000000	4.662422
1562.000000	4.660420
1563.000000	4.660358
1564.000000	4.648529
1565.000000	4.652868
1566.000000	4.659674
1567.000000	4.667055
1568.000000	4.663375
1569.000000	4.663540
1570.000000	4.650832
1571.000000	4.665169
1572.000000	4.657375
1573.000000	4.665314
1574.000000	4.654023
1575.000000	4.655151
1576.000000	4.672417
1577.000000	4.674271
1578.000000	4.673977
1579.000000	4.674361
1580.000000	4.677284
1581.000000	4.693884
1582.000000	4.689445
1583.000000	4.695691
1584.000000	4.698420
1585.000000	4.711974
1586.000000	4.724551
1587.000000	4.735766
1588.000000	4.735306
1589.000000	4.744423
1590.000000	4.750145
1591.000000	4.764416
1592.000000	4.769132
1593.000000	4.777590
1594.000000	4.792229
1595.000000	4.800738
1596.000000	4.811009
1597.000000	4.804971
1598.000000	4.830463
1599.000000	4.849880
1600.000000	4.851142
1601.000000	4.872633
1602.000000	4.861447
1603.000000	4.889740
1604.000000	4.905392
1605.000000	4.902644
1606.000000	4.922960
1607.000000	4.919620
1608.000000	4.930937
1609.000000	4.933289
1610.000000	4.963491
1611.000000	4.958815
1612.000000	4.978433
1613.000000	4.986199
1614.000000	4.980771
1615.000000	4.982407
1616.000000	4.987225
1617.000000	5.007098
1618.000000	5.009699
1619.000000	5.015522
1620.000000	5.005751
1621.000000	5.015617
1622.000000	5.003723
1623.000000	5.014318
1624.000000	5.039812
1625.000000	5.046459
1626.000000	5.056733
1627.000000	5.056734
1628.000000	5.068319
1629.000000	5.057305
1630.000000	5.082350
1631.000000	5.081082
1632.000000	5.083039
1633.000000	5.096111
1634.000000	5.110680
1635.000000	5.115744
1636.000000	5.107471
1637.000000	5.097457
1638.000000	5.119936
1639.000000	5.106607
1640.000000	5.124321
1641.000000	5.112116
1642.000000	5.121294
1643.000000	5.107906
1644.000000	5.115857
1645.000000	5.121323
1646.000000	5.119984
1647.000000	5.116236
1648.000000	5.129257
1649.000000	5.117924
1650.000000	5.115825
1651.000000	5.124723
1652.000000	5.114751
1653.000000	5.104797
1654.000000	5.113547
1655.000000	5.105318
1656.000000	5.091480
1657.000000	5.084630
1658.000000	5.074363
1659.000000	5.063070
1660.000000	5.056104
1661.000000	5.048965
1662.000000	5.025622
1663.000000	5.007158
1664.000000	4.989073
1665.000000	4.983643
1666.000000	4.958843
1667.000000	4.929565
1668.000000	4.910189
1669.000000	4.909010
1670.000000	4.879009
1671.000000	4.861613
1672.000000	4.835279
1673.000000	4.787083
1674.000000	4.773636
1675.000000	4.750889
1676.000000	4.726779
1677.000000	4.707360
1678.000000	4.678713
1679.000000	4.663341
1680.000000	4.630809
1681.000000	4.598922
1682.000000	4.549361
1683.000000	4.521597
1684.000000	4.507894
1685.000000	4.479741
1686.000000	4.456629
1687.000000	4.438748
1688.000000	4.417959
1689.000000	4.413764
1690.000000	4.430503
1691.000000	4.419982
1692.000000	4.425614
1693.000000	4.440249
1694.000000	4.438141
1695.000000	4.449146
1696.000000	4.453891
1697.000000	4.434327
1698.000000	4.422966
1699.000000	4.433107
1700.000000	4.424698
1701.000000	4.434215
1702.000000	4.432678
1703.000000	4.408959
1704.000000	4.405960
1705.000000	4.399872
1706.000000	4.396640
1707.000000	4.406742
1708.000000	4.396630
1709.000000	4.376866
1710.000000	4.345634
1711.000000	4.330073
1712.000000	4.328427
1713.000000	4.314824
1714.000000	4.283344
1715.000000	4.252715
1716.000000	4.230290
1717.000000	4.205732
1718.000000	4.178399
1719.000000	4.142418
1720.000000	4.120498
1721.000000	4.096872
1722.000000	4.096580
1723.000000	4.093277
1724.000000	4.078882
1725.000000	4.083074
1726.000000	4.087337
1727.000000	4.109542
1728.000000	4.105191
1729.000000	4.093516
1730.000000	4.098263
1731.000000	4.100446
1732.000000	4.096028
1733.000000	4.116360
1734.000000	4.128563
1735.000000	4.103209
1736.000000	4.100451
1737.000000	4.115858
1738.000000	4.120816
1739.000000	4.141511
1740.000000	4.159965
1741.000000	4.148176
1742.000000	4.157776
1743.000000	4.176778
1744.000000	4.183646
1745.000000	4.188268
1746.000000	4.195706
1747.000000	4.208462
1748.000000	4.216524
1749.000000	4.220654
1750.000000	4.217163
1751.000000	4.231552
1752.000000	4.236329
1753.000000	4.225103
1754.000000	4.220675
1755.000000	4.224335
1756.000000	4.235531
1757.000000	4.238910
1758.000000	4.232174
1759.000000	4.221474
1760.000000	4.231957
1761.000000	4.231008
1762.000000	4.235889
1763.000000	4.234864
1764.000000	4.255366
1765.000000	4.276097
1766.000000	4.279774
1767.000000	4.284432
1768.000000	4.289180
1769.000000	4.275012
1770.000000	4.282863
1771.000000	4.286374
1772.000000	4.274778
1773.000000	4.285991
1774.000000	4.312457
1775.000000	4.323219
1776.000000	4.333653
1777.000000	4.335431
1778.000000	4.333913
1779.000000	4.337608
1780.000000	4.326774
1781.000000	4.332131
1782.000000	4.329084
1783.000000	4.316733
1784.000000	4.325847
1785.000000	4.335115
1786.000000	4.340787
1787.000000	4.343777
1788.000000	4.329006
1789.000000	4.316931
1790.000000	4.338297
1791.000000	4.336545
1792.000000	4.334085
1793.000000	4.341713
1794.000000	4.348942
1795.000000	4.354785
1796.000000	4.354718
1797.000000	4.366009
1798.000000	4.348867
1799.000000	4.356486
1800.000000	4.379761
1801.000000	4.402452
1802.000000	4.418591
1803.000000	4.415528
1804.000000	4.382715
1805.000000	4.387157
1806.000000	4.426598
1807.000000	4.439108
1808.000000	4.427728
1809.000000	4.397029
1810.000000	4.414779
1811.000000	4.439767
1812.000000	4.469595
1813.000000	4.471305
1814.000000	4.421153
1815.000000	4.424999
1816.000000	4.478345
1817.000000	4.476632
1818.000000	4.465376
1819.000000	4.423387
1820.000000	4.494344
1821.000000	4.549102
1822.000000	4.576473
1823.000000	4.525463
1824.000000	4.441347
1825.000000	4.406896
1826.000000	4.523528
1827.000000	4.537538
1828.000000	4.511448
1829.000000	4.522835
1830.000000	4.574798
1831.000000	4.613828
1832.000000	4.574020
1833.000000	4.541528
1834.000000	4.498118
1835.000000	4.553587
1836.000000	4.631514
1837.000000	4.653475
1838.000000	4.645727
1839.000000	4.633744
1840.000000	4.649486
1841.000000	4.622990
1842.000000	4.782499
1843.000000	4.725350
1844.000000	4.650690
1845.000000	4.518351
1846.000000	4.513775
1847.000000	4.774641
1848.000000	4.891099
1849.000000	4.784481
1850.000000	4.677723
1851.000000	4.625554
1852.000000	4.539913
1853.000000	4.715175
1854.000000	4.791289
1855.000000	4.583003
1856.000000	4.617570
1857.000000	4.712921
1858.000000	4.600124
1859.000000	4.601979
1860.000000	4.777010
1861.000000	4.745158
1862.000000	4.575425
1863.000000	4.541460
1864.000000	4.636231
1865.000000	4.564246
1866.000000	4.391809
1867.000000	4.468545
1868.000000	4.606111
1869.000000	4.496557
1870.000000	4.497674
1871.000000	4.737364
1872.000000	4.577043
1873.000000	4.645755
1874.000000	4.595755
1875.000000	4.423048
1876.000000	4.411438
1877.000000	4.462881
1878.000000	4.338721
1879.000000	4.208931
1880.000000	4.163761
1881.000000	4.158802
1882.000000	4.082252
1883.000000	3.978458
1884.000000	4.025515
1885.000000	3.933362
1886.000000	3.896584
1887.000000	3.856317
1888.000000	3.688699
1889.000000	3.682581
1890.000000	3.654747
1891.000000	3.517936
1892.000000	3.464214
1893.000000	3.447257
1894.000000	3.382928
1895.000000	3.294468
1896.000000	3.152058
1897.000000	3.049323
1898.000000	3.090690
1899.000000	3.075059
1900.000000	3.137466
1901.000000	2.876300
1902.000000	2.905700
1903.000000	2.854952
1904.000000	2.751901
1905.000000	2.723328
1906.000000	2.740563
1907.000000	2.695024
1908.000000	2.581593
1909.000000	2.519110
1910.000000	2.441240
1911.000000	2.467673
1912.000000	2.360479
1913.000000	2.389577
1914.000000	2.433966
1915.000000	2.420141
1916.000000	2.347199
1917.000000	2.275472
1918.000000	2.157061
1919.000000	2.145499
1920.000000	2.249472
1921.000000	2.280941
1922.000000	2.178040
1923.000000	2.145210
1924.000000	2.154316
1925.000000	2.132060
1926.000000	2.111303
1927.000000	2.138282
1928.000000	2.163530
1929.000000	2.114472
1930.000000	2.096462
1931.000000	2.092496
1932.000000	2.061285
1933.000000	2.065398
1934.000000	2.038219
1935.000000	1.980650
1936.000000	2.017720
1937.000000	2.027966
1938.000000	2.006746
1939.000000	2.046394
1940.000000	2.055071
1941.000000	2.047379
1942.000000	2.013489
1943.000000	2.001250
1944.000000	2.023851
1945.000000	2.047238
1946.000000	2.026291
1947.000000	2.033676
1948.000000	2.027634
1949.000000	2.050129
1950.000000	2.057796
1951.000000	2.052738
1952.000000	2.066368
1953.000000	2.074562
1954.000000	2.073265
1955.000000	2.084582
1956.000000	2.105223
1957.000000	2.082601
1958.000000	2.120202
1959.000000	2.149610
1960.000000	2.157505
1961.000000	2.154151
1962.000000	2.159496
1963.000000	2.161838
1964.000000	2.132632
1965.000000	2.162779
1966.000000	2.183639
1967.000000	2.216575
1968.000000	2.228008
1969.000000	2.202804
1970.000000	2.203493
1971.000000	2.216997
1972.000000	2.228670
1973.000000	2.258362
1974.000000	2.228374
1975.000000	2.238047
1976.000000	2.259161
1977.000000	2.283041
1978.000000	2.311232
1979.000000	2.318126
1980.000000	2.319613
1981.000000	2.344322
1982.000000	2.358683
1983.000000	2.378247
1984.000000	2.390444
1985.000000	2.409934
1986.000000	2.408521
1987.000000	2.409275
1988.000000	2.423026
1989.000000	2.462222
1990.000000	2.470979
1991.000000	2.457536
1992.000000	2.463597
1993.000000	2.462031
1994.000000	2.462009
1995.000000	2.467507
1996.000000	2.478166
1997.000000	2.522755
1998.000000	2.501927
1999.000000	2.524046
2000.000000	2.585045
2001.000000	2.598837
2002.000000	2.608016
2003.000000	2.587976
2004.000000	2.578724
2005.000000	2.593807
2006.000000	2.567286
2007.000000	2.597653
2008.000000	2.608494
2009.000000	2.605149
2010.000000	2.600175
2011.000000	2.573071
2012.000000	2.553726
2013.000000	2.568283
2014.000000	2.590573
2015.000000	2.572557
2016.000000	2.598472
2017.000000	2.630955
2018.000000	2.617643
2019.000000	2.583400
2020.000000	2.570891
2021.000000	2.596166
2022.000000	2.580626
2023.000000	2.535120
2024.000000	2.538550
2025.000000	2.539062
2026.000000	2.564066
2027.000000	2.563015
2028.000000	2.579129
2029.000000	2.543874
2030.000000	2.513555
2031.000000	2.557506
2032.000000	2.533119
2033.000000	2.469819
2034.000000	2.464699
2035.000000	2.438730
2036.000000	2.463962
2037.000000	2.456284
2038.000000	2.411616
2039.000000	2.448187
2040.000000	2.473533
2041.000000	2.428874
2042.000000	2.380734
2043.000000	2.395818
2044.000000	2.395701
2045.000000	2.391782
2046.000000	2.345097
2047.000000	2.313110
2048.000000	2.232116
2049.000000	2.270726
2050.000000	2.308620
2051.000000	2.276143
2052.000000	2.251615
2053.000000	2.318013
2054.000000	2.261432
2055.000000	2.257944
2056.000000	2.355290
2057.000000	2.345534
2058.000000	2.366510
2059.000000	2.347439
2060.000000	2.359384
2061.000000	2.451933
2062.000000	2.419421
2063.000000	2.444045
2064.000000	2.429622
2065.000000	2.451796
2066.000000	2.501944
2067.000000	2.499990
2068.000000	2.551685
2069.000000	2.474688
2070.000000	2.544102
2071.000000	2.607511
2072.000000	2.631546
2073.000000	2.611324
2074.000000	2.578738
2075.000000	2.603216
2076.000000	2.592791
2077.000000	2.631772
2078.000000	2.675202
2079.000000	2.702477
2080.000000	2.614803
2081.000000	2.695947
2082.000000	2.719840
2083.000000	2.705038
2084.000000	2.640069
2085.000000	2.703429
2086.000000	2.652720
2087.000000	2.685468
2088.000000	2.851024
2089.000000	2.873157
2090.000000	2.706078
2091.000000	2.691865
2092.000000	2.737410
2093.000000	2.819332
2094.000000	2.731125
2095.000000	2.760352
2096.000000	2.876413
2097.000000	2.860723
2098.000000	2.722291
2099.000000	2.904997
2100.000000	2.762990
2101.000000	2.785278
2102.000000	2.868133
2103.000000	2.697667
2104.000000	2.717498
2105.000000	2.879387
2106.000000	2.805587
2107.000000	2.933738
2108.000000	2.816258
2109.000000	2.863990
2110.000000	2.848658
2111.000000	2.831837
2112.000000	2.893925
2113.000000	2.832330
2114.000000	2.941076
2115.000000	2.946809
2116.000000	2.919745
2117.000000	2.886206
2118.000000	2.737086
2119.000000	2.858619
2120.000000	2.817496
2121.000000	2.819467
2122.000000	2.940776
2123.000000	2.755900
2124.000000	2.947326
2125.000000	3.011074
2126.000000	2.804785
2127.000000	2.909212
2128.000000	2.952108
2129.000000	2.857650
2130.000000	2.907703
2131.000000	2.853150
2132.000000	2.978773
2133.000000	2.726427
2134.000000	2.942380
2135.000000	2.972629
2136.000000	2.917244
2137.000000	2.984930
2138.000000	2.849811
2139.000000	2.749796
2140.000000	2.773906
2141.000000	2.511840
2142.000000	2.869384
2143.000000	2.704454
2144.000000	2.728914
2145.000000	2.768100
2146.000000	2.936598
2147.000000	2.920271
2148.000000	2.634160
2149.000000	2.858875
2150.000000	2.567800
2151.000000	2.577645
2152.000000	2.697162
2153.000000	2.629294
2154.000000	2.691077
2155.000000	2.645562
2156.000000	2.642276
2157.000000	2.571257
2158.000000	2.539558
2159.000000	2.646104
2160.000000	2.664565
2161.000000	2.543204
2162.000000	2.548065
2163.000000	2.634607
2164.000000	2.510322
2165.000000	2.339856
2166.000000	2.520482
2167.000000	2.575832
2168.000000	2.537520
2169.000000	2.648377
2170.000000	2.716423
2171.000000	2.493899
2172.000000	2.419971
2173.000000	2.456039
2174.000000	2.375593
2175.000000	2.538520
2176.000000	2.525832
2177.000000	2.534218
2178.000000	2.639843
2179.000000	2.638656
2180.000000	2.479214
2181.000000	2.568091
2182.000000	2.433061
2183.000000	2.425668
2184.000000	2.527040
2185.000000	2.514808
2186.000000	2.627799
2187.000000	2.479584
2188.000000	2.576945
2189.000000	2.655054
2190.000000	2.710569
2191.000000	2.678183
2192.000000	2.551441
2193.000000	2.516290
2194.000000	2.594776
2195.000000	2.469792
2196.000000	2.342028
2197.000000	2.461254
2198.000000	2.509841
2199.000000	2.498858
2200.000000	2.632165
2201.000000	2.724801
2202.000000	2.545253
2203.000000	2.588318
2204.000000	2.688592
2205.000000	2.654493
2206.000000	2.590283
2207.000000	2.669142
2208.000000	2.593493
2209.000000	2.611748
2210.000000	2.640055
2211.000000	2.598683
2212.000000	2.686846
2213.000000	2.605900
2214.000000	2.668873
2215.000000	2.697597
2216.000000	2.727373
2217.000000	2.757865
2218.000000	2.726256
2219.000000	2.749130
2220.000000	2.766842
2221.000000	2.713883
2222.000000	2.781230
2223.000000	2.779256
2224.000000	2.803853
2225.000000	2.872199
2226.000000	2.841043
2227.000000	2.897405
2228.000000	2.851243
2229.000000	2.905021
2230.000000	2.828965
2231.000000	2.859188
2232.000000	2.801804
2233.000000	2.957391
2234.000000	2.874429
2235.000000	2.744926
2236.000000	2.924173
2237.000000	2.965971
2238.000000	2.881830
2239.000000	2.803337
2240.000000	2.842943
2241.000000	2.860036
2242.000000	2.725534
2243.000000	2.754834
2244.000000	2.690182
2245.000000	2.721583
2246.000000	2.710054
2247.000000	2.631386
2248.000000	2.748643
2249.000000	2.765865
2250.000000	2.750692
2251.000000	2.774286
2252.000000	2.758117
2253.000000	2.676157
2254.000000	2.713218
2255.000000	2.708459
2256.000000	2.571381
2257.000000	2.543318
2258.000000	2.559519
2259.000000	2.572449
2260.000000	2.575017
2261.000000	2.550529
2262.000000	2.642800
2263.000000	2.722769
2264.000000	2.529277
2265.000000	2.505224
2266.000000	2.588332
2267.000000	2.491032
2268.000000	2.531824
2269.000000	2.639633
2270.000000	2.635132
2271.000000	2.533945
2272.000000	2.506506
2273.000000	2.656344
2274.000000	2.671028
2275.000000	2.604875
2276.000000	2.524941
2277.000000	2.678656
2278.000000	2.668920
2279.000000	2.392624
2280.000000	2.401305
2281.000000	2.594658
2282.000000	2.488994
2283.000000	2.499320
2284.000000	2.692223
2285.000000	2.608120
2286.000000	2.518095
2287.000000	2.515102
2288.000000	2.695066
2289.000000	2.592763
2290.000000	2.627927
2291.000000	2.636335
2292.000000	2.567552
2293.000000	2.620223
2294.000000	2.584753
2295.000000	2.608482
2296.000000	2.600135
2297.000000	2.589752
2298.000000	2.592104
2299.000000	2.626565
2300.000000	2.666734
2301.000000	2.782467
2302.000000	2.736521
2303.000000	2.824383
2304.000000	2.796035
2305.000000	2.498366
2306.000000	2.605204
2307.000000	2.741050
2308.000000	2.593075
2309.000000	2.663500
2310.000000	2.810133
2311.000000	2.761310
2312.000000	2.743823
2313.000000	2.828943
2314.000000	2.890508
2315.000000	2.901966
2316.000000	2.802517
2317.000000	2.944294
2318.000000	3.091396
2319.000000	3.050902
2320.000000	2.879228
2321.000000	2.802356
2322.000000	2.905431
2323.000000	2.929210
2324.000000	3.156983
2325.000000	3.031719
2326.000000	2.924558
2327.000000	3.157584
2328.000000	3.024740
2329.000000	2.727120
2330.000000	2.820915
2331.000000	2.923181
2332.000000	2.974156
2333.000000	3.123296
2334.000000	3.217348
2335.000000	3.029763
2336.000000	3.219457
2337.000000	3.019065
2338.000000	2.975631
2339.000000	3.368889
2340.000000	3.218201
2341.000000	3.377647
2342.000000	3.231117
2343.000000	2.986943
2344.000000	3.013119
2345.000000	2.973573
2346.000000	3.098996
2347.000000	2.796502
2348.000000	3.266307
2349.000000	3.194490
2350.000000	3.391532
2351.000000	3.209030
2352.000000	3.261379
2353.000000	3.151328
2354.000000	3.129632
2355.000000	3.196426
2356.000000	3.285027
2357.000000	3.333811
2358.000000	3.532864
2359.000000	3.460224
2360.000000	3.347420
2361.000000	3.256103
2362.000000	3.507740
2363.000000	3.825749
2364.000000	3.638661
2365.000000	3.291860
2366.000000	3.250767
2367.000000	3.426008
2368.000000	3.158123
2369.000000	3.228474
2370.000000	3.722936
2371.000000	3.578194
2372.000000	3.757101
2373.000000	3.536359
2374.000000	3.530408
2375.000000	3.521471
2376.000000	3.231770
2377.000000	3.343746
2378.000000	3.290301
2379.000000	3.477884
2380.000000	3.548629
2381.000000	3.527719
2382.000000	3.597634
2383.000000	3.519881
2384.000000	3.519887
2385.000000	3.647730
2386.000000	3.419526
2387.000000	3.633245
2388.000000	3.460714
2389.000000	3.483757
2390.000000	3.819666
2391.000000	4.042377
2392.000000	3.319998
2393.000000	3.576296
2394.000000	3.324987
2395.000000	3.709092
2396.000000	3.292312
2397.000000	3.436188
2398.000000	3.891957
2399.000000	3.824384
2400.000000	3.112060
2401.000000	0.710814
2402.000000	0.706294
2403.000000	0.700295
2404.000000	0.692500
2405.000000	0.684988
2406.000000	0.696450
2407.000000	0.709501
2408.000000	0.681215
2409.000000	0.648931
2410.000000	0.617539
2411.000000	0.602686
2412.000000	0.598026
2413.000000	0.591965
2414.000000	0.590290
2415.000000	0.592782
2416.000000	0.597919
2417.000000	0.587909
2418.000000	0.587243
2419.000000	0.598750
2420.000000	0.601447
2421.000000	0.593187
2422.000000	0.599190
2423.000000	0.607023
2424.000000	0.597789
2425.000000	0.587654
2426.000000	0.597634
2427.000000	0.594969
2428.000000	0.592933
2429.000000	0.585982
2430.000000	0.595572
2431.000000	0.590454
2432.000000	0.592986
2433.000000	0.590673
2434.000000	0.590854
2435.000000	0.591896
2436.000000	0.595274
2437.000000	0.593423
2438.000000	0.577056
2439.000000	0.575441
2440.000000	0.585150
2441.000000	0.582122
2442.000000	0.568121
2443.000000	0.572066
2444.000000	0.577381
2445.000000	0.575237
2446.000000	0.583643
2447.000000	0.584383
2448.000000	0.582179
2449.000000	0.567747
2450.000000	0.576211
2451.000000	0.599629
2452.000000	0.609783
2453.000000	0.598508
2454.000000	0.589647
2455.000000	0.589176
2456.000000	0.591024
2457.000000	0.614122
2458.000000	0.598970
2459.000000	0.604312
2460.000000	0.612038
2461.000000	0.623090
2462.000000	0.604400
2463.000000	0.627132
2464.000000	0.632845
2465.000000	0.662698
2466.000000	0.649678
2467.000000	0.636868
2468.000000	0.655451
2469.000000	0.650409
2470.000000	0.656396
2471.000000	0.656002
2472.000000	0.649028
2473.000000	0.647412
2474.000000	0.663789
2475.000000	0.681206
2476.000000	0.666071
2477.000000	0.703614
2478.000000	0.684139
2479.000000	0.699951
2480.000000	0.673000
2481.000000	0.669311
2482.000000	0.716389
2483.000000	0.695130
2484.000000	0.695162
2485.000000	0.663054
2486.000000	0.688192
2487.000000	0.741624
2488.000000	0.704050
2489.000000	0.698813
2490.000000	0.724841
2491.000000	0.708800
2492.000000	0.709530
2493.000000	0.743392
2494.000000	0.737619
2495.000000	0.702607
2496.000000	0.723875
2497.000000	0.811458
2498.000000	0.711891
2499.000000	0.690108
2500.000000	0.739526
