PE UV       SUBTECH     SPECTRUM    ASCII       PEDS        4.00        
   -1
CICIMAUCR0021-3.Sample.ASC
24/04/17
14:19:58.00
24/04/17
14:19:58.00
Vinicio Soto Monge
C. resplendens. 
250,000000
1
Lambda 1050
1050L1511233
PerkinElmer UV WinLab 6.3.2.0749 / 2.02.05 Lambda 900 UV/VIS/NIR, Aug  7 2015 09:38:08

0
0
3350/servo 860,8/2
0
0
UV/VIS
1
1
1
DoubleDePol,CommonBeamDepol,RBeamAtt,SBeamAtt,60mm sphere, WB InGaAs Detector
0
0
0
0
Program
Program
3350/servo 860,8/2
3350/0,2 860,8/0,2
3350/0,2 860,8/0,2
0
15.00
 
 
 
0
 
860,8
319,2
860,8
Front
100
on
S:100 R:100
0
0
0
0
 
0
 
 
 
0
 
 
0
0
0
0
0
 
 
 
 
0
0


0
0
#HDR
-1
-1
#GR
nm
%R
1.0
0.0
2500,000000
-1,000000
2251
8
79,251800
5,023200
#DATA
250.000000	0.477487
251.000000	0.454232
252.000000	0.488948
253.000000	0.449442
254.000000	0.466845
255.000000	0.464643
256.000000	0.498665
257.000000	0.473941
258.000000	0.473094
259.000000	0.450295
260.000000	0.450317
261.000000	0.407298
262.000000	0.434379
263.000000	0.438721
264.000000	0.453816
265.000000	0.483578
266.000000	0.453340
267.000000	0.426342
268.000000	0.437964
269.000000	0.465272
270.000000	0.381848
271.000000	0.429459
272.000000	0.416735
273.000000	0.434681
274.000000	0.442237
275.000000	0.400740
276.000000	0.435618
277.000000	0.401391
278.000000	0.420053
279.000000	0.435743
280.000000	0.401943
281.000000	0.398129
282.000000	0.477566
283.000000	0.407193
284.000000	0.415208
285.000000	0.409225
286.000000	0.449468
287.000000	0.466711
288.000000	0.442218
289.000000	0.413066
290.000000	0.378612
291.000000	0.442283
292.000000	0.412633
293.000000	0.367800
294.000000	0.387772
295.000000	0.427810
296.000000	0.407565
297.000000	0.391909
298.000000	0.385185
299.000000	0.408735
300.000000	0.429996
301.000000	0.390180
302.000000	0.358746
303.000000	0.461619
304.000000	0.371003
305.000000	0.357125
306.000000	0.386042
307.000000	0.366049
308.000000	0.376761
309.000000	0.400790
310.000000	0.404772
311.000000	0.415902
312.000000	0.386684
313.000000	0.397043
314.000000	0.403361
315.000000	0.375105
316.000000	0.455277
317.000000	0.587688
318.000000	0.545147
319.000000	0.502074
320.000000	0.599603
321.000000	0.538784
322.000000	0.374565
323.000000	0.484013
324.000000	0.670583
325.000000	0.507224
326.000000	0.554749
327.000000	0.491589
328.000000	0.486395
329.000000	0.409252
330.000000	0.531335
331.000000	0.502109
332.000000	0.494615
333.000000	0.419266
334.000000	0.462891
335.000000	0.458311
336.000000	0.344740
337.000000	0.353649
338.000000	0.344809
339.000000	0.400463
340.000000	0.387201
341.000000	0.507567
342.000000	0.502471
343.000000	0.416432
344.000000	0.482702
345.000000	0.468449
346.000000	0.447908
347.000000	0.379181
348.000000	0.411287
349.000000	0.420014
350.000000	0.382208
351.000000	0.385696
352.000000	0.413810
353.000000	0.359771
354.000000	0.466761
355.000000	0.421083
356.000000	0.424895
357.000000	0.385095
358.000000	0.408674
359.000000	0.474893
360.000000	0.441093
361.000000	0.380300
362.000000	0.428401
363.000000	0.438026
364.000000	0.406744
365.000000	0.396932
366.000000	0.339580
367.000000	0.349319
368.000000	0.291842
369.000000	0.313250
370.000000	0.287973
371.000000	0.276854
372.000000	0.231410
373.000000	0.230736
374.000000	0.185441
375.000000	0.203760
376.000000	0.328724
377.000000	0.328615
378.000000	0.317247
379.000000	0.285652
380.000000	0.279568
381.000000	0.271682
382.000000	0.249419
383.000000	0.233686
384.000000	0.213450
385.000000	0.206566
386.000000	0.206980
387.000000	0.209128
388.000000	0.222668
389.000000	0.231448
390.000000	0.253139
391.000000	0.280558
392.000000	0.306757
393.000000	0.328815
394.000000	0.366311
395.000000	0.397386
396.000000	0.420678
397.000000	0.449570
398.000000	0.481209
399.000000	0.498058
400.000000	0.516630
401.000000	0.525187
402.000000	0.525522
403.000000	0.532203
404.000000	0.535093
405.000000	0.530812
406.000000	0.528648
407.000000	0.518431
408.000000	0.505453
409.000000	0.491157
410.000000	0.461691
411.000000	0.449033
412.000000	0.443561
413.000000	0.436697
414.000000	0.430493
415.000000	0.447199
416.000000	0.479288
417.000000	0.512173
418.000000	0.557443
419.000000	0.615834
420.000000	0.679511
421.000000	0.750895
422.000000	0.823444
423.000000	0.893604
424.000000	0.977965
425.000000	1.053035
426.000000	1.130879
427.000000	1.214016
428.000000	1.285552
429.000000	1.365885
430.000000	1.451378
431.000000	1.531041
432.000000	1.613658
433.000000	1.693944
434.000000	1.751934
435.000000	1.823138
436.000000	1.891465
437.000000	1.956974
438.000000	2.027240
439.000000	2.090964
440.000000	2.142603
441.000000	2.201086
442.000000	2.274631
443.000000	2.332796
444.000000	2.382695
445.000000	2.444354
446.000000	2.514900
447.000000	2.582512
448.000000	2.633669
449.000000	2.677917
450.000000	2.723056
451.000000	2.774987
452.000000	2.825615
453.000000	2.858449
454.000000	2.903233
455.000000	2.949548
456.000000	2.987465
457.000000	3.013056
458.000000	3.033947
459.000000	3.063942
460.000000	3.085654
461.000000	3.104895
462.000000	3.118082
463.000000	3.111671
464.000000	3.104613
465.000000	3.104997
466.000000	3.094353
467.000000	3.061813
468.000000	3.010974
469.000000	2.950762
470.000000	2.887874
471.000000	2.820555
472.000000	2.739190
473.000000	2.640306
474.000000	2.526790
475.000000	2.410321
476.000000	2.284887
477.000000	2.146146
478.000000	2.012943
479.000000	1.879623
480.000000	1.721174
481.000000	1.562021
482.000000	1.406793
483.000000	1.253257
484.000000	1.112206
485.000000	0.985705
486.000000	0.870649
487.000000	0.757961
488.000000	0.655133
489.000000	0.581715
490.000000	0.511196
491.000000	0.465729
492.000000	0.426886
493.000000	0.379783
494.000000	0.352923
495.000000	0.322962
496.000000	0.285712
497.000000	0.271140
498.000000	0.278568
499.000000	0.315095
500.000000	0.389508
501.000000	0.481159
502.000000	0.586534
503.000000	0.713739
504.000000	0.827141
505.000000	0.947587
506.000000	1.072626
507.000000	1.199342
508.000000	1.301304
509.000000	1.408056
510.000000	1.521487
511.000000	1.635346
512.000000	1.736294
513.000000	1.849612
514.000000	1.944286
515.000000	2.048891
516.000000	2.152069
517.000000	2.271865
518.000000	2.392855
519.000000	2.529101
520.000000	2.667819
521.000000	2.817791
522.000000	2.961953
523.000000	3.127099
524.000000	3.299950
525.000000	3.474377
526.000000	3.660942
527.000000	3.824541
528.000000	4.020333
529.000000	4.213864
530.000000	4.399500
531.000000	4.586345
532.000000	4.771190
533.000000	4.963823
534.000000	5.175717
535.000000	5.366812
536.000000	5.566454
537.000000	5.760195
538.000000	5.957485
539.000000	6.146411
540.000000	6.362251
541.000000	6.562945
542.000000	6.812997
543.000000	7.016656
544.000000	7.249546
545.000000	7.446498
546.000000	7.674588
547.000000	7.870605
548.000000	8.072191
549.000000	8.256788
550.000000	8.434700
551.000000	8.619249
552.000000	8.772708
553.000000	8.932181
554.000000	9.079941
555.000000	9.208048
556.000000	9.318762
557.000000	9.443884
558.000000	9.554785
559.000000	9.649904
560.000000	10.007191
561.000000	10.124835
562.000000	10.238314
563.000000	10.333107
564.000000	10.393131
565.000000	10.456334
566.000000	10.528222
567.000000	10.598222
568.000000	10.671792
569.000000	10.739329
570.000000	10.807783
571.000000	10.868763
572.000000	10.937166
573.000000	11.002987
574.000000	11.066769
575.000000	11.122896
576.000000	11.194540
577.000000	11.219665
578.000000	11.258822
579.000000	11.308682
580.000000	11.340635
581.000000	11.403806
582.000000	11.429141
583.000000	11.433070
584.000000	11.482972
585.000000	11.512813
586.000000	11.524635
587.000000	11.579401
588.000000	11.620428
589.000000	11.671524
590.000000	11.745206
591.000000	11.751540
592.000000	11.788298
593.000000	11.854106
594.000000	11.835905
595.000000	11.863043
596.000000	11.905401
597.000000	11.957748
598.000000	11.961621
599.000000	11.966445
600.000000	11.944081
601.000000	11.920395
602.000000	11.916122
603.000000	11.892764
604.000000	11.842755
605.000000	11.801207
606.000000	11.768822
607.000000	11.707018
608.000000	11.639770
609.000000	11.583207
610.000000	11.526820
611.000000	11.445812
612.000000	11.398506
613.000000	11.310215
614.000000	11.247691
615.000000	11.190618
616.000000	11.175724
617.000000	11.113466
618.000000	11.065149
619.000000	11.003344
620.000000	10.929438
621.000000	10.845096
622.000000	10.770103
623.000000	10.659305
624.000000	10.577598
625.000000	10.466806
626.000000	10.377507
627.000000	10.260698
628.000000	10.146913
629.000000	10.013157
630.000000	9.883291
631.000000	9.782972
632.000000	9.663614
633.000000	9.550919
634.000000	9.457561
635.000000	9.353681
636.000000	9.246495
637.000000	9.139980
638.000000	9.074779
639.000000	8.945302
640.000000	8.868266
641.000000	8.736330
642.000000	8.620498
643.000000	8.485301
644.000000	8.340455
645.000000	8.210984
646.000000	8.047265
647.000000	7.876066
648.000000	7.725904
649.000000	7.570678
650.000000	7.397844
651.000000	7.241413
652.000000	7.058214
653.000000	6.878791
654.000000	6.729003
655.000000	6.575625
656.000000	6.422355
657.000000	6.298989
658.000000	6.186518
659.000000	6.042494
660.000000	5.932523
661.000000	5.827329
662.000000	5.730272
663.000000	5.635021
664.000000	5.555987
665.000000	5.475082
666.000000	5.409307
667.000000	5.309543
668.000000	5.216549
669.000000	5.133390
670.000000	5.093327
671.000000	5.025758
672.000000	4.969743
673.000000	4.931129
674.000000	4.892373
675.000000	4.880987
676.000000	4.855405
677.000000	4.850582
678.000000	4.849369
679.000000	4.848590
680.000000	4.868854
681.000000	4.902952
682.000000	4.964417
683.000000	5.009148
684.000000	5.083897
685.000000	5.163248
686.000000	5.227837
687.000000	5.305690
688.000000	5.370917
689.000000	5.440493
690.000000	5.498244
691.000000	5.563493
692.000000	5.644483
693.000000	5.716848
694.000000	5.777692
695.000000	5.855322
696.000000	5.928677
697.000000	5.985769
698.000000	6.061042
699.000000	6.125538
700.000000	6.180851
701.000000	6.257418
702.000000	6.321131
703.000000	6.382919
704.000000	6.444027
705.000000	6.516123
706.000000	6.603622
707.000000	6.667525
708.000000	6.745788
709.000000	6.816724
710.000000	6.875473
711.000000	6.952632
712.000000	6.993162
713.000000	7.038133
714.000000	7.109538
715.000000	7.173998
716.000000	7.186654
717.000000	7.199197
718.000000	7.231334
719.000000	7.266627
720.000000	7.310388
721.000000	7.333869
722.000000	7.316623
723.000000	7.317145
724.000000	7.350189
725.000000	7.339788
726.000000	7.346530
727.000000	7.333209
728.000000	7.316134
729.000000	7.336110
730.000000	7.320304
731.000000	7.337196
732.000000	7.355164
733.000000	7.356678
734.000000	7.349373
735.000000	7.338083
736.000000	7.342479
737.000000	7.335123
738.000000	7.331027
739.000000	7.317863
740.000000	7.308280
741.000000	7.322382
742.000000	7.315081
743.000000	7.331067
744.000000	7.344580
745.000000	7.347738
746.000000	7.345580
747.000000	7.350313
748.000000	7.356326
749.000000	7.344449
750.000000	7.311822
751.000000	7.323796
752.000000	7.358582
753.000000	7.363774
754.000000	7.365279
755.000000	7.366398
756.000000	7.372469
757.000000	7.393321
758.000000	7.390985
759.000000	7.393880
760.000000	7.426850
761.000000	7.443015
762.000000	7.491210
763.000000	7.560674
764.000000	7.550641
765.000000	7.590986
766.000000	7.656484
767.000000	7.693414
768.000000	7.758553
769.000000	7.747235
770.000000	7.718261
771.000000	7.772298
772.000000	7.860928
773.000000	7.877947
774.000000	7.928581
775.000000	7.987199
776.000000	7.991629
777.000000	8.023336
778.000000	8.106300
779.000000	8.220473
780.000000	8.267058
781.000000	8.291236
782.000000	8.363859
783.000000	8.374862
784.000000	8.485693
785.000000	8.551473
786.000000	8.635704
787.000000	8.719447
788.000000	8.795017
789.000000	8.842843
790.000000	8.857314
791.000000	8.962201
792.000000	9.002887
793.000000	9.101213
794.000000	9.189966
795.000000	9.208029
796.000000	9.282097
797.000000	9.372894
798.000000	9.450117
799.000000	9.525675
800.000000	9.510415
801.000000	9.587796
802.000000	9.739073
803.000000	9.767520
804.000000	9.787741
805.000000	9.798506
806.000000	9.887318
807.000000	10.004970
808.000000	10.003539
809.000000	10.054663
810.000000	10.102033
811.000000	10.162570
812.000000	10.087460
813.000000	10.139794
814.000000	10.150889
815.000000	10.174222
816.000000	10.192135
817.000000	10.192096
818.000000	10.322624
819.000000	10.313108
820.000000	10.260990
821.000000	10.196787
822.000000	10.252994
823.000000	10.268476
824.000000	10.263852
825.000000	10.267594
826.000000	10.284867
827.000000	10.267869
828.000000	10.277685
829.000000	10.291265
830.000000	10.297339
831.000000	10.218220
832.000000	10.338607
833.000000	10.292729
834.000000	10.276326
835.000000	10.205927
836.000000	10.286181
837.000000	10.199576
838.000000	10.224833
839.000000	10.136122
840.000000	10.210278
841.000000	10.137828
842.000000	10.116931
843.000000	10.305781
844.000000	10.096168
845.000000	10.294806
846.000000	10.189669
847.000000	10.120226
848.000000	10.217622
849.000000	10.170456
850.000000	9.974163
851.000000	9.886493
852.000000	10.108266
853.000000	10.077297
854.000000	9.956020
855.000000	9.839471
856.000000	10.020629
857.000000	9.865460
858.000000	10.190381
859.000000	9.711484
860.000000	9.810267
861.000000	9.932389
862.000000	10.076784
863.000000	10.249401
864.000000	10.329337
865.000000	10.450575
866.000000	10.506288
867.000000	10.624551
868.000000	10.681677
869.000000	10.764193
870.000000	10.822981
871.000000	10.844039
872.000000	10.927307
873.000000	10.952405
874.000000	11.026666
875.000000	11.075387
876.000000	11.146184
877.000000	11.206708
878.000000	11.180215
879.000000	11.179156
880.000000	11.230219
881.000000	11.237698
882.000000	11.254465
883.000000	11.256413
884.000000	11.307073
885.000000	11.312845
886.000000	11.301556
887.000000	11.285660
888.000000	11.279728
889.000000	11.310052
890.000000	11.289073
891.000000	11.269817
892.000000	11.258235
893.000000	11.232075
894.000000	11.200434
895.000000	11.194135
896.000000	11.160231
897.000000	11.124431
898.000000	11.112905
899.000000	11.121320
900.000000	11.106692
901.000000	11.075931
902.000000	11.046403
903.000000	10.988015
904.000000	10.950599
905.000000	10.910052
906.000000	10.893465
907.000000	10.847547
908.000000	10.816555
909.000000	10.772157
910.000000	10.696813
911.000000	10.661594
912.000000	10.615148
913.000000	10.572213
914.000000	10.536683
915.000000	10.462073
916.000000	10.404408
917.000000	10.356227
918.000000	10.315916
919.000000	10.260199
920.000000	10.230742
921.000000	10.190401
922.000000	10.176066
923.000000	10.111016
924.000000	10.073786
925.000000	10.048420
926.000000	10.003146
927.000000	9.999565
928.000000	9.954933
929.000000	9.920374
930.000000	9.882679
931.000000	9.849328
932.000000	9.841825
933.000000	9.833902
934.000000	9.839088
935.000000	9.799128
936.000000	9.785910
937.000000	9.787496
938.000000	9.765894
939.000000	9.774309
940.000000	9.733800
941.000000	9.697077
942.000000	9.682901
943.000000	9.659704
944.000000	9.659869
945.000000	9.675311
946.000000	9.639520
947.000000	9.614637
948.000000	9.609442
949.000000	9.600077
950.000000	9.602134
951.000000	9.600892
952.000000	9.582173
953.000000	9.580665
954.000000	9.579146
955.000000	9.544213
956.000000	9.541357
957.000000	9.529145
958.000000	9.515981
959.000000	9.520532
960.000000	9.517802
961.000000	9.510592
962.000000	9.491895
963.000000	9.469707
964.000000	9.456341
965.000000	9.437207
966.000000	9.413576
967.000000	9.391747
968.000000	9.376891
969.000000	9.354404
970.000000	9.334194
971.000000	9.314567
972.000000	9.291260
973.000000	9.285412
974.000000	9.271560
975.000000	9.238916
976.000000	9.215541
977.000000	9.206772
978.000000	9.190216
979.000000	9.165032
980.000000	9.136603
981.000000	9.118482
982.000000	9.108740
983.000000	9.097392
984.000000	9.088217
985.000000	9.076989
986.000000	9.077716
987.000000	9.071048
988.000000	9.063003
989.000000	9.057864
990.000000	9.046408
991.000000	9.042240
992.000000	9.039556
993.000000	9.022499
994.000000	9.031472
995.000000	9.040205
996.000000	9.030956
997.000000	9.031594
998.000000	9.043175
999.000000	9.052547
1000.000000	9.058344
1001.000000	9.051636
1002.000000	9.057370
1003.000000	9.071848
1004.000000	9.078889
1005.000000	9.086917
1006.000000	9.108683
1007.000000	9.124504
1008.000000	9.125969
1009.000000	9.127240
1010.000000	9.136015
1011.000000	9.154606
1012.000000	9.168663
1013.000000	9.164024
1014.000000	9.169955
1015.000000	9.179191
1016.000000	9.177944
1017.000000	9.186183
1018.000000	9.195764
1019.000000	9.193287
1020.000000	9.184496
1021.000000	9.186121
1022.000000	9.185594
1023.000000	9.185492
1024.000000	9.184408
1025.000000	9.176845
1026.000000	9.181010
1027.000000	9.186242
1028.000000	9.182477
1029.000000	9.189467
1030.000000	9.190349
1031.000000	9.187618
1032.000000	9.191980
1033.000000	9.185225
1034.000000	9.185274
1035.000000	9.193326
1036.000000	9.197739
1037.000000	9.194634
1038.000000	9.194980
1039.000000	9.201186
1040.000000	9.198142
1041.000000	9.197887
1042.000000	9.204000
1043.000000	9.219507
1044.000000	9.230890
1045.000000	9.240181
1046.000000	9.244412
1047.000000	9.238932
1048.000000	9.246367
1049.000000	9.260565
1050.000000	9.268038
1051.000000	9.271926
1052.000000	9.278877
1053.000000	9.288455
1054.000000	9.294318
1055.000000	9.292297
1056.000000	9.307024
1057.000000	9.317751
1058.000000	9.320476
1059.000000	9.323841
1060.000000	9.323233
1061.000000	9.344050
1062.000000	9.355134
1063.000000	9.360955
1064.000000	9.367903
1065.000000	9.367466
1066.000000	9.379914
1067.000000	9.395757
1068.000000	9.399652
1069.000000	9.421700
1070.000000	9.436301
1071.000000	9.442500
1072.000000	9.440950
1073.000000	9.455050
1074.000000	9.468153
1075.000000	9.477007
1076.000000	9.481551
1077.000000	9.487904
1078.000000	9.505743
1079.000000	9.523809
1080.000000	9.534509
1081.000000	9.542160
1082.000000	9.544663
1083.000000	9.547971
1084.000000	9.554618
1085.000000	9.573923
1086.000000	9.581915
1087.000000	9.593126
1088.000000	9.600838
1089.000000	9.619621
1090.000000	9.633256
1091.000000	9.630311
1092.000000	9.648111
1093.000000	9.651618
1094.000000	9.660244
1095.000000	9.676530
1096.000000	9.684630
1097.000000	9.691644
1098.000000	9.702694
1099.000000	9.721002
1100.000000	9.731994
1101.000000	9.733217
1102.000000	9.735715
1103.000000	9.752579
1104.000000	9.759384
1105.000000	9.780760
1106.000000	9.793688
1107.000000	9.807289
1108.000000	9.815689
1109.000000	9.839325
1110.000000	9.843414
1111.000000	9.850428
1112.000000	9.862569
1113.000000	9.869981
1114.000000	9.875292
1115.000000	9.890226
1116.000000	9.893430
1117.000000	9.898395
1118.000000	9.923936
1119.000000	9.942929
1120.000000	9.956347
1121.000000	9.964575
1122.000000	9.983672
1123.000000	10.007460
1124.000000	10.032013
1125.000000	10.043532
1126.000000	10.055709
1127.000000	10.081205
1128.000000	10.097971
1129.000000	10.117307
1130.000000	10.141327
1131.000000	10.149346
1132.000000	10.152183
1133.000000	10.166573
1134.000000	10.211366
1135.000000	10.264047
1136.000000	10.294339
1137.000000	10.317886
1138.000000	10.329303
1139.000000	10.361988
1140.000000	10.384942
1141.000000	10.404436
1142.000000	10.433139
1143.000000	10.455968
1144.000000	10.465136
1145.000000	10.492048
1146.000000	10.524365
1147.000000	10.563363
1148.000000	10.559628
1149.000000	10.561987
1150.000000	10.564682
1151.000000	10.555763
1152.000000	10.575350
1153.000000	10.572560
1154.000000	10.592873
1155.000000	10.596334
1156.000000	10.613340
1157.000000	10.638910
1158.000000	10.655604
1159.000000	10.662558
1160.000000	10.678709
1161.000000	10.705767
1162.000000	10.709645
1163.000000	10.737644
1164.000000	10.762216
1165.000000	10.787100
1166.000000	10.796787
1167.000000	10.823520
1168.000000	10.839388
1169.000000	10.850994
1170.000000	10.864467
1171.000000	10.885509
1172.000000	10.894985
1173.000000	10.911083
1174.000000	10.925458
1175.000000	10.933796
1176.000000	10.941581
1177.000000	10.934667
1178.000000	10.922417
1179.000000	10.900882
1180.000000	10.901983
1181.000000	10.893409
1182.000000	10.887306
1183.000000	10.877852
1184.000000	10.888995
1185.000000	10.875896
1186.000000	10.885063
1187.000000	10.894139
1188.000000	10.897832
1189.000000	10.901921
1190.000000	10.899937
1191.000000	10.906603
1192.000000	10.901354
1193.000000	10.903256
1194.000000	10.893021
1195.000000	10.890899
1196.000000	10.896808
1197.000000	10.918694
1198.000000	10.924453
1199.000000	10.923831
1200.000000	10.937956
1201.000000	10.943734
1202.000000	10.958350
1203.000000	10.980243
1204.000000	10.999095
1205.000000	11.007725
1206.000000	11.022478
1207.000000	11.039710
1208.000000	11.043935
1209.000000	11.050789
1210.000000	11.068044
1211.000000	11.094151
1212.000000	11.089030
1213.000000	11.086054
1214.000000	11.099682
1215.000000	11.100365
1216.000000	11.097651
1217.000000	11.114637
1218.000000	11.115884
1219.000000	11.117343
1220.000000	11.117596
1221.000000	11.122093
1222.000000	11.122991
1223.000000	11.120925
1224.000000	11.136614
1225.000000	11.135914
1226.000000	11.136095
1227.000000	11.128548
1228.000000	11.129421
1229.000000	11.129313
1230.000000	11.133656
1231.000000	11.138087
1232.000000	11.136531
1233.000000	11.139189
1234.000000	11.126488
1235.000000	11.126786
1236.000000	11.130421
1237.000000	11.129598
1238.000000	11.128730
1239.000000	11.126832
1240.000000	11.132109
1241.000000	11.137759
1242.000000	11.133646
1243.000000	11.139877
1244.000000	11.141095
1245.000000	11.137458
1246.000000	11.143607
1247.000000	11.151886
1248.000000	11.144911
1249.000000	11.152963
1250.000000	11.158474
1251.000000	11.146676
1252.000000	11.143333
1253.000000	11.143964
1254.000000	11.154744
1255.000000	11.157354
1256.000000	11.141856
1257.000000	11.141164
1258.000000	11.146139
1259.000000	11.143482
1260.000000	11.144894
1261.000000	11.154688
1262.000000	11.145920
1263.000000	11.126716
1264.000000	11.123719
1265.000000	11.122389
1266.000000	11.115238
1267.000000	11.113234
1268.000000	11.110991
1269.000000	11.107496
1270.000000	11.100621
1271.000000	11.110831
1272.000000	11.122656
1273.000000	11.117023
1274.000000	11.108554
1275.000000	11.104136
1276.000000	11.109155
1277.000000	11.119929
1278.000000	11.119052
1279.000000	11.118387
1280.000000	11.120292
1281.000000	11.126787
1282.000000	11.131117
1283.000000	11.133532
1284.000000	11.135806
1285.000000	11.138590
1286.000000	11.149133
1287.000000	11.153796
1288.000000	11.156698
1289.000000	11.161594
1290.000000	11.166248
1291.000000	11.177663
1292.000000	11.179969
1293.000000	11.182376
1294.000000	11.199857
1295.000000	11.210376
1296.000000	11.220838
1297.000000	11.223967
1298.000000	11.226645
1299.000000	11.238530
1300.000000	11.251756
1301.000000	11.253709
1302.000000	11.244399
1303.000000	11.244080
1304.000000	11.250048
1305.000000	11.249227
1306.000000	11.236967
1307.000000	11.232253
1308.000000	11.247615
1309.000000	11.255928
1310.000000	11.249809
1311.000000	11.246940
1312.000000	11.248937
1313.000000	11.255515
1314.000000	11.266979
1315.000000	11.274175
1316.000000	11.274717
1317.000000	11.268436
1318.000000	11.273383
1319.000000	11.281500
1320.000000	11.286598
1321.000000	11.284761
1322.000000	11.280905
1323.000000	11.284111
1324.000000	11.287603
1325.000000	11.287208
1326.000000	11.281770
1327.000000	11.284436
1328.000000	11.284078
1329.000000	11.276603
1330.000000	11.271726
1331.000000	11.270148
1332.000000	11.278225
1333.000000	11.279597
1334.000000	11.286836
1335.000000	11.294832
1336.000000	11.291026
1337.000000	11.294708
1338.000000	11.293739
1339.000000	11.287782
1340.000000	11.303721
1341.000000	11.307853
1342.000000	11.313551
1343.000000	11.309764
1344.000000	11.314247
1345.000000	11.316467
1346.000000	11.298154
1347.000000	11.296906
1348.000000	11.301497
1349.000000	11.304228
1350.000000	11.290344
1351.000000	11.257147
1352.000000	11.256594
1353.000000	11.251724
1354.000000	11.252098
1355.000000	11.277402
1356.000000	11.279485
1357.000000	11.269720
1358.000000	11.254857
1359.000000	11.229754
1360.000000	11.220485
1361.000000	11.262076
1362.000000	11.328860
1363.000000	11.287524
1364.000000	11.268370
1365.000000	11.274641
1366.000000	11.259168
1367.000000	11.230990
1368.000000	11.248666
1369.000000	11.245062
1370.000000	11.191920
1371.000000	11.177417
1372.000000	11.163985
1373.000000	11.133807
1374.000000	11.099177
1375.000000	11.102598
1376.000000	11.091086
1377.000000	11.062023
1378.000000	11.037549
1379.000000	11.019093
1380.000000	10.979160
1381.000000	10.961769
1382.000000	10.954329
1383.000000	10.928810
1384.000000	10.876428
1385.000000	10.797428
1386.000000	10.738408
1387.000000	10.699866
1388.000000	10.665800
1389.000000	10.621669
1390.000000	10.554982
1391.000000	10.503402
1392.000000	10.483172
1393.000000	10.448528
1394.000000	10.393411
1395.000000	10.365463
1396.000000	10.344283
1397.000000	10.290393
1398.000000	10.211386
1399.000000	10.133086
1400.000000	10.123366
1401.000000	10.082573
1402.000000	10.010703
1403.000000	9.910577
1404.000000	9.829698
1405.000000	9.792108
1406.000000	9.720924
1407.000000	9.624070
1408.000000	9.568186
1409.000000	9.503658
1410.000000	9.422098
1411.000000	9.357225
1412.000000	9.266782
1413.000000	9.212605
1414.000000	9.178854
1415.000000	9.105162
1416.000000	9.056613
1417.000000	8.970031
1418.000000	8.910150
1419.000000	8.877809
1420.000000	8.827360
1421.000000	8.740817
1422.000000	8.679339
1423.000000	8.639603
1424.000000	8.607103
1425.000000	8.553388
1426.000000	8.497241
1427.000000	8.447059
1428.000000	8.411383
1429.000000	8.364383
1430.000000	8.327518
1431.000000	8.301198
1432.000000	8.273334
1433.000000	8.249062
1434.000000	8.200739
1435.000000	8.175287
1436.000000	8.152718
1437.000000	8.137282
1438.000000	8.100291
1439.000000	8.063597
1440.000000	8.036828
1441.000000	8.030517
1442.000000	7.991660
1443.000000	7.960307
1444.000000	7.938178
1445.000000	7.911000
1446.000000	7.901512
1447.000000	7.880065
1448.000000	7.853351
1449.000000	7.839301
1450.000000	7.821257
1451.000000	7.789667
1452.000000	7.772224
1453.000000	7.743112
1454.000000	7.717748
1455.000000	7.687740
1456.000000	7.682455
1457.000000	7.670715
1458.000000	7.641582
1459.000000	7.639221
1460.000000	7.619016
1461.000000	7.595846
1462.000000	7.576422
1463.000000	7.578794
1464.000000	7.553395
1465.000000	7.532750
1466.000000	7.538961
1467.000000	7.530621
1468.000000	7.513590
1469.000000	7.501808
1470.000000	7.488486
1471.000000	7.487937
1472.000000	7.479434
1473.000000	7.475903
1474.000000	7.464881
1475.000000	7.455409
1476.000000	7.449933
1477.000000	7.446604
1478.000000	7.434191
1479.000000	7.415770
1480.000000	7.418363
1481.000000	7.426174
1482.000000	7.420193
1483.000000	7.422428
1484.000000	7.417626
1485.000000	7.410273
1486.000000	7.405573
1487.000000	7.409650
1488.000000	7.413553
1489.000000	7.421333
1490.000000	7.406840
1491.000000	7.411019
1492.000000	7.407859
1493.000000	7.413056
1494.000000	7.408952
1495.000000	7.409551
1496.000000	7.417623
1497.000000	7.432509
1498.000000	7.442450
1499.000000	7.456950
1500.000000	7.454201
1501.000000	7.474701
1502.000000	7.489005
1503.000000	7.489811
1504.000000	7.509395
1505.000000	7.521057
1506.000000	7.539812
1507.000000	7.550805
1508.000000	7.553113
1509.000000	7.568616
1510.000000	7.581001
1511.000000	7.596813
1512.000000	7.606888
1513.000000	7.634852
1514.000000	7.644134
1515.000000	7.655477
1516.000000	7.667982
1517.000000	7.679635
1518.000000	7.696389
1519.000000	7.713092
1520.000000	7.723916
1521.000000	7.736448
1522.000000	7.749685
1523.000000	7.758484
1524.000000	7.774768
1525.000000	7.777840
1526.000000	7.786220
1527.000000	7.801238
1528.000000	7.819617
1529.000000	7.825526
1530.000000	7.831198
1531.000000	7.843358
1532.000000	7.850107
1533.000000	7.853755
1534.000000	7.860739
1535.000000	7.857945
1536.000000	7.869182
1537.000000	7.881787
1538.000000	7.885386
1539.000000	7.888034
1540.000000	7.892700
1541.000000	7.903517
1542.000000	7.913556
1543.000000	7.917981
1544.000000	7.922318
1545.000000	7.929549
1546.000000	7.934625
1547.000000	7.936315
1548.000000	7.943081
1549.000000	7.956075
1550.000000	7.967303
1551.000000	7.980177
1552.000000	7.993876
1553.000000	7.990536
1554.000000	7.991872
1555.000000	7.994044
1556.000000	7.994692
1557.000000	8.001742
1558.000000	8.007451
1559.000000	8.005176
1560.000000	8.006112
1561.000000	7.994804
1562.000000	7.992321
1563.000000	8.003089
1564.000000	7.996851
1565.000000	7.989030
1566.000000	7.984958
1567.000000	7.981339
1568.000000	7.982292
1569.000000	7.981502
1570.000000	7.972331
1571.000000	7.973992
1572.000000	7.983385
1573.000000	7.990102
1574.000000	7.984553
1575.000000	7.980652
1576.000000	7.980238
1577.000000	7.989022
1578.000000	7.997343
1579.000000	7.999782
1580.000000	8.005817
1581.000000	8.018322
1582.000000	8.022281
1583.000000	8.030087
1584.000000	8.044825
1585.000000	8.047895
1586.000000	8.061023
1587.000000	8.077276
1588.000000	8.091738
1589.000000	8.096518
1590.000000	8.105225
1591.000000	8.122933
1592.000000	8.146542
1593.000000	8.162478
1594.000000	8.174821
1595.000000	8.192944
1596.000000	8.212851
1597.000000	8.224201
1598.000000	8.249567
1599.000000	8.260887
1600.000000	8.270776
1601.000000	8.291476
1602.000000	8.310148
1603.000000	8.337311
1604.000000	8.359834
1605.000000	8.381973
1606.000000	8.392953
1607.000000	8.418681
1608.000000	8.436009
1609.000000	8.459473
1610.000000	8.478954
1611.000000	8.486587
1612.000000	8.497621
1613.000000	8.519139
1614.000000	8.542610
1615.000000	8.559306
1616.000000	8.565933
1617.000000	8.580554
1618.000000	8.598788
1619.000000	8.607913
1620.000000	8.617445
1621.000000	8.633302
1622.000000	8.647633
1623.000000	8.663760
1624.000000	8.684772
1625.000000	8.705493
1626.000000	8.722008
1627.000000	8.728717
1628.000000	8.750714
1629.000000	8.765015
1630.000000	8.791805
1631.000000	8.803608
1632.000000	8.815066
1633.000000	8.826165
1634.000000	8.845570
1635.000000	8.860678
1636.000000	8.888023
1637.000000	8.898063
1638.000000	8.907881
1639.000000	8.916965
1640.000000	8.927113
1641.000000	8.923981
1642.000000	8.937821
1643.000000	8.946409
1644.000000	8.959678
1645.000000	8.971677
1646.000000	8.989326
1647.000000	9.001322
1648.000000	9.011124
1649.000000	9.025788
1650.000000	9.032592
1651.000000	9.043913
1652.000000	9.060982
1653.000000	9.065184
1654.000000	9.081887
1655.000000	9.112216
1656.000000	9.128606
1657.000000	9.148892
1658.000000	9.161306
1659.000000	9.156756
1660.000000	9.173149
1661.000000	9.189991
1662.000000	9.201036
1663.000000	9.215506
1664.000000	9.235462
1665.000000	9.255774
1666.000000	9.262747
1667.000000	9.254994
1668.000000	9.234138
1669.000000	9.218838
1670.000000	9.190700
1671.000000	9.119335
1672.000000	9.091677
1673.000000	9.014971
1674.000000	8.964989
1675.000000	8.896451
1676.000000	8.798880
1677.000000	8.723389
1678.000000	8.648650
1679.000000	8.526131
1680.000000	8.409575
1681.000000	8.335140
1682.000000	8.249219
1683.000000	8.183067
1684.000000	8.152288
1685.000000	8.099927
1686.000000	8.064882
1687.000000	8.026825
1688.000000	7.975707
1689.000000	7.911815
1690.000000	7.820010
1691.000000	7.778151
1692.000000	7.728602
1693.000000	7.710173
1694.000000	7.682163
1695.000000	7.675497
1696.000000	7.709868
1697.000000	7.731445
1698.000000	7.773011
1699.000000	7.839578
1700.000000	7.880287
1701.000000	7.927263
1702.000000	7.963861
1703.000000	8.008854
1704.000000	8.035164
1705.000000	8.084574
1706.000000	8.100065
1707.000000	8.111191
1708.000000	8.137073
1709.000000	8.138435
1710.000000	8.148966
1711.000000	8.150095
1712.000000	8.144637
1713.000000	8.132765
1714.000000	8.111877
1715.000000	8.088914
1716.000000	8.079546
1717.000000	8.069317
1718.000000	8.059639
1719.000000	8.033131
1720.000000	8.016544
1721.000000	7.986812
1722.000000	7.980164
1723.000000	7.968191
1724.000000	7.943915
1725.000000	7.918514
1726.000000	7.888700
1727.000000	7.853970
1728.000000	7.825967
1729.000000	7.777400
1730.000000	7.736994
1731.000000	7.709545
1732.000000	7.680695
1733.000000	7.659269
1734.000000	7.658869
1735.000000	7.659310
1736.000000	7.676721
1737.000000	7.703034
1738.000000	7.741450
1739.000000	7.777225
1740.000000	7.821143
1741.000000	7.868804
1742.000000	7.906851
1743.000000	7.952172
1744.000000	7.974880
1745.000000	8.016083
1746.000000	8.055641
1747.000000	8.074781
1748.000000	8.087937
1749.000000	8.103938
1750.000000	8.126192
1751.000000	8.136769
1752.000000	8.138331
1753.000000	8.130994
1754.000000	8.126953
1755.000000	8.111149
1756.000000	8.089102
1757.000000	8.066987
1758.000000	8.053259
1759.000000	8.034232
1760.000000	8.013036
1761.000000	7.995022
1762.000000	7.997822
1763.000000	7.985331
1764.000000	7.983163
1765.000000	7.985682
1766.000000	7.999119
1767.000000	8.010387
1768.000000	8.021174
1769.000000	8.044213
1770.000000	8.057190
1771.000000	8.077735
1772.000000	8.107679
1773.000000	8.124682
1774.000000	8.142759
1775.000000	8.171140
1776.000000	8.193681
1777.000000	8.212279
1778.000000	8.218596
1779.000000	8.230623
1780.000000	8.241843
1781.000000	8.264760
1782.000000	8.278506
1783.000000	8.301178
1784.000000	8.319290
1785.000000	8.316513
1786.000000	8.335038
1787.000000	8.342448
1788.000000	8.357793
1789.000000	8.373409
1790.000000	8.374019
1791.000000	8.386995
1792.000000	8.405257
1793.000000	8.419160
1794.000000	8.430713
1795.000000	8.430487
1796.000000	8.453851
1797.000000	8.465449
1798.000000	8.473779
1799.000000	8.479628
1800.000000	8.511013
1801.000000	8.527944
1802.000000	8.537559
1803.000000	8.551553
1804.000000	8.567219
1805.000000	8.580081
1806.000000	8.590411
1807.000000	8.603805
1808.000000	8.618132
1809.000000	8.623546
1810.000000	8.637449
1811.000000	8.656868
1812.000000	8.655632
1813.000000	8.650221
1814.000000	8.654594
1815.000000	8.666758
1816.000000	8.670207
1817.000000	8.678277
1818.000000	8.676215
1819.000000	8.669938
1820.000000	8.675569
1821.000000	8.695164
1822.000000	8.700922
1823.000000	8.685808
1824.000000	8.678440
1825.000000	8.691053
1826.000000	8.700519
1827.000000	8.702836
1828.000000	8.719230
1829.000000	8.731173
1830.000000	8.742435
1831.000000	8.750264
1832.000000	8.751830
1833.000000	8.758795
1834.000000	8.758408
1835.000000	8.759240
1836.000000	8.762480
1837.000000	8.780340
1838.000000	8.799635
1839.000000	8.797618
1840.000000	8.798864
1841.000000	8.823382
1842.000000	8.841822
1843.000000	8.830485
1844.000000	8.817338
1845.000000	8.810776
1846.000000	8.803786
1847.000000	8.817057
1848.000000	8.843838
1849.000000	8.870350
1850.000000	8.862378
1851.000000	8.832512
1852.000000	8.820999
1853.000000	8.830385
1854.000000	8.837229
1855.000000	8.831172
1856.000000	8.829860
1857.000000	8.811574
1858.000000	8.794902
1859.000000	8.787433
1860.000000	8.784423
1861.000000	8.764076
1862.000000	8.747307
1863.000000	8.722171
1864.000000	8.680960
1865.000000	8.649211
1866.000000	8.617681
1867.000000	8.581043
1868.000000	8.548857
1869.000000	8.503159
1870.000000	8.461348
1871.000000	8.425202
1872.000000	8.373902
1873.000000	8.326314
1874.000000	8.259457
1875.000000	8.176117
1876.000000	8.087267
1877.000000	7.991470
1878.000000	7.897536
1879.000000	7.802979
1880.000000	7.695576
1881.000000	7.558610
1882.000000	7.452640
1883.000000	7.317320
1884.000000	7.189016
1885.000000	7.077593
1886.000000	6.982676
1887.000000	6.878848
1888.000000	6.787080
1889.000000	6.679181
1890.000000	6.592935
1891.000000	6.497417
1892.000000	6.396496
1893.000000	6.303765
1894.000000	6.205967
1895.000000	6.130268
1896.000000	6.056088
1897.000000	5.958456
1898.000000	5.843175
1899.000000	5.754467
1900.000000	5.638489
1901.000000	5.528820
1902.000000	5.438021
1903.000000	5.332788
1904.000000	5.237719
1905.000000	5.118400
1906.000000	5.007548
1907.000000	4.920581
1908.000000	4.821591
1909.000000	4.743172
1910.000000	4.673820
1911.000000	4.592838
1912.000000	4.496012
1913.000000	4.405558
1914.000000	4.333527
1915.000000	4.249925
1916.000000	4.196549
1917.000000	4.137816
1918.000000	4.064281
1919.000000	4.013776
1920.000000	3.953870
1921.000000	3.882291
1922.000000	3.812432
1923.000000	3.756952
1924.000000	3.733903
1925.000000	3.696956
1926.000000	3.649832
1927.000000	3.612641
1928.000000	3.585501
1929.000000	3.547266
1930.000000	3.511528
1931.000000	3.501894
1932.000000	3.472905
1933.000000	3.458362
1934.000000	3.446010
1935.000000	3.444696
1936.000000	3.435242
1937.000000	3.418609
1938.000000	3.415570
1939.000000	3.421024
1940.000000	3.417212
1941.000000	3.415599
1942.000000	3.430752
1943.000000	3.448829
1944.000000	3.449895
1945.000000	3.466794
1946.000000	3.471508
1947.000000	3.490611
1948.000000	3.522278
1949.000000	3.519090
1950.000000	3.552475
1951.000000	3.569065
1952.000000	3.587844
1953.000000	3.617964
1954.000000	3.638840
1955.000000	3.653002
1956.000000	3.668327
1957.000000	3.686623
1958.000000	3.717588
1959.000000	3.755990
1960.000000	3.775546
1961.000000	3.793031
1962.000000	3.824891
1963.000000	3.844661
1964.000000	3.868862
1965.000000	3.873253
1966.000000	3.920280
1967.000000	3.948767
1968.000000	3.940037
1969.000000	3.985696
1970.000000	4.007198
1971.000000	4.025629
1972.000000	4.060310
1973.000000	4.089166
1974.000000	4.130514
1975.000000	4.149228
1976.000000	4.160546
1977.000000	4.188159
1978.000000	4.230312
1979.000000	4.236084
1980.000000	4.286594
1981.000000	4.312477
1982.000000	4.349781
1983.000000	4.369026
1984.000000	4.408955
1985.000000	4.428918
1986.000000	4.470145
1987.000000	4.479488
1988.000000	4.511403
1989.000000	4.552739
1990.000000	4.559546
1991.000000	4.583207
1992.000000	4.620472
1993.000000	4.635160
1994.000000	4.665972
1995.000000	4.691385
1996.000000	4.709210
1997.000000	4.726106
1998.000000	4.741045
1999.000000	4.771408
2000.000000	4.794282
2001.000000	4.779076
2002.000000	4.804201
2003.000000	4.822910
2004.000000	4.827825
2005.000000	4.831160
2006.000000	4.849290
2007.000000	4.857746
2008.000000	4.861430
2009.000000	4.872084
2010.000000	4.867263
2011.000000	4.873395
2012.000000	4.877684
2013.000000	4.875794
2014.000000	4.875910
2015.000000	4.868316
2016.000000	4.864386
2017.000000	4.854902
2018.000000	4.838353
2019.000000	4.836307
2020.000000	4.824884
2021.000000	4.808271
2022.000000	4.807933
2023.000000	4.787863
2024.000000	4.775794
2025.000000	4.762490
2026.000000	4.734362
2027.000000	4.726883
2028.000000	4.698447
2029.000000	4.681987
2030.000000	4.647429
2031.000000	4.629882
2032.000000	4.598090
2033.000000	4.577147
2034.000000	4.544422
2035.000000	4.505773
2036.000000	4.487337
2037.000000	4.451636
2038.000000	4.412087
2039.000000	4.392197
2040.000000	4.358494
2041.000000	4.305771
2042.000000	4.269605
2043.000000	4.244770
2044.000000	4.216151
2045.000000	4.180073
2046.000000	4.144973
2047.000000	4.101061
2048.000000	4.072478
2049.000000	4.058769
2050.000000	4.026391
2051.000000	4.000991
2052.000000	3.986452
2053.000000	3.970422
2054.000000	3.954913
2055.000000	3.945287
2056.000000	3.948962
2057.000000	3.953241
2058.000000	3.949309
2059.000000	3.956582
2060.000000	3.973705
2061.000000	3.966319
2062.000000	3.973458
2063.000000	3.995658
2064.000000	4.014200
2065.000000	4.024744
2066.000000	4.041345
2067.000000	4.052337
2068.000000	4.057161
2069.000000	4.071937
2070.000000	4.096528
2071.000000	4.107699
2072.000000	4.136329
2073.000000	4.155014
2074.000000	4.168283
2075.000000	4.179849
2076.000000	4.197379
2077.000000	4.208336
2078.000000	4.232864
2079.000000	4.244447
2080.000000	4.253484
2081.000000	4.276303
2082.000000	4.291288
2083.000000	4.308742
2084.000000	4.317092
2085.000000	4.320373
2086.000000	4.337294
2087.000000	4.356082
2088.000000	4.367092
2089.000000	4.386507
2090.000000	4.406291
2091.000000	4.414390
2092.000000	4.425875
2093.000000	4.443932
2094.000000	4.451794
2095.000000	4.457373
2096.000000	4.469492
2097.000000	4.473963
2098.000000	4.478749
2099.000000	4.492754
2100.000000	4.498311
2101.000000	4.502991
2102.000000	4.518325
2103.000000	4.521587
2104.000000	4.523449
2105.000000	4.532441
2106.000000	4.538105
2107.000000	4.540815
2108.000000	4.543651
2109.000000	4.551926
2110.000000	4.563470
2111.000000	4.574676
2112.000000	4.578459
2113.000000	4.582301
2114.000000	4.587731
2115.000000	4.587652
2116.000000	4.589119
2117.000000	4.589970
2118.000000	4.591000
2119.000000	4.585841
2120.000000	4.582498
2121.000000	4.578128
2122.000000	4.565630
2123.000000	4.556054
2124.000000	4.551217
2125.000000	4.537195
2126.000000	4.518631
2127.000000	4.496157
2128.000000	4.482692
2129.000000	4.476313
2130.000000	4.463561
2131.000000	4.444343
2132.000000	4.418495
2133.000000	4.398211
2134.000000	4.379995
2135.000000	4.355985
2136.000000	4.339372
2137.000000	4.321018
2138.000000	4.309535
2139.000000	4.297451
2140.000000	4.277676
2141.000000	4.257827
2142.000000	4.236514
2143.000000	4.216796
2144.000000	4.202101
2145.000000	4.175485
2146.000000	4.153980
2147.000000	4.144477
2148.000000	4.130153
2149.000000	4.110020
2150.000000	4.093092
2151.000000	4.069106
2152.000000	4.063043
2153.000000	4.052520
2154.000000	4.025756
2155.000000	3.999187
2156.000000	3.995354
2157.000000	3.989394
2158.000000	3.960078
2159.000000	3.938534
2160.000000	3.931531
2161.000000	3.927289
2162.000000	3.923125
2163.000000	3.908838
2164.000000	3.900199
2165.000000	3.908869
2166.000000	3.905119
2167.000000	3.892425
2168.000000	3.890784
2169.000000	3.885440
2170.000000	3.880338
2171.000000	3.875432
2172.000000	3.890803
2173.000000	3.882625
2174.000000	3.887063
2175.000000	3.895563
2176.000000	3.896048
2177.000000	3.910981
2178.000000	3.922080
2179.000000	3.920151
2180.000000	3.922498
2181.000000	3.922417
2182.000000	3.939918
2183.000000	3.945381
2184.000000	3.945591
2185.000000	3.952816
2186.000000	3.953136
2187.000000	3.971060
2188.000000	3.975446
2189.000000	3.974569
2190.000000	3.971731
2191.000000	3.982581
2192.000000	4.006647
2193.000000	3.998090
2194.000000	4.021354
2195.000000	4.031618
2196.000000	4.038756
2197.000000	4.025956
2198.000000	4.037803
2199.000000	4.042104
2200.000000	4.057409
2201.000000	4.054038
2202.000000	4.078545
2203.000000	4.079017
2204.000000	4.090345
2205.000000	4.081616
2206.000000	4.105452
2207.000000	4.130049
2208.000000	4.151773
2209.000000	4.153040
2210.000000	4.162396
2211.000000	4.171833
2212.000000	4.199062
2213.000000	4.196555
2214.000000	4.218950
2215.000000	4.240836
2216.000000	4.260255
2217.000000	4.280307
2218.000000	4.282878
2219.000000	4.305573
2220.000000	4.330188
2221.000000	4.354031
2222.000000	4.360878
2223.000000	4.383788
2224.000000	4.390053
2225.000000	4.407467
2226.000000	4.423305
2227.000000	4.419003
2228.000000	4.435131
2229.000000	4.453636
2230.000000	4.448206
2231.000000	4.457298
2232.000000	4.439272
2233.000000	4.453395
2234.000000	4.426226
2235.000000	4.428934
2236.000000	4.401471
2237.000000	4.391865
2238.000000	4.380713
2239.000000	4.361874
2240.000000	4.321442
2241.000000	4.304714
2242.000000	4.272600
2243.000000	4.243168
2244.000000	4.210206
2245.000000	4.155507
2246.000000	4.113958
2247.000000	4.074653
2248.000000	3.992259
2249.000000	3.954676
2250.000000	3.877482
2251.000000	3.812281
2252.000000	3.752294
2253.000000	3.669184
2254.000000	3.594845
2255.000000	3.509012
2256.000000	3.430090
2257.000000	3.365222
2258.000000	3.260995
2259.000000	3.178704
2260.000000	3.118414
2261.000000	3.040909
2262.000000	2.986136
2263.000000	2.913515
2264.000000	2.869057
2265.000000	2.823805
2266.000000	2.784224
2267.000000	2.735845
2268.000000	2.714286
2269.000000	2.711111
2270.000000	2.689680
2271.000000	2.678195
2272.000000	2.672353
2273.000000	2.681292
2274.000000	2.688191
2275.000000	2.682763
2276.000000	2.696966
2277.000000	2.709338
2278.000000	2.728992
2279.000000	2.748148
2280.000000	2.759800
2281.000000	2.758572
2282.000000	2.780856
2283.000000	2.791353
2284.000000	2.790709
2285.000000	2.800575
2286.000000	2.815405
2287.000000	2.809514
2288.000000	2.793898
2289.000000	2.791123
2290.000000	2.784255
2291.000000	2.776604
2292.000000	2.755678
2293.000000	2.736791
2294.000000	2.704758
2295.000000	2.674612
2296.000000	2.643423
2297.000000	2.602630
2298.000000	2.564459
2299.000000	2.536283
2300.000000	2.508087
2301.000000	2.472921
2302.000000	2.438859
2303.000000	2.418879
2304.000000	2.403840
2305.000000	2.406407
2306.000000	2.391068
2307.000000	2.390530
2308.000000	2.404506
2309.000000	2.419501
2310.000000	2.444156
2311.000000	2.454810
2312.000000	2.496435
2313.000000	2.528927
2314.000000	2.557498
2315.000000	2.582843
2316.000000	2.605942
2317.000000	2.648573
2318.000000	2.687563
2319.000000	2.728623
2320.000000	2.767906
2321.000000	2.788287
2322.000000	2.799278
2323.000000	2.827345
2324.000000	2.859151
2325.000000	2.879206
2326.000000	2.899896
2327.000000	2.916570
2328.000000	2.920020
2329.000000	2.918544
2330.000000	2.939755
2331.000000	2.959677
2332.000000	2.953477
2333.000000	2.952637
2334.000000	2.944141
2335.000000	2.934923
2336.000000	2.934919
2337.000000	2.927574
2338.000000	2.913898
2339.000000	2.909183
2340.000000	2.890282
2341.000000	2.869297
2342.000000	2.852547
2343.000000	2.835680
2344.000000	2.816326
2345.000000	2.778725
2346.000000	2.757489
2347.000000	2.738595
2348.000000	2.722173
2349.000000	2.717856
2350.000000	2.698293
2351.000000	2.682930
2352.000000	2.686101
2353.000000	2.681343
2354.000000	2.682484
2355.000000	2.681427
2356.000000	2.691687
2357.000000	2.695183
2358.000000	2.702701
2359.000000	2.725699
2360.000000	2.746470
2361.000000	2.754857
2362.000000	2.765235
2363.000000	2.784770
2364.000000	2.794527
2365.000000	2.806657
2366.000000	2.814396
2367.000000	2.820178
2368.000000	2.836963
2369.000000	2.844161
2370.000000	2.844296
2371.000000	2.841827
2372.000000	2.834526
2373.000000	2.841778
2374.000000	2.849109
2375.000000	2.852435
2376.000000	2.848308
2377.000000	2.845793
2378.000000	2.837874
2379.000000	2.836687
2380.000000	2.839290
2381.000000	2.838906
2382.000000	2.829359
2383.000000	2.820769
2384.000000	2.818049
2385.000000	2.811391
2386.000000	2.804513
2387.000000	2.795036
2388.000000	2.787982
2389.000000	2.776290
2390.000000	2.773715
2391.000000	2.763208
2392.000000	2.749169
2393.000000	2.721066
2394.000000	2.699063
2395.000000	2.701599
2396.000000	2.698955
2397.000000	2.681008
2398.000000	2.665215
2399.000000	2.648102
2400.000000	2.628955
2401.000000	2.609936
2402.000000	2.600735
2403.000000	2.588063
2404.000000	2.572184
2405.000000	2.550189
2406.000000	2.531022
2407.000000	2.532034
2408.000000	2.534968
2409.000000	2.505511
2410.000000	2.487788
2411.000000	2.477139
2412.000000	2.465592
2413.000000	2.443327
2414.000000	2.417331
2415.000000	2.407132
2416.000000	2.401412
2417.000000	2.393084
2418.000000	2.387098
2419.000000	2.359984
2420.000000	2.330904
2421.000000	2.289700
2422.000000	2.267316
2423.000000	2.253014
2424.000000	2.258032
2425.000000	2.240199
2426.000000	2.220326
2427.000000	2.225174
2428.000000	2.212323
2429.000000	2.193765
2430.000000	2.176267
2431.000000	2.160184
2432.000000	2.156756
2433.000000	2.142151
2434.000000	2.120263
2435.000000	2.117140
2436.000000	2.098207
2437.000000	2.062275
2438.000000	2.059087
2439.000000	2.044701
2440.000000	2.011086
2441.000000	1.986630
2442.000000	1.975226
2443.000000	1.953407
2444.000000	1.935837
2445.000000	1.933534
2446.000000	1.901102
2447.000000	1.878093
2448.000000	1.855161
2449.000000	1.849438
2450.000000	1.819590
2451.000000	1.794001
2452.000000	1.754481
2453.000000	1.753651
2454.000000	1.731179
2455.000000	1.704987
2456.000000	1.700912
2457.000000	1.683690
2458.000000	1.674448
2459.000000	1.662055
2460.000000	1.647164
2461.000000	1.625910
2462.000000	1.618530
2463.000000	1.623696
2464.000000	1.617995
2465.000000	1.589665
2466.000000	1.574854
2467.000000	1.595771
2468.000000	1.604322
2469.000000	1.629683
2470.000000	1.595346
2471.000000	1.583354
2472.000000	1.577368
2473.000000	1.594135
2474.000000	1.563858
2475.000000	1.571202
2476.000000	1.559252
2477.000000	1.584628
2478.000000	1.566684
2479.000000	1.565448
2480.000000	1.584560
2481.000000	1.555161
2482.000000	1.552651
2483.000000	1.554323
2484.000000	1.576295
2485.000000	1.598688
2486.000000	1.534928
2487.000000	1.516663
2488.000000	1.543042
2489.000000	1.609944
2490.000000	1.518779
2491.000000	1.579892
2492.000000	1.587905
2493.000000	1.558651
2494.000000	1.526345
2495.000000	1.620799
2496.000000	1.479067
2497.000000	1.579178
2498.000000	1.547917
2499.000000	1.547144
2500.000000	1.626398
