PE UV       SUBTECH     SPECTRUM    ASCII       PEDS        4.00        
   -1
CICIMAUCR0101-3.Sample.ASC
24/04/11
14:27:02.00
24/04/11
14:27:02.00
Vinicio Soto Monge
C. resplendens
250,000000
1
Lambda 1050
1050L1511233
PerkinElmer UV WinLab 6.3.2.0749 / 2.02.05 Lambda 900 UV/VIS/NIR, Aug  7 2015 09:38:08

0
0
3350/2 860,8/2
0
0
UV/VIS
1
1
1
DoubleDePol,CommonBeamDepol,RBeamAtt,SBeamAtt,60mm sphere, WB InGaAs Detector
0
0
0
0
Program
Program
3350/2 860,8/2
3350/0,2 860,8/0,2
3350/0,2 860,8/0,2
0
15.00
 
 
 
0
 
860,8
319,2
860,8
Front
100
on
S:100 R:100
0
0
0
0
 
0
 
 
 
0
 
 
0
0
0
0
0
 
 
 
 
0
0


0
0
#HDR
-1
-1
#GR
nm
%R
1.0
0.0
2400,000000
-1,000000
2151
8
92,537900
5,932000
#DATA
250.000000	0.571702
251.000000	0.583760
252.000000	0.573823
253.000000	0.542018
254.000000	0.567484
255.000000	0.549109
256.000000	0.555896
257.000000	0.570719
258.000000	0.549222
259.000000	0.549967
260.000000	0.530017
261.000000	0.529427
262.000000	0.550147
263.000000	0.509955
264.000000	0.510675
265.000000	0.495679
266.000000	0.463186
267.000000	0.511823
268.000000	0.506799
269.000000	0.514308
270.000000	0.520707
271.000000	0.448608
272.000000	0.470135
273.000000	0.498058
274.000000	0.498048
275.000000	0.457574
276.000000	0.470589
277.000000	0.462936
278.000000	0.489381
279.000000	0.494198
280.000000	0.461283
281.000000	0.451059
282.000000	0.473102
283.000000	0.468435
284.000000	0.507216
285.000000	0.452873
286.000000	0.475011
287.000000	0.450366
288.000000	0.467818
289.000000	0.484735
290.000000	0.466707
291.000000	0.476641
292.000000	0.473835
293.000000	0.494047
294.000000	0.472368
295.000000	0.459341
296.000000	0.430139
297.000000	0.420605
298.000000	0.463703
299.000000	0.485306
300.000000	0.460574
301.000000	0.462486
302.000000	0.488677
303.000000	0.469019
304.000000	0.444357
305.000000	0.446151
306.000000	0.460429
307.000000	0.455895
308.000000	0.430284
309.000000	0.435851
310.000000	0.465865
311.000000	0.452854
312.000000	0.420717
313.000000	0.444132
314.000000	0.428614
315.000000	0.420219
316.000000	0.557606
317.000000	0.577612
318.000000	0.760652
319.000000	0.584528
320.000000	0.410713
321.000000	0.489822
322.000000	0.345355
323.000000	0.470222
324.000000	0.393915
325.000000	0.337486
326.000000	0.292619
327.000000	0.390666
328.000000	0.375048
329.000000	0.374241
330.000000	0.426701
331.000000	0.459984
332.000000	0.328256
333.000000	0.313854
334.000000	0.322063
335.000000	0.350244
336.000000	0.364275
337.000000	0.361793
338.000000	0.378609
339.000000	0.428726
340.000000	0.405567
341.000000	0.467148
342.000000	0.394508
343.000000	0.363760
344.000000	0.379127
345.000000	0.404019
346.000000	0.451403
347.000000	0.503096
348.000000	0.477147
349.000000	0.414573
350.000000	0.364575
351.000000	0.371413
352.000000	0.335235
353.000000	0.424536
354.000000	0.445163
355.000000	0.461428
356.000000	0.387054
357.000000	0.354697
358.000000	0.373289
359.000000	0.421536
360.000000	0.402707
361.000000	0.354925
362.000000	0.389145
363.000000	0.377590
364.000000	0.387320
365.000000	0.473626
366.000000	0.466273
367.000000	0.418481
368.000000	0.430700
369.000000	0.380508
370.000000	0.407098
371.000000	0.416073
372.000000	0.390765
373.000000	0.400941
374.000000	0.418435
375.000000	0.419819
376.000000	0.325584
377.000000	0.323443
378.000000	0.318262
379.000000	0.290758
380.000000	0.288356
381.000000	0.288142
382.000000	0.261360
383.000000	0.236529
384.000000	0.212309
385.000000	0.191534
386.000000	0.185918
387.000000	0.162101
388.000000	0.135884
389.000000	0.112758
390.000000	0.075067
391.000000	0.041162
392.000000	0.022030
393.000000	0.011132
394.000000	0.037737
395.000000	0.073664
396.000000	0.100801
397.000000	0.139997
398.000000	0.167286
399.000000	0.206002
400.000000	0.224507
401.000000	0.256571
402.000000	0.291707
403.000000	0.311539
404.000000	0.325106
405.000000	0.355979
406.000000	0.378856
407.000000	0.393225
408.000000	0.405277
409.000000	0.418396
410.000000	0.426354
411.000000	0.426554
412.000000	0.427029
413.000000	0.408663
414.000000	0.413318
415.000000	0.405535
416.000000	0.389803
417.000000	0.377368
418.000000	0.371620
419.000000	0.359070
420.000000	0.337761
421.000000	0.321909
422.000000	0.307202
423.000000	0.287078
424.000000	0.267823
425.000000	0.235149
426.000000	0.225905
427.000000	0.221363
428.000000	0.212011
429.000000	0.205739
430.000000	0.192342
431.000000	0.187570
432.000000	0.180102
433.000000	0.177480
434.000000	0.200288
435.000000	0.222322
436.000000	0.231396
437.000000	0.231521
438.000000	0.268053
439.000000	0.291035
440.000000	0.302732
441.000000	0.325108
442.000000	0.350494
443.000000	0.398509
444.000000	0.408132
445.000000	0.442002
446.000000	0.481964
447.000000	0.516504
448.000000	0.522356
449.000000	0.545993
450.000000	0.561619
451.000000	0.582288
452.000000	0.599793
453.000000	0.603466
454.000000	0.622668
455.000000	0.640305
456.000000	0.627234
457.000000	0.636632
458.000000	0.647664
459.000000	0.634273
460.000000	0.657436
461.000000	0.690947
462.000000	0.697052
463.000000	0.713581
464.000000	0.755169
465.000000	0.804619
466.000000	0.816299
467.000000	0.864992
468.000000	0.898444
469.000000	0.939879
470.000000	0.978793
471.000000	1.011414
472.000000	1.031689
473.000000	1.062698
474.000000	1.064873
475.000000	1.058000
476.000000	1.045760
477.000000	1.009290
478.000000	0.967605
479.000000	0.907199
480.000000	0.846524
481.000000	0.769794
482.000000	0.682857
483.000000	0.586896
484.000000	0.519802
485.000000	0.414699
486.000000	0.369086
487.000000	0.323182
488.000000	0.285805
489.000000	0.259349
490.000000	0.253344
491.000000	0.238511
492.000000	0.238177
493.000000	0.243435
494.000000	0.270544
495.000000	0.290913
496.000000	0.345678
497.000000	0.428455
498.000000	0.534869
499.000000	0.645222
500.000000	0.778287
501.000000	0.932132
502.000000	1.104667
503.000000	1.268202
504.000000	1.438600
505.000000	1.606764
506.000000	1.792681
507.000000	1.946504
508.000000	2.104733
509.000000	2.258962
510.000000	2.373482
511.000000	2.503308
512.000000	2.582982
513.000000	2.638808
514.000000	2.703075
515.000000	2.721536
516.000000	2.739670
517.000000	2.730566
518.000000	2.685929
519.000000	2.639038
520.000000	2.568143
521.000000	2.472168
522.000000	2.349241
523.000000	2.227040
524.000000	2.093644
525.000000	1.977087
526.000000	1.855301
527.000000	1.720581
528.000000	1.619193
529.000000	1.509601
530.000000	1.425290
531.000000	1.343185
532.000000	1.303343
533.000000	1.270844
534.000000	1.225166
535.000000	1.193997
536.000000	1.194122
537.000000	1.190114
538.000000	1.165982
539.000000	1.178895
540.000000	1.193230
541.000000	1.220728
542.000000	1.230652
543.000000	1.229139
544.000000	1.240172
545.000000	1.258817
546.000000	1.271664
547.000000	1.310121
548.000000	1.321300
549.000000	1.381127
550.000000	1.404255
551.000000	1.438366
552.000000	1.503435
553.000000	1.547623
554.000000	1.605813
555.000000	1.630754
556.000000	1.654737
557.000000	1.720336
558.000000	1.746234
559.000000	1.796039
560.000000	1.846411
561.000000	1.916026
562.000000	1.926000
563.000000	1.954375
564.000000	1.974102
565.000000	1.996105
566.000000	2.031348
567.000000	2.054122
568.000000	2.066146
569.000000	2.074310
570.000000	2.070572
571.000000	2.111915
572.000000	2.132338
573.000000	2.160286
574.000000	2.159463
575.000000	2.184780
576.000000	2.235380
577.000000	2.232630
578.000000	2.287549
579.000000	2.301076
580.000000	2.330537
581.000000	2.379033
582.000000	2.432305
583.000000	2.417184
584.000000	2.463749
585.000000	2.489707
586.000000	2.544004
587.000000	2.562214
588.000000	2.582527
589.000000	2.637496
590.000000	2.646178
591.000000	2.694595
592.000000	2.728386
593.000000	2.787327
594.000000	2.835803
595.000000	2.902790
596.000000	2.973896
597.000000	3.050263
598.000000	3.121403
599.000000	3.188108
600.000000	3.272271
601.000000	3.359447
602.000000	3.504493
603.000000	3.562756
604.000000	3.656080
605.000000	3.766348
606.000000	3.823310
607.000000	3.892388
608.000000	3.935500
609.000000	3.959713
610.000000	4.009438
611.000000	4.014791
612.000000	3.986599
613.000000	3.960353
614.000000	3.926711
615.000000	3.841600
616.000000	3.785968
617.000000	3.722959
618.000000	3.577416
619.000000	3.440813
620.000000	3.315548
621.000000	3.144987
622.000000	2.935804
623.000000	2.723005
624.000000	2.502803
625.000000	2.253047
626.000000	2.014530
627.000000	1.830313
628.000000	1.687108
629.000000	1.625618
630.000000	1.678951
631.000000	1.779265
632.000000	1.968882
633.000000	2.193209
634.000000	2.396590
635.000000	2.597454
636.000000	2.789975
637.000000	2.920774
638.000000	3.032293
639.000000	3.084196
640.000000	3.108687
641.000000	3.074322
642.000000	3.016330
643.000000	2.936322
644.000000	2.828897
645.000000	2.685468
646.000000	2.535198
647.000000	2.376034
648.000000	2.214213
649.000000	2.021805
650.000000	1.856692
651.000000	1.718176
652.000000	1.571629
653.000000	1.440908
654.000000	1.379668
655.000000	1.329256
656.000000	1.317861
657.000000	1.303361
658.000000	1.319017
659.000000	1.365505
660.000000	1.428054
661.000000	1.453460
662.000000	1.456390
663.000000	1.504507
664.000000	1.517915
665.000000	1.584208
666.000000	1.625573
667.000000	1.599457
668.000000	1.619541
669.000000	1.684499
670.000000	1.739272
671.000000	1.757389
672.000000	1.790092
673.000000	1.848498
674.000000	1.859810
675.000000	1.841464
676.000000	1.842814
677.000000	1.827482
678.000000	1.825757
679.000000	1.834330
680.000000	1.815764
681.000000	1.795077
682.000000	1.783600
683.000000	1.775492
684.000000	1.756501
685.000000	1.765657
686.000000	1.723151
687.000000	1.731710
688.000000	1.781710
689.000000	1.781641
690.000000	1.781167
691.000000	1.766611
692.000000	1.770402
693.000000	1.810686
694.000000	1.848390
695.000000	1.836740
696.000000	1.938893
697.000000	1.983038
698.000000	1.968251
699.000000	1.981266
700.000000	2.019715
701.000000	2.047222
702.000000	2.043736
703.000000	2.014379
704.000000	2.022206
705.000000	2.029754
706.000000	2.041909
707.000000	2.010261
708.000000	2.029060
709.000000	2.010035
710.000000	1.973259
711.000000	1.995280
712.000000	1.956033
713.000000	1.989088
714.000000	1.963742
715.000000	1.922144
716.000000	1.916146
717.000000	1.887631
718.000000	1.884229
719.000000	1.853167
720.000000	1.833420
721.000000	1.868155
722.000000	1.864365
723.000000	1.803072
724.000000	1.854388
725.000000	1.849129
726.000000	1.851577
727.000000	1.773567
728.000000	1.779252
729.000000	1.832049
730.000000	1.828576
731.000000	1.829895
732.000000	1.819425
733.000000	1.773136
734.000000	1.796796
735.000000	1.795494
736.000000	1.763893
737.000000	1.763625
738.000000	1.738595
739.000000	1.801512
740.000000	1.771623
741.000000	1.737150
742.000000	1.751340
743.000000	1.798285
744.000000	1.720966
745.000000	1.708691
746.000000	1.682630
747.000000	1.723258
748.000000	1.685055
749.000000	1.692334
750.000000	1.658941
751.000000	1.673569
752.000000	1.628864
753.000000	1.652930
754.000000	1.578389
755.000000	1.520987
756.000000	1.464602
757.000000	1.476519
758.000000	1.520139
759.000000	1.513350
760.000000	1.533231
761.000000	1.571751
762.000000	1.510526
763.000000	1.487239
764.000000	1.571452
765.000000	1.538637
766.000000	1.524866
767.000000	1.532526
768.000000	1.493595
769.000000	1.553968
770.000000	1.510895
771.000000	1.545640
772.000000	1.579357
773.000000	1.512748
774.000000	1.497904
775.000000	1.507934
776.000000	1.494074
777.000000	1.432640
778.000000	1.416412
779.000000	1.462848
780.000000	1.449341
781.000000	1.429990
782.000000	1.455304
783.000000	1.433643
784.000000	1.417280
785.000000	1.466585
786.000000	1.458950
787.000000	1.428448
788.000000	1.344188
789.000000	1.382200
790.000000	1.335602
791.000000	1.330315
792.000000	1.360768
793.000000	1.433066
794.000000	1.365856
795.000000	1.415189
796.000000	1.356349
797.000000	1.357068
798.000000	1.301578
799.000000	1.327809
800.000000	1.283609
801.000000	1.385801
802.000000	1.391478
803.000000	1.435483
804.000000	1.351299
805.000000	1.457252
806.000000	1.388995
807.000000	1.438154
808.000000	1.465451
809.000000	1.477861
810.000000	1.268000
811.000000	1.312669
812.000000	1.426192
813.000000	1.411242
814.000000	1.419306
815.000000	1.457323
816.000000	1.527031
817.000000	1.607952
818.000000	1.482056
819.000000	1.584726
820.000000	1.581848
821.000000	1.579341
822.000000	1.621985
823.000000	1.555345
824.000000	1.581620
825.000000	1.679227
826.000000	1.718247
827.000000	1.676470
828.000000	1.774683
829.000000	1.751297
830.000000	1.730212
831.000000	1.835052
832.000000	1.797314
833.000000	1.740060
834.000000	1.683989
835.000000	1.686322
836.000000	1.777436
837.000000	1.688147
838.000000	1.715600
839.000000	1.876963
840.000000	1.692644
841.000000	1.733718
842.000000	1.683953
843.000000	1.755041
844.000000	1.921091
845.000000	1.690622
846.000000	1.716507
847.000000	1.831118
848.000000	1.724445
849.000000	1.630629
850.000000	2.001938
851.000000	1.945083
852.000000	1.903249
853.000000	1.855551
854.000000	2.009542
855.000000	2.272185
856.000000	2.155209
857.000000	1.883536
858.000000	1.177173
859.000000	2.301875
860.000000	1.982647
861.000000	1.618598
862.000000	1.465034
863.000000	1.482807
864.000000	1.992900
865.000000	1.788311
866.000000	1.201544
867.000000	1.516207
868.000000	0.900104
869.000000	1.007532
870.000000	1.239652
871.000000	1.636235
872.000000	1.476219
873.000000	1.558243
874.000000	1.489934
875.000000	1.508643
876.000000	1.303002
877.000000	1.668602
878.000000	1.587551
879.000000	1.250095
880.000000	1.483265
881.000000	1.589114
882.000000	1.909976
883.000000	1.484336
884.000000	1.606907
885.000000	1.625905
886.000000	1.469110
887.000000	1.490337
888.000000	1.649114
889.000000	1.635198
890.000000	1.562554
891.000000	1.506344
892.000000	1.451219
893.000000	1.521166
894.000000	1.578270
895.000000	1.349684
896.000000	1.494139
897.000000	1.613586
898.000000	1.659419
899.000000	1.659504
900.000000	1.670024
901.000000	1.724304
902.000000	1.562335
903.000000	1.473102
904.000000	1.635308
905.000000	1.726194
906.000000	1.792467
907.000000	1.746671
908.000000	1.837503
909.000000	1.817426
910.000000	1.921013
911.000000	1.968623
912.000000	1.848396
913.000000	1.851171
914.000000	1.931029
915.000000	1.820829
916.000000	1.912792
917.000000	2.104046
918.000000	2.065056
919.000000	2.054145
920.000000	2.081967
921.000000	2.090735
922.000000	2.048324
923.000000	2.060661
924.000000	2.080478
925.000000	2.076958
926.000000	2.138933
927.000000	2.104451
928.000000	2.088436
929.000000	2.110281
930.000000	2.123029
931.000000	2.134230
932.000000	2.112389
933.000000	2.038417
934.000000	2.000183
935.000000	2.005076
936.000000	2.029884
937.000000	2.066508
938.000000	2.079331
939.000000	2.067851
940.000000	2.053466
941.000000	2.021513
942.000000	1.985386
943.000000	1.993361
944.000000	2.029804
945.000000	2.026137
946.000000	1.979955
947.000000	2.017126
948.000000	2.029033
949.000000	1.997571
950.000000	1.978148
951.000000	1.943024
952.000000	1.969210
953.000000	2.045482
954.000000	2.004376
955.000000	1.951729
956.000000	2.012023
957.000000	2.017731
958.000000	2.001669
959.000000	2.011606
960.000000	2.011974
961.000000	2.029903
962.000000	2.032564
963.000000	2.059727
964.000000	2.059579
965.000000	2.069369
966.000000	2.123400
967.000000	2.112766
968.000000	2.097979
969.000000	2.139841
970.000000	2.166515
971.000000	2.171361
972.000000	2.142367
973.000000	2.118378
974.000000	2.144094
975.000000	2.181415
976.000000	2.149825
977.000000	2.194734
978.000000	2.193229
979.000000	2.159682
980.000000	2.242423
981.000000	2.273570
982.000000	2.249105
983.000000	2.281478
984.000000	2.254424
985.000000	2.266229
986.000000	2.286004
987.000000	2.312777
988.000000	2.336408
989.000000	2.324036
990.000000	2.310382
991.000000	2.323272
992.000000	2.359248
993.000000	2.313989
994.000000	2.350257
995.000000	2.389194
996.000000	2.358221
997.000000	2.335336
998.000000	2.365280
999.000000	2.387788
1000.000000	2.400831
1001.000000	2.360314
1002.000000	2.365960
1003.000000	2.357920
1004.000000	2.382536
1005.000000	2.376113
1006.000000	2.391800
1007.000000	2.371070
1008.000000	2.348705
1009.000000	2.371228
1010.000000	2.387497
1011.000000	2.364180
1012.000000	2.361881
1013.000000	2.343335
1014.000000	2.353329
1015.000000	2.337120
1016.000000	2.329561
1017.000000	2.359154
1018.000000	2.372159
1019.000000	2.336913
1020.000000	2.339246
1021.000000	2.354923
1022.000000	2.359725
1023.000000	2.374923
1024.000000	2.353643
1025.000000	2.388988
1026.000000	2.370513
1027.000000	2.366329
1028.000000	2.345214
1029.000000	2.369224
1030.000000	2.387174
1031.000000	2.384586
1032.000000	2.387800
1033.000000	2.395230
1034.000000	2.373581
1035.000000	2.388811
1036.000000	2.403555
1037.000000	2.435848
1038.000000	2.450227
1039.000000	2.443025
1040.000000	2.474718
1041.000000	2.507670
1042.000000	2.495867
1043.000000	2.484298
1044.000000	2.501376
1045.000000	2.518585
1046.000000	2.534978
1047.000000	2.540552
1048.000000	2.507562
1049.000000	2.561461
1050.000000	2.571232
1051.000000	2.565018
1052.000000	2.579826
1053.000000	2.591149
1054.000000	2.596992
1055.000000	2.554400
1056.000000	2.576071
1057.000000	2.570179
1058.000000	2.542148
1059.000000	2.544846
1060.000000	2.538809
1061.000000	2.541068
1062.000000	2.541316
1063.000000	2.561959
1064.000000	2.554960
1065.000000	2.534909
1066.000000	2.514015
1067.000000	2.523097
1068.000000	2.548795
1069.000000	2.542120
1070.000000	2.509180
1071.000000	2.500548
1072.000000	2.512658
1073.000000	2.517603
1074.000000	2.495301
1075.000000	2.460634
1076.000000	2.506978
1077.000000	2.493089
1078.000000	2.492196
1079.000000	2.477426
1080.000000	2.487201
1081.000000	2.469646
1082.000000	2.488903
1083.000000	2.477093
1084.000000	2.463846
1085.000000	2.471653
1086.000000	2.467821
1087.000000	2.489002
1088.000000	2.488487
1089.000000	2.477669
1090.000000	2.478017
1091.000000	2.489649
1092.000000	2.491370
1093.000000	2.480602
1094.000000	2.512809
1095.000000	2.489205
1096.000000	2.524017
1097.000000	2.537326
1098.000000	2.544106
1099.000000	2.531815
1100.000000	2.550274
1101.000000	2.567209
1102.000000	2.563223
1103.000000	2.572869
1104.000000	2.553703
1105.000000	2.558486
1106.000000	2.587912
1107.000000	2.594941
1108.000000	2.601144
1109.000000	2.610338
1110.000000	2.607705
1111.000000	2.609364
1112.000000	2.633874
1113.000000	2.629882
1114.000000	2.626609
1115.000000	2.621536
1116.000000	2.621735
1117.000000	2.648256
1118.000000	2.654231
1119.000000	2.651435
1120.000000	2.646527
1121.000000	2.640043
1122.000000	2.651408
1123.000000	2.644313
1124.000000	2.675509
1125.000000	2.658843
1126.000000	2.659650
1127.000000	2.672584
1128.000000	2.678479
1129.000000	2.701167
1130.000000	2.702989
1131.000000	2.730577
1132.000000	2.746978
1133.000000	2.776306
1134.000000	2.778525
1135.000000	2.815733
1136.000000	2.835481
1137.000000	2.891854
1138.000000	2.935430
1139.000000	2.962917
1140.000000	2.984851
1141.000000	2.997526
1142.000000	3.036342
1143.000000	3.072977
1144.000000	3.090502
1145.000000	3.106325
1146.000000	3.090930
1147.000000	3.067657
1148.000000	3.053260
1149.000000	3.028443
1150.000000	3.025498
1151.000000	3.028054
1152.000000	3.037853
1153.000000	3.043228
1154.000000	3.057109
1155.000000	3.090585
1156.000000	3.135470
1157.000000	3.176204
1158.000000	3.212729
1159.000000	3.255764
1160.000000	3.282642
1161.000000	3.322154
1162.000000	3.356942
1163.000000	3.376123
1164.000000	3.404878
1165.000000	3.441205
1166.000000	3.469938
1167.000000	3.496785
1168.000000	3.486700
1169.000000	3.509431
1170.000000	3.515244
1171.000000	3.549406
1172.000000	3.568951
1173.000000	3.567039
1174.000000	3.562920
1175.000000	3.579529
1176.000000	3.585561
1177.000000	3.604983
1178.000000	3.635244
1179.000000	3.680001
1180.000000	3.730644
1181.000000	3.770621
1182.000000	3.795150
1183.000000	3.791113
1184.000000	3.782561
1185.000000	3.733814
1186.000000	3.687894
1187.000000	3.648734
1188.000000	3.599437
1189.000000	3.549236
1190.000000	3.530757
1191.000000	3.507170
1192.000000	3.493758
1193.000000	3.497427
1194.000000	3.523615
1195.000000	3.547572
1196.000000	3.569198
1197.000000	3.594442
1198.000000	3.613150
1199.000000	3.642784
1200.000000	3.679139
1201.000000	3.697146
1202.000000	3.727552
1203.000000	3.736954
1204.000000	3.747180
1205.000000	3.771255
1206.000000	3.787393
1207.000000	3.788153
1208.000000	3.796191
1209.000000	3.810851
1210.000000	3.805578
1211.000000	3.804792
1212.000000	3.797997
1213.000000	3.799009
1214.000000	3.817705
1215.000000	3.806651
1216.000000	3.792947
1217.000000	3.786842
1218.000000	3.775765
1219.000000	3.773403
1220.000000	3.762705
1221.000000	3.745700
1222.000000	3.724561
1223.000000	3.706470
1224.000000	3.687321
1225.000000	3.671121
1226.000000	3.648625
1227.000000	3.618814
1228.000000	3.598878
1229.000000	3.575386
1230.000000	3.553793
1231.000000	3.533441
1232.000000	3.521836
1233.000000	3.511156
1234.000000	3.499253
1235.000000	3.464642
1236.000000	3.440263
1237.000000	3.428951
1238.000000	3.412596
1239.000000	3.399438
1240.000000	3.374675
1241.000000	3.352844
1242.000000	3.327267
1243.000000	3.313901
1244.000000	3.314230
1245.000000	3.296867
1246.000000	3.285134
1247.000000	3.278606
1248.000000	3.275348
1249.000000	3.274597
1250.000000	3.269266
1251.000000	3.261542
1252.000000	3.247814
1253.000000	3.244041
1254.000000	3.242012
1255.000000	3.237417
1256.000000	3.234204
1257.000000	3.225075
1258.000000	3.235739
1259.000000	3.246321
1260.000000	3.232608
1261.000000	3.225283
1262.000000	3.225549
1263.000000	3.228545
1264.000000	3.216072
1265.000000	3.219772
1266.000000	3.209720
1267.000000	3.209526
1268.000000	3.200102
1269.000000	3.192349
1270.000000	3.186230
1271.000000	3.180417
1272.000000	3.175455
1273.000000	3.179505
1274.000000	3.175983
1275.000000	3.170255
1276.000000	3.165582
1277.000000	3.159040
1278.000000	3.161108
1279.000000	3.143483
1280.000000	3.141411
1281.000000	3.168414
1282.000000	3.149927
1283.000000	3.145330
1284.000000	3.148200
1285.000000	3.134253
1286.000000	3.148012
1287.000000	3.153331
1288.000000	3.146544
1289.000000	3.141110
1290.000000	3.128775
1291.000000	3.131259
1292.000000	3.150676
1293.000000	3.148537
1294.000000	3.143159
1295.000000	3.130553
1296.000000	3.137242
1297.000000	3.128018
1298.000000	3.129243
1299.000000	3.128083
1300.000000	3.121203
1301.000000	3.123076
1302.000000	3.115066
1303.000000	3.110193
1304.000000	3.093353
1305.000000	3.108406
1306.000000	3.108667
1307.000000	3.102789
1308.000000	3.110502
1309.000000	3.107651
1310.000000	3.103097
1311.000000	3.103354
1312.000000	3.116585
1313.000000	3.115412
1314.000000	3.114777
1315.000000	3.104021
1316.000000	3.100655
1317.000000	3.102516
1318.000000	3.087873
1319.000000	3.104757
1320.000000	3.121705
1321.000000	3.125295
1322.000000	3.114291
1323.000000	3.120488
1324.000000	3.126045
1325.000000	3.144730
1326.000000	3.151678
1327.000000	3.157206
1328.000000	3.159422
1329.000000	3.166598
1330.000000	3.179368
1331.000000	3.179806
1332.000000	3.213060
1333.000000	3.223785
1334.000000	3.247577
1335.000000	3.252066
1336.000000	3.257666
1337.000000	3.283384
1338.000000	3.296079
1339.000000	3.298169
1340.000000	3.331368
1341.000000	3.340159
1342.000000	3.347903
1343.000000	3.386234
1344.000000	3.389331
1345.000000	3.445118
1346.000000	3.448282
1347.000000	3.488303
1348.000000	3.520591
1349.000000	3.560849
1350.000000	3.584479
1351.000000	3.634179
1352.000000	3.680125
1353.000000	3.697195
1354.000000	3.727943
1355.000000	3.741599
1356.000000	3.710425
1357.000000	3.668581
1358.000000	3.628960
1359.000000	3.596876
1360.000000	3.555991
1361.000000	3.557653
1362.000000	3.557388
1363.000000	3.607239
1364.000000	3.610300
1365.000000	3.613088
1366.000000	3.629485
1367.000000	3.634017
1368.000000	3.653839
1369.000000	3.681611
1370.000000	3.694337
1371.000000	3.690472
1372.000000	3.697708
1373.000000	3.698643
1374.000000	3.693256
1375.000000	3.679138
1376.000000	3.643315
1377.000000	3.627336
1378.000000	3.594733
1379.000000	3.592506
1380.000000	3.565457
1381.000000	3.581330
1382.000000	3.593261
1383.000000	3.605729
1384.000000	3.616136
1385.000000	3.612373
1386.000000	3.610537
1387.000000	3.591454
1388.000000	3.543005
1389.000000	3.534506
1390.000000	3.511374
1391.000000	3.506898
1392.000000	3.487401
1393.000000	3.469144
1394.000000	3.455461
1395.000000	3.408050
1396.000000	3.394937
1397.000000	3.385811
1398.000000	3.397446
1399.000000	3.414844
1400.000000	3.392381
1401.000000	3.380509
1402.000000	3.393941
1403.000000	3.371611
1404.000000	3.330802
1405.000000	3.315087
1406.000000	3.314236
1407.000000	3.269752
1408.000000	3.255351
1409.000000	3.216066
1410.000000	3.191393
1411.000000	3.147628
1412.000000	3.118223
1413.000000	3.099433
1414.000000	3.065767
1415.000000	3.067223
1416.000000	3.042877
1417.000000	3.017196
1418.000000	2.987739
1419.000000	2.963668
1420.000000	2.954847
1421.000000	2.934273
1422.000000	2.906265
1423.000000	2.866237
1424.000000	2.844520
1425.000000	2.840698
1426.000000	2.816096
1427.000000	2.786826
1428.000000	2.779472
1429.000000	2.751330
1430.000000	2.722295
1431.000000	2.703627
1432.000000	2.677963
1433.000000	2.663559
1434.000000	2.632325
1435.000000	2.623822
1436.000000	2.605051
1437.000000	2.590258
1438.000000	2.584587
1439.000000	2.565503
1440.000000	2.558379
1441.000000	2.551038
1442.000000	2.511109
1443.000000	2.497076
1444.000000	2.469571
1445.000000	2.456747
1446.000000	2.448514
1447.000000	2.428915
1448.000000	2.409259
1449.000000	2.385813
1450.000000	2.378034
1451.000000	2.358341
1452.000000	2.353674
1453.000000	2.327514
1454.000000	2.309483
1455.000000	2.300813
1456.000000	2.284774
1457.000000	2.264644
1458.000000	2.246566
1459.000000	2.245093
1460.000000	2.220423
1461.000000	2.203902
1462.000000	2.186354
1463.000000	2.174620
1464.000000	2.164705
1465.000000	2.152515
1466.000000	2.146560
1467.000000	2.141753
1468.000000	2.140568
1469.000000	2.118972
1470.000000	2.114228
1471.000000	2.095880
1472.000000	2.089918
1473.000000	2.093398
1474.000000	2.089928
1475.000000	2.100471
1476.000000	2.097859
1477.000000	2.081105
1478.000000	2.078894
1479.000000	2.082994
1480.000000	2.076464
1481.000000	2.060748
1482.000000	2.058972
1483.000000	2.067836
1484.000000	2.063008
1485.000000	2.062078
1486.000000	2.060725
1487.000000	2.058045
1488.000000	2.052750
1489.000000	2.047606
1490.000000	2.062218
1491.000000	2.076361
1492.000000	2.086768
1493.000000	2.094014
1494.000000	2.082011
1495.000000	2.105694
1496.000000	2.100187
1497.000000	2.093030
1498.000000	2.106347
1499.000000	2.097118
1500.000000	2.105275
1501.000000	2.134707
1502.000000	2.139057
1503.000000	2.141176
1504.000000	2.141363
1505.000000	2.145542
1506.000000	2.161704
1507.000000	2.163588
1508.000000	2.171910
1509.000000	2.179889
1510.000000	2.210451
1511.000000	2.223227
1512.000000	2.225537
1513.000000	2.214662
1514.000000	2.227415
1515.000000	2.243624
1516.000000	2.282598
1517.000000	2.294991
1518.000000	2.299732
1519.000000	2.304088
1520.000000	2.312281
1521.000000	2.297838
1522.000000	2.295643
1523.000000	2.292391
1524.000000	2.281065
1525.000000	2.275404
1526.000000	2.298165
1527.000000	2.305448
1528.000000	2.304006
1529.000000	2.294080
1530.000000	2.292837
1531.000000	2.295501
1532.000000	2.295991
1533.000000	2.316833
1534.000000	2.304820
1535.000000	2.289569
1536.000000	2.292761
1537.000000	2.299763
1538.000000	2.311965
1539.000000	2.299047
1540.000000	2.291280
1541.000000	2.291442
1542.000000	2.285679
1543.000000	2.270939
1544.000000	2.268844
1545.000000	2.271378
1546.000000	2.261441
1547.000000	2.263151
1548.000000	2.280159
1549.000000	2.267493
1550.000000	2.266062
1551.000000	2.259935
1552.000000	2.255879
1553.000000	2.263088
1554.000000	2.268879
1555.000000	2.275003
1556.000000	2.254979
1557.000000	2.256968
1558.000000	2.276641
1559.000000	2.292742
1560.000000	2.288533
1561.000000	2.276762
1562.000000	2.285861
1563.000000	2.276833
1564.000000	2.277374
1565.000000	2.296703
1566.000000	2.286332
1567.000000	2.285445
1568.000000	2.306132
1569.000000	2.272528
1570.000000	2.277072
1571.000000	2.293309
1572.000000	2.293304
1573.000000	2.280922
1574.000000	2.274858
1575.000000	2.290224
1576.000000	2.284295
1577.000000	2.290470
1578.000000	2.275842
1579.000000	2.293123
1580.000000	2.281720
1581.000000	2.287295
1582.000000	2.303213
1583.000000	2.299465
1584.000000	2.312492
1585.000000	2.314128
1586.000000	2.318644
1587.000000	2.323634
1588.000000	2.327106
1589.000000	2.327781
1590.000000	2.332589
1591.000000	2.358657
1592.000000	2.364777
1593.000000	2.363957
1594.000000	2.388140
1595.000000	2.391817
1596.000000	2.406813
1597.000000	2.428407
1598.000000	2.424761
1599.000000	2.428496
1600.000000	2.444145
1601.000000	2.450300
1602.000000	2.462704
1603.000000	2.446131
1604.000000	2.466360
1605.000000	2.505876
1606.000000	2.512603
1607.000000	2.506677
1608.000000	2.519545
1609.000000	2.593453
1610.000000	2.612811
1611.000000	2.635568
1612.000000	2.640572
1613.000000	2.636754
1614.000000	2.661911
1615.000000	2.657838
1616.000000	2.657302
1617.000000	2.645277
1618.000000	2.666208
1619.000000	2.681672
1620.000000	2.667197
1621.000000	2.683003
1622.000000	2.681768
1623.000000	2.686318
1624.000000	2.683948
1625.000000	2.702936
1626.000000	2.690213
1627.000000	2.719078
1628.000000	2.718159
1629.000000	2.717062
1630.000000	2.710232
1631.000000	2.718925
1632.000000	2.730946
1633.000000	2.749838
1634.000000	2.742715
1635.000000	2.743117
1636.000000	2.729557
1637.000000	2.731845
1638.000000	2.727605
1639.000000	2.736115
1640.000000	2.762249
1641.000000	2.754308
1642.000000	2.764226
1643.000000	2.775460
1644.000000	2.784763
1645.000000	2.758551
1646.000000	2.768189
1647.000000	2.775341
1648.000000	2.784476
1649.000000	2.785127
1650.000000	2.790456
1651.000000	2.766763
1652.000000	2.794300
1653.000000	2.787069
1654.000000	2.777440
1655.000000	2.779724
1656.000000	2.766887
1657.000000	2.752148
1658.000000	2.759447
1659.000000	2.762283
1660.000000	2.758200
1661.000000	2.758178
1662.000000	2.736820
1663.000000	2.732099
1664.000000	2.733860
1665.000000	2.715517
1666.000000	2.719762
1667.000000	2.698043
1668.000000	2.690973
1669.000000	2.695040
1670.000000	2.677842
1671.000000	2.669798
1672.000000	2.648999
1673.000000	2.630631
1674.000000	2.608988
1675.000000	2.587483
1676.000000	2.526307
1677.000000	2.511309
1678.000000	2.459933
1679.000000	2.419161
1680.000000	2.373079
1681.000000	2.286652
1682.000000	2.220099
1683.000000	2.133832
1684.000000	2.063344
1685.000000	2.005741
1686.000000	1.981265
1687.000000	1.980028
1688.000000	2.004966
1689.000000	2.040091
1690.000000	2.025360
1691.000000	2.032460
1692.000000	2.047845
1693.000000	2.040092
1694.000000	2.019136
1695.000000	2.027318
1696.000000	2.033722
1697.000000	2.025625
1698.000000	2.079523
1699.000000	2.115061
1700.000000	2.130302
1701.000000	2.197048
1702.000000	2.238995
1703.000000	2.260527
1704.000000	2.307633
1705.000000	2.325828
1706.000000	2.361781
1707.000000	2.383228
1708.000000	2.400789
1709.000000	2.416661
1710.000000	2.425657
1711.000000	2.451088
1712.000000	2.455653
1713.000000	2.474684
1714.000000	2.491462
1715.000000	2.449146
1716.000000	2.443926
1717.000000	2.460482
1718.000000	2.454204
1719.000000	2.425754
1720.000000	2.436694
1721.000000	2.451416
1722.000000	2.482975
1723.000000	2.492381
1724.000000	2.490874
1725.000000	2.477807
1726.000000	2.494679
1727.000000	2.505429
1728.000000	2.500255
1729.000000	2.493264
1730.000000	2.488428
1731.000000	2.471423
1732.000000	2.435623
1733.000000	2.408293
1734.000000	2.397611
1735.000000	2.344767
1736.000000	2.321467
1737.000000	2.302303
1738.000000	2.287587
1739.000000	2.285284
1740.000000	2.308741
1741.000000	2.344220
1742.000000	2.381484
1743.000000	2.406589
1744.000000	2.423288
1745.000000	2.436546
1746.000000	2.451017
1747.000000	2.461474
1748.000000	2.486028
1749.000000	2.507384
1750.000000	2.524460
1751.000000	2.533033
1752.000000	2.555744
1753.000000	2.591526
1754.000000	2.559044
1755.000000	2.562782
1756.000000	2.562689
1757.000000	2.596206
1758.000000	2.599864
1759.000000	2.571114
1760.000000	2.579030
1761.000000	2.570525
1762.000000	2.541494
1763.000000	2.550099
1764.000000	2.560672
1765.000000	2.516808
1766.000000	2.516007
1767.000000	2.547659
1768.000000	2.513624
1769.000000	2.477605
1770.000000	2.464113
1771.000000	2.458697
1772.000000	2.450903
1773.000000	2.485712
1774.000000	2.491123
1775.000000	2.498810
1776.000000	2.520715
1777.000000	2.526954
1778.000000	2.570139
1779.000000	2.557921
1780.000000	2.553778
1781.000000	2.571448
1782.000000	2.578909
1783.000000	2.593614
1784.000000	2.600925
1785.000000	2.587205
1786.000000	2.603670
1787.000000	2.599878
1788.000000	2.623431
1789.000000	2.616559
1790.000000	2.644232
1791.000000	2.644768
1792.000000	2.660746
1793.000000	2.680622
1794.000000	2.687384
1795.000000	2.665695
1796.000000	2.676312
1797.000000	2.690772
1798.000000	2.727485
1799.000000	2.737295
1800.000000	2.724017
1801.000000	2.685175
1802.000000	2.705542
1803.000000	2.717928
1804.000000	2.739397
1805.000000	2.759913
1806.000000	2.742843
1807.000000	2.757095
1808.000000	2.769889
1809.000000	2.762638
1810.000000	2.749015
1811.000000	2.755767
1812.000000	2.785292
1813.000000	2.802487
1814.000000	2.821445
1815.000000	2.810649
1816.000000	2.795529
1817.000000	2.792984
1818.000000	2.811162
1819.000000	2.842812
1820.000000	2.782472
1821.000000	2.790590
1822.000000	2.830235
1823.000000	2.844582
1824.000000	2.843000
1825.000000	2.822884
1826.000000	2.831085
1827.000000	2.831116
1828.000000	2.834772
1829.000000	2.824362
1830.000000	2.833404
1831.000000	2.821712
1832.000000	2.798143
1833.000000	2.864991
1834.000000	2.871247
1835.000000	2.890766
1836.000000	2.855811
1837.000000	2.825495
1838.000000	2.928200
1839.000000	2.916551
1840.000000	2.862437
1841.000000	2.870530
1842.000000	2.879959
1843.000000	2.903669
1844.000000	2.934381
1845.000000	2.930720
1846.000000	2.911391
1847.000000	2.809366
1848.000000	2.804960
1849.000000	2.893867
1850.000000	2.908633
1851.000000	2.926897
1852.000000	2.949677
1853.000000	2.900337
1854.000000	2.866443
1855.000000	2.930406
1856.000000	2.880111
1857.000000	2.899151
1858.000000	2.936183
1859.000000	2.847850
1860.000000	2.791550
1861.000000	2.876349
1862.000000	2.890290
1863.000000	2.834002
1864.000000	2.832382
1865.000000	2.859193
1866.000000	2.844353
1867.000000	2.752762
1868.000000	2.744106
1869.000000	2.775474
1870.000000	2.712806
1871.000000	2.749557
1872.000000	2.748312
1873.000000	2.642368
1874.000000	2.660759
1875.000000	2.695753
1876.000000	2.636474
1877.000000	2.505325
1878.000000	2.667335
1879.000000	2.625425
1880.000000	2.532494
1881.000000	2.498435
1882.000000	2.561036
1883.000000	2.472991
1884.000000	2.396524
1885.000000	2.361869
1886.000000	2.314199
1887.000000	2.245309
1888.000000	2.209288
1889.000000	2.138427
1890.000000	2.086567
1891.000000	2.062607
1892.000000	2.019003
1893.000000	1.960458
1894.000000	1.951380
1895.000000	1.957775
1896.000000	1.855917
1897.000000	1.791436
1898.000000	1.726663
1899.000000	1.600270
1900.000000	1.630670
1901.000000	1.600309
1902.000000	1.512203
1903.000000	1.509473
1904.000000	1.532305
1905.000000	1.396399
1906.000000	1.345327
1907.000000	1.281992
1908.000000	1.325342
1909.000000	1.237736
1910.000000	1.168300
1911.000000	1.111835
1912.000000	1.136765
1913.000000	1.089012
1914.000000	0.985739
1915.000000	0.943413
1916.000000	0.926060
1917.000000	0.976653
1918.000000	0.975255
1919.000000	0.901816
1920.000000	0.728277
1921.000000	0.747817
1922.000000	0.815956
1923.000000	0.798987
1924.000000	0.761133
1925.000000	0.807277
1926.000000	0.710643
1927.000000	0.699491
1928.000000	0.653766
1929.000000	0.655153
1930.000000	0.640342
1931.000000	0.629263
1932.000000	0.616942
1933.000000	0.635604
1934.000000	0.618711
1935.000000	0.651794
1936.000000	0.640500
1937.000000	0.666210
1938.000000	0.598906
1939.000000	0.586462
1940.000000	0.634142
1941.000000	0.627465
1942.000000	0.602353
1943.000000	0.636924
1944.000000	0.610949
1945.000000	0.600365
1946.000000	0.646491
1947.000000	0.659525
1948.000000	0.611403
1949.000000	0.673551
1950.000000	0.660974
1951.000000	0.646465
1952.000000	0.674853
1953.000000	0.715132
1954.000000	0.718063
1955.000000	0.779854
1956.000000	0.785121
1957.000000	0.823299
1958.000000	0.805667
1959.000000	0.814022
1960.000000	0.809919
1961.000000	0.817190
1962.000000	0.826598
1963.000000	0.852478
1964.000000	0.892150
1965.000000	0.907352
1966.000000	0.902378
1967.000000	0.891221
1968.000000	0.913260
1969.000000	0.943887
1970.000000	0.963308
1971.000000	0.953252
1972.000000	0.924182
1973.000000	0.936846
1974.000000	0.948319
1975.000000	0.992798
1976.000000	1.018692
1977.000000	0.992568
1978.000000	1.046387
1979.000000	1.040753
1980.000000	1.024203
1981.000000	1.033427
1982.000000	1.053592
1983.000000	1.061559
1984.000000	1.059720
1985.000000	1.098307
1986.000000	1.138310
1987.000000	1.102505
1988.000000	1.117389
1989.000000	1.170786
1990.000000	1.145200
1991.000000	1.151701
1992.000000	1.193961
1993.000000	1.183572
1994.000000	1.249266
1995.000000	1.256808
1996.000000	1.210283
1997.000000	1.196702
1998.000000	1.215906
1999.000000	1.206431
2000.000000	1.246698
2001.000000	1.258231
2002.000000	1.228223
2003.000000	1.260899
2004.000000	1.262725
2005.000000	1.285727
2006.000000	1.280121
2007.000000	1.269874
2008.000000	1.264867
2009.000000	1.268465
2010.000000	1.275186
2011.000000	1.251585
2012.000000	1.220048
2013.000000	1.267525
2014.000000	1.280128
2015.000000	1.246770
2016.000000	1.246206
2017.000000	1.235952
2018.000000	1.231292
2019.000000	1.214555
2020.000000	1.176570
2021.000000	1.157417
2022.000000	1.132175
2023.000000	1.134474
2024.000000	1.167362
2025.000000	1.086240
2026.000000	1.063044
2027.000000	1.082226
2028.000000	1.039739
2029.000000	1.002800
2030.000000	0.993247
2031.000000	1.074057
2032.000000	1.045155
2033.000000	0.984936
2034.000000	0.970474
2035.000000	0.966554
2036.000000	0.873957
2037.000000	0.901371
2038.000000	0.852463
2039.000000	0.884932
2040.000000	0.852293
2041.000000	0.816607
2042.000000	0.842680
2043.000000	0.764788
2044.000000	0.701058
2045.000000	0.731464
2046.000000	0.755280
2047.000000	0.695868
2048.000000	0.599875
2049.000000	0.555217
2050.000000	0.577029
2051.000000	0.603292
2052.000000	0.587694
2053.000000	0.532968
2054.000000	0.445171
2055.000000	0.333835
2056.000000	0.367122
2057.000000	0.361691
2058.000000	0.433042
2059.000000	0.313385
2060.000000	0.308624
2061.000000	0.296806
2062.000000	0.341777
2063.000000	0.272508
2064.000000	0.238023
2065.000000	0.386097
2066.000000	0.302232
2067.000000	0.293549
2068.000000	0.311725
2069.000000	0.273325
2070.000000	0.377668
2071.000000	0.488375
2072.000000	0.421005
2073.000000	0.291587
2074.000000	0.267034
2075.000000	0.510072
2076.000000	0.474498
2077.000000	0.400552
2078.000000	0.356664
2079.000000	0.488846
2080.000000	0.429034
2081.000000	0.257265
2082.000000	0.427712
2083.000000	0.489054
2084.000000	0.382736
2085.000000	0.424274
2086.000000	0.518870
2087.000000	0.621976
2088.000000	0.381272
2089.000000	0.488131
2090.000000	0.451500
2091.000000	0.469255
2092.000000	0.310766
2093.000000	0.415986
2094.000000	0.422123
2095.000000	0.537606
2096.000000	0.477990
2097.000000	0.472057
2098.000000	0.573491
2099.000000	0.409496
2100.000000	0.382370
2101.000000	0.621137
2102.000000	0.726300
2103.000000	0.658989
2104.000000	0.599936
2105.000000	0.509388
2106.000000	0.628619
2107.000000	0.652349
2108.000000	0.606503
2109.000000	0.566472
2110.000000	0.689372
2111.000000	0.345906
2112.000000	0.695976
2113.000000	0.529492
2114.000000	0.657042
2115.000000	0.547846
2116.000000	0.317466
2117.000000	0.498249
2118.000000	0.691185
2119.000000	0.721154
2120.000000	0.624175
2121.000000	0.718526
2122.000000	0.381898
2123.000000	0.355663
2124.000000	0.806507
2125.000000	0.908235
2126.000000	0.653057
2127.000000	0.574678
2128.000000	0.346007
2129.000000	0.735761
2130.000000	0.942327
2131.000000	0.370706
2132.000000	0.596412
2133.000000	0.704379
2134.000000	0.665822
2135.000000	0.592283
2136.000000	0.653237
2137.000000	0.650242
2138.000000	0.608685
2139.000000	0.474399
2140.000000	0.683849
2141.000000	0.587162
2142.000000	0.686770
2143.000000	0.982060
2144.000000	0.723584
2145.000000	0.593346
2146.000000	0.592736
2147.000000	0.364622
2148.000000	0.500487
2149.000000	0.350040
2150.000000	0.518401
2151.000000	0.611017
2152.000000	0.395045
2153.000000	0.644716
2154.000000	0.346693
2155.000000	0.786187
2156.000000	0.630925
2157.000000	0.668603
2158.000000	0.388618
2159.000000	0.385313
2160.000000	0.538909
2161.000000	0.655224
2162.000000	0.684170
2163.000000	0.610198
2164.000000	0.559056
2165.000000	0.603566
2166.000000	0.719192
2167.000000	0.452303
2168.000000	0.674571
2169.000000	0.624557
2170.000000	0.712033
2171.000000	0.792694
2172.000000	0.634651
2173.000000	0.597090
2174.000000	0.465988
2175.000000	0.572941
2176.000000	0.623775
2177.000000	0.569736
2178.000000	0.407205
2179.000000	0.493962
2180.000000	0.763637
2181.000000	0.547711
2182.000000	0.305468
2183.000000	0.359999
2184.000000	0.653849
2185.000000	0.449384
2186.000000	0.614469
2187.000000	0.722015
2188.000000	0.542598
2189.000000	0.489760
2190.000000	0.522040
2191.000000	0.714739
2192.000000	0.556099
2193.000000	0.827706
2194.000000	0.838801
2195.000000	0.516306
2196.000000	0.470041
2197.000000	0.579976
2198.000000	0.643574
2199.000000	0.785135
2200.000000	0.598058
2201.000000	0.584560
2202.000000	0.674170
2203.000000	0.606089
2204.000000	0.651918
2205.000000	0.585271
2206.000000	0.758850
2207.000000	0.691055
2208.000000	0.678857
2209.000000	0.767182
2210.000000	0.753054
2211.000000	0.705236
2212.000000	0.595832
2213.000000	0.688292
2214.000000	0.693253
2215.000000	0.612211
2216.000000	0.733678
2217.000000	0.804292
2218.000000	0.743653
2219.000000	0.562917
2220.000000	0.555739
2221.000000	0.626208
2222.000000	0.767697
2223.000000	0.709390
2224.000000	0.725531
2225.000000	0.770897
2226.000000	0.695816
2227.000000	0.771695
2228.000000	0.747057
2229.000000	0.572622
2230.000000	0.675129
2231.000000	0.698489
2232.000000	0.752039
2233.000000	0.751603
2234.000000	0.765556
2235.000000	0.726090
2236.000000	0.812659
2237.000000	0.619617
2238.000000	0.664412
2239.000000	0.714348
2240.000000	0.664504
2241.000000	0.572657
2242.000000	0.524774
2243.000000	0.568300
2244.000000	0.517546
2245.000000	0.654820
2246.000000	0.476001
2247.000000	0.516601
2248.000000	0.448895
2249.000000	0.177123
2250.000000	0.201739
2251.000000	0.262458
2252.000000	0.333679
2253.000000	0.331062
2254.000000	0.364303
2255.000000	0.502061
2256.000000	0.324019
2257.000000	0.375120
2258.000000	0.360078
2259.000000	0.465216
2260.000000	0.603747
2261.000000	0.554597
2262.000000	0.566710
2263.000000	0.719280
2264.000000	0.638318
2265.000000	0.629711
2266.000000	0.728343
2267.000000	0.748333
2268.000000	0.776562
2269.000000	0.730377
2270.000000	0.655571
2271.000000	0.615380
2272.000000	0.568633
2273.000000	0.645910
2274.000000	0.740257
2275.000000	0.621409
2276.000000	0.620125
2277.000000	0.773766
2278.000000	0.858383
2279.000000	0.750656
2280.000000	0.642401
2281.000000	0.652263
2282.000000	0.735201
2283.000000	0.804226
2284.000000	0.625653
2285.000000	0.639536
2286.000000	0.697645
2287.000000	0.762702
2288.000000	0.823905
2289.000000	0.777112
2290.000000	0.634959
2291.000000	0.729736
2292.000000	0.859676
2293.000000	0.812231
2294.000000	0.741246
2295.000000	0.733466
2296.000000	0.720242
2297.000000	0.724620
2298.000000	0.598091
2299.000000	0.744326
2300.000000	0.827039
2301.000000	0.571313
2302.000000	0.679830
2303.000000	0.741748
2304.000000	0.816274
2305.000000	0.842805
2306.000000	0.725436
2307.000000	0.907913
2308.000000	0.627530
2309.000000	0.731052
2310.000000	0.897121
2311.000000	0.708341
2312.000000	0.740750
2313.000000	0.984632
2314.000000	0.954877
2315.000000	0.781545
2316.000000	0.798247
2317.000000	0.982515
2318.000000	0.756861
2319.000000	0.888733
2320.000000	0.977612
2321.000000	0.968885
2322.000000	0.700284
2323.000000	0.761291
2324.000000	0.886037
2325.000000	0.987920
2326.000000	0.825509
2327.000000	0.940372
2328.000000	1.121807
2329.000000	0.803694
2330.000000	0.806806
2331.000000	0.928317
2332.000000	0.872236
2333.000000	0.661235
2334.000000	0.849514
2335.000000	0.714172
2336.000000	0.883259
2337.000000	0.774258
2338.000000	0.676908
2339.000000	1.026316
2340.000000	0.915555
2341.000000	0.757233
2342.000000	0.863114
2343.000000	0.887836
2344.000000	1.170489
2345.000000	0.746008
2346.000000	0.874162
2347.000000	1.079792
2348.000000	0.694739
2349.000000	0.625448
2350.000000	1.130109
2351.000000	0.657331
2352.000000	1.048923
2353.000000	0.988887
2354.000000	0.919645
2355.000000	0.816797
2356.000000	1.113188
2357.000000	1.023095
2358.000000	1.020156
2359.000000	1.231574
2360.000000	1.041353
2361.000000	1.017985
2362.000000	1.043887
2363.000000	1.060917
2364.000000	0.925360
2365.000000	0.819118
2366.000000	1.090063
2367.000000	0.588963
2368.000000	0.835464
2369.000000	0.965900
2370.000000	1.297175
2371.000000	1.324356
2372.000000	0.914141
2373.000000	1.143931
2374.000000	1.113366
2375.000000	0.775760
2376.000000	0.956664
2377.000000	1.127425
2378.000000	0.910309
2379.000000	1.104775
2380.000000	1.000570
2381.000000	1.493984
2382.000000	1.819643
2383.000000	1.512185
2384.000000	1.003449
2385.000000	1.465588
2386.000000	0.968289
2387.000000	1.835373
2388.000000	1.510514
2389.000000	0.880776
2390.000000	1.283816
2391.000000	1.034572
2392.000000	1.189485
2393.000000	1.234653
2394.000000	1.214305
2395.000000	1.213355
2396.000000	1.083522
2397.000000	0.925166
2398.000000	1.600824
2399.000000	0.896745
2400.000000	1.076913
2401.000000	nan
2402.000000	nan
2403.000000	nan
2404.000000	nan
2405.000000	nan
2406.000000	nan
2407.000000	nan
2408.000000	nan
2409.000000	nan
2410.000000	nan
2411.000000	nan
2412.000000	nan
2413.000000	nan
2414.000000	nan
2415.000000	nan
2416.000000	nan
2417.000000	nan
2418.000000	nan
2419.000000	nan
2420.000000	nan
2421.000000	nan
2422.000000	nan
2423.000000	nan
2424.000000	nan
2425.000000	nan
2426.000000	nan
2427.000000	nan
2428.000000	nan
2429.000000	nan
2430.000000	nan
2431.000000	nan
2432.000000	nan
2433.000000	nan
2434.000000	nan
2435.000000	nan
2436.000000	nan
2437.000000	nan
2438.000000	nan
2439.000000	nan
2440.000000	nan
2441.000000	nan
2442.000000	nan
2443.000000	nan
2444.000000	nan
2445.000000	nan
2446.000000	nan
2447.000000	nan
2448.000000	nan
2449.000000	nan
2450.000000	nan
2451.000000	nan
2452.000000	nan
2453.000000	nan
2454.000000	nan
2455.000000	nan
2456.000000	nan
2457.000000	nan
2458.000000	nan
2459.000000	nan
2460.000000	nan
2461.000000	nan
2462.000000	nan
2463.000000	nan
2464.000000	nan
2465.000000	nan
2466.000000	nan
2467.000000	nan
2468.000000	nan
2469.000000	nan
2470.000000	nan
2471.000000	nan
2472.000000	nan
2473.000000	nan
2474.000000	nan
2475.000000	nan
2476.000000	nan
2477.000000	nan
2478.000000	nan
2479.000000	nan
2480.000000	nan
2481.000000	nan
2482.000000	nan
2483.000000	nan
2484.000000	nan
2485.000000	nan
2486.000000	nan
2487.000000	nan
2488.000000	nan
2489.000000	nan
2490.000000	nan
2491.000000	nan
2492.000000	nan
2493.000000	nan
2494.000000	nan
2495.000000	nan
2496.000000	nan
2497.000000	nan
2498.000000	nan
2499.000000	nan
2500.000000	nan
