PE UV       SUBTECH     SPECTRUM    ASCII       PEDS        4.00        
   -1
CICIMAUCR0006-3.Sample.ASC
24/04/12
11:24:13.00
24/04/12
11:24:13.00
Vinicio Soto Monge
C. kalinini
250,000000
1
Lambda 1050
1050L1511233
PerkinElmer UV WinLab 6.3.2.0749 / 2.02.05 Lambda 900 UV/VIS/NIR, Aug  7 2015 09:38:08

0
0
3350/servo 860,8/2
0
0
UV/VIS
1
1
1
DoubleDePol,CommonBeamDepol,RBeamAtt,SBeamAtt,60mm sphere, WB InGaAs Detector
0
0
0
0
Program
Program
3350/servo 860,8/2
3350/0,2 860,8/0,2
3350/0,2 860,8/0,2
0
15.00
 
 
 
0
 
860,8
319,2
860,8
Front
100
on
S:100 R:100
0
0
0
0
 
0
 
 
 
0
 
 
0
0
0
0
0
 
 
 
 
0
0


0
0
#HDR
-1
-1
#GR
nm
%R
1.0
0.0
2500,000000
-1,000000
2251
8
53,231800
3,109100
#DATA
250.000000	0.881929
251.000000	0.893533
252.000000	0.965867
253.000000	0.932625
254.000000	0.915236
255.000000	0.883136
256.000000	0.884236
257.000000	0.887575
258.000000	0.903541
259.000000	0.902387
260.000000	0.924985
261.000000	0.861045
262.000000	0.825766
263.000000	0.861887
264.000000	0.847042
265.000000	0.835322
266.000000	0.849603
267.000000	0.875235
268.000000	0.858692
269.000000	0.837227
270.000000	0.858895
271.000000	0.869630
272.000000	0.859080
273.000000	0.813539
274.000000	0.861003
275.000000	0.852294
276.000000	0.841617
277.000000	0.840284
278.000000	0.835960
279.000000	0.797267
280.000000	0.852778
281.000000	0.832916
282.000000	0.823697
283.000000	0.826996
284.000000	0.800758
285.000000	0.822622
286.000000	0.819751
287.000000	0.811282
288.000000	0.839824
289.000000	0.822992
290.000000	0.858364
291.000000	0.830823
292.000000	0.838000
293.000000	0.811697
294.000000	0.798360
295.000000	0.794670
296.000000	0.806671
297.000000	0.788983
298.000000	0.804770
299.000000	0.825696
300.000000	0.786781
301.000000	0.788960
302.000000	0.799455
303.000000	0.823098
304.000000	0.818117
305.000000	0.738408
306.000000	0.775568
307.000000	0.800816
308.000000	0.777580
309.000000	0.797129
310.000000	0.792609
311.000000	0.804195
312.000000	0.798905
313.000000	0.765665
314.000000	0.764340
315.000000	0.758703
316.000000	0.736879
317.000000	0.575185
318.000000	0.601225
319.000000	0.464604
320.000000	0.518636
321.000000	0.643697
322.000000	0.649167
323.000000	0.726527
324.000000	0.592545
325.000000	0.544862
326.000000	0.576385
327.000000	0.687003
328.000000	0.587103
329.000000	0.657941
330.000000	0.622382
331.000000	0.734777
332.000000	0.722732
333.000000	0.843164
334.000000	0.785214
335.000000	0.778882
336.000000	0.691098
337.000000	0.650308
338.000000	0.769852
339.000000	0.772267
340.000000	0.764734
341.000000	0.772519
342.000000	0.791058
343.000000	0.735354
344.000000	0.767461
345.000000	0.718771
346.000000	0.738285
347.000000	0.802595
348.000000	0.787000
349.000000	0.726678
350.000000	0.742992
351.000000	0.731134
352.000000	0.706400
353.000000	0.766675
354.000000	0.713539
355.000000	0.764613
356.000000	0.755948
357.000000	0.799795
358.000000	0.811886
359.000000	0.773339
360.000000	0.730831
361.000000	0.729357
362.000000	0.773919
363.000000	0.787531
364.000000	0.784092
365.000000	0.757843
366.000000	0.760329
367.000000	0.734391
368.000000	0.798032
369.000000	0.784011
370.000000	0.792456
371.000000	0.801954
372.000000	0.785420
373.000000	0.776366
374.000000	0.871553
375.000000	0.812456
376.000000	0.696462
377.000000	0.789634
378.000000	0.797073
379.000000	0.802083
380.000000	0.809834
381.000000	0.819802
382.000000	0.835719
383.000000	0.842704
384.000000	0.860220
385.000000	0.884601
386.000000	0.917680
387.000000	0.937356
388.000000	0.970026
389.000000	0.995179
390.000000	1.041671
391.000000	1.081351
392.000000	1.126360
393.000000	1.192301
394.000000	1.254477
395.000000	1.316112
396.000000	1.382055
397.000000	1.457532
398.000000	1.539084
399.000000	1.616290
400.000000	1.704841
401.000000	1.807870
402.000000	1.899968
403.000000	2.002546
404.000000	2.119710
405.000000	2.213912
406.000000	2.321521
407.000000	2.443772
408.000000	2.558927
409.000000	2.675762
410.000000	2.794884
411.000000	2.915218
412.000000	3.041339
413.000000	3.157344
414.000000	3.273696
415.000000	3.390067
416.000000	3.501416
417.000000	3.610522
418.000000	3.721942
419.000000	3.824966
420.000000	3.919300
421.000000	4.015551
422.000000	4.115822
423.000000	4.208414
424.000000	4.295081
425.000000	4.390024
426.000000	4.475769
427.000000	4.558415
428.000000	4.636243
429.000000	4.713069
430.000000	4.795756
431.000000	4.871296
432.000000	4.929661
433.000000	4.993140
434.000000	5.062613
435.000000	5.124264
436.000000	5.181241
437.000000	5.232749
438.000000	5.270311
439.000000	5.312448
440.000000	5.344026
441.000000	5.354229
442.000000	5.374316
443.000000	5.393145
444.000000	5.382804
445.000000	5.374196
446.000000	5.370180
447.000000	5.345888
448.000000	5.317027
449.000000	5.283865
450.000000	5.234199
451.000000	5.176525
452.000000	5.107229
453.000000	5.037617
454.000000	4.957376
455.000000	4.868018
456.000000	4.774133
457.000000	4.671907
458.000000	4.558729
459.000000	4.441570
460.000000	4.340861
461.000000	4.234607
462.000000	4.127310
463.000000	4.023390
464.000000	3.921071
465.000000	3.819114
466.000000	3.736737
467.000000	3.666674
468.000000	3.607758
469.000000	3.567093
470.000000	3.543811
471.000000	3.530417
472.000000	3.540516
473.000000	3.577868
474.000000	3.629829
475.000000	3.699296
476.000000	3.786603
477.000000	3.897277
478.000000	4.019025
479.000000	4.169211
480.000000	4.320346
481.000000	4.430467
482.000000	4.531459
483.000000	4.666370
484.000000	4.852981
485.000000	5.061217
486.000000	5.269853
487.000000	5.483871
488.000000	5.693084
489.000000	5.884377
490.000000	6.082284
491.000000	6.288404
492.000000	6.484620
493.000000	6.672258
494.000000	6.849088
495.000000	7.037007
496.000000	7.219518
497.000000	7.416578
498.000000	7.587795
499.000000	7.740823
500.000000	7.897231
501.000000	8.066406
502.000000	8.217222
503.000000	8.375796
504.000000	8.558290
505.000000	8.730180
506.000000	8.889820
507.000000	9.052974
508.000000	9.219314
509.000000	9.373969
510.000000	9.549199
511.000000	9.752784
512.000000	9.939820
513.000000	10.131532
514.000000	10.307220
515.000000	10.487263
516.000000	10.663010
517.000000	10.833577
518.000000	10.991624
519.000000	11.148135
520.000000	11.337099
521.000000	11.499118
522.000000	11.665686
523.000000	11.823442
524.000000	11.986385
525.000000	12.143928
526.000000	12.288531
527.000000	12.434699
528.000000	12.594667
529.000000	12.763823
530.000000	12.926537
531.000000	13.064026
532.000000	13.208340
533.000000	13.349247
534.000000	13.485570
535.000000	13.610193
536.000000	13.736467
537.000000	13.858372
538.000000	13.921338
539.000000	13.985456
540.000000	14.107298
541.000000	14.186355
542.000000	14.259062
543.000000	14.364888
544.000000	14.433660
545.000000	14.500815
546.000000	14.609563
547.000000	14.701714
548.000000	14.750230
549.000000	14.897025
550.000000	14.988868
551.000000	15.047083
552.000000	15.104388
553.000000	15.155509
554.000000	15.204378
555.000000	15.224092
556.000000	15.285147
557.000000	15.334616
558.000000	15.348208
559.000000	15.395818
560.000000	15.388020
561.000000	15.397616
562.000000	15.413969
563.000000	15.435692
564.000000	15.415910
565.000000	15.398152
566.000000	15.383667
567.000000	15.334559
568.000000	15.318935
569.000000	15.266866
570.000000	15.231402
571.000000	15.177264
572.000000	15.129794
573.000000	15.080969
574.000000	14.994513
575.000000	14.901208
576.000000	14.810931
577.000000	14.666046
578.000000	14.488157
579.000000	14.334278
580.000000	14.173868
581.000000	13.994842
582.000000	13.809677
583.000000	13.626204
584.000000	13.428288
585.000000	13.242686
586.000000	13.054779
587.000000	12.871721
588.000000	12.657610
589.000000	12.497386
590.000000	12.290632
591.000000	12.115262
592.000000	11.944673
593.000000	11.774779
594.000000	11.618707
595.000000	11.441057
596.000000	11.284918
597.000000	11.137784
598.000000	10.967026
599.000000	10.784750
600.000000	10.628465
601.000000	10.428326
602.000000	10.247452
603.000000	10.072507
604.000000	9.883313
605.000000	9.711722
606.000000	9.570681
607.000000	9.409041
608.000000	9.294953
609.000000	9.166745
610.000000	9.046255
611.000000	8.993914
612.000000	8.934958
613.000000	8.902779
614.000000	8.907161
615.000000	8.911843
616.000000	8.934086
617.000000	8.992630
618.000000	9.040602
619.000000	9.073655
620.000000	9.124625
621.000000	9.185350
622.000000	9.265518
623.000000	9.319418
624.000000	9.410308
625.000000	9.465884
626.000000	9.536146
627.000000	9.571262
628.000000	9.615875
629.000000	9.659292
630.000000	9.700643
631.000000	9.723378
632.000000	9.752604
633.000000	9.774441
634.000000	9.809833
635.000000	9.796530
636.000000	9.800703
637.000000	9.815172
638.000000	9.824730
639.000000	9.849405
640.000000	9.823834
641.000000	9.832488
642.000000	9.822449
643.000000	9.810922
644.000000	9.840015
645.000000	9.847294
646.000000	9.862346
647.000000	9.871304
648.000000	9.899145
649.000000	9.926163
650.000000	9.951636
651.000000	9.997283
652.000000	10.050886
653.000000	10.135361
654.000000	10.233162
655.000000	10.310674
656.000000	10.432166
657.000000	10.477944
658.000000	10.562418
659.000000	10.637225
660.000000	10.723492
661.000000	10.811096
662.000000	10.862179
663.000000	10.919208
664.000000	10.963882
665.000000	11.018211
666.000000	11.042727
667.000000	11.043477
668.000000	11.090409
669.000000	11.084061
670.000000	11.076057
671.000000	11.066167
672.000000	11.057273
673.000000	11.055913
674.000000	11.044851
675.000000	11.031797
676.000000	11.019190
677.000000	11.002332
678.000000	11.016538
679.000000	11.048316
680.000000	11.054908
681.000000	11.094931
682.000000	11.134128
683.000000	11.181973
684.000000	11.258713
685.000000	11.358703
686.000000	11.421466
687.000000	11.514944
688.000000	11.648068
689.000000	11.778175
690.000000	11.879118
691.000000	11.979196
692.000000	12.055976
693.000000	12.164940
694.000000	12.291753
695.000000	12.426896
696.000000	12.516490
697.000000	12.622150
698.000000	12.700162
699.000000	12.752322
700.000000	12.795900
701.000000	12.864848
702.000000	12.942702
703.000000	12.978968
704.000000	13.029282
705.000000	13.072951
706.000000	13.063677
707.000000	13.093649
708.000000	13.149761
709.000000	13.212309
710.000000	13.271448
711.000000	13.257037
712.000000	13.315526
713.000000	13.383098
714.000000	13.425701
715.000000	13.469771
716.000000	13.539122
717.000000	13.643967
718.000000	13.694088
719.000000	13.737963
720.000000	13.830267
721.000000	13.945816
722.000000	14.030176
723.000000	14.124288
724.000000	14.235127
725.000000	14.350275
726.000000	14.464760
727.000000	14.598465
728.000000	14.729574
729.000000	14.848923
730.000000	14.967996
731.000000	15.103200
732.000000	15.221236
733.000000	15.316248
734.000000	15.429527
735.000000	15.558920
736.000000	15.631662
737.000000	15.701003
738.000000	15.806978
739.000000	15.875072
740.000000	15.947010
741.000000	16.053346
742.000000	16.138430
743.000000	16.187218
744.000000	16.269729
745.000000	16.358195
746.000000	16.407117
747.000000	16.444703
748.000000	16.503789
749.000000	16.609082
750.000000	16.675216
751.000000	16.656663
752.000000	16.687536
753.000000	16.742569
754.000000	16.755617
755.000000	16.811258
756.000000	16.827857
757.000000	16.825942
758.000000	16.830548
759.000000	16.851430
760.000000	16.891611
761.000000	16.954268
762.000000	16.966278
763.000000	16.913312
764.000000	16.879663
765.000000	16.897551
766.000000	16.883526
767.000000	16.895955
768.000000	16.874939
769.000000	16.822349
770.000000	16.846920
771.000000	16.863019
772.000000	16.902041
773.000000	16.861568
774.000000	16.819576
775.000000	16.831126
776.000000	16.863551
777.000000	16.894416
778.000000	16.918440
779.000000	16.925497
780.000000	16.950823
781.000000	17.022467
782.000000	17.054680
783.000000	17.071935
784.000000	17.101104
785.000000	17.076025
786.000000	17.042825
787.000000	17.038365
788.000000	17.020122
789.000000	17.001046
790.000000	17.003330
791.000000	16.991144
792.000000	17.041867
793.000000	17.019594
794.000000	16.984517
795.000000	17.067703
796.000000	17.005266
797.000000	16.978083
798.000000	16.946996
799.000000	16.861039
800.000000	16.909298
801.000000	16.914948
802.000000	16.883536
803.000000	16.891387
804.000000	16.878162
805.000000	16.748370
806.000000	16.652984
807.000000	16.585000
808.000000	16.580013
809.000000	16.468466
810.000000	16.423480
811.000000	16.312676
812.000000	16.226911
813.000000	16.121794
814.000000	16.020587
815.000000	15.891036
816.000000	15.808642
817.000000	15.756203
818.000000	15.550922
819.000000	15.445588
820.000000	15.357672
821.000000	15.229419
822.000000	15.038296
823.000000	14.973903
824.000000	14.899645
825.000000	14.748453
826.000000	14.584910
827.000000	14.361415
828.000000	14.340286
829.000000	14.276950
830.000000	14.138591
831.000000	14.020391
832.000000	13.786363
833.000000	13.606827
834.000000	13.576170
835.000000	13.355887
836.000000	13.134233
837.000000	13.071598
838.000000	12.978510
839.000000	12.782455
840.000000	12.570415
841.000000	12.505999
842.000000	12.371500
843.000000	12.254921
844.000000	12.036350
845.000000	11.908131
846.000000	11.819767
847.000000	11.502515
848.000000	11.663101
849.000000	11.433691
850.000000	11.400636
851.000000	10.933582
852.000000	10.755529
853.000000	10.714774
854.000000	10.849404
855.000000	10.467170
856.000000	10.678168
857.000000	10.198316
858.000000	11.185743
859.000000	9.857381
860.000000	9.982892
861.000000	10.090799
862.000000	10.174970
863.000000	10.315773
864.000000	10.431301
865.000000	10.604729
866.000000	10.743343
867.000000	10.916077
868.000000	11.029960
869.000000	11.163677
870.000000	11.338656
871.000000	11.531843
872.000000	11.639162
873.000000	11.825823
874.000000	11.949135
875.000000	12.116134
876.000000	12.224124
877.000000	12.360966
878.000000	12.470144
879.000000	12.540277
880.000000	12.672239
881.000000	12.762043
882.000000	12.933909
883.000000	13.041472
884.000000	13.128691
885.000000	13.182679
886.000000	13.275746
887.000000	13.332495
888.000000	13.429404
889.000000	13.504395
890.000000	13.561285
891.000000	13.649628
892.000000	13.739554
893.000000	13.779796
894.000000	13.858034
895.000000	13.923601
896.000000	14.011188
897.000000	14.033907
898.000000	14.100021
899.000000	14.141947
900.000000	14.189779
901.000000	14.256619
902.000000	14.286660
903.000000	14.335198
904.000000	14.375760
905.000000	14.434741
906.000000	14.480000
907.000000	14.525983
908.000000	14.577520
909.000000	14.619835
910.000000	14.648310
911.000000	14.721369
912.000000	14.737837
913.000000	14.737897
914.000000	14.706142
915.000000	14.787121
916.000000	14.827788
917.000000	14.847567
918.000000	14.832914
919.000000	14.849977
920.000000	14.873632
921.000000	14.893727
922.000000	14.924354
923.000000	14.878213
924.000000	14.912242
925.000000	14.897648
926.000000	14.918315
927.000000	14.945486
928.000000	14.911957
929.000000	14.915077
930.000000	14.906523
931.000000	14.887602
932.000000	14.847114
933.000000	14.825764
934.000000	14.827629
935.000000	14.818905
936.000000	14.802703
937.000000	14.777401
938.000000	14.757773
939.000000	14.753593
940.000000	14.759930
941.000000	14.743932
942.000000	14.712277
943.000000	14.712629
944.000000	14.692395
945.000000	14.653949
946.000000	14.642977
947.000000	14.638640
948.000000	14.603351
949.000000	14.576791
950.000000	14.562844
951.000000	14.544466
952.000000	14.538041
953.000000	14.521934
954.000000	14.485057
955.000000	14.457288
956.000000	14.433783
957.000000	14.411529
958.000000	14.382640
959.000000	14.354928
960.000000	14.330222
961.000000	14.282133
962.000000	14.243705
963.000000	14.218687
964.000000	14.188771
965.000000	14.159765
966.000000	14.134612
967.000000	14.115168
968.000000	14.087705
969.000000	14.063346
970.000000	14.030592
971.000000	13.986302
972.000000	13.942038
973.000000	13.910673
974.000000	13.876100
975.000000	13.834144
976.000000	13.795835
977.000000	13.772548
978.000000	13.724074
979.000000	13.694049
980.000000	13.671013
981.000000	13.638715
982.000000	13.602719
983.000000	13.572347
984.000000	13.539826
985.000000	13.506252
986.000000	13.473409
987.000000	13.435337
988.000000	13.399011
989.000000	13.363968
990.000000	13.332437
991.000000	13.294340
992.000000	13.275553
993.000000	13.247782
994.000000	13.209532
995.000000	13.168051
996.000000	13.133966
997.000000	13.112051
998.000000	13.097668
999.000000	13.062369
1000.000000	13.032665
1001.000000	13.011150
1002.000000	12.985111
1003.000000	12.944808
1004.000000	12.902513
1005.000000	12.868020
1006.000000	12.841199
1007.000000	12.815416
1008.000000	12.794654
1009.000000	12.756984
1010.000000	12.722427
1011.000000	12.709311
1012.000000	12.687267
1013.000000	12.656221
1014.000000	12.631389
1015.000000	12.613153
1016.000000	12.597375
1017.000000	12.575547
1018.000000	12.551254
1019.000000	12.545430
1020.000000	12.553755
1021.000000	12.548184
1022.000000	12.539978
1023.000000	12.535769
1024.000000	12.523677
1025.000000	12.506005
1026.000000	12.500232
1027.000000	12.498997
1028.000000	12.488022
1029.000000	12.475284
1030.000000	12.465354
1031.000000	12.453557
1032.000000	12.451441
1033.000000	12.451880
1034.000000	12.439011
1035.000000	12.432075
1036.000000	12.433927
1037.000000	12.421258
1038.000000	12.396584
1039.000000	12.378994
1040.000000	12.374005
1041.000000	12.369642
1042.000000	12.357784
1043.000000	12.351773
1044.000000	12.340095
1045.000000	12.320644
1046.000000	12.310676
1047.000000	12.318911
1048.000000	12.312200
1049.000000	12.298276
1050.000000	12.293402
1051.000000	12.294211
1052.000000	12.301442
1053.000000	12.295213
1054.000000	12.290834
1055.000000	12.299337
1056.000000	12.295894
1057.000000	12.294081
1058.000000	12.298331
1059.000000	12.302419
1060.000000	12.302627
1061.000000	12.302869
1062.000000	12.307099
1063.000000	12.316544
1064.000000	12.329326
1065.000000	12.325135
1066.000000	12.320498
1067.000000	12.321578
1068.000000	12.338154
1069.000000	12.352065
1070.000000	12.342971
1071.000000	12.353363
1072.000000	12.358308
1073.000000	12.352939
1074.000000	12.360023
1075.000000	12.366564
1076.000000	12.372196
1077.000000	12.373586
1078.000000	12.375362
1079.000000	12.381389
1080.000000	12.380252
1081.000000	12.374613
1082.000000	12.391265
1083.000000	12.393069
1084.000000	12.396215
1085.000000	12.406598
1086.000000	12.417430
1087.000000	12.413348
1088.000000	12.420887
1089.000000	12.443128
1090.000000	12.447541
1091.000000	12.446126
1092.000000	12.445605
1093.000000	12.457959
1094.000000	12.467247
1095.000000	12.457224
1096.000000	12.461481
1097.000000	12.460547
1098.000000	12.466447
1099.000000	12.475065
1100.000000	12.478697
1101.000000	12.471148
1102.000000	12.470381
1103.000000	12.477366
1104.000000	12.489782
1105.000000	12.477329
1106.000000	12.477015
1107.000000	12.475913
1108.000000	12.481983
1109.000000	12.480393
1110.000000	12.481515
1111.000000	12.481266
1112.000000	12.483371
1113.000000	12.489470
1114.000000	12.486033
1115.000000	12.477357
1116.000000	12.476299
1117.000000	12.474351
1118.000000	12.471331
1119.000000	12.469210
1120.000000	12.457693
1121.000000	12.440760
1122.000000	12.437553
1123.000000	12.420999
1124.000000	12.407530
1125.000000	12.383692
1126.000000	12.370627
1127.000000	12.336903
1128.000000	12.293702
1129.000000	12.258701
1130.000000	12.205739
1131.000000	12.149653
1132.000000	12.072278
1133.000000	11.999827
1134.000000	11.930951
1135.000000	11.855182
1136.000000	11.776292
1137.000000	11.698770
1138.000000	11.595478
1139.000000	11.522657
1140.000000	11.445479
1141.000000	11.369281
1142.000000	11.292920
1143.000000	11.216064
1144.000000	11.158627
1145.000000	11.111656
1146.000000	11.074987
1147.000000	11.054027
1148.000000	11.055788
1149.000000	11.043143
1150.000000	11.027601
1151.000000	11.037212
1152.000000	11.028385
1153.000000	11.005470
1154.000000	10.992395
1155.000000	10.963723
1156.000000	10.913818
1157.000000	10.866166
1158.000000	10.792211
1159.000000	10.717447
1160.000000	10.640720
1161.000000	10.571147
1162.000000	10.494865
1163.000000	10.422700
1164.000000	10.329974
1165.000000	10.266997
1166.000000	10.167554
1167.000000	10.110192
1168.000000	10.038836
1169.000000	9.966127
1170.000000	9.904331
1171.000000	9.830139
1172.000000	9.770890
1173.000000	9.694811
1174.000000	9.642733
1175.000000	9.592286
1176.000000	9.525683
1177.000000	9.472582
1178.000000	9.397579
1179.000000	9.309105
1180.000000	9.209695
1181.000000	9.114508
1182.000000	9.010844
1183.000000	8.922023
1184.000000	8.865714
1185.000000	8.824643
1186.000000	8.819873
1187.000000	8.822914
1188.000000	8.868623
1189.000000	8.924200
1190.000000	8.998457
1191.000000	9.076183
1192.000000	9.175607
1193.000000	9.245701
1194.000000	9.318674
1195.000000	9.379774
1196.000000	9.402514
1197.000000	9.447220
1198.000000	9.471843
1199.000000	9.474760
1200.000000	9.494844
1201.000000	9.495615
1202.000000	9.495858
1203.000000	9.502595
1204.000000	9.515005
1205.000000	9.504485
1206.000000	9.507716
1207.000000	9.526818
1208.000000	9.535225
1209.000000	9.549870
1210.000000	9.558262
1211.000000	9.582524
1212.000000	9.596723
1213.000000	9.619012
1214.000000	9.638251
1215.000000	9.656761
1216.000000	9.688263
1217.000000	9.700498
1218.000000	9.720200
1219.000000	9.748491
1220.000000	9.780873
1221.000000	9.811179
1222.000000	9.838128
1223.000000	9.878319
1224.000000	9.901672
1225.000000	9.938466
1226.000000	9.975934
1227.000000	10.013406
1228.000000	10.049776
1229.000000	10.072234
1230.000000	10.106110
1231.000000	10.146935
1232.000000	10.170834
1233.000000	10.205133
1234.000000	10.238840
1235.000000	10.273727
1236.000000	10.304193
1237.000000	10.338941
1238.000000	10.369985
1239.000000	10.389740
1240.000000	10.422509
1241.000000	10.466308
1242.000000	10.501133
1243.000000	10.535322
1244.000000	10.550132
1245.000000	10.559001
1246.000000	10.596594
1247.000000	10.625120
1248.000000	10.642791
1249.000000	10.666297
1250.000000	10.682787
1251.000000	10.698456
1252.000000	10.725530
1253.000000	10.737728
1254.000000	10.760015
1255.000000	10.780355
1256.000000	10.788569
1257.000000	10.802974
1258.000000	10.820444
1259.000000	10.820564
1260.000000	10.818168
1261.000000	10.834654
1262.000000	10.852802
1263.000000	10.861183
1264.000000	10.865122
1265.000000	10.879416
1266.000000	10.887717
1267.000000	10.892311
1268.000000	10.905401
1269.000000	10.919421
1270.000000	10.925551
1271.000000	10.929295
1272.000000	10.942090
1273.000000	10.940684
1274.000000	10.954470
1275.000000	10.960486
1276.000000	10.970277
1277.000000	10.987097
1278.000000	10.997168
1279.000000	11.010363
1280.000000	11.028604
1281.000000	11.039520
1282.000000	11.054745
1283.000000	11.070455
1284.000000	11.080869
1285.000000	11.093611
1286.000000	11.096903
1287.000000	11.105812
1288.000000	11.118926
1289.000000	11.122666
1290.000000	11.131365
1291.000000	11.139433
1292.000000	11.134279
1293.000000	11.140655
1294.000000	11.154410
1295.000000	11.146654
1296.000000	11.138618
1297.000000	11.149687
1298.000000	11.145870
1299.000000	11.140184
1300.000000	11.145231
1301.000000	11.142025
1302.000000	11.134056
1303.000000	11.132650
1304.000000	11.128460
1305.000000	11.116838
1306.000000	11.107437
1307.000000	11.098096
1308.000000	11.095481
1309.000000	11.085272
1310.000000	11.069642
1311.000000	11.048716
1312.000000	11.026345
1313.000000	11.014146
1314.000000	11.002209
1315.000000	10.992595
1316.000000	10.978338
1317.000000	10.947061
1318.000000	10.920490
1319.000000	10.902896
1320.000000	10.897408
1321.000000	10.877399
1322.000000	10.846609
1323.000000	10.823313
1324.000000	10.812826
1325.000000	10.783214
1326.000000	10.756260
1327.000000	10.726905
1328.000000	10.701679
1329.000000	10.677932
1330.000000	10.646231
1331.000000	10.618080
1332.000000	10.580748
1333.000000	10.533404
1334.000000	10.497735
1335.000000	10.454928
1336.000000	10.404620
1337.000000	10.372521
1338.000000	10.322552
1339.000000	10.276642
1340.000000	10.222930
1341.000000	10.178213
1342.000000	10.130480
1343.000000	10.065168
1344.000000	10.013276
1345.000000	9.935425
1346.000000	9.869618
1347.000000	9.812430
1348.000000	9.727624
1349.000000	9.648209
1350.000000	9.564753
1351.000000	9.450033
1352.000000	9.333583
1353.000000	9.229828
1354.000000	9.129477
1355.000000	9.030298
1356.000000	8.968591
1357.000000	8.930685
1358.000000	8.898698
1359.000000	8.871128
1360.000000	8.860952
1361.000000	8.873450
1362.000000	8.873280
1363.000000	8.828195
1364.000000	8.786652
1365.000000	8.757324
1366.000000	8.720183
1367.000000	8.681341
1368.000000	8.647852
1369.000000	8.578713
1370.000000	8.520141
1371.000000	8.455910
1372.000000	8.397953
1373.000000	8.340353
1374.000000	8.287242
1375.000000	8.226583
1376.000000	8.202303
1377.000000	8.180305
1378.000000	8.157933
1379.000000	8.129136
1380.000000	8.077886
1381.000000	8.045720
1382.000000	7.989977
1383.000000	7.943367
1384.000000	7.844572
1385.000000	7.786803
1386.000000	7.719063
1387.000000	7.667601
1388.000000	7.636171
1389.000000	7.571724
1390.000000	7.547401
1391.000000	7.511028
1392.000000	7.473420
1393.000000	7.421611
1394.000000	7.406210
1395.000000	7.415066
1396.000000	7.383515
1397.000000	7.323793
1398.000000	7.269861
1399.000000	7.247951
1400.000000	7.218539
1401.000000	7.183603
1402.000000	7.073203
1403.000000	7.002150
1404.000000	6.957079
1405.000000	6.900158
1406.000000	6.829388
1407.000000	6.779356
1408.000000	6.713907
1409.000000	6.687263
1410.000000	6.607866
1411.000000	6.564058
1412.000000	6.538357
1413.000000	6.514941
1414.000000	6.498087
1415.000000	6.460145
1416.000000	6.429700
1417.000000	6.375933
1418.000000	6.361671
1419.000000	6.339153
1420.000000	6.281525
1421.000000	6.240832
1422.000000	6.236700
1423.000000	6.227594
1424.000000	6.168553
1425.000000	6.138645
1426.000000	6.104168
1427.000000	6.097427
1428.000000	6.061548
1429.000000	6.018335
1430.000000	5.999312
1431.000000	5.989310
1432.000000	5.974782
1433.000000	5.939678
1434.000000	5.925075
1435.000000	5.909805
1436.000000	5.886355
1437.000000	5.880104
1438.000000	5.849021
1439.000000	5.822995
1440.000000	5.823213
1441.000000	5.781710
1442.000000	5.755381
1443.000000	5.725940
1444.000000	5.706166
1445.000000	5.704565
1446.000000	5.673643
1447.000000	5.633149
1448.000000	5.634972
1449.000000	5.605465
1450.000000	5.592281
1451.000000	5.559858
1452.000000	5.544552
1453.000000	5.512865
1454.000000	5.494825
1455.000000	5.487576
1456.000000	5.443884
1457.000000	5.434865
1458.000000	5.429494
1459.000000	5.393083
1460.000000	5.391177
1461.000000	5.372875
1462.000000	5.363624
1463.000000	5.337745
1464.000000	5.335827
1465.000000	5.330436
1466.000000	5.321421
1467.000000	5.303504
1468.000000	5.299506
1469.000000	5.292411
1470.000000	5.267691
1471.000000	5.261329
1472.000000	5.268237
1473.000000	5.244517
1474.000000	5.228723
1475.000000	5.221431
1476.000000	5.209470
1477.000000	5.203747
1478.000000	5.197188
1479.000000	5.183673
1480.000000	5.182524
1481.000000	5.182530
1482.000000	5.166979
1483.000000	5.156636
1484.000000	5.161786
1485.000000	5.155247
1486.000000	5.148346
1487.000000	5.140935
1488.000000	5.140218
1489.000000	5.132581
1490.000000	5.123385
1491.000000	5.113246
1492.000000	5.113778
1493.000000	5.107383
1494.000000	5.098064
1495.000000	5.100215
1496.000000	5.102073
1497.000000	5.106192
1498.000000	5.103900
1499.000000	5.105102
1500.000000	5.124687
1501.000000	5.122027
1502.000000	5.110605
1503.000000	5.114632
1504.000000	5.121761
1505.000000	5.117920
1506.000000	5.127724
1507.000000	5.148834
1508.000000	5.145523
1509.000000	5.149264
1510.000000	5.159830
1511.000000	5.159076
1512.000000	5.161083
1513.000000	5.169858
1514.000000	5.171533
1515.000000	5.171898
1516.000000	5.180235
1517.000000	5.189619
1518.000000	5.197784
1519.000000	5.191566
1520.000000	5.195018
1521.000000	5.199240
1522.000000	5.203893
1523.000000	5.197076
1524.000000	5.204843
1525.000000	5.217511
1526.000000	5.221839
1527.000000	5.219351
1528.000000	5.218477
1529.000000	5.232481
1530.000000	5.236324
1531.000000	5.229092
1532.000000	5.226716
1533.000000	5.223766
1534.000000	5.221612
1535.000000	5.227375
1536.000000	5.231657
1537.000000	5.227465
1538.000000	5.215407
1539.000000	5.204507
1540.000000	5.212689
1541.000000	5.214773
1542.000000	5.223988
1543.000000	5.216773
1544.000000	5.204676
1545.000000	5.204889
1546.000000	5.204763
1547.000000	5.200819
1548.000000	5.196986
1549.000000	5.210351
1550.000000	5.211158
1551.000000	5.192699
1552.000000	5.183791
1553.000000	5.186961
1554.000000	5.192260
1555.000000	5.181910
1556.000000	5.166583
1557.000000	5.160113
1558.000000	5.159664
1559.000000	5.152086
1560.000000	5.141006
1561.000000	5.137847
1562.000000	5.130743
1563.000000	5.111365
1564.000000	5.092468
1565.000000	5.088233
1566.000000	5.079774
1567.000000	5.063953
1568.000000	5.053157
1569.000000	5.044865
1570.000000	5.036063
1571.000000	5.026973
1572.000000	5.021322
1573.000000	5.009684
1574.000000	4.995330
1575.000000	4.988686
1576.000000	4.980269
1577.000000	4.980008
1578.000000	4.981784
1579.000000	4.984412
1580.000000	4.989250
1581.000000	4.996302
1582.000000	5.000201
1583.000000	5.003968
1584.000000	5.000359
1585.000000	4.990758
1586.000000	5.000350
1587.000000	5.004758
1588.000000	5.007609
1589.000000	5.019754
1590.000000	5.030003
1591.000000	5.038465
1592.000000	5.043421
1593.000000	5.038723
1594.000000	5.046576
1595.000000	5.058705
1596.000000	5.061603
1597.000000	5.067867
1598.000000	5.068469
1599.000000	5.079589
1600.000000	5.090172
1601.000000	5.100596
1602.000000	5.114754
1603.000000	5.119799
1604.000000	5.119955
1605.000000	5.129866
1606.000000	5.133937
1607.000000	5.117382
1608.000000	5.125214
1609.000000	5.131313
1610.000000	5.142366
1611.000000	5.154229
1612.000000	5.164158
1613.000000	5.172380
1614.000000	5.182672
1615.000000	5.189151
1616.000000	5.193346
1617.000000	5.208079
1618.000000	5.215989
1619.000000	5.228546
1620.000000	5.234483
1621.000000	5.249973
1622.000000	5.263674
1623.000000	5.274105
1624.000000	5.282218
1625.000000	5.283105
1626.000000	5.299184
1627.000000	5.314687
1628.000000	5.333728
1629.000000	5.342649
1630.000000	5.354641
1631.000000	5.372537
1632.000000	5.382759
1633.000000	5.382630
1634.000000	5.397132
1635.000000	5.410445
1636.000000	5.424939
1637.000000	5.444440
1638.000000	5.458117
1639.000000	5.454555
1640.000000	5.457992
1641.000000	5.468934
1642.000000	5.469077
1643.000000	5.479931
1644.000000	5.470914
1645.000000	5.481519
1646.000000	5.494443
1647.000000	5.495647
1648.000000	5.496516
1649.000000	5.505147
1650.000000	5.497915
1651.000000	5.497479
1652.000000	5.506336
1653.000000	5.490822
1654.000000	5.484558
1655.000000	5.488291
1656.000000	5.483087
1657.000000	5.468676
1658.000000	5.456698
1659.000000	5.441037
1660.000000	5.433962
1661.000000	5.409643
1662.000000	5.393410
1663.000000	5.377782
1664.000000	5.353075
1665.000000	5.326390
1666.000000	5.284847
1667.000000	5.250705
1668.000000	5.207426
1669.000000	5.176409
1670.000000	5.117653
1671.000000	5.068770
1672.000000	5.020354
1673.000000	4.948060
1674.000000	4.882491
1675.000000	4.782702
1676.000000	4.687656
1677.000000	4.565643
1678.000000	4.446195
1679.000000	4.321985
1680.000000	4.175268
1681.000000	4.063145
1682.000000	3.970850
1683.000000	3.891901
1684.000000	3.853735
1685.000000	3.824724
1686.000000	3.814819
1687.000000	3.803011
1688.000000	3.815960
1689.000000	3.799814
1690.000000	3.775769
1691.000000	3.725259
1692.000000	3.683270
1693.000000	3.663579
1694.000000	3.634530
1695.000000	3.630028
1696.000000	3.654581
1697.000000	3.674910
1698.000000	3.717485
1699.000000	3.755138
1700.000000	3.798808
1701.000000	3.821224
1702.000000	3.867976
1703.000000	3.881150
1704.000000	3.903409
1705.000000	3.932422
1706.000000	3.928601
1707.000000	3.931048
1708.000000	3.920493
1709.000000	3.937164
1710.000000	3.930893
1711.000000	3.917959
1712.000000	3.908365
1713.000000	3.897363
1714.000000	3.882568
1715.000000	3.862131
1716.000000	3.859243
1717.000000	3.841640
1718.000000	3.827342
1719.000000	3.798263
1720.000000	3.797645
1721.000000	3.778457
1722.000000	3.788499
1723.000000	3.775837
1724.000000	3.778246
1725.000000	3.774798
1726.000000	3.745895
1727.000000	3.722922
1728.000000	3.695738
1729.000000	3.671796
1730.000000	3.645675
1731.000000	3.636338
1732.000000	3.630528
1733.000000	3.608601
1734.000000	3.619534
1735.000000	3.633691
1736.000000	3.664389
1737.000000	3.682500
1738.000000	3.743416
1739.000000	3.800057
1740.000000	3.864215
1741.000000	3.924905
1742.000000	3.975681
1743.000000	4.032686
1744.000000	4.072206
1745.000000	4.108092
1746.000000	4.145413
1747.000000	4.172482
1748.000000	4.201759
1749.000000	4.211093
1750.000000	4.235868
1751.000000	4.250687
1752.000000	4.258708
1753.000000	4.253560
1754.000000	4.259171
1755.000000	4.264915
1756.000000	4.256551
1757.000000	4.254497
1758.000000	4.239186
1759.000000	4.211671
1760.000000	4.200515
1761.000000	4.187644
1762.000000	4.193190
1763.000000	4.200930
1764.000000	4.194001
1765.000000	4.215069
1766.000000	4.230083
1767.000000	4.241059
1768.000000	4.274547
1769.000000	4.305947
1770.000000	4.337071
1771.000000	4.371097
1772.000000	4.405146
1773.000000	4.432918
1774.000000	4.463925
1775.000000	4.485671
1776.000000	4.515308
1777.000000	4.539435
1778.000000	4.558624
1779.000000	4.580447
1780.000000	4.607630
1781.000000	4.626332
1782.000000	4.641201
1783.000000	4.670958
1784.000000	4.680412
1785.000000	4.691989
1786.000000	4.694553
1787.000000	4.723198
1788.000000	4.743101
1789.000000	4.763753
1790.000000	4.774046
1791.000000	4.781452
1792.000000	4.792913
1793.000000	4.804811
1794.000000	4.809961
1795.000000	4.822631
1796.000000	4.823497
1797.000000	4.827486
1798.000000	4.849865
1799.000000	4.863274
1800.000000	4.868925
1801.000000	4.874558
1802.000000	4.873216
1803.000000	4.881397
1804.000000	4.888098
1805.000000	4.911211
1806.000000	4.918799
1807.000000	4.913859
1808.000000	4.917622
1809.000000	4.933406
1810.000000	4.954921
1811.000000	4.958358
1812.000000	4.944791
1813.000000	4.939994
1814.000000	4.960100
1815.000000	4.964952
1816.000000	4.953253
1817.000000	4.938300
1818.000000	4.928546
1819.000000	4.945599
1820.000000	4.960512
1821.000000	4.947330
1822.000000	4.912175
1823.000000	4.912473
1824.000000	4.957900
1825.000000	4.980798
1826.000000	4.984341
1827.000000	4.979408
1828.000000	4.975208
1829.000000	5.000255
1830.000000	5.020411
1831.000000	5.020888
1832.000000	5.016716
1833.000000	5.033401
1834.000000	5.059665
1835.000000	5.071729
1836.000000	5.057845
1837.000000	5.020198
1838.000000	4.996401
1839.000000	5.003007
1840.000000	5.048427
1841.000000	5.082568
1842.000000	5.070541
1843.000000	5.048394
1844.000000	5.060833
1845.000000	5.104549
1846.000000	5.131032
1847.000000	5.131208
1848.000000	5.103139
1849.000000	5.069527
1850.000000	5.087704
1851.000000	5.145971
1852.000000	5.172320
1853.000000	5.180557
1854.000000	5.182437
1855.000000	5.157532
1856.000000	5.148893
1857.000000	5.171839
1858.000000	5.163851
1859.000000	5.155461
1860.000000	5.157868
1861.000000	5.155695
1862.000000	5.154688
1863.000000	5.161573
1864.000000	5.167701
1865.000000	5.144221
1866.000000	5.108077
1867.000000	5.081212
1868.000000	5.014319
1869.000000	4.936219
1870.000000	4.850501
1871.000000	4.763088
1872.000000	4.685671
1873.000000	4.640986
1874.000000	4.620605
1875.000000	4.585568
1876.000000	4.532020
1877.000000	4.512350
1878.000000	4.463403
1879.000000	4.410190
1880.000000	4.333999
1881.000000	4.257191
1882.000000	4.165405
1883.000000	4.076615
1884.000000	3.999274
1885.000000	3.902295
1886.000000	3.830727
1887.000000	3.785825
1888.000000	3.748538
1889.000000	3.685089
1890.000000	3.645291
1891.000000	3.597464
1892.000000	3.527761
1893.000000	3.482001
1894.000000	3.442600
1895.000000	3.403836
1896.000000	3.407865
1897.000000	3.396573
1898.000000	3.319915
1899.000000	3.254129
1900.000000	3.181035
1901.000000	3.096073
1902.000000	3.070602
1903.000000	3.061736
1904.000000	3.025707
1905.000000	2.970659
1906.000000	2.900704
1907.000000	2.862684
1908.000000	2.837699
1909.000000	2.829056
1910.000000	2.835495
1911.000000	2.826612
1912.000000	2.754887
1913.000000	2.691760
1914.000000	2.633705
1915.000000	2.572766
1916.000000	2.549633
1917.000000	2.575213
1918.000000	2.556811
1919.000000	2.504315
1920.000000	2.463388
1921.000000	2.412612
1922.000000	2.364373
1923.000000	2.325691
1924.000000	2.343784
1925.000000	2.318750
1926.000000	2.304468
1927.000000	2.264379
1928.000000	2.235481
1929.000000	2.199905
1930.000000	2.184557
1931.000000	2.169987
1932.000000	2.165180
1933.000000	2.155795
1934.000000	2.161641
1935.000000	2.162720
1936.000000	2.139988
1937.000000	2.134061
1938.000000	2.113210
1939.000000	2.104329
1940.000000	2.097901
1941.000000	2.099042
1942.000000	2.111219
1943.000000	2.118003
1944.000000	2.115540
1945.000000	2.116401
1946.000000	2.122679
1947.000000	2.128182
1948.000000	2.133912
1949.000000	2.129036
1950.000000	2.139384
1951.000000	2.150350
1952.000000	2.161627
1953.000000	2.172753
1954.000000	2.156232
1955.000000	2.172747
1956.000000	2.167832
1957.000000	2.195875
1958.000000	2.188924
1959.000000	2.202582
1960.000000	2.208792
1961.000000	2.234089
1962.000000	2.226520
1963.000000	2.249358
1964.000000	2.236039
1965.000000	2.250412
1966.000000	2.259339
1967.000000	2.263946
1968.000000	2.258143
1969.000000	2.286319
1970.000000	2.265391
1971.000000	2.278578
1972.000000	2.292971
1973.000000	2.311093
1974.000000	2.324493
1975.000000	2.327954
1976.000000	2.319064
1977.000000	2.336718
1978.000000	2.345504
1979.000000	2.357214
1980.000000	2.367309
1981.000000	2.360781
1982.000000	2.372332
1983.000000	2.389355
1984.000000	2.397079
1985.000000	2.395845
1986.000000	2.407268
1987.000000	2.422949
1988.000000	2.425804
1989.000000	2.427834
1990.000000	2.420991
1991.000000	2.433908
1992.000000	2.442197
1993.000000	2.461962
1994.000000	2.449504
1995.000000	2.434364
1996.000000	2.434597
1997.000000	2.446221
1998.000000	2.451766
1999.000000	2.437812
2000.000000	2.437194
2001.000000	2.443987
2002.000000	2.435711
2003.000000	2.431716
2004.000000	2.417352
2005.000000	2.416708
2006.000000	2.413656
2007.000000	2.403927
2008.000000	2.394557
2009.000000	2.369579
2010.000000	2.383136
2011.000000	2.366786
2012.000000	2.371501
2013.000000	2.358092
2014.000000	2.332525
2015.000000	2.309348
2016.000000	2.287660
2017.000000	2.281850
2018.000000	2.268953
2019.000000	2.254709
2020.000000	2.237255
2021.000000	2.219933
2022.000000	2.198584
2023.000000	2.192982
2024.000000	2.164165
2025.000000	2.148019
2026.000000	2.113743
2027.000000	2.109780
2028.000000	2.097623
2029.000000	2.078746
2030.000000	2.057895
2031.000000	2.030352
2032.000000	2.005474
2033.000000	1.994346
2034.000000	1.956992
2035.000000	1.932739
2036.000000	1.908966
2037.000000	1.884717
2038.000000	1.868872
2039.000000	1.842426
2040.000000	1.795868
2041.000000	1.763897
2042.000000	1.740342
2043.000000	1.718833
2044.000000	1.690603
2045.000000	1.654390
2046.000000	1.616405
2047.000000	1.600819
2048.000000	1.592075
2049.000000	1.580396
2050.000000	1.565965
2051.000000	1.551545
2052.000000	1.525956
2053.000000	1.512868
2054.000000	1.498757
2055.000000	1.510955
2056.000000	1.512396
2057.000000	1.512724
2058.000000	1.522115
2059.000000	1.520875
2060.000000	1.523213
2061.000000	1.540963
2062.000000	1.548782
2063.000000	1.560860
2064.000000	1.573259
2065.000000	1.591714
2066.000000	1.601077
2067.000000	1.607293
2068.000000	1.618370
2069.000000	1.634203
2070.000000	1.659500
2071.000000	1.673078
2072.000000	1.680408
2073.000000	1.685941
2074.000000	1.700954
2075.000000	1.714295
2076.000000	1.722244
2077.000000	1.725136
2078.000000	1.742300
2079.000000	1.744105
2080.000000	1.736005
2081.000000	1.736341
2082.000000	1.751752
2083.000000	1.761773
2084.000000	1.766654
2085.000000	1.755731
2086.000000	1.749042
2087.000000	1.770418
2088.000000	1.766299
2089.000000	1.753769
2090.000000	1.758561
2091.000000	1.749116
2092.000000	1.738513
2093.000000	1.743538
2094.000000	1.750422
2095.000000	1.753351
2096.000000	1.739942
2097.000000	1.732882
2098.000000	1.744341
2099.000000	1.751346
2100.000000	1.749513
2101.000000	1.746255
2102.000000	1.749051
2103.000000	1.744252
2104.000000	1.736396
2105.000000	1.731514
2106.000000	1.728105
2107.000000	1.726858
2108.000000	1.721264
2109.000000	1.716747
2110.000000	1.707047
2111.000000	1.694535
2112.000000	1.693325
2113.000000	1.701755
2114.000000	1.678665
2115.000000	1.658361
2116.000000	1.647022
2117.000000	1.637049
2118.000000	1.623752
2119.000000	1.607824
2120.000000	1.600900
2121.000000	1.587697
2122.000000	1.568538
2123.000000	1.551976
2124.000000	1.529508
2125.000000	1.503592
2126.000000	1.500403
2127.000000	1.479346
2128.000000	1.455685
2129.000000	1.437818
2130.000000	1.418161
2131.000000	1.397122
2132.000000	1.373752
2133.000000	1.359923
2134.000000	1.342567
2135.000000	1.307684
2136.000000	1.275848
2137.000000	1.253983
2138.000000	1.237377
2139.000000	1.216360
2140.000000	1.199438
2141.000000	1.194809
2142.000000	1.173432
2143.000000	1.151125
2144.000000	1.142789
2145.000000	1.129521
2146.000000	1.099060
2147.000000	1.075711
2148.000000	1.053259
2149.000000	1.028559
2150.000000	1.007300
2151.000000	0.984101
2152.000000	0.972121
2153.000000	0.946342
2154.000000	0.926996
2155.000000	0.910539
2156.000000	0.906457
2157.000000	0.896259
2158.000000	0.889198
2159.000000	0.879706
2160.000000	0.848893
2161.000000	0.843984
2162.000000	0.831316
2163.000000	0.812292
2164.000000	0.808957
2165.000000	0.792616
2166.000000	0.805602
2167.000000	0.801895
2168.000000	0.796500
2169.000000	0.797801
2170.000000	0.811565
2171.000000	0.805708
2172.000000	0.803914
2173.000000	0.795983
2174.000000	0.796941
2175.000000	0.812189
2176.000000	0.803090
2177.000000	0.803069
2178.000000	0.810676
2179.000000	0.800250
2180.000000	0.814463
2181.000000	0.820850
2182.000000	0.825956
2183.000000	0.810756
2184.000000	0.821356
2185.000000	0.819766
2186.000000	0.814607
2187.000000	0.822957
2188.000000	0.820889
2189.000000	0.838844
2190.000000	0.823700
2191.000000	0.821332
2192.000000	0.814282
2193.000000	0.825278
2194.000000	0.810081
2195.000000	0.826525
2196.000000	0.830568
2197.000000	0.827452
2198.000000	0.821438
2199.000000	0.831837
2200.000000	0.832446
2201.000000	0.829401
2202.000000	0.802546
2203.000000	0.810209
2204.000000	0.807207
2205.000000	0.817286
2206.000000	0.814594
2207.000000	0.821555
2208.000000	0.829556
2209.000000	0.820684
2210.000000	0.833553
2211.000000	0.837894
2212.000000	0.835474
2213.000000	0.825164
2214.000000	0.841942
2215.000000	0.831693
2216.000000	0.851751
2217.000000	0.833885
2218.000000	0.849115
2219.000000	0.864428
2220.000000	0.879085
2221.000000	0.886141
2222.000000	0.894791
2223.000000	0.898232
2224.000000	0.907321
2225.000000	0.908751
2226.000000	0.917238
2227.000000	0.929559
2228.000000	0.892103
2229.000000	0.890207
2230.000000	0.910590
2231.000000	0.921551
2232.000000	0.916709
2233.000000	0.895398
2234.000000	0.883515
2235.000000	0.870301
2236.000000	0.862707
2237.000000	0.861219
2238.000000	0.845283
2239.000000	0.811468
2240.000000	0.806441
2241.000000	0.777629
2242.000000	0.773769
2243.000000	0.742990
2244.000000	0.702004
2245.000000	0.703171
2246.000000	0.676405
2247.000000	0.636228
2248.000000	0.602738
2249.000000	0.566279
2250.000000	0.540095
2251.000000	0.489454
2252.000000	0.455388
2253.000000	0.419071
2254.000000	0.372509
2255.000000	0.344285
2256.000000	0.311550
2257.000000	0.273329
2258.000000	0.235686
2259.000000	0.230651
2260.000000	0.215992
2261.000000	0.214847
2262.000000	0.202781
2263.000000	0.217735
2264.000000	0.220499
2265.000000	0.242993
2266.000000	0.274473
2267.000000	0.281503
2268.000000	0.274315
2269.000000	0.279127
2270.000000	0.307772
2271.000000	0.313843
2272.000000	0.298706
2273.000000	0.311466
2274.000000	0.337645
2275.000000	0.344047
2276.000000	0.328485
2277.000000	0.331306
2278.000000	0.336351
2279.000000	0.345404
2280.000000	0.350052
2281.000000	0.348808
2282.000000	0.366638
2283.000000	0.358152
2284.000000	0.366772
2285.000000	0.373973
2286.000000	0.378884
2287.000000	0.376455
2288.000000	0.378172
2289.000000	0.389661
2290.000000	0.409006
2291.000000	0.419753
2292.000000	0.415939
2293.000000	0.429024
2294.000000	0.450150
2295.000000	0.474479
2296.000000	0.481349
2297.000000	0.513995
2298.000000	0.536395
2299.000000	0.542201
2300.000000	0.579463
2301.000000	0.602239
2302.000000	0.605114
2303.000000	0.613561
2304.000000	0.638932
2305.000000	0.644557
2306.000000	0.635781
2307.000000	0.639751
2308.000000	0.652881
2309.000000	0.624850
2310.000000	0.624362
2311.000000	0.627563
2312.000000	0.613371
2313.000000	0.594809
2314.000000	0.575912
2315.000000	0.566140
2316.000000	0.536623
2317.000000	0.527442
2318.000000	0.541005
2319.000000	0.529878
2320.000000	0.531213
2321.000000	0.530720
2322.000000	0.518232
2323.000000	0.523524
2324.000000	0.533345
2325.000000	0.528633
2326.000000	0.510350
2327.000000	0.509562
2328.000000	0.528650
2329.000000	0.549687
2330.000000	0.550043
2331.000000	0.544550
2332.000000	0.553349
2333.000000	0.562664
2334.000000	0.574424
2335.000000	0.551041
2336.000000	0.553283
2337.000000	0.562730
2338.000000	0.589355
2339.000000	0.605154
2340.000000	0.597899
2341.000000	0.606555
2342.000000	0.623853
2343.000000	0.617863
2344.000000	0.624906
2345.000000	0.642800
2346.000000	0.652945
2347.000000	0.662959
2348.000000	0.680576
2349.000000	0.686554
2350.000000	0.700172
2351.000000	0.710416
2352.000000	0.720977
2353.000000	0.715432
2354.000000	0.712135
2355.000000	0.727297
2356.000000	0.744250
2357.000000	0.734936
2358.000000	0.714409
2359.000000	0.719390
2360.000000	0.734495
2361.000000	0.720817
2362.000000	0.710457
2363.000000	0.721826
2364.000000	0.729092
2365.000000	0.719055
2366.000000	0.712865
2367.000000	0.719697
2368.000000	0.722191
2369.000000	0.710660
2370.000000	0.716313
2371.000000	0.739213
2372.000000	0.736576
2373.000000	0.725879
2374.000000	0.746019
2375.000000	0.763581
2376.000000	0.755068
2377.000000	0.738912
2378.000000	0.738247
2379.000000	0.736373
2380.000000	0.751422
2381.000000	0.758488
2382.000000	0.771817
2383.000000	0.781248
2384.000000	0.769406
2385.000000	0.761398
2386.000000	0.780938
2387.000000	0.788077
2388.000000	0.784374
2389.000000	0.788011
2390.000000	0.791177
2391.000000	0.802545
2392.000000	0.815021
2393.000000	0.810129
2394.000000	0.808745
2395.000000	0.830971
2396.000000	0.834135
2397.000000	0.842352
2398.000000	0.852520
2399.000000	0.845474
2400.000000	0.863834
2401.000000	0.872132
2402.000000	0.861900
2403.000000	0.881249
2404.000000	0.885261
2405.000000	0.897430
2406.000000	0.901807
2407.000000	0.880769
2408.000000	0.895623
2409.000000	0.899604
2410.000000	0.917226
2411.000000	0.914738
2412.000000	0.903726
2413.000000	0.920680
2414.000000	0.930742
2415.000000	0.919427
2416.000000	0.927658
2417.000000	0.943788
2418.000000	0.931550
2419.000000	0.937263
2420.000000	0.942329
2421.000000	0.952338
2422.000000	0.933057
2423.000000	0.918409
2424.000000	0.927393
2425.000000	0.938024
2426.000000	0.964101
2427.000000	0.969504
2428.000000	0.967530
2429.000000	0.942373
2430.000000	0.935555
2431.000000	0.933207
2432.000000	0.921686
2433.000000	0.923904
2434.000000	0.917580
2435.000000	0.922201
2436.000000	0.910466
2437.000000	0.913762
2438.000000	0.903270
2439.000000	0.887144
2440.000000	0.885337
2441.000000	0.885007
2442.000000	0.879960
2443.000000	0.865774
2444.000000	0.853845
2445.000000	0.871988
2446.000000	0.875832
2447.000000	0.852970
2448.000000	0.857736
2449.000000	0.852985
2450.000000	0.845453
2451.000000	0.844749
2452.000000	0.841304
2453.000000	0.834526
2454.000000	0.845290
2455.000000	0.824187
2456.000000	0.828615
2457.000000	0.807431
2458.000000	0.817308
2459.000000	0.790607
2460.000000	0.773895
2461.000000	0.772926
2462.000000	0.741444
2463.000000	0.744820
2464.000000	0.742404
2465.000000	0.715067
2466.000000	0.697317
2467.000000	0.706694
2468.000000	0.684218
2469.000000	0.671579
2470.000000	0.692575
2471.000000	0.672716
2472.000000	0.671522
2473.000000	0.644337
2474.000000	0.660792
2475.000000	0.625842
2476.000000	0.656213
2477.000000	0.617001
2478.000000	0.635930
2479.000000	0.663539
2480.000000	0.604454
2481.000000	0.584855
2482.000000	0.628638
2483.000000	0.584505
2484.000000	0.555565
2485.000000	0.589666
2486.000000	0.573222
2487.000000	0.593101
2488.000000	0.552867
2489.000000	0.646233
2490.000000	0.582128
2491.000000	0.609440
2492.000000	0.544327
2493.000000	0.638606
2494.000000	0.585701
2495.000000	0.533675
2496.000000	0.578055
2497.000000	0.613392
2498.000000	0.589269
2499.000000	0.565113
2500.000000	0.627266
