PE UV       SUBTECH     SPECTRUM    ASCII       PEDS        4.00        
   -1
CICIMAUCR0071-3.Sample.ASC
24/04/18
16:44:28.00
24/04/18
16:44:28.00
Vinicio Soto Monge
C. resplendens
250,000000
1
Lambda 1050
1050L1511233
PerkinElmer UV WinLab 6.3.2.0749 / 2.02.05 Lambda 900 UV/VIS/NIR, Aug  7 2015 09:38:08

0
0
3350/servo 860,8/2
0
0
UV/VIS
1
1
1
DoubleDePol,CommonBeamDepol,RBeamAtt,SBeamAtt,60mm sphere, WB InGaAs Detector
0
0
0
0
Program
Program
3350/servo 860,8/2
3350/0,2 860,8/0,2
3350/0,2 860,8/0,2
0
15.00
 
 
 
0
 
860,8
319,2
860,8
Front
100
on
S:100 R:100
0
0
0
0
 
0
 
 
 
0
 
 
0
0
0
0
0
 
 
 
 
0
0


0
0
#HDR
-1
-1
#GR
nm
%R
1.0
0.0
2500,000000
-1,000000
2251
8
72,832800
4,915400
#DATA
250.000000	0.896418
251.000000	0.848249
252.000000	0.854955
253.000000	0.875214
254.000000	0.844850
255.000000	0.871321
256.000000	0.833237
257.000000	0.832786
258.000000	0.813906
259.000000	0.894193
260.000000	0.817836
261.000000	0.813418
262.000000	0.798385
263.000000	0.828434
264.000000	0.799397
265.000000	0.770355
266.000000	0.800118
267.000000	0.780894
268.000000	0.800876
269.000000	0.763445
270.000000	0.762854
271.000000	0.759124
272.000000	0.762549
273.000000	0.773299
274.000000	0.772389
275.000000	0.722938
276.000000	0.744618
277.000000	0.771050
278.000000	0.730277
279.000000	0.742360
280.000000	0.740209
281.000000	0.785944
282.000000	0.713627
283.000000	0.711097
284.000000	0.739002
285.000000	0.723533
286.000000	0.718190
287.000000	0.728815
288.000000	0.676094
289.000000	0.726005
290.000000	0.694549
291.000000	0.714018
292.000000	0.697766
293.000000	0.716406
294.000000	0.695453
295.000000	0.701303
296.000000	0.697778
297.000000	0.670633
298.000000	0.714396
299.000000	0.682158
300.000000	0.663048
301.000000	0.670337
302.000000	0.668023
303.000000	0.666842
304.000000	0.661436
305.000000	0.609935
306.000000	0.653062
307.000000	0.664431
308.000000	0.688318
309.000000	0.642660
310.000000	0.657662
311.000000	0.668794
312.000000	0.669338
313.000000	0.631338
314.000000	0.611160
315.000000	0.586746
316.000000	0.602116
317.000000	0.313520
318.000000	0.480495
319.000000	0.412365
320.000000	0.555806
321.000000	0.810301
322.000000	0.591675
323.000000	0.512580
324.000000	0.583316
325.000000	0.605673
326.000000	0.547244
327.000000	0.663430
328.000000	0.482827
329.000000	0.532636
330.000000	0.575514
331.000000	0.468665
332.000000	0.551870
333.000000	0.586183
334.000000	0.554054
335.000000	0.596194
336.000000	0.545133
337.000000	0.555765
338.000000	0.600093
339.000000	0.565437
340.000000	0.554530
341.000000	0.579853
342.000000	0.536807
343.000000	0.516869
344.000000	0.527509
345.000000	0.575107
346.000000	0.511129
347.000000	0.509121
348.000000	0.504835
349.000000	0.476251
350.000000	0.476694
351.000000	0.527722
352.000000	0.500541
353.000000	0.529307
354.000000	0.539180
355.000000	0.504769
356.000000	0.523199
357.000000	0.570817
358.000000	0.573537
359.000000	0.514415
360.000000	0.507237
361.000000	0.495146
362.000000	0.508140
363.000000	0.498179
364.000000	0.506118
365.000000	0.485320
366.000000	0.473474
367.000000	0.470817
368.000000	0.457917
369.000000	0.455213
370.000000	0.414600
371.000000	0.417077
372.000000	0.454200
373.000000	0.391946
374.000000	0.324911
375.000000	0.358317
376.000000	0.296111
377.000000	0.255050
378.000000	0.222798
379.000000	0.184307
380.000000	0.139535
381.000000	0.109483
382.000000	0.056872
383.000000	0.013574
384.000000	0.041944
385.000000	0.086693
386.000000	0.131395
387.000000	0.165855
388.000000	0.212816
389.000000	0.251644
390.000000	0.297709
391.000000	0.335379
392.000000	0.355856
393.000000	0.392149
394.000000	0.416589
395.000000	0.433760
396.000000	0.442320
397.000000	0.447108
398.000000	0.457095
399.000000	0.456683
400.000000	0.449625
401.000000	0.426960
402.000000	0.395728
403.000000	0.352382
404.000000	0.299916
405.000000	0.243206
406.000000	0.187108
407.000000	0.110931
408.000000	0.032724
409.000000	0.057194
410.000000	0.159675
411.000000	0.273424
412.000000	0.397843
413.000000	0.498694
414.000000	0.613516
415.000000	0.742554
416.000000	0.873552
417.000000	1.002856
418.000000	1.133013
419.000000	1.264042
420.000000	1.414024
421.000000	1.553394
422.000000	1.682263
423.000000	1.803085
424.000000	1.941725
425.000000	2.078071
426.000000	2.195041
427.000000	2.319980
428.000000	2.450543
429.000000	2.581286
430.000000	2.696863
431.000000	2.805094
432.000000	2.905146
433.000000	3.011515
434.000000	3.113118
435.000000	3.190146
436.000000	3.272225
437.000000	3.364366
438.000000	3.444751
439.000000	3.513801
440.000000	3.571567
441.000000	3.607767
442.000000	3.655755
443.000000	3.696441
444.000000	3.722387
445.000000	3.742857
446.000000	3.750507
447.000000	3.746525
448.000000	3.734751
449.000000	3.723125
450.000000	3.706066
451.000000	3.675360
452.000000	3.637595
453.000000	3.586732
454.000000	3.529041
455.000000	3.466566
456.000000	3.404478
457.000000	3.341456
458.000000	3.255828
459.000000	3.172579
460.000000	3.091766
461.000000	2.994979
462.000000	2.891391
463.000000	2.792477
464.000000	2.694748
465.000000	2.587447
466.000000	2.493048
467.000000	2.395084
468.000000	2.298915
469.000000	2.205684
470.000000	2.126252
471.000000	2.042151
472.000000	1.964277
473.000000	1.885260
474.000000	1.796684
475.000000	1.712767
476.000000	1.643905
477.000000	1.563514
478.000000	1.503659
479.000000	1.457846
480.000000	1.399823
481.000000	1.338165
482.000000	1.293745
483.000000	1.278128
484.000000	1.262164
485.000000	1.258780
486.000000	1.286694
487.000000	1.300279
488.000000	1.330335
489.000000	1.331052
490.000000	1.331308
491.000000	1.337666
492.000000	1.340656
493.000000	1.345762
494.000000	1.337108
495.000000	1.333166
496.000000	1.325901
497.000000	1.323901
498.000000	1.339905
499.000000	1.349891
500.000000	1.395752
501.000000	1.459430
502.000000	1.517680
503.000000	1.593372
504.000000	1.695488
505.000000	1.801463
506.000000	1.905634
507.000000	2.050388
508.000000	2.185389
509.000000	2.317858
510.000000	2.462599
511.000000	2.642082
512.000000	2.803492
513.000000	2.986765
514.000000	3.191354
515.000000	3.425027
516.000000	3.685403
517.000000	3.960122
518.000000	4.256334
519.000000	4.611347
520.000000	4.974999
521.000000	5.345590
522.000000	5.731798
523.000000	6.107945
524.000000	6.479296
525.000000	6.833420
526.000000	7.157364
527.000000	7.482276
528.000000	7.764036
529.000000	8.060125
530.000000	8.315956
531.000000	8.557365
532.000000	8.793235
533.000000	9.016834
534.000000	9.252096
535.000000	9.471878
536.000000	9.703640
537.000000	9.903464
538.000000	10.141846
539.000000	10.365161
540.000000	10.604941
541.000000	10.849164
542.000000	11.067376
543.000000	11.288484
544.000000	11.493664
545.000000	11.681931
546.000000	11.845517
547.000000	12.000005
548.000000	12.176007
549.000000	12.315049
550.000000	12.450391
551.000000	12.542990
552.000000	12.648172
553.000000	12.740763
554.000000	12.852325
555.000000	12.938646
556.000000	13.013185
557.000000	13.133719
558.000000	13.257209
559.000000	13.321831
560.000000	13.534425
561.000000	13.682433
562.000000	13.838972
563.000000	13.978683
564.000000	14.092262
565.000000	14.242579
566.000000	14.379201
567.000000	14.499851
568.000000	14.609743
569.000000	14.750899
570.000000	14.852097
571.000000	14.988568
572.000000	15.119704
573.000000	15.188209
574.000000	15.309824
575.000000	15.385981
576.000000	15.493187
577.000000	15.590313
578.000000	15.654922
579.000000	15.748488
580.000000	15.875446
581.000000	15.964235
582.000000	16.085371
583.000000	16.190585
584.000000	16.271633
585.000000	16.374611
586.000000	16.456689
587.000000	16.514385
588.000000	16.628557
589.000000	16.649189
590.000000	16.689461
591.000000	16.728647
592.000000	16.765760
593.000000	16.785582
594.000000	16.717266
595.000000	16.676445
596.000000	16.642923
597.000000	16.561091
598.000000	16.474932
599.000000	16.394770
600.000000	16.306669
601.000000	16.141348
602.000000	16.008631
603.000000	15.851150
604.000000	15.706563
605.000000	15.509343
606.000000	15.339842
607.000000	15.130264
608.000000	14.932355
609.000000	14.744570
610.000000	14.506125
611.000000	14.237187
612.000000	13.986062
613.000000	13.692114
614.000000	13.399427
615.000000	13.084984
616.000000	12.757530
617.000000	12.410540
618.000000	12.005809
619.000000	11.645304
620.000000	11.270620
621.000000	10.872712
622.000000	10.450977
623.000000	10.080966
624.000000	9.620298
625.000000	9.186574
626.000000	8.740765
627.000000	8.311747
628.000000	7.862242
629.000000	7.404293
630.000000	6.939219
631.000000	6.490086
632.000000	6.053926
633.000000	5.632183
634.000000	5.207590
635.000000	4.853423
636.000000	4.533259
637.000000	4.182309
638.000000	3.869968
639.000000	3.640826
640.000000	3.426300
641.000000	3.242817
642.000000	3.063884
643.000000	2.928463
644.000000	2.863031
645.000000	2.844416
646.000000	2.853216
647.000000	2.900767
648.000000	3.015201
649.000000	3.152790
650.000000	3.321830
651.000000	3.565283
652.000000	3.811500
653.000000	4.106702
654.000000	4.388351
655.000000	4.687929
656.000000	4.981835
657.000000	5.300436
658.000000	5.585219
659.000000	5.856940
660.000000	6.201398
661.000000	6.461372
662.000000	6.748220
663.000000	7.013032
664.000000	7.268917
665.000000	7.496954
666.000000	7.708331
667.000000	7.921923
668.000000	8.084393
669.000000	8.275009
670.000000	8.423912
671.000000	8.570418
672.000000	8.718024
673.000000	8.867193
674.000000	8.984884
675.000000	9.105418
676.000000	9.184966
677.000000	9.279539
678.000000	9.364804
679.000000	9.410675
680.000000	9.455095
681.000000	9.508291
682.000000	9.578702
683.000000	9.668544
684.000000	9.665430
685.000000	9.698975
686.000000	9.729374
687.000000	9.772139
688.000000	9.800968
689.000000	9.871301
690.000000	9.875766
691.000000	9.851643
692.000000	9.918307
693.000000	9.944079
694.000000	9.955294
695.000000	10.016432
696.000000	10.030268
697.000000	10.077549
698.000000	10.106520
699.000000	10.129499
700.000000	10.204133
701.000000	10.266434
702.000000	10.310548
703.000000	10.421446
704.000000	10.484370
705.000000	10.541551
706.000000	10.644943
707.000000	10.720055
708.000000	10.784951
709.000000	10.859609
710.000000	10.931452
711.000000	10.999788
712.000000	11.095986
713.000000	11.199031
714.000000	11.290245
715.000000	11.403472
716.000000	11.517586
717.000000	11.606992
718.000000	11.670691
719.000000	11.804804
720.000000	11.901468
721.000000	11.962307
722.000000	12.085569
723.000000	12.221833
724.000000	12.345906
725.000000	12.438530
726.000000	12.568017
727.000000	12.689887
728.000000	12.805123
729.000000	12.926371
730.000000	13.037808
731.000000	13.158978
732.000000	13.298705
733.000000	13.447385
734.000000	13.568386
735.000000	13.661442
736.000000	13.759731
737.000000	13.856620
738.000000	13.960918
739.000000	14.082004
740.000000	14.194703
741.000000	14.288661
742.000000	14.357905
743.000000	14.402863
744.000000	14.430106
745.000000	14.473509
746.000000	14.533795
747.000000	14.525556
748.000000	14.524601
749.000000	14.565091
750.000000	14.571143
751.000000	14.570073
752.000000	14.588822
753.000000	14.635285
754.000000	14.662023
755.000000	14.669908
756.000000	14.700759
757.000000	14.680769
758.000000	14.676388
759.000000	14.716376
760.000000	14.768765
761.000000	14.811349
762.000000	14.839228
763.000000	14.927092
764.000000	14.936206
765.000000	14.893845
766.000000	14.901020
767.000000	14.982199
768.000000	14.983676
769.000000	15.002001
770.000000	15.078808
771.000000	15.086092
772.000000	15.102479
773.000000	15.125332
774.000000	15.186623
775.000000	15.219795
776.000000	15.222642
777.000000	15.215708
778.000000	15.215258
779.000000	15.217333
780.000000	15.174480
781.000000	15.121885
782.000000	15.090609
783.000000	15.013824
784.000000	14.979616
785.000000	14.908856
786.000000	14.865749
787.000000	14.780461
788.000000	14.708801
789.000000	14.638282
790.000000	14.556257
791.000000	14.430698
792.000000	14.359349
793.000000	14.371989
794.000000	14.289348
795.000000	14.194650
796.000000	14.191410
797.000000	14.163599
798.000000	14.137701
799.000000	14.120647
800.000000	14.077787
801.000000	14.075574
802.000000	14.041062
803.000000	13.980425
804.000000	13.933730
805.000000	13.987059
806.000000	13.979314
807.000000	13.872437
808.000000	13.873227
809.000000	13.855225
810.000000	13.738558
811.000000	13.738404
812.000000	13.646290
813.000000	13.505677
814.000000	13.421005
815.000000	13.310758
816.000000	13.155847
817.000000	13.093739
818.000000	12.945993
819.000000	12.861853
820.000000	12.686293
821.000000	12.476703
822.000000	12.450432
823.000000	12.368815
824.000000	12.070588
825.000000	11.942379
826.000000	11.890669
827.000000	11.734884
828.000000	11.658201
829.000000	11.561893
830.000000	11.451865
831.000000	11.320638
832.000000	11.243504
833.000000	11.245160
834.000000	11.175525
835.000000	10.965227
836.000000	11.086052
837.000000	10.966500
838.000000	10.917642
839.000000	10.853414
840.000000	10.880915
841.000000	10.766823
842.000000	10.818142
843.000000	10.916057
844.000000	10.771112
845.000000	10.767312
846.000000	10.810713
847.000000	11.026066
848.000000	10.763640
849.000000	10.887945
850.000000	11.023916
851.000000	10.822638
852.000000	10.861931
853.000000	11.020409
854.000000	10.993004
855.000000	10.512336
856.000000	10.728620
857.000000	10.794555
858.000000	10.648582
859.000000	10.840216
860.000000	10.828007
861.000000	10.753955
862.000000	10.685066
863.000000	10.629943
864.000000	10.567827
865.000000	10.458426
866.000000	10.419428
867.000000	10.347623
868.000000	10.303185
869.000000	10.211384
870.000000	10.168747
871.000000	10.141139
872.000000	10.052984
873.000000	10.009355
874.000000	9.925245
875.000000	9.858087
876.000000	9.809603
877.000000	9.745671
878.000000	9.679803
879.000000	9.634477
880.000000	9.581337
881.000000	9.538333
882.000000	9.519613
883.000000	9.468861
884.000000	9.423928
885.000000	9.403337
886.000000	9.375745
887.000000	9.340257
888.000000	9.330349
889.000000	9.286072
890.000000	9.266829
891.000000	9.251605
892.000000	9.258427
893.000000	9.246810
894.000000	9.265185
895.000000	9.246155
896.000000	9.229688
897.000000	9.223424
898.000000	9.202562
899.000000	9.195592
900.000000	9.170983
901.000000	9.177508
902.000000	9.175948
903.000000	9.175653
904.000000	9.172273
905.000000	9.181391
906.000000	9.170065
907.000000	9.158140
908.000000	9.161216
909.000000	9.158999
910.000000	9.121685
911.000000	9.129672
912.000000	9.103218
913.000000	9.085202
914.000000	9.069787
915.000000	9.038673
916.000000	9.046132
917.000000	9.011069
918.000000	8.973356
919.000000	8.966135
920.000000	8.937322
921.000000	8.887883
922.000000	8.844576
923.000000	8.809970
924.000000	8.786786
925.000000	8.756137
926.000000	8.749087
927.000000	8.688426
928.000000	8.661213
929.000000	8.621069
930.000000	8.592860
931.000000	8.546899
932.000000	8.526365
933.000000	8.477501
934.000000	8.430597
935.000000	8.418546
936.000000	8.395675
937.000000	8.376355
938.000000	8.332079
939.000000	8.291742
940.000000	8.276950
941.000000	8.226390
942.000000	8.193149
943.000000	8.162242
944.000000	8.133753
945.000000	8.084513
946.000000	8.061864
947.000000	8.037780
948.000000	7.980636
949.000000	7.952395
950.000000	7.915310
951.000000	7.894101
952.000000	7.836810
953.000000	7.791364
954.000000	7.746740
955.000000	7.718228
956.000000	7.691463
957.000000	7.641697
958.000000	7.591283
959.000000	7.543193
960.000000	7.507985
961.000000	7.474882
962.000000	7.435436
963.000000	7.393273
964.000000	7.328803
965.000000	7.276726
966.000000	7.241249
967.000000	7.197134
968.000000	7.153730
969.000000	7.098883
970.000000	7.050177
971.000000	7.012575
972.000000	6.965183
973.000000	6.915468
974.000000	6.867247
975.000000	6.819151
976.000000	6.782111
977.000000	6.733582
978.000000	6.687723
979.000000	6.656798
980.000000	6.617484
981.000000	6.575526
982.000000	6.530944
983.000000	6.497018
984.000000	6.458252
985.000000	6.438900
986.000000	6.403749
987.000000	6.348678
988.000000	6.309316
989.000000	6.290861
990.000000	6.272005
991.000000	6.228507
992.000000	6.201076
993.000000	6.174674
994.000000	6.153077
995.000000	6.116535
996.000000	6.108094
997.000000	6.086993
998.000000	6.061430
999.000000	6.036766
1000.000000	6.010684
1001.000000	6.002688
1002.000000	5.988996
1003.000000	5.962669
1004.000000	5.943565
1005.000000	5.932937
1006.000000	5.900899
1007.000000	5.870680
1008.000000	5.868602
1009.000000	5.858364
1010.000000	5.837796
1011.000000	5.829946
1012.000000	5.826823
1013.000000	5.812945
1014.000000	5.791781
1015.000000	5.780881
1016.000000	5.778945
1017.000000	5.760683
1018.000000	5.749011
1019.000000	5.733456
1020.000000	5.710335
1021.000000	5.705404
1022.000000	5.700901
1023.000000	5.695017
1024.000000	5.689825
1025.000000	5.682256
1026.000000	5.676898
1027.000000	5.671092
1028.000000	5.656749
1029.000000	5.645087
1030.000000	5.640351
1031.000000	5.641061
1032.000000	5.632182
1033.000000	5.624684
1034.000000	5.622979
1035.000000	5.624706
1036.000000	5.621281
1037.000000	5.611928
1038.000000	5.613956
1039.000000	5.610497
1040.000000	5.598372
1041.000000	5.590178
1042.000000	5.588568
1043.000000	5.586458
1044.000000	5.573955
1045.000000	5.571375
1046.000000	5.572227
1047.000000	5.563296
1048.000000	5.552073
1049.000000	5.549085
1050.000000	5.555712
1051.000000	5.561820
1052.000000	5.555108
1053.000000	5.551544
1054.000000	5.548802
1055.000000	5.561886
1056.000000	5.565974
1057.000000	5.562854
1058.000000	5.569637
1059.000000	5.574619
1060.000000	5.579975
1061.000000	5.574719
1062.000000	5.572496
1063.000000	5.578039
1064.000000	5.585867
1065.000000	5.593620
1066.000000	5.603541
1067.000000	5.607070
1068.000000	5.621711
1069.000000	5.629631
1070.000000	5.633885
1071.000000	5.647858
1072.000000	5.654490
1073.000000	5.655603
1074.000000	5.671455
1075.000000	5.685734
1076.000000	5.687359
1077.000000	5.688218
1078.000000	5.693779
1079.000000	5.710252
1080.000000	5.716524
1081.000000	5.715477
1082.000000	5.732627
1083.000000	5.743045
1084.000000	5.742508
1085.000000	5.752289
1086.000000	5.762078
1087.000000	5.770658
1088.000000	5.780542
1089.000000	5.779128
1090.000000	5.779771
1091.000000	5.792332
1092.000000	5.804943
1093.000000	5.807115
1094.000000	5.800486
1095.000000	5.809034
1096.000000	5.815744
1097.000000	5.830147
1098.000000	5.834816
1099.000000	5.817845
1100.000000	5.832127
1101.000000	5.833285
1102.000000	5.840296
1103.000000	5.843629
1104.000000	5.826719
1105.000000	5.833112
1106.000000	5.843775
1107.000000	5.840083
1108.000000	5.837968
1109.000000	5.836785
1110.000000	5.840893
1111.000000	5.835647
1112.000000	5.840212
1113.000000	5.829058
1114.000000	5.831962
1115.000000	5.826184
1116.000000	5.829522
1117.000000	5.834688
1118.000000	5.834215
1119.000000	5.823151
1120.000000	5.826114
1121.000000	5.819492
1122.000000	5.815561
1123.000000	5.814898
1124.000000	5.804081
1125.000000	5.799718
1126.000000	5.797617
1127.000000	5.786878
1128.000000	5.775003
1129.000000	5.769881
1130.000000	5.776150
1131.000000	5.740330
1132.000000	5.721048
1133.000000	5.710583
1134.000000	5.699267
1135.000000	5.696355
1136.000000	5.699868
1137.000000	5.655226
1138.000000	5.630188
1139.000000	5.595831
1140.000000	5.599601
1141.000000	5.579394
1142.000000	5.563259
1143.000000	5.548550
1144.000000	5.535711
1145.000000	5.533197
1146.000000	5.529530
1147.000000	5.517098
1148.000000	5.504323
1149.000000	5.494188
1150.000000	5.485348
1151.000000	5.474671
1152.000000	5.464341
1153.000000	5.458976
1154.000000	5.436330
1155.000000	5.424266
1156.000000	5.404549
1157.000000	5.392029
1158.000000	5.382340
1159.000000	5.359054
1160.000000	5.334663
1161.000000	5.309581
1162.000000	5.293461
1163.000000	5.275362
1164.000000	5.236417
1165.000000	5.223470
1166.000000	5.186940
1167.000000	5.180662
1168.000000	5.159288
1169.000000	5.149062
1170.000000	5.127908
1171.000000	5.118470
1172.000000	5.101903
1173.000000	5.092013
1174.000000	5.090872
1175.000000	5.069867
1176.000000	5.056033
1177.000000	5.044135
1178.000000	5.042532
1179.000000	5.034270
1180.000000	4.998065
1181.000000	4.990660
1182.000000	4.981220
1183.000000	4.963786
1184.000000	4.959474
1185.000000	4.950567
1186.000000	4.937538
1187.000000	4.941948
1188.000000	4.928664
1189.000000	4.938964
1190.000000	4.941114
1191.000000	4.946796
1192.000000	4.957298
1193.000000	4.964773
1194.000000	4.972511
1195.000000	4.980201
1196.000000	4.994027
1197.000000	5.002941
1198.000000	5.018914
1199.000000	5.032601
1200.000000	5.028647
1201.000000	5.046858
1202.000000	5.050029
1203.000000	5.060499
1204.000000	5.075616
1205.000000	5.082926
1206.000000	5.087825
1207.000000	5.093045
1208.000000	5.113831
1209.000000	5.114735
1210.000000	5.123417
1211.000000	5.143955
1212.000000	5.144329
1213.000000	5.146119
1214.000000	5.153910
1215.000000	5.163027
1216.000000	5.181871
1217.000000	5.191059
1218.000000	5.190991
1219.000000	5.201754
1220.000000	5.216821
1221.000000	5.233792
1222.000000	5.244868
1223.000000	5.255502
1224.000000	5.274365
1225.000000	5.283831
1226.000000	5.304819
1227.000000	5.304409
1228.000000	5.318902
1229.000000	5.331706
1230.000000	5.334930
1231.000000	5.357653
1232.000000	5.366457
1233.000000	5.368511
1234.000000	5.383576
1235.000000	5.392387
1236.000000	5.397738
1237.000000	5.415962
1238.000000	5.426914
1239.000000	5.437625
1240.000000	5.458613
1241.000000	5.460647
1242.000000	5.478936
1243.000000	5.501512
1244.000000	5.513844
1245.000000	5.528664
1246.000000	5.533624
1247.000000	5.545847
1248.000000	5.569572
1249.000000	5.582094
1250.000000	5.575766
1251.000000	5.584603
1252.000000	5.599368
1253.000000	5.599965
1254.000000	5.603374
1255.000000	5.611578
1256.000000	5.631117
1257.000000	5.622960
1258.000000	5.627076
1259.000000	5.624964
1260.000000	5.628635
1261.000000	5.634862
1262.000000	5.633699
1263.000000	5.632277
1264.000000	5.627507
1265.000000	5.630859
1266.000000	5.632029
1267.000000	5.631544
1268.000000	5.634547
1269.000000	5.638798
1270.000000	5.638322
1271.000000	5.632030
1272.000000	5.632350
1273.000000	5.637118
1274.000000	5.636804
1275.000000	5.636295
1276.000000	5.645674
1277.000000	5.657202
1278.000000	5.659604
1279.000000	5.655843
1280.000000	5.654972
1281.000000	5.665955
1282.000000	5.676735
1283.000000	5.681362
1284.000000	5.686748
1285.000000	5.697489
1286.000000	5.706784
1287.000000	5.714459
1288.000000	5.716782
1289.000000	5.722575
1290.000000	5.723951
1291.000000	5.719172
1292.000000	5.718824
1293.000000	5.726986
1294.000000	5.738850
1295.000000	5.745941
1296.000000	5.739803
1297.000000	5.739200
1298.000000	5.742626
1299.000000	5.743483
1300.000000	5.739160
1301.000000	5.735988
1302.000000	5.740196
1303.000000	5.729889
1304.000000	5.724636
1305.000000	5.725959
1306.000000	5.720186
1307.000000	5.709494
1308.000000	5.698974
1309.000000	5.693377
1310.000000	5.687479
1311.000000	5.676680
1312.000000	5.668842
1313.000000	5.661896
1314.000000	5.649363
1315.000000	5.642133
1316.000000	5.633465
1317.000000	5.615952
1318.000000	5.607651
1319.000000	5.602349
1320.000000	5.590796
1321.000000	5.578423
1322.000000	5.572629
1323.000000	5.565317
1324.000000	5.547960
1325.000000	5.536581
1326.000000	5.529112
1327.000000	5.518870
1328.000000	5.501803
1329.000000	5.492178
1330.000000	5.467846
1331.000000	5.455894
1332.000000	5.448309
1333.000000	5.431821
1334.000000	5.417597
1335.000000	5.393831
1336.000000	5.366843
1337.000000	5.351382
1338.000000	5.338807
1339.000000	5.323455
1340.000000	5.297922
1341.000000	5.268430
1342.000000	5.254057
1343.000000	5.225040
1344.000000	5.202920
1345.000000	5.182606
1346.000000	5.154343
1347.000000	5.133766
1348.000000	5.096712
1349.000000	5.057156
1350.000000	5.029022
1351.000000	5.002780
1352.000000	4.970611
1353.000000	4.937059
1354.000000	4.925491
1355.000000	4.915435
1356.000000	4.890525
1357.000000	4.866651
1358.000000	4.849978
1359.000000	4.853432
1360.000000	4.815636
1361.000000	4.814353
1362.000000	4.802721
1363.000000	4.807137
1364.000000	4.796345
1365.000000	4.814814
1366.000000	4.789126
1367.000000	4.757067
1368.000000	4.752095
1369.000000	4.732745
1370.000000	4.705829
1371.000000	4.697712
1372.000000	4.692933
1373.000000	4.663302
1374.000000	4.629508
1375.000000	4.609390
1376.000000	4.600329
1377.000000	4.573207
1378.000000	4.547684
1379.000000	4.515667
1380.000000	4.478378
1381.000000	4.469557
1382.000000	4.484219
1383.000000	4.470732
1384.000000	4.435003
1385.000000	4.385531
1386.000000	4.335578
1387.000000	4.280084
1388.000000	4.246287
1389.000000	4.211056
1390.000000	4.134070
1391.000000	4.069396
1392.000000	4.055607
1393.000000	4.002009
1394.000000	3.946145
1395.000000	3.898955
1396.000000	3.910420
1397.000000	3.845831
1398.000000	3.754992
1399.000000	3.675329
1400.000000	3.673562
1401.000000	3.645668
1402.000000	3.574460
1403.000000	3.487287
1404.000000	3.413526
1405.000000	3.368040
1406.000000	3.309373
1407.000000	3.247676
1408.000000	3.201184
1409.000000	3.154246
1410.000000	3.096893
1411.000000	3.034571
1412.000000	2.986606
1413.000000	2.914290
1414.000000	2.880281
1415.000000	2.861984
1416.000000	2.789872
1417.000000	2.695916
1418.000000	2.697170
1419.000000	2.672580
1420.000000	2.657760
1421.000000	2.594862
1422.000000	2.553757
1423.000000	2.542721
1424.000000	2.509897
1425.000000	2.483695
1426.000000	2.438123
1427.000000	2.405255
1428.000000	2.390392
1429.000000	2.368084
1430.000000	2.345934
1431.000000	2.309268
1432.000000	2.297724
1433.000000	2.284863
1434.000000	2.280371
1435.000000	2.247069
1436.000000	2.229901
1437.000000	2.211120
1438.000000	2.195314
1439.000000	2.190594
1440.000000	2.171280
1441.000000	2.154060
1442.000000	2.148005
1443.000000	2.127008
1444.000000	2.111732
1445.000000	2.101477
1446.000000	2.096087
1447.000000	2.084296
1448.000000	2.051647
1449.000000	2.046365
1450.000000	2.037633
1451.000000	2.049321
1452.000000	2.027289
1453.000000	2.000178
1454.000000	1.988173
1455.000000	1.986368
1456.000000	1.974214
1457.000000	1.961285
1458.000000	1.950286
1459.000000	1.945274
1460.000000	1.939653
1461.000000	1.929068
1462.000000	1.927279
1463.000000	1.915117
1464.000000	1.911045
1465.000000	1.896442
1466.000000	1.896215
1467.000000	1.905159
1468.000000	1.881873
1469.000000	1.875985
1470.000000	1.885690
1471.000000	1.872985
1472.000000	1.862511
1473.000000	1.877152
1474.000000	1.867421
1475.000000	1.846944
1476.000000	1.844308
1477.000000	1.855002
1478.000000	1.854241
1479.000000	1.856730
1480.000000	1.850239
1481.000000	1.856346
1482.000000	1.856923
1483.000000	1.859637
1484.000000	1.856055
1485.000000	1.870339
1486.000000	1.870444
1487.000000	1.872820
1488.000000	1.871651
1489.000000	1.878788
1490.000000	1.880302
1491.000000	1.889138
1492.000000	1.889125
1493.000000	1.898763
1494.000000	1.900389
1495.000000	1.902898
1496.000000	1.902405
1497.000000	1.912367
1498.000000	1.915682
1499.000000	1.924248
1500.000000	1.936392
1501.000000	1.933921
1502.000000	1.942544
1503.000000	1.955477
1504.000000	1.962289
1505.000000	1.966976
1506.000000	1.983331
1507.000000	1.991717
1508.000000	2.002241
1509.000000	2.011153
1510.000000	2.012954
1511.000000	2.020857
1512.000000	2.035665
1513.000000	2.033579
1514.000000	2.050892
1515.000000	2.058491
1516.000000	2.072174
1517.000000	2.073848
1518.000000	2.077250
1519.000000	2.083516
1520.000000	2.082808
1521.000000	2.084095
1522.000000	2.099799
1523.000000	2.106775
1524.000000	2.113976
1525.000000	2.123653
1526.000000	2.125854
1527.000000	2.124035
1528.000000	2.124108
1529.000000	2.136382
1530.000000	2.136070
1531.000000	2.140332
1532.000000	2.156590
1533.000000	2.169415
1534.000000	2.175062
1535.000000	2.165739
1536.000000	2.171915
1537.000000	2.184201
1538.000000	2.183700
1539.000000	2.185983
1540.000000	2.191558
1541.000000	2.188506
1542.000000	2.194785
1543.000000	2.198801
1544.000000	2.199575
1545.000000	2.203545
1546.000000	2.209837
1547.000000	2.222250
1548.000000	2.240948
1549.000000	2.255042
1550.000000	2.250401
1551.000000	2.239706
1552.000000	2.263439
1553.000000	2.279769
1554.000000	2.292252
1555.000000	2.297063
1556.000000	2.293633
1557.000000	2.298721
1558.000000	2.298324
1559.000000	2.304981
1560.000000	2.310413
1561.000000	2.311413
1562.000000	2.318027
1563.000000	2.323269
1564.000000	2.308506
1565.000000	2.305985
1566.000000	2.312811
1567.000000	2.306141
1568.000000	2.300542
1569.000000	2.298712
1570.000000	2.308893
1571.000000	2.306636
1572.000000	2.308947
1573.000000	2.323796
1574.000000	2.319096
1575.000000	2.324914
1576.000000	2.330121
1577.000000	2.330853
1578.000000	2.333363
1579.000000	2.329292
1580.000000	2.334603
1581.000000	2.341719
1582.000000	2.352281
1583.000000	2.361094
1584.000000	2.373232
1585.000000	2.382054
1586.000000	2.389205
1587.000000	2.394415
1588.000000	2.400696
1589.000000	2.405953
1590.000000	2.417906
1591.000000	2.425488
1592.000000	2.436981
1593.000000	2.448177
1594.000000	2.453282
1595.000000	2.462953
1596.000000	2.460662
1597.000000	2.465812
1598.000000	2.483966
1599.000000	2.503658
1600.000000	2.516379
1601.000000	2.528365
1602.000000	2.530760
1603.000000	2.546954
1604.000000	2.557360
1605.000000	2.563539
1606.000000	2.576309
1607.000000	2.587013
1608.000000	2.594464
1609.000000	2.602744
1610.000000	2.621065
1611.000000	2.629201
1612.000000	2.636401
1613.000000	2.641598
1614.000000	2.647461
1615.000000	2.656550
1616.000000	2.662894
1617.000000	2.669369
1618.000000	2.677998
1619.000000	2.682108
1620.000000	2.690647
1621.000000	2.691541
1622.000000	2.694961
1623.000000	2.709064
1624.000000	2.709415
1625.000000	2.722400
1626.000000	2.721328
1627.000000	2.729311
1628.000000	2.749016
1629.000000	2.740923
1630.000000	2.740642
1631.000000	2.746597
1632.000000	2.766037
1633.000000	2.768474
1634.000000	2.776207
1635.000000	2.775313
1636.000000	2.778476
1637.000000	2.778930
1638.000000	2.790059
1639.000000	2.789542
1640.000000	2.787852
1641.000000	2.792374
1642.000000	2.810096
1643.000000	2.797514
1644.000000	2.799801
1645.000000	2.806150
1646.000000	2.810415
1647.000000	2.817601
1648.000000	2.818477
1649.000000	2.820579
1650.000000	2.818246
1651.000000	2.819761
1652.000000	2.811106
1653.000000	2.816767
1654.000000	2.803434
1655.000000	2.808237
1656.000000	2.797462
1657.000000	2.802028
1658.000000	2.794184
1659.000000	2.781311
1660.000000	2.763484
1661.000000	2.744602
1662.000000	2.745695
1663.000000	2.750112
1664.000000	2.724215
1665.000000	2.711435
1666.000000	2.703595
1667.000000	2.684471
1668.000000	2.689239
1669.000000	2.659249
1670.000000	2.650781
1671.000000	2.626967
1672.000000	2.612576
1673.000000	2.592731
1674.000000	2.585146
1675.000000	2.560773
1676.000000	2.549931
1677.000000	2.518541
1678.000000	2.491474
1679.000000	2.494802
1680.000000	2.463771
1681.000000	2.446926
1682.000000	2.432019
1683.000000	2.407993
1684.000000	2.371614
1685.000000	2.349484
1686.000000	2.354302
1687.000000	2.337538
1688.000000	2.331492
1689.000000	2.331831
1690.000000	2.345392
1691.000000	2.344186
1692.000000	2.359484
1693.000000	2.364834
1694.000000	2.378303
1695.000000	2.374207
1696.000000	2.386183
1697.000000	2.391829
1698.000000	2.403363
1699.000000	2.402443
1700.000000	2.402258
1701.000000	2.401171
1702.000000	2.404810
1703.000000	2.400431
1704.000000	2.394434
1705.000000	2.389617
1706.000000	2.388806
1707.000000	2.394759
1708.000000	2.380726
1709.000000	2.379987
1710.000000	2.355658
1711.000000	2.343648
1712.000000	2.339910
1713.000000	2.331419
1714.000000	2.306468
1715.000000	2.287898
1716.000000	2.273926
1717.000000	2.250999
1718.000000	2.226333
1719.000000	2.213655
1720.000000	2.193719
1721.000000	2.166249
1722.000000	2.153013
1723.000000	2.149397
1724.000000	2.143777
1725.000000	2.154695
1726.000000	2.149357
1727.000000	2.159982
1728.000000	2.148387
1729.000000	2.162664
1730.000000	2.170978
1731.000000	2.179848
1732.000000	2.188990
1733.000000	2.198362
1734.000000	2.206858
1735.000000	2.226600
1736.000000	2.226307
1737.000000	2.235273
1738.000000	2.256536
1739.000000	2.260234
1740.000000	2.275083
1741.000000	2.285227
1742.000000	2.295390
1743.000000	2.302633
1744.000000	2.302462
1745.000000	2.319431
1746.000000	2.325216
1747.000000	2.342572
1748.000000	2.336616
1749.000000	2.335095
1750.000000	2.337742
1751.000000	2.339230
1752.000000	2.342890
1753.000000	2.340962
1754.000000	2.349191
1755.000000	2.348117
1756.000000	2.347477
1757.000000	2.342694
1758.000000	2.339169
1759.000000	2.334871
1760.000000	2.340016
1761.000000	2.342164
1762.000000	2.338667
1763.000000	2.339955
1764.000000	2.335706
1765.000000	2.328624
1766.000000	2.346471
1767.000000	2.360889
1768.000000	2.362241
1769.000000	2.359324
1770.000000	2.360223
1771.000000	2.369127
1772.000000	2.370659
1773.000000	2.380312
1774.000000	2.383523
1775.000000	2.386539
1776.000000	2.392297
1777.000000	2.391917
1778.000000	2.400063
1779.000000	2.401070
1780.000000	2.385455
1781.000000	2.386624
1782.000000	2.391986
1783.000000	2.394536
1784.000000	2.388631
1785.000000	2.398315
1786.000000	2.398827
1787.000000	2.402077
1788.000000	2.388400
1789.000000	2.393355
1790.000000	2.399698
1791.000000	2.394841
1792.000000	2.386272
1793.000000	2.389487
1794.000000	2.396994
1795.000000	2.402925
1796.000000	2.401056
1797.000000	2.409218
1798.000000	2.402340
1799.000000	2.397733
1800.000000	2.409335
1801.000000	2.424432
1802.000000	2.435540
1803.000000	2.428318
1804.000000	2.414252
1805.000000	2.416181
1806.000000	2.432338
1807.000000	2.448235
1808.000000	2.445667
1809.000000	2.437391
1810.000000	2.426829
1811.000000	2.440021
1812.000000	2.457085
1813.000000	2.445251
1814.000000	2.438916
1815.000000	2.454044
1816.000000	2.473165
1817.000000	2.469092
1818.000000	2.442706
1819.000000	2.438279
1820.000000	2.471312
1821.000000	2.527873
1822.000000	2.557352
1823.000000	2.533184
1824.000000	2.487673
1825.000000	2.467806
1826.000000	2.482920
1827.000000	2.506196
1828.000000	2.515998
1829.000000	2.515521
1830.000000	2.539725
1831.000000	2.567124
1832.000000	2.553599
1833.000000	2.527954
1834.000000	2.497499
1835.000000	2.508450
1836.000000	2.546187
1837.000000	2.592404
1838.000000	2.622448
1839.000000	2.613901
1840.000000	2.620531
1841.000000	2.657255
1842.000000	2.707254
1843.000000	2.705163
1844.000000	2.642431
1845.000000	2.563194
1846.000000	2.540616
1847.000000	2.604210
1848.000000	2.713735
1849.000000	2.770149
1850.000000	2.727957
1851.000000	2.664945
1852.000000	2.637784
1853.000000	2.638258
1854.000000	2.662503
1855.000000	2.685004
1856.000000	2.670866
1857.000000	2.655033
1858.000000	2.661490
1859.000000	2.678727
1860.000000	2.695938
1861.000000	2.692524
1862.000000	2.677463
1863.000000	2.644402
1864.000000	2.586115
1865.000000	2.558994
1866.000000	2.539832
1867.000000	2.515433
1868.000000	2.516510
1869.000000	2.519307
1870.000000	2.557167
1871.000000	2.594244
1872.000000	2.593964
1873.000000	2.595967
1874.000000	2.584486
1875.000000	2.556408
1876.000000	2.507831
1877.000000	2.459282
1878.000000	2.413578
1879.000000	2.375320
1880.000000	2.304984
1881.000000	2.232171
1882.000000	2.176311
1883.000000	2.141686
1884.000000	2.124278
1885.000000	2.091529
1886.000000	2.041307
1887.000000	1.976153
1888.000000	1.902699
1889.000000	1.851136
1890.000000	1.800912
1891.000000	1.766466
1892.000000	1.740351
1893.000000	1.695700
1894.000000	1.626973
1895.000000	1.546246
1896.000000	1.450169
1897.000000	1.375875
1898.000000	1.340142
1899.000000	1.327650
1900.000000	1.334043
1901.000000	1.290397
1902.000000	1.239599
1903.000000	1.178166
1904.000000	1.140131
1905.000000	1.130319
1906.000000	1.133815
1907.000000	1.108042
1908.000000	1.062241
1909.000000	0.991707
1910.000000	0.924566
1911.000000	0.899065
1912.000000	0.888878
1913.000000	0.897782
1914.000000	0.914582
1915.000000	0.901091
1916.000000	0.871811
1917.000000	0.802713
1918.000000	0.765959
1919.000000	0.753454
1920.000000	0.765359
1921.000000	0.774709
1922.000000	0.780391
1923.000000	0.775968
1924.000000	0.734426
1925.000000	0.716615
1926.000000	0.706982
1927.000000	0.707078
1928.000000	0.704505
1929.000000	0.703627
1930.000000	0.717335
1931.000000	0.690964
1932.000000	0.674663
1933.000000	0.652589
1934.000000	0.656396
1935.000000	0.635141
1936.000000	0.643118
1937.000000	0.648203
1938.000000	0.641810
1939.000000	0.643250
1940.000000	0.659050
1941.000000	0.656551
1942.000000	0.642761
1943.000000	0.625713
1944.000000	0.630847
1945.000000	0.629673
1946.000000	0.634663
1947.000000	0.637988
1948.000000	0.637630
1949.000000	0.639522
1950.000000	0.648804
1951.000000	0.648042
1952.000000	0.635266
1953.000000	0.638016
1954.000000	0.641951
1955.000000	0.662550
1956.000000	0.659052
1957.000000	0.654705
1958.000000	0.654542
1959.000000	0.661496
1960.000000	0.660603
1961.000000	0.689374
1962.000000	0.682118
1963.000000	0.699708
1964.000000	0.696939
1965.000000	0.701210
1966.000000	0.700644
1967.000000	0.703909
1968.000000	0.693100
1969.000000	0.707901
1970.000000	0.711316
1971.000000	0.719332
1972.000000	0.715363
1973.000000	0.738116
1974.000000	0.732712
1975.000000	0.748075
1976.000000	0.745816
1977.000000	0.750598
1978.000000	0.763274
1979.000000	0.774927
1980.000000	0.772039
1981.000000	0.787974
1982.000000	0.812631
1983.000000	0.815207
1984.000000	0.800484
1985.000000	0.810578
1986.000000	0.829046
1987.000000	0.840888
1988.000000	0.852533
1989.000000	0.843700
1990.000000	0.850218
1991.000000	0.870914
1992.000000	0.875848
1993.000000	0.882393
1994.000000	0.887042
1995.000000	0.891803
1996.000000	0.902558
1997.000000	0.917051
1998.000000	0.931720
1999.000000	0.922967
2000.000000	0.938928
2001.000000	0.938492
2002.000000	0.941606
2003.000000	0.954018
2004.000000	0.975415
2005.000000	0.979132
2006.000000	0.982908
2007.000000	0.984010
2008.000000	0.996433
2009.000000	0.991346
2010.000000	1.011009
2011.000000	1.009477
2012.000000	1.015459
2013.000000	1.007917
2014.000000	1.014816
2015.000000	1.023037
2016.000000	1.022974
2017.000000	1.042194
2018.000000	1.037642
2019.000000	1.036325
2020.000000	1.042807
2021.000000	1.032897
2022.000000	1.038267
2023.000000	1.038801
2024.000000	1.037803
2025.000000	1.036305
2026.000000	1.048229
2027.000000	1.044542
2028.000000	1.040547
2029.000000	1.033157
2030.000000	1.032334
2031.000000	1.039173
2032.000000	1.033751
2033.000000	1.027245
2034.000000	1.022231
2035.000000	1.014188
2036.000000	1.014240
2037.000000	1.007391
2038.000000	1.002950
2039.000000	1.007717
2040.000000	1.005269
2041.000000	0.991922
2042.000000	0.977851
2043.000000	0.962560
2044.000000	0.967925
2045.000000	0.968284
2046.000000	0.963552
2047.000000	0.953514
2048.000000	0.952052
2049.000000	0.947589
2050.000000	0.957483
2051.000000	0.967314
2052.000000	0.961967
2053.000000	0.971146
2054.000000	0.967281
2055.000000	0.982325
2056.000000	0.998398
2057.000000	1.007188
2058.000000	1.014364
2059.000000	1.024097
2060.000000	1.031915
2061.000000	1.050563
2062.000000	1.063526
2063.000000	1.081045
2064.000000	1.095743
2065.000000	1.106193
2066.000000	1.119258
2067.000000	1.132584
2068.000000	1.147438
2069.000000	1.158569
2070.000000	1.179600
2071.000000	1.183993
2072.000000	1.186975
2073.000000	1.201013
2074.000000	1.225291
2075.000000	1.233034
2076.000000	1.240224
2077.000000	1.257643
2078.000000	1.268052
2079.000000	1.271021
2080.000000	1.278604
2081.000000	1.276037
2082.000000	1.282822
2083.000000	1.293474
2084.000000	1.303406
2085.000000	1.302694
2086.000000	1.302439
2087.000000	1.313547
2088.000000	1.317565
2089.000000	1.319864
2090.000000	1.322075
2091.000000	1.329011
2092.000000	1.335983
2093.000000	1.337456
2094.000000	1.334663
2095.000000	1.330363
2096.000000	1.337541
2097.000000	1.342465
2098.000000	1.350261
2099.000000	1.347586
2100.000000	1.343389
2101.000000	1.355920
2102.000000	1.356721
2103.000000	1.351089
2104.000000	1.361186
2105.000000	1.370315
2106.000000	1.377763
2107.000000	1.374210
2108.000000	1.378823
2109.000000	1.373565
2110.000000	1.376232
2111.000000	1.384304
2112.000000	1.384176
2113.000000	1.386784
2114.000000	1.392932
2115.000000	1.400194
2116.000000	1.390829
2117.000000	1.388000
2118.000000	1.394902
2119.000000	1.398340
2120.000000	1.389281
2121.000000	1.387348
2122.000000	1.400773
2123.000000	1.399236
2124.000000	1.399573
2125.000000	1.399521
2126.000000	1.406304
2127.000000	1.401415
2128.000000	1.399016
2129.000000	1.402427
2130.000000	1.394347
2131.000000	1.394224
2132.000000	1.389575
2133.000000	1.382986
2134.000000	1.383147
2135.000000	1.374954
2136.000000	1.365313
2137.000000	1.363436
2138.000000	1.350540
2139.000000	1.340121
2140.000000	1.331098
2141.000000	1.317450
2142.000000	1.309723
2143.000000	1.303271
2144.000000	1.295988
2145.000000	1.284466
2146.000000	1.269184
2147.000000	1.254307
2148.000000	1.246363
2149.000000	1.225667
2150.000000	1.207944
2151.000000	1.206352
2152.000000	1.190945
2153.000000	1.189814
2154.000000	1.181775
2155.000000	1.164199
2156.000000	1.152864
2157.000000	1.147864
2158.000000	1.142060
2159.000000	1.134950
2160.000000	1.127358
2161.000000	1.113083
2162.000000	1.107386
2163.000000	1.096371
2164.000000	1.083317
2165.000000	1.078070
2166.000000	1.079844
2167.000000	1.053893
2168.000000	1.052557
2169.000000	1.041474
2170.000000	1.032542
2171.000000	1.016755
2172.000000	1.025216
2173.000000	1.006332
2174.000000	1.007193
2175.000000	0.997762
2176.000000	0.992068
2177.000000	0.987549
2178.000000	0.989359
2179.000000	0.973371
2180.000000	0.978398
2181.000000	0.984604
2182.000000	0.972179
2183.000000	0.984720
2184.000000	0.975773
2185.000000	0.966761
2186.000000	0.979493
2187.000000	0.979764
2188.000000	0.976600
2189.000000	0.970822
2190.000000	0.961155
2191.000000	0.968417
2192.000000	0.962633
2193.000000	0.969704
2194.000000	0.974213
2195.000000	0.967108
2196.000000	0.963392
2197.000000	0.977215
2198.000000	0.999983
2199.000000	0.970954
2200.000000	0.980038
2201.000000	0.992041
2202.000000	1.002833
2203.000000	1.003291
2204.000000	1.007980
2205.000000	1.004670
2206.000000	1.026526
2207.000000	1.029583
2208.000000	1.040972
2209.000000	1.043281
2210.000000	1.053880
2211.000000	1.067182
2212.000000	1.068467
2213.000000	1.073308
2214.000000	1.067253
2215.000000	1.099714
2216.000000	1.108515
2217.000000	1.116299
2218.000000	1.118424
2219.000000	1.114534
2220.000000	1.138424
2221.000000	1.139858
2222.000000	1.145977
2223.000000	1.159281
2224.000000	1.168001
2225.000000	1.181584
2226.000000	1.176914
2227.000000	1.178780
2228.000000	1.179409
2229.000000	1.183963
2230.000000	1.208863
2231.000000	1.202758
2232.000000	1.206002
2233.000000	1.205665
2234.000000	1.201320
2235.000000	1.219598
2236.000000	1.219720
2237.000000	1.195213
2238.000000	1.207098
2239.000000	1.200126
2240.000000	1.217934
2241.000000	1.204298
2242.000000	1.199929
2243.000000	1.196440
2244.000000	1.195414
2245.000000	1.177538
2246.000000	1.181111
2247.000000	1.177166
2248.000000	1.148378
2249.000000	1.144843
2250.000000	1.165810
2251.000000	1.130936
2252.000000	1.117015
2253.000000	1.112206
2254.000000	1.106655
2255.000000	1.101655
2256.000000	1.097622
2257.000000	1.084021
2258.000000	1.075659
2259.000000	1.098084
2260.000000	1.085592
2261.000000	1.079679
2262.000000	1.084695
2263.000000	1.078904
2264.000000	1.085695
2265.000000	1.080397
2266.000000	1.078077
2267.000000	1.084674
2268.000000	1.091948
2269.000000	1.098948
2270.000000	1.080888
2271.000000	1.087872
2272.000000	1.103395
2273.000000	1.118855
2274.000000	1.108474
2275.000000	1.115997
2276.000000	1.119278
2277.000000	1.116540
2278.000000	1.115173
2279.000000	1.132540
2280.000000	1.138997
2281.000000	1.124789
2282.000000	1.125543
2283.000000	1.134551
2284.000000	1.151200
2285.000000	1.143337
2286.000000	1.152963
2287.000000	1.145632
2288.000000	1.151419
2289.000000	1.157579
2290.000000	1.145161
2291.000000	1.152509
2292.000000	1.155136
2293.000000	1.166539
2294.000000	1.167584
2295.000000	1.178417
2296.000000	1.177649
2297.000000	1.184165
2298.000000	1.187434
2299.000000	1.199754
2300.000000	1.204485
2301.000000	1.207851
2302.000000	1.224548
2303.000000	1.227780
2304.000000	1.232570
2305.000000	1.245188
2306.000000	1.239365
2307.000000	1.261722
2308.000000	1.270666
2309.000000	1.267526
2310.000000	1.279491
2311.000000	1.299730
2312.000000	1.308425
2313.000000	1.310905
2314.000000	1.317131
2315.000000	1.327253
2316.000000	1.329868
2317.000000	1.325758
2318.000000	1.344609
2319.000000	1.352557
2320.000000	1.358135
2321.000000	1.359475
2322.000000	1.352582
2323.000000	1.357248
2324.000000	1.359142
2325.000000	1.360387
2326.000000	1.349998
2327.000000	1.354987
2328.000000	1.376379
2329.000000	1.378991
2330.000000	1.384621
2331.000000	1.391592
2332.000000	1.393925
2333.000000	1.404929
2334.000000	1.409095
2335.000000	1.398552
2336.000000	1.407362
2337.000000	1.425099
2338.000000	1.414556
2339.000000	1.428079
2340.000000	1.460332
2341.000000	1.470801
2342.000000	1.468260
2343.000000	1.473936
2344.000000	1.478029
2345.000000	1.476873
2346.000000	1.489600
2347.000000	1.511660
2348.000000	1.522374
2349.000000	1.525025
2350.000000	1.530822
2351.000000	1.552158
2352.000000	1.561919
2353.000000	1.562394
2354.000000	1.569545
2355.000000	1.575107
2356.000000	1.570658
2357.000000	1.563347
2358.000000	1.569295
2359.000000	1.587232
2360.000000	1.598514
2361.000000	1.593088
2362.000000	1.598897
2363.000000	1.609913
2364.000000	1.610819
2365.000000	1.615614
2366.000000	1.623106
2367.000000	1.628888
2368.000000	1.634138
2369.000000	1.638757
2370.000000	1.648185
2371.000000	1.650625
2372.000000	1.655882
2373.000000	1.676986
2374.000000	1.680751
2375.000000	1.679277
2376.000000	1.691171
2377.000000	1.697992
2378.000000	1.696038
2379.000000	1.692731
2380.000000	1.698497
2381.000000	1.702944
2382.000000	1.700135
2383.000000	1.706851
2384.000000	1.715366
2385.000000	1.719944
2386.000000	1.722045
2387.000000	1.732107
2388.000000	1.730554
2389.000000	1.730007
2390.000000	1.733225
2391.000000	1.724788
2392.000000	1.736410
2393.000000	1.757404
2394.000000	1.755105
2395.000000	1.747667
2396.000000	1.759917
2397.000000	1.764492
2398.000000	1.748640
2399.000000	1.760212
2400.000000	1.760997
2401.000000	1.770691
2402.000000	1.778383
2403.000000	1.758560
2404.000000	1.757968
2405.000000	1.766132
2406.000000	1.766743
2407.000000	1.766838
2408.000000	1.760323
2409.000000	1.770474
2410.000000	1.775748
2411.000000	1.775447
2412.000000	1.774927
2413.000000	1.780889
2414.000000	1.773449
2415.000000	1.774218
2416.000000	1.773526
2417.000000	1.763348
2418.000000	1.755363
2419.000000	1.761381
2420.000000	1.781787
2421.000000	1.797008
2422.000000	1.802421
2423.000000	1.810360
2424.000000	1.802704
2425.000000	1.787172
2426.000000	1.776610
2427.000000	1.754991
2428.000000	1.730318
2429.000000	1.737437
2430.000000	1.721488
2431.000000	1.699289
2432.000000	1.683032
2433.000000	1.664520
2434.000000	1.647018
2435.000000	1.649427
2436.000000	1.636931
2437.000000	1.622551
2438.000000	1.607436
2439.000000	1.600554
2440.000000	1.584568
2441.000000	1.565409
2442.000000	1.538467
2443.000000	1.523111
2444.000000	1.516230
2445.000000	1.508510
2446.000000	1.493786
2447.000000	1.492429
2448.000000	1.469679
2449.000000	1.455964
2450.000000	1.439752
2451.000000	1.416707
2452.000000	1.415819
2453.000000	1.417007
2454.000000	1.413894
2455.000000	1.390650
2456.000000	1.366372
2457.000000	1.360848
2458.000000	1.350260
2459.000000	1.359835
2460.000000	1.350546
2461.000000	1.349726
2462.000000	1.310963
2463.000000	1.306594
2464.000000	1.295231
2465.000000	1.291724
2466.000000	1.282003
2467.000000	1.273639
2468.000000	1.282409
2469.000000	1.247360
2470.000000	1.264404
2471.000000	1.260596
2472.000000	1.249301
2473.000000	1.250098
2474.000000	1.250519
2475.000000	1.226590
2476.000000	1.250252
2477.000000	1.235039
2478.000000	1.253276
2479.000000	1.232115
2480.000000	1.246071
2481.000000	1.211752
2482.000000	1.188085
2483.000000	1.246416
2484.000000	1.250919
2485.000000	1.242872
2486.000000	1.222239
2487.000000	1.171976
2488.000000	1.212038
2489.000000	1.245195
2490.000000	1.279416
2491.000000	1.276326
2492.000000	1.259920
2493.000000	1.320304
2494.000000	1.264566
2495.000000	1.291270
2496.000000	1.260692
2497.000000	1.253012
2498.000000	1.301944
2499.000000	1.254997
2500.000000	1.261953
