PE UV       SUBTECH     SPECTRUM    ASCII       PEDS        4.00        
   -1
CICIMAUCR0019-7.Sample.ASC
24/04/25
16:57:29.00
24/04/25
16:57:29.00
Vinicio Soto Monge
C. cupreomarginata
250,000000
1
Lambda 1050
1050L1511233
PerkinElmer UV WinLab 6.3.2.0749 / 2.02.05 Lambda 900 UV/VIS/NIR, Aug  7 2015 09:38:08

0
0
3350/servo 860,8/2
0
0
UV/VIS
1
1
1
DoubleDePol,CommonBeamDepol,RBeamAtt,SBeamAtt,60mm sphere, WB InGaAs Detector
0
0
0
0
Program
Program
3350/servo 860,8/2
3350/0,2 860,8/0,2
3350/0,2 860,8/0,2
0
15.00
 
 
 
0
 
860,8
319,2
860,8
Front
100
on
S:100 R:100
0
0
0
0
 
0
 
 
 
0
 
 
0
0
0
0
0
 
 
 
 
0
0


0
0
#HDR
-1
-1
#GR
nm
%R
1.0
0.0
2500,000000
-1,000000
2251
8
70,963300
5,343700
#DATA
250.000000	0.529148
251.000000	0.529386
252.000000	0.555558
253.000000	0.528201
254.000000	0.524183
255.000000	0.509812
256.000000	0.509637
257.000000	0.529830
258.000000	0.503640
259.000000	0.503515
260.000000	0.494152
261.000000	0.468950
262.000000	0.489095
263.000000	0.503693
264.000000	0.494332
265.000000	0.471746
266.000000	0.434825
267.000000	0.489992
268.000000	0.443999
269.000000	0.471273
270.000000	0.490986
271.000000	0.474197
272.000000	0.462880
273.000000	0.453417
274.000000	0.487416
275.000000	0.443065
276.000000	0.445215
277.000000	0.469690
278.000000	0.457154
279.000000	0.461381
280.000000	0.460529
281.000000	0.455067
282.000000	0.461831
283.000000	0.449154
284.000000	0.451484
285.000000	0.440102
286.000000	0.457157
287.000000	0.462458
288.000000	0.469518
289.000000	0.462044
290.000000	0.484553
291.000000	0.458729
292.000000	0.439974
293.000000	0.452656
294.000000	0.449511
295.000000	0.438197
296.000000	0.491561
297.000000	0.456212
298.000000	0.441079
299.000000	0.467945
300.000000	0.455472
301.000000	0.443079
302.000000	0.449004
303.000000	0.449633
304.000000	0.440414
305.000000	0.440694
306.000000	0.447869
307.000000	0.452439
308.000000	0.441699
309.000000	0.426676
310.000000	0.435310
311.000000	0.464437
312.000000	0.425951
313.000000	0.415576
314.000000	0.412866
315.000000	0.432848
316.000000	0.440948
317.000000	0.606983
318.000000	0.390240
319.000000	0.437619
320.000000	0.468880
321.000000	0.468436
322.000000	0.528945
323.000000	0.477649
324.000000	0.322876
325.000000	0.448039
326.000000	0.469787
327.000000	0.364408
328.000000	0.418153
329.000000	0.403477
330.000000	0.535209
331.000000	0.478406
332.000000	0.440201
333.000000	0.391668
334.000000	0.562133
335.000000	0.437555
336.000000	0.497432
337.000000	0.412428
338.000000	0.384858
339.000000	0.437415
340.000000	0.416498
341.000000	0.433071
342.000000	0.426832
343.000000	0.488694
344.000000	0.368347
345.000000	0.457321
346.000000	0.456985
347.000000	0.451371
348.000000	0.410743
349.000000	0.398508
350.000000	0.485382
351.000000	0.397270
352.000000	0.400465
353.000000	0.397852
354.000000	0.469812
355.000000	0.433613
356.000000	0.442672
357.000000	0.433366
358.000000	0.480928
359.000000	0.502800
360.000000	0.454544
361.000000	0.473390
362.000000	0.501007
363.000000	0.471626
364.000000	0.469994
365.000000	0.492679
366.000000	0.448513
367.000000	0.525756
368.000000	0.563182
369.000000	0.620339
370.000000	0.535354
371.000000	0.580059
372.000000	0.673418
373.000000	0.747727
374.000000	0.755146
375.000000	0.654494
376.000000	0.668294
377.000000	0.732872
378.000000	0.756924
379.000000	0.776718
380.000000	0.800887
381.000000	0.831426
382.000000	0.853800
383.000000	0.875968
384.000000	0.899483
385.000000	0.921427
386.000000	0.946831
387.000000	0.965849
388.000000	0.983189
389.000000	0.997693
390.000000	1.008026
391.000000	1.028714
392.000000	1.033795
393.000000	1.047865
394.000000	1.053883
395.000000	1.061256
396.000000	1.070938
397.000000	1.066677
398.000000	1.061085
399.000000	1.055721
400.000000	1.051498
401.000000	1.026140
402.000000	1.013747
403.000000	1.002620
404.000000	0.991590
405.000000	0.986087
406.000000	0.965098
407.000000	0.941031
408.000000	0.935016
409.000000	0.912865
410.000000	0.884610
411.000000	0.855650
412.000000	0.834058
413.000000	0.815766
414.000000	0.792472
415.000000	0.774494
416.000000	0.751701
417.000000	0.732255
418.000000	0.713041
419.000000	0.691154
420.000000	0.664802
421.000000	0.637626
422.000000	0.623259
423.000000	0.602261
424.000000	0.580534
425.000000	0.568025
426.000000	0.555772
427.000000	0.540878
428.000000	0.524541
429.000000	0.509940
430.000000	0.501249
431.000000	0.488730
432.000000	0.476700
433.000000	0.479533
434.000000	0.485435
435.000000	0.485675
436.000000	0.483478
437.000000	0.488066
438.000000	0.494807
439.000000	0.508356
440.000000	0.534774
441.000000	0.562461
442.000000	0.590981
443.000000	0.626615
444.000000	0.667446
445.000000	0.723920
446.000000	0.782417
447.000000	0.843093
448.000000	0.913413
449.000000	0.985696
450.000000	1.061267
451.000000	1.139688
452.000000	1.211261
453.000000	1.281149
454.000000	1.364945
455.000000	1.450026
456.000000	1.523463
457.000000	1.586306
458.000000	1.642352
459.000000	1.700127
460.000000	1.761285
461.000000	1.805870
462.000000	1.832693
463.000000	1.861362
464.000000	1.885380
465.000000	1.898181
466.000000	1.900562
467.000000	1.895304
468.000000	1.897780
469.000000	1.897280
470.000000	1.885819
471.000000	1.865848
472.000000	1.847068
473.000000	1.833218
474.000000	1.820513
475.000000	1.805559
476.000000	1.800771
477.000000	1.798918
478.000000	1.796062
479.000000	1.809259
480.000000	1.823350
481.000000	1.848625
482.000000	1.872145
483.000000	1.897762
484.000000	1.927425
485.000000	1.956519
486.000000	1.999086
487.000000	2.049514
488.000000	2.092758
489.000000	2.142824
490.000000	2.201555
491.000000	2.259469
492.000000	2.316953
493.000000	2.370269
494.000000	2.426253
495.000000	2.488613
496.000000	2.561344
497.000000	2.612502
498.000000	2.682366
499.000000	2.764800
500.000000	2.843855
501.000000	2.930539
502.000000	3.025299
503.000000	3.120744
504.000000	3.220351
505.000000	3.323901
506.000000	3.443738
507.000000	3.550893
508.000000	3.669710
509.000000	3.796832
510.000000	3.934398
511.000000	4.065781
512.000000	4.209620
513.000000	4.353256
514.000000	4.489527
515.000000	4.631591
516.000000	4.771541
517.000000	4.915510
518.000000	5.044904
519.000000	5.175622
520.000000	5.300382
521.000000	5.422518
522.000000	5.525570
523.000000	5.632545
524.000000	5.717990
525.000000	5.789011
526.000000	5.841028
527.000000	5.878600
528.000000	5.901543
529.000000	5.901846
530.000000	5.885343
531.000000	5.853927
532.000000	5.792923
533.000000	5.719693
534.000000	5.623135
535.000000	5.499005
536.000000	5.385694
537.000000	5.253861
538.000000	5.128375
539.000000	4.981145
540.000000	4.861619
541.000000	4.752440
542.000000	4.639604
543.000000	4.543966
544.000000	4.458630
545.000000	4.392042
546.000000	4.341088
547.000000	4.298175
548.000000	4.235140
549.000000	4.172099
550.000000	4.120077
551.000000	4.025210
552.000000	3.947525
553.000000	3.862481
554.000000	3.792409
555.000000	3.704609
556.000000	3.622078
557.000000	3.559497
558.000000	3.516788
559.000000	3.479612
560.000000	3.499815
561.000000	3.493247
562.000000	3.486345
563.000000	3.492441
564.000000	3.525554
565.000000	3.548868
566.000000	3.552987
567.000000	3.569211
568.000000	3.556420
569.000000	3.534927
570.000000	3.500576
571.000000	3.448819
572.000000	3.406930
573.000000	3.320454
574.000000	3.220922
575.000000	3.125875
576.000000	3.025611
577.000000	2.912561
578.000000	2.789528
579.000000	2.688773
580.000000	2.560581
581.000000	2.434065
582.000000	2.364870
583.000000	2.286556
584.000000	2.203545
585.000000	2.138828
586.000000	2.110935
587.000000	2.022311
588.000000	1.970213
589.000000	1.911828
590.000000	1.864442
591.000000	1.802840
592.000000	1.726410
593.000000	1.650170
594.000000	1.528521
595.000000	1.459756
596.000000	1.318098
597.000000	1.234801
598.000000	1.118973
599.000000	1.006036
600.000000	0.916160
601.000000	0.804981
602.000000	0.725054
603.000000	0.635977
604.000000	0.580387
605.000000	0.574319
606.000000	0.497038
607.000000	0.516005
608.000000	0.461144
609.000000	0.464416
610.000000	0.407119
611.000000	0.385503
612.000000	0.355783
613.000000	0.362998
614.000000	0.365854
615.000000	0.417346
616.000000	0.471397
617.000000	0.557048
618.000000	0.660354
619.000000	0.772397
620.000000	0.925767
621.000000	1.123046
622.000000	1.319820
623.000000	1.531456
624.000000	1.787386
625.000000	2.046524
626.000000	2.346465
627.000000	2.630300
628.000000	2.898021
629.000000	3.206076
630.000000	3.487174
631.000000	3.745825
632.000000	3.980428
633.000000	4.186991
634.000000	4.372723
635.000000	4.522230
636.000000	4.629116
637.000000	4.735280
638.000000	4.790212
639.000000	4.825728
640.000000	4.852408
641.000000	4.833138
642.000000	4.802557
643.000000	4.780848
644.000000	4.736289
645.000000	4.669517
646.000000	4.617426
647.000000	4.545668
648.000000	4.451215
649.000000	4.365745
650.000000	4.262121
651.000000	4.166086
652.000000	4.076131
653.000000	3.962953
654.000000	3.855187
655.000000	3.769185
656.000000	3.650439
657.000000	3.571407
658.000000	3.515541
659.000000	3.444972
660.000000	3.372036
661.000000	3.338370
662.000000	3.319417
663.000000	3.289345
664.000000	3.270576
665.000000	3.273107
666.000000	3.297376
667.000000	3.302334
668.000000	3.325503
669.000000	3.360048
670.000000	3.402824
671.000000	3.435028
672.000000	3.488434
673.000000	3.524404
674.000000	3.564502
675.000000	3.597879
676.000000	3.648289
677.000000	3.684485
678.000000	3.742038
679.000000	3.785484
680.000000	3.843123
681.000000	3.911942
682.000000	3.975846
683.000000	4.031134
684.000000	4.072085
685.000000	4.131614
686.000000	4.207851
687.000000	4.270453
688.000000	4.319377
689.000000	4.368310
690.000000	4.413277
691.000000	4.441190
692.000000	4.473865
693.000000	4.514581
694.000000	4.548983
695.000000	4.568448
696.000000	4.571238
697.000000	4.581007
698.000000	4.569792
699.000000	4.585851
700.000000	4.583955
701.000000	4.583139
702.000000	4.560629
703.000000	4.543779
704.000000	4.507683
705.000000	4.477104
706.000000	4.435015
707.000000	4.413165
708.000000	4.396004
709.000000	4.386117
710.000000	4.369348
711.000000	4.344421
712.000000	4.337192
713.000000	4.339722
714.000000	4.332413
715.000000	4.308393
716.000000	4.299892
717.000000	4.279896
718.000000	4.255928
719.000000	4.255787
720.000000	4.277497
721.000000	4.285311
722.000000	4.249220
723.000000	4.241073
724.000000	4.242903
725.000000	4.246295
726.000000	4.265994
727.000000	4.271522
728.000000	4.294396
729.000000	4.289044
730.000000	4.300115
731.000000	4.341613
732.000000	4.361319
733.000000	4.374514
734.000000	4.382934
735.000000	4.409960
736.000000	4.444295
737.000000	4.485428
738.000000	4.518309
739.000000	4.535209
740.000000	4.548133
741.000000	4.567752
742.000000	4.572846
743.000000	4.608663
744.000000	4.634969
745.000000	4.635394
746.000000	4.657491
747.000000	4.677367
748.000000	4.724045
749.000000	4.782911
750.000000	4.799936
751.000000	4.823686
752.000000	4.867515
753.000000	4.876558
754.000000	4.905338
755.000000	4.984248
756.000000	5.003706
757.000000	4.996309
758.000000	5.028989
759.000000	5.069742
760.000000	5.118234
761.000000	5.124125
762.000000	5.152958
763.000000	5.230287
764.000000	5.276269
765.000000	5.310018
766.000000	5.330339
767.000000	5.377319
768.000000	5.422969
769.000000	5.459230
770.000000	5.497141
771.000000	5.509330
772.000000	5.532223
773.000000	5.601365
774.000000	5.672382
775.000000	5.638133
776.000000	5.625780
777.000000	5.626943
778.000000	5.649962
779.000000	5.676421
780.000000	5.669776
781.000000	5.704325
782.000000	5.768741
783.000000	5.761059
784.000000	5.724199
785.000000	5.774056
786.000000	5.779535
787.000000	5.764758
788.000000	5.764460
789.000000	5.800798
790.000000	5.774700
791.000000	5.760962
792.000000	5.781554
793.000000	5.809236
794.000000	5.767134
795.000000	5.774891
796.000000	5.800836
797.000000	5.821781
798.000000	5.815582
799.000000	5.837494
800.000000	5.857818
801.000000	5.881317
802.000000	5.932321
803.000000	5.893339
804.000000	5.921928
805.000000	5.935118
806.000000	5.938135
807.000000	5.933696
808.000000	5.926368
809.000000	5.995578
810.000000	5.999355
811.000000	5.978330
812.000000	6.023054
813.000000	6.014048
814.000000	6.113224
815.000000	6.153383
816.000000	6.175799
817.000000	6.195426
818.000000	6.198403
819.000000	6.268772
820.000000	6.299939
821.000000	6.263552
822.000000	6.230090
823.000000	6.322555
824.000000	6.296967
825.000000	6.380484
826.000000	6.371956
827.000000	6.380307
828.000000	6.418803
829.000000	6.401363
830.000000	6.426850
831.000000	6.414794
832.000000	6.416865
833.000000	6.450401
834.000000	6.505450
835.000000	6.523453
836.000000	6.505409
837.000000	6.491645
838.000000	6.546892
839.000000	6.542491
840.000000	6.547397
841.000000	6.571139
842.000000	6.524188
843.000000	6.444718
844.000000	6.535868
845.000000	6.506777
846.000000	6.710443
847.000000	6.541036
848.000000	6.657648
849.000000	6.584454
850.000000	6.491989
851.000000	6.671509
852.000000	6.789948
853.000000	6.816767
854.000000	6.703287
855.000000	6.756967
856.000000	6.670469
857.000000	6.321032
858.000000	6.040122
859.000000	6.383523
860.000000	6.396291
861.000000	6.406487
862.000000	6.412566
863.000000	6.411772
864.000000	6.429888
865.000000	6.485737
866.000000	6.593570
867.000000	6.707329
868.000000	6.684489
869.000000	6.649200
870.000000	6.693660
871.000000	6.653128
872.000000	6.532160
873.000000	6.455764
874.000000	6.419324
875.000000	6.346588
876.000000	6.309149
877.000000	6.263305
878.000000	6.218832
879.000000	6.172415
880.000000	6.156805
881.000000	6.104487
882.000000	6.087854
883.000000	6.090055
884.000000	6.045946
885.000000	6.022698
886.000000	5.974257
887.000000	5.964623
888.000000	6.010581
889.000000	6.006781
890.000000	5.956220
891.000000	5.981321
892.000000	6.014609
893.000000	6.015784
894.000000	5.982149
895.000000	5.980397
896.000000	5.992677
897.000000	6.012557
898.000000	6.054684
899.000000	6.071387
900.000000	6.104861
901.000000	6.125342
902.000000	6.150354
903.000000	6.131519
904.000000	6.165675
905.000000	6.190494
906.000000	6.220761
907.000000	6.220092
908.000000	6.255539
909.000000	6.292215
910.000000	6.314650
911.000000	6.343030
912.000000	6.368636
913.000000	6.410716
914.000000	6.404945
915.000000	6.437488
916.000000	6.461144
917.000000	6.543600
918.000000	6.567355
919.000000	6.575157
920.000000	6.597940
921.000000	6.656509
922.000000	6.692191
923.000000	6.722816
924.000000	6.749524
925.000000	6.768146
926.000000	6.804851
927.000000	6.865790
928.000000	6.896661
929.000000	6.934059
930.000000	6.967984
931.000000	7.002704
932.000000	7.052754
933.000000	7.088407
934.000000	7.142909
935.000000	7.189165
936.000000	7.236000
937.000000	7.264751
938.000000	7.307341
939.000000	7.349694
940.000000	7.411689
941.000000	7.465746
942.000000	7.509166
943.000000	7.545440
944.000000	7.604889
945.000000	7.648507
946.000000	7.688548
947.000000	7.750927
948.000000	7.799912
949.000000	7.843993
950.000000	7.907411
951.000000	7.955057
952.000000	8.007570
953.000000	8.045683
954.000000	8.099982
955.000000	8.168877
956.000000	8.223966
957.000000	8.266356
958.000000	8.329025
959.000000	8.371817
960.000000	8.438388
961.000000	8.494907
962.000000	8.537325
963.000000	8.593058
964.000000	8.641695
965.000000	8.689679
966.000000	8.745880
967.000000	8.800993
968.000000	8.836404
969.000000	8.876360
970.000000	8.939288
971.000000	8.997490
972.000000	9.034892
973.000000	9.085805
974.000000	9.128967
975.000000	9.180639
976.000000	9.224868
977.000000	9.265203
978.000000	9.315450
979.000000	9.354235
980.000000	9.394869
981.000000	9.427513
982.000000	9.474442
983.000000	9.502712
984.000000	9.540158
985.000000	9.580286
986.000000	9.616204
987.000000	9.639033
988.000000	9.674063
989.000000	9.713871
990.000000	9.734290
991.000000	9.767590
992.000000	9.797657
993.000000	9.831764
994.000000	9.854339
995.000000	9.868547
996.000000	9.890103
997.000000	9.924230
998.000000	9.953090
999.000000	9.967952
1000.000000	9.982588
1001.000000	10.005004
1002.000000	10.030646
1003.000000	10.049624
1004.000000	10.068064
1005.000000	10.093052
1006.000000	10.119013
1007.000000	10.138006
1008.000000	10.160308
1009.000000	10.185547
1010.000000	10.207702
1011.000000	10.235021
1012.000000	10.258124
1013.000000	10.267911
1014.000000	10.286989
1015.000000	10.312537
1016.000000	10.334877
1017.000000	10.359510
1018.000000	10.388653
1019.000000	10.406509
1020.000000	10.425420
1021.000000	10.449463
1022.000000	10.466437
1023.000000	10.492029
1024.000000	10.512455
1025.000000	10.540763
1026.000000	10.582882
1027.000000	10.610927
1028.000000	10.637162
1029.000000	10.660746
1030.000000	10.688976
1031.000000	10.727459
1032.000000	10.763026
1033.000000	10.788900
1034.000000	10.818348
1035.000000	10.854838
1036.000000	10.886888
1037.000000	10.922748
1038.000000	10.955282
1039.000000	10.989852
1040.000000	11.017171
1041.000000	11.046293
1042.000000	11.081745
1043.000000	11.108991
1044.000000	11.140556
1045.000000	11.173212
1046.000000	11.201877
1047.000000	11.227101
1048.000000	11.254646
1049.000000	11.293016
1050.000000	11.318000
1051.000000	11.338384
1052.000000	11.375403
1053.000000	11.403396
1054.000000	11.424724
1055.000000	11.450785
1056.000000	11.482983
1057.000000	11.505673
1058.000000	11.530783
1059.000000	11.555626
1060.000000	11.578656
1061.000000	11.595696
1062.000000	11.618579
1063.000000	11.641540
1064.000000	11.656963
1065.000000	11.667742
1066.000000	11.690088
1067.000000	11.711813
1068.000000	11.722191
1069.000000	11.738941
1070.000000	11.745608
1071.000000	11.757871
1072.000000	11.768152
1073.000000	11.782103
1074.000000	11.800808
1075.000000	11.804813
1076.000000	11.809290
1077.000000	11.826649
1078.000000	11.828382
1079.000000	11.828043
1080.000000	11.838023
1081.000000	11.846333
1082.000000	11.858282
1083.000000	11.859385
1084.000000	11.867673
1085.000000	11.883222
1086.000000	11.893038
1087.000000	11.894143
1088.000000	11.893051
1089.000000	11.902530
1090.000000	11.907465
1091.000000	11.916007
1092.000000	11.924131
1093.000000	11.926661
1094.000000	11.933814
1095.000000	11.943425
1096.000000	11.950027
1097.000000	11.951130
1098.000000	11.953071
1099.000000	11.969261
1100.000000	11.978611
1101.000000	11.981676
1102.000000	11.987377
1103.000000	12.001300
1104.000000	12.008564
1105.000000	12.018487
1106.000000	12.025248
1107.000000	12.032848
1108.000000	12.053873
1109.000000	12.067352
1110.000000	12.073347
1111.000000	12.081602
1112.000000	12.090369
1113.000000	12.104356
1114.000000	12.118713
1115.000000	12.133560
1116.000000	12.151249
1117.000000	12.151930
1118.000000	12.175450
1119.000000	12.187407
1120.000000	12.195703
1121.000000	12.216070
1122.000000	12.223880
1123.000000	12.231009
1124.000000	12.253128
1125.000000	12.254990
1126.000000	12.258925
1127.000000	12.263764
1128.000000	12.259741
1129.000000	12.270476
1130.000000	12.274750
1131.000000	12.270326
1132.000000	12.281720
1133.000000	12.269989
1134.000000	12.272445
1135.000000	12.277705
1136.000000	12.267562
1137.000000	12.274352
1138.000000	12.276715
1139.000000	12.285813
1140.000000	12.282423
1141.000000	12.287456
1142.000000	12.293633
1143.000000	12.315471
1144.000000	12.318470
1145.000000	12.333087
1146.000000	12.341640
1147.000000	12.347456
1148.000000	12.351445
1149.000000	12.339242
1150.000000	12.327891
1151.000000	12.329420
1152.000000	12.319766
1153.000000	12.320607
1154.000000	12.307756
1155.000000	12.288953
1156.000000	12.290477
1157.000000	12.283974
1158.000000	12.263039
1159.000000	12.266934
1160.000000	12.246443
1161.000000	12.241682
1162.000000	12.230583
1163.000000	12.222620
1164.000000	12.213497
1165.000000	12.188468
1166.000000	12.186218
1167.000000	12.167409
1168.000000	12.150379
1169.000000	12.141907
1170.000000	12.130974
1171.000000	12.122043
1172.000000	12.116417
1173.000000	12.099357
1174.000000	12.098970
1175.000000	12.072390
1176.000000	12.088020
1177.000000	12.077085
1178.000000	12.067630
1179.000000	12.067629
1180.000000	12.057548
1181.000000	12.057359
1182.000000	12.059551
1183.000000	12.047546
1184.000000	12.051391
1185.000000	12.055166
1186.000000	12.049674
1187.000000	12.047035
1188.000000	12.050867
1189.000000	12.039766
1190.000000	12.032459
1191.000000	12.023475
1192.000000	12.028490
1193.000000	12.026341
1194.000000	12.024257
1195.000000	12.027181
1196.000000	12.037675
1197.000000	12.041561
1198.000000	12.052374
1199.000000	12.060247
1200.000000	12.084165
1201.000000	12.092372
1202.000000	12.105534
1203.000000	12.122828
1204.000000	12.143052
1205.000000	12.168738
1206.000000	12.183671
1207.000000	12.196956
1208.000000	12.216940
1209.000000	12.231839
1210.000000	12.239031
1211.000000	12.258423
1212.000000	12.274810
1213.000000	12.287534
1214.000000	12.296430
1215.000000	12.314936
1216.000000	12.333369
1217.000000	12.338102
1218.000000	12.348539
1219.000000	12.351358
1220.000000	12.368000
1221.000000	12.376823
1222.000000	12.388924
1223.000000	12.396279
1224.000000	12.407264
1225.000000	12.419388
1226.000000	12.427549
1227.000000	12.431323
1228.000000	12.430362
1229.000000	12.443508
1230.000000	12.467059
1231.000000	12.469487
1232.000000	12.475423
1233.000000	12.485511
1234.000000	12.487823
1235.000000	12.494302
1236.000000	12.504655
1237.000000	12.506462
1238.000000	12.505653
1239.000000	12.522501
1240.000000	12.528882
1241.000000	12.537345
1242.000000	12.545862
1243.000000	12.558179
1244.000000	12.567152
1245.000000	12.568838
1246.000000	12.590630
1247.000000	12.602208
1248.000000	12.620171
1249.000000	12.632112
1250.000000	12.640942
1251.000000	12.645305
1252.000000	12.656319
1253.000000	12.653175
1254.000000	12.667009
1255.000000	12.674687
1256.000000	12.663157
1257.000000	12.667448
1258.000000	12.682994
1259.000000	12.667952
1260.000000	12.664940
1261.000000	12.667799
1262.000000	12.669563
1263.000000	12.665683
1264.000000	12.658754
1265.000000	12.657410
1266.000000	12.650092
1267.000000	12.642147
1268.000000	12.640255
1269.000000	12.635807
1270.000000	12.626387
1271.000000	12.619981
1272.000000	12.610969
1273.000000	12.603710
1274.000000	12.599074
1275.000000	12.596856
1276.000000	12.593456
1277.000000	12.588273
1278.000000	12.583267
1279.000000	12.582732
1280.000000	12.577335
1281.000000	12.570695
1282.000000	12.580812
1283.000000	12.582154
1284.000000	12.572671
1285.000000	12.572238
1286.000000	12.571415
1287.000000	12.571885
1288.000000	12.580368
1289.000000	12.588195
1290.000000	12.583249
1291.000000	12.584073
1292.000000	12.587182
1293.000000	12.581901
1294.000000	12.590260
1295.000000	12.589805
1296.000000	12.583202
1297.000000	12.582019
1298.000000	12.576123
1299.000000	12.568262
1300.000000	12.565351
1301.000000	12.571014
1302.000000	12.574644
1303.000000	12.570312
1304.000000	12.567244
1305.000000	12.561026
1306.000000	12.555646
1307.000000	12.550915
1308.000000	12.547513
1309.000000	12.543742
1310.000000	12.535628
1311.000000	12.529025
1312.000000	12.524767
1313.000000	12.521383
1314.000000	12.517280
1315.000000	12.516657
1316.000000	12.514848
1317.000000	12.508797
1318.000000	12.510459
1319.000000	12.505987
1320.000000	12.504735
1321.000000	12.506155
1322.000000	12.499591
1323.000000	12.495710
1324.000000	12.486699
1325.000000	12.486451
1326.000000	12.484394
1327.000000	12.484090
1328.000000	12.482268
1329.000000	12.481677
1330.000000	12.478297
1331.000000	12.474876
1332.000000	12.472189
1333.000000	12.467734
1334.000000	12.461528
1335.000000	12.445937
1336.000000	12.436159
1337.000000	12.436903
1338.000000	12.418825
1339.000000	12.404935
1340.000000	12.404991
1341.000000	12.398651
1342.000000	12.390493
1343.000000	12.382941
1344.000000	12.361703
1345.000000	12.340795
1346.000000	12.327544
1347.000000	12.317857
1348.000000	12.316395
1349.000000	12.302279
1350.000000	12.279698
1351.000000	12.266466
1352.000000	12.260653
1353.000000	12.254869
1354.000000	12.269504
1355.000000	12.271732
1356.000000	12.274412
1357.000000	12.270854
1358.000000	12.275257
1359.000000	12.273660
1360.000000	12.278381
1361.000000	12.293313
1362.000000	12.287518
1363.000000	12.258440
1364.000000	12.255974
1365.000000	12.257395
1366.000000	12.245386
1367.000000	12.245246
1368.000000	12.247163
1369.000000	12.233717
1370.000000	12.229788
1371.000000	12.230420
1372.000000	12.220289
1373.000000	12.212355
1374.000000	12.214286
1375.000000	12.206447
1376.000000	12.207701
1377.000000	12.195392
1378.000000	12.190780
1379.000000	12.192757
1380.000000	12.185797
1381.000000	12.178969
1382.000000	12.163199
1383.000000	12.125211
1384.000000	12.103751
1385.000000	12.072995
1386.000000	12.045267
1387.000000	12.023981
1388.000000	12.001917
1389.000000	11.973199
1390.000000	11.951937
1391.000000	11.950126
1392.000000	11.935507
1393.000000	11.915714
1394.000000	11.906204
1395.000000	11.904443
1396.000000	11.877592
1397.000000	11.816795
1398.000000	11.789145
1399.000000	11.795099
1400.000000	11.779325
1401.000000	11.730528
1402.000000	11.670268
1403.000000	11.638849
1404.000000	11.595558
1405.000000	11.549329
1406.000000	11.495532
1407.000000	11.440490
1408.000000	11.403696
1409.000000	11.349298
1410.000000	11.292550
1411.000000	11.223927
1412.000000	11.174078
1413.000000	11.134435
1414.000000	11.093423
1415.000000	11.034561
1416.000000	10.970898
1417.000000	10.942980
1418.000000	10.911782
1419.000000	10.878661
1420.000000	10.823026
1421.000000	10.770747
1422.000000	10.737496
1423.000000	10.693982
1424.000000	10.667132
1425.000000	10.611376
1426.000000	10.568357
1427.000000	10.536766
1428.000000	10.500564
1429.000000	10.457600
1430.000000	10.435645
1431.000000	10.407321
1432.000000	10.383080
1433.000000	10.355830
1434.000000	10.312708
1435.000000	10.290992
1436.000000	10.268176
1437.000000	10.228608
1438.000000	10.224915
1439.000000	10.187265
1440.000000	10.150840
1441.000000	10.121549
1442.000000	10.113342
1443.000000	10.069448
1444.000000	10.044011
1445.000000	10.038710
1446.000000	9.999495
1447.000000	9.966264
1448.000000	9.938376
1449.000000	9.922573
1450.000000	9.901163
1451.000000	9.879234
1452.000000	9.845121
1453.000000	9.813103
1454.000000	9.796083
1455.000000	9.772164
1456.000000	9.731946
1457.000000	9.721433
1458.000000	9.693640
1459.000000	9.676233
1460.000000	9.668092
1461.000000	9.643093
1462.000000	9.622602
1463.000000	9.598629
1464.000000	9.585641
1465.000000	9.566840
1466.000000	9.546242
1467.000000	9.526266
1468.000000	9.504738
1469.000000	9.498374
1470.000000	9.485285
1471.000000	9.472935
1472.000000	9.455897
1473.000000	9.447079
1474.000000	9.428574
1475.000000	9.415367
1476.000000	9.411409
1477.000000	9.389372
1478.000000	9.373524
1479.000000	9.366075
1480.000000	9.355349
1481.000000	9.345379
1482.000000	9.339616
1483.000000	9.337612
1484.000000	9.331838
1485.000000	9.327906
1486.000000	9.323102
1487.000000	9.329401
1488.000000	9.309209
1489.000000	9.308687
1490.000000	9.311087
1491.000000	9.304653
1492.000000	9.307607
1493.000000	9.300357
1494.000000	9.303934
1495.000000	9.304284
1496.000000	9.311014
1497.000000	9.303017
1498.000000	9.304923
1499.000000	9.319841
1500.000000	9.321322
1501.000000	9.326618
1502.000000	9.327177
1503.000000	9.341595
1504.000000	9.360175
1505.000000	9.371358
1506.000000	9.378405
1507.000000	9.402360
1508.000000	9.405415
1509.000000	9.417762
1510.000000	9.441580
1511.000000	9.454498
1512.000000	9.463043
1513.000000	9.476040
1514.000000	9.491537
1515.000000	9.499282
1516.000000	9.511768
1517.000000	9.517472
1518.000000	9.525357
1519.000000	9.547715
1520.000000	9.562033
1521.000000	9.568051
1522.000000	9.566813
1523.000000	9.584811
1524.000000	9.595635
1525.000000	9.595400
1526.000000	9.619508
1527.000000	9.627186
1528.000000	9.630704
1529.000000	9.641329
1530.000000	9.648444
1531.000000	9.653673
1532.000000	9.660608
1533.000000	9.665045
1534.000000	9.668235
1535.000000	9.671590
1536.000000	9.678268
1537.000000	9.673530
1538.000000	9.675535
1539.000000	9.678036
1540.000000	9.679007
1541.000000	9.689371
1542.000000	9.692217
1543.000000	9.690628
1544.000000	9.698803
1545.000000	9.706189
1546.000000	9.707066
1547.000000	9.717446
1548.000000	9.727908
1549.000000	9.733593
1550.000000	9.743178
1551.000000	9.755946
1552.000000	9.761477
1553.000000	9.764765
1554.000000	9.781652
1555.000000	9.785206
1556.000000	9.786078
1557.000000	9.785071
1558.000000	9.784533
1559.000000	9.784860
1560.000000	9.780987
1561.000000	9.777773
1562.000000	9.771831
1563.000000	9.761948
1564.000000	9.755228
1565.000000	9.752560
1566.000000	9.741431
1567.000000	9.719039
1568.000000	9.709024
1569.000000	9.708531
1570.000000	9.707077
1571.000000	9.696881
1572.000000	9.687466
1573.000000	9.674906
1574.000000	9.660660
1575.000000	9.659863
1576.000000	9.655499
1577.000000	9.654956
1578.000000	9.659184
1579.000000	9.657908
1580.000000	9.657339
1581.000000	9.658871
1582.000000	9.663483
1583.000000	9.666886
1584.000000	9.679905
1585.000000	9.691748
1586.000000	9.693614
1587.000000	9.696201
1588.000000	9.698071
1589.000000	9.708440
1590.000000	9.720437
1591.000000	9.731837
1592.000000	9.741490
1593.000000	9.747583
1594.000000	9.756460
1595.000000	9.769219
1596.000000	9.781196
1597.000000	9.789895
1598.000000	9.806636
1599.000000	9.819806
1600.000000	9.831014
1601.000000	9.849179
1602.000000	9.862855
1603.000000	9.878192
1604.000000	9.894342
1605.000000	9.904894
1606.000000	9.919310
1607.000000	9.931202
1608.000000	9.945169
1609.000000	9.959289
1610.000000	9.970410
1611.000000	9.981875
1612.000000	9.999761
1613.000000	10.009296
1614.000000	10.018216
1615.000000	10.021093
1616.000000	10.038099
1617.000000	10.046370
1618.000000	10.065403
1619.000000	10.067331
1620.000000	10.078653
1621.000000	10.094806
1622.000000	10.098239
1623.000000	10.111673
1624.000000	10.116702
1625.000000	10.133655
1626.000000	10.136458
1627.000000	10.146713
1628.000000	10.170707
1629.000000	10.176683
1630.000000	10.189628
1631.000000	10.200617
1632.000000	10.216971
1633.000000	10.227705
1634.000000	10.243343
1635.000000	10.247847
1636.000000	10.258157
1637.000000	10.261071
1638.000000	10.264993
1639.000000	10.279635
1640.000000	10.282517
1641.000000	10.284480
1642.000000	10.292703
1643.000000	10.290295
1644.000000	10.299516
1645.000000	10.300466
1646.000000	10.307359
1647.000000	10.320053
1648.000000	10.317993
1649.000000	10.328759
1650.000000	10.328629
1651.000000	10.343164
1652.000000	10.336396
1653.000000	10.327762
1654.000000	10.326492
1655.000000	10.322060
1656.000000	10.318656
1657.000000	10.308682
1658.000000	10.298797
1659.000000	10.279020
1660.000000	10.270147
1661.000000	10.262347
1662.000000	10.234221
1663.000000	10.206898
1664.000000	10.183758
1665.000000	10.163580
1666.000000	10.134597
1667.000000	10.109989
1668.000000	10.076931
1669.000000	10.050769
1670.000000	10.010973
1671.000000	9.950292
1672.000000	9.916791
1673.000000	9.872563
1674.000000	9.828020
1675.000000	9.761082
1676.000000	9.711525
1677.000000	9.653191
1678.000000	9.583297
1679.000000	9.488666
1680.000000	9.399504
1681.000000	9.294212
1682.000000	9.188901
1683.000000	9.117180
1684.000000	9.055678
1685.000000	9.024689
1686.000000	8.973731
1687.000000	8.962012
1688.000000	8.953478
1689.000000	8.932362
1690.000000	8.920291
1691.000000	8.906082
1692.000000	8.881798
1693.000000	8.856472
1694.000000	8.851068
1695.000000	8.850995
1696.000000	8.843157
1697.000000	8.862045
1698.000000	8.891348
1699.000000	8.915355
1700.000000	8.945150
1701.000000	8.979309
1702.000000	8.997642
1703.000000	9.028201
1704.000000	9.036933
1705.000000	9.076546
1706.000000	9.068688
1707.000000	9.065950
1708.000000	9.067765
1709.000000	9.071933
1710.000000	9.054550
1711.000000	9.057826
1712.000000	9.030719
1713.000000	9.020386
1714.000000	8.994001
1715.000000	8.970588
1716.000000	8.941733
1717.000000	8.903410
1718.000000	8.863859
1719.000000	8.849495
1720.000000	8.824756
1721.000000	8.794932
1722.000000	8.774207
1723.000000	8.774076
1724.000000	8.751681
1725.000000	8.754279
1726.000000	8.751382
1727.000000	8.738094
1728.000000	8.733229
1729.000000	8.724897
1730.000000	8.715821
1731.000000	8.701545
1732.000000	8.693162
1733.000000	8.693087
1734.000000	8.701636
1735.000000	8.720716
1736.000000	8.742529
1737.000000	8.764336
1738.000000	8.811068
1739.000000	8.844224
1740.000000	8.887975
1741.000000	8.937836
1742.000000	8.975554
1743.000000	9.026890
1744.000000	9.073712
1745.000000	9.114131
1746.000000	9.141514
1747.000000	9.168386
1748.000000	9.187855
1749.000000	9.215596
1750.000000	9.242573
1751.000000	9.249052
1752.000000	9.261272
1753.000000	9.272138
1754.000000	9.272135
1755.000000	9.282299
1756.000000	9.288659
1757.000000	9.285221
1758.000000	9.278610
1759.000000	9.277009
1760.000000	9.274673
1761.000000	9.276050
1762.000000	9.283163
1763.000000	9.271763
1764.000000	9.282334
1765.000000	9.294302
1766.000000	9.310303
1767.000000	9.319702
1768.000000	9.341546
1769.000000	9.354693
1770.000000	9.390197
1771.000000	9.402658
1772.000000	9.423213
1773.000000	9.449578
1774.000000	9.482174
1775.000000	9.498470
1776.000000	9.521804
1777.000000	9.536309
1778.000000	9.551055
1779.000000	9.568239
1780.000000	9.580327
1781.000000	9.592099
1782.000000	9.596429
1783.000000	9.603545
1784.000000	9.607572
1785.000000	9.618484
1786.000000	9.627021
1787.000000	9.625191
1788.000000	9.624528
1789.000000	9.628413
1790.000000	9.632169
1791.000000	9.638608
1792.000000	9.637254
1793.000000	9.643806
1794.000000	9.650898
1795.000000	9.655318
1796.000000	9.661644
1797.000000	9.664097
1798.000000	9.663065
1799.000000	9.667907
1800.000000	9.675304
1801.000000	9.679642
1802.000000	9.678099
1803.000000	9.683044
1804.000000	9.697448
1805.000000	9.701091
1806.000000	9.700389
1807.000000	9.705729
1808.000000	9.708366
1809.000000	9.705505
1810.000000	9.716492
1811.000000	9.728546
1812.000000	9.719442
1813.000000	9.721663
1814.000000	9.726591
1815.000000	9.728893
1816.000000	9.730289
1817.000000	9.721534
1818.000000	9.727290
1819.000000	9.745904
1820.000000	9.750281
1821.000000	9.735746
1822.000000	9.708997
1823.000000	9.701635
1824.000000	9.719799
1825.000000	9.738030
1826.000000	9.748193
1827.000000	9.746594
1828.000000	9.745383
1829.000000	9.757478
1830.000000	9.766407
1831.000000	9.764336
1832.000000	9.761150
1833.000000	9.775800
1834.000000	9.809977
1835.000000	9.836507
1836.000000	9.845167
1837.000000	9.847742
1838.000000	9.847357
1839.000000	9.856971
1840.000000	9.872871
1841.000000	9.876751
1842.000000	9.868364
1843.000000	9.856622
1844.000000	9.874473
1845.000000	9.909404
1846.000000	9.932295
1847.000000	9.936280
1848.000000	9.915916
1849.000000	9.892354
1850.000000	9.900458
1851.000000	9.925638
1852.000000	9.932272
1853.000000	9.935712
1854.000000	9.939152
1855.000000	9.922006
1856.000000	9.923705
1857.000000	9.939094
1858.000000	9.939656
1859.000000	9.933846
1860.000000	9.911193
1861.000000	9.893751
1862.000000	9.891493
1863.000000	9.900776
1864.000000	9.907708
1865.000000	9.909797
1866.000000	9.911172
1867.000000	9.911740
1868.000000	9.906895
1869.000000	9.891643
1870.000000	9.856971
1871.000000	9.825846
1872.000000	9.788722
1873.000000	9.754669
1874.000000	9.718600
1875.000000	9.676651
1876.000000	9.637500
1877.000000	9.605402
1878.000000	9.556510
1879.000000	9.504781
1880.000000	9.445939
1881.000000	9.377290
1882.000000	9.299493
1883.000000	9.214490
1884.000000	9.124606
1885.000000	9.021250
1886.000000	8.922066
1887.000000	8.831091
1888.000000	8.748252
1889.000000	8.660547
1890.000000	8.575089
1891.000000	8.481325
1892.000000	8.374171
1893.000000	8.277856
1894.000000	8.172139
1895.000000	8.075808
1896.000000	8.002697
1897.000000	7.916422
1898.000000	7.801407
1899.000000	7.667944
1900.000000	7.543710
1901.000000	7.417794
1902.000000	7.320649
1903.000000	7.212667
1904.000000	7.109444
1905.000000	7.002592
1906.000000	6.878716
1907.000000	6.757883
1908.000000	6.665947
1909.000000	6.579196
1910.000000	6.506461
1911.000000	6.437718
1912.000000	6.345457
1913.000000	6.237090
1914.000000	6.143169
1915.000000	6.042227
1916.000000	5.977511
1917.000000	5.905789
1918.000000	5.848298
1919.000000	5.778940
1920.000000	5.722380
1921.000000	5.639649
1922.000000	5.560385
1923.000000	5.499370
1924.000000	5.452371
1925.000000	5.422999
1926.000000	5.379015
1927.000000	5.325977
1928.000000	5.284805
1929.000000	5.242537
1930.000000	5.223714
1931.000000	5.189898
1932.000000	5.161559
1933.000000	5.140940
1934.000000	5.136883
1935.000000	5.131382
1936.000000	5.119954
1937.000000	5.106180
1938.000000	5.115436
1939.000000	5.087485
1940.000000	5.106065
1941.000000	5.119214
1942.000000	5.126475
1943.000000	5.147967
1944.000000	5.157614
1945.000000	5.179843
1946.000000	5.182653
1947.000000	5.223051
1948.000000	5.240479
1949.000000	5.266693
1950.000000	5.288133
1951.000000	5.321350
1952.000000	5.348502
1953.000000	5.376656
1954.000000	5.402851
1955.000000	5.440672
1956.000000	5.458697
1957.000000	5.486005
1958.000000	5.531832
1959.000000	5.554771
1960.000000	5.584106
1961.000000	5.620194
1962.000000	5.644040
1963.000000	5.694248
1964.000000	5.703699
1965.000000	5.734390
1966.000000	5.774235
1967.000000	5.788181
1968.000000	5.830023
1969.000000	5.851131
1970.000000	5.894649
1971.000000	5.910036
1972.000000	5.950185
1973.000000	5.971524
1974.000000	6.003132
1975.000000	6.029234
1976.000000	6.064803
1977.000000	6.091399
1978.000000	6.127626
1979.000000	6.158995
1980.000000	6.186517
1981.000000	6.207053
1982.000000	6.242040
1983.000000	6.265043
1984.000000	6.304367
1985.000000	6.328982
1986.000000	6.351750
1987.000000	6.395432
1988.000000	6.412744
1989.000000	6.442643
1990.000000	6.470425
1991.000000	6.486857
1992.000000	6.510762
1993.000000	6.537894
1994.000000	6.561190
1995.000000	6.574732
1996.000000	6.591385
1997.000000	6.604414
1998.000000	6.632198
1999.000000	6.641838
2000.000000	6.643980
2001.000000	6.644324
2002.000000	6.653469
2003.000000	6.669441
2004.000000	6.673060
2005.000000	6.666278
2006.000000	6.668820
2007.000000	6.671018
2008.000000	6.657624
2009.000000	6.655711
2010.000000	6.657399
2011.000000	6.651405
2012.000000	6.635288
2013.000000	6.613800
2014.000000	6.602770
2015.000000	6.580203
2016.000000	6.564309
2017.000000	6.540901
2018.000000	6.504251
2019.000000	6.490815
2020.000000	6.466179
2021.000000	6.446421
2022.000000	6.424098
2023.000000	6.383944
2024.000000	6.364520
2025.000000	6.324398
2026.000000	6.294209
2027.000000	6.259917
2028.000000	6.211666
2029.000000	6.182115
2030.000000	6.139178
2031.000000	6.097199
2032.000000	6.056805
2033.000000	6.009960
2034.000000	5.958803
2035.000000	5.914820
2036.000000	5.869285
2037.000000	5.804543
2038.000000	5.753768
2039.000000	5.689583
2040.000000	5.640846
2041.000000	5.589426
2042.000000	5.509864
2043.000000	5.452030
2044.000000	5.399002
2045.000000	5.339560
2046.000000	5.283878
2047.000000	5.220813
2048.000000	5.187620
2049.000000	5.141703
2050.000000	5.087149
2051.000000	5.043349
2052.000000	5.009285
2053.000000	4.983730
2054.000000	4.959158
2055.000000	4.936824
2056.000000	4.928390
2057.000000	4.919270
2058.000000	4.918050
2059.000000	4.919739
2060.000000	4.927531
2061.000000	4.928919
2062.000000	4.934570
2063.000000	4.957075
2064.000000	4.974954
2065.000000	4.979552
2066.000000	4.997301
2067.000000	5.012176
2068.000000	5.024130
2069.000000	5.051102
2070.000000	5.069973
2071.000000	5.073528
2072.000000	5.092911
2073.000000	5.116684
2074.000000	5.133137
2075.000000	5.145041
2076.000000	5.156571
2077.000000	5.164208
2078.000000	5.178848
2079.000000	5.184334
2080.000000	5.196991
2081.000000	5.215168
2082.000000	5.216765
2083.000000	5.219462
2084.000000	5.229287
2085.000000	5.230842
2086.000000	5.232597
2087.000000	5.242194
2088.000000	5.238384
2089.000000	5.236138
2090.000000	5.241426
2091.000000	5.245669
2092.000000	5.242310
2093.000000	5.241064
2094.000000	5.243595
2095.000000	5.241030
2096.000000	5.241774
2097.000000	5.242392
2098.000000	5.243911
2099.000000	5.254152
2100.000000	5.253504
2101.000000	5.256101
2102.000000	5.259406
2103.000000	5.259887
2104.000000	5.265919
2105.000000	5.270406
2106.000000	5.276584
2107.000000	5.281164
2108.000000	5.283159
2109.000000	5.288416
2110.000000	5.288904
2111.000000	5.287765
2112.000000	5.296741
2113.000000	5.297571
2114.000000	5.303695
2115.000000	5.312085
2116.000000	5.307646
2117.000000	5.300378
2118.000000	5.294162
2119.000000	5.296329
2120.000000	5.295919
2121.000000	5.287391
2122.000000	5.292980
2123.000000	5.283515
2124.000000	5.270549
2125.000000	5.267840
2126.000000	5.252373
2127.000000	5.237646
2128.000000	5.236244
2129.000000	5.222001
2130.000000	5.210311
2131.000000	5.197014
2132.000000	5.185662
2133.000000	5.172421
2134.000000	5.148080
2135.000000	5.127924
2136.000000	5.113415
2137.000000	5.091739
2138.000000	5.078317
2139.000000	5.050031
2140.000000	5.027880
2141.000000	5.006369
2142.000000	4.995812
2143.000000	4.969020
2144.000000	4.943092
2145.000000	4.916983
2146.000000	4.896137
2147.000000	4.872029
2148.000000	4.845659
2149.000000	4.827465
2150.000000	4.812174
2151.000000	4.788179
2152.000000	4.764838
2153.000000	4.744429
2154.000000	4.718279
2155.000000	4.686542
2156.000000	4.658911
2157.000000	4.642794
2158.000000	4.622794
2159.000000	4.606989
2160.000000	4.584249
2161.000000	4.572704
2162.000000	4.559220
2163.000000	4.557478
2164.000000	4.552162
2165.000000	4.538600
2166.000000	4.532462
2167.000000	4.529646
2168.000000	4.527770
2169.000000	4.509855
2170.000000	4.501107
2171.000000	4.500950
2172.000000	4.510948
2173.000000	4.512697
2174.000000	4.502799
2175.000000	4.505384
2176.000000	4.514576
2177.000000	4.520460
2178.000000	4.529739
2179.000000	4.533932
2180.000000	4.529974
2181.000000	4.543370
2182.000000	4.549494
2183.000000	4.555075
2184.000000	4.569817
2185.000000	4.577411
2186.000000	4.578031
2187.000000	4.588294
2188.000000	4.584932
2189.000000	4.591521
2190.000000	4.606275
2191.000000	4.606273
2192.000000	4.616953
2193.000000	4.622788
2194.000000	4.633223
2195.000000	4.647793
2196.000000	4.659379
2197.000000	4.658403
2198.000000	4.670197
2199.000000	4.675015
2200.000000	4.681359
2201.000000	4.686467
2202.000000	4.685408
2203.000000	4.691193
2204.000000	4.720059
2205.000000	4.734084
2206.000000	4.739799
2207.000000	4.742955
2208.000000	4.769571
2209.000000	4.759427
2210.000000	4.771750
2211.000000	4.796028
2212.000000	4.808594
2213.000000	4.827718
2214.000000	4.848233
2215.000000	4.853554
2216.000000	4.875460
2217.000000	4.901144
2218.000000	4.923103
2219.000000	4.944521
2220.000000	4.952399
2221.000000	4.973218
2222.000000	4.998408
2223.000000	5.019610
2224.000000	5.024401
2225.000000	5.022644
2226.000000	5.024761
2227.000000	5.027873
2228.000000	5.043122
2229.000000	5.044929
2230.000000	5.055750
2231.000000	5.054982
2232.000000	5.032035
2233.000000	5.027857
2234.000000	5.006919
2235.000000	5.007135
2236.000000	4.992237
2237.000000	4.977465
2238.000000	4.939977
2239.000000	4.901234
2240.000000	4.863348
2241.000000	4.842538
2242.000000	4.813006
2243.000000	4.768618
2244.000000	4.716338
2245.000000	4.669489
2246.000000	4.614830
2247.000000	4.544532
2248.000000	4.481327
2249.000000	4.420606
2250.000000	4.351524
2251.000000	4.274753
2252.000000	4.178895
2253.000000	4.090675
2254.000000	3.999889
2255.000000	3.903690
2256.000000	3.808383
2257.000000	3.697599
2258.000000	3.605847
2259.000000	3.511716
2260.000000	3.416341
2261.000000	3.327827
2262.000000	3.232361
2263.000000	3.162691
2264.000000	3.090667
2265.000000	3.027826
2266.000000	2.958928
2267.000000	2.929784
2268.000000	2.885198
2269.000000	2.855947
2270.000000	2.820808
2271.000000	2.801159
2272.000000	2.790329
2273.000000	2.793528
2274.000000	2.785177
2275.000000	2.801087
2276.000000	2.811072
2277.000000	2.829474
2278.000000	2.833890
2279.000000	2.846856
2280.000000	2.876415
2281.000000	2.890186
2282.000000	2.899467
2283.000000	2.920413
2284.000000	2.940637
2285.000000	2.953983
2286.000000	2.965173
2287.000000	2.974919
2288.000000	2.972791
2289.000000	2.972869
2290.000000	2.967905
2291.000000	2.964298
2292.000000	2.951067
2293.000000	2.928419
2294.000000	2.905363
2295.000000	2.879249
2296.000000	2.845339
2297.000000	2.812653
2298.000000	2.786228
2299.000000	2.750979
2300.000000	2.718871
2301.000000	2.677326
2302.000000	2.645616
2303.000000	2.607903
2304.000000	2.595737
2305.000000	2.579628
2306.000000	2.564817
2307.000000	2.559058
2308.000000	2.571397
2309.000000	2.577780
2310.000000	2.590646
2311.000000	2.631318
2312.000000	2.666512
2313.000000	2.690111
2314.000000	2.724911
2315.000000	2.776160
2316.000000	2.820435
2317.000000	2.857065
2318.000000	2.894469
2319.000000	2.939772
2320.000000	2.988012
2321.000000	3.037409
2322.000000	3.069374
2323.000000	3.103117
2324.000000	3.145179
2325.000000	3.180101
2326.000000	3.200904
2327.000000	3.222975
2328.000000	3.245266
2329.000000	3.268177
2330.000000	3.292945
2331.000000	3.318165
2332.000000	3.319475
2333.000000	3.324951
2334.000000	3.337632
2335.000000	3.352114
2336.000000	3.353489
2337.000000	3.339345
2338.000000	3.352817
2339.000000	3.357631
2340.000000	3.350540
2341.000000	3.340574
2342.000000	3.332009
2343.000000	3.312938
2344.000000	3.296825
2345.000000	3.289868
2346.000000	3.283144
2347.000000	3.261148
2348.000000	3.237801
2349.000000	3.226529
2350.000000	3.203251
2351.000000	3.199592
2352.000000	3.196300
2353.000000	3.189946
2354.000000	3.198096
2355.000000	3.209746
2356.000000	3.219849
2357.000000	3.223086
2358.000000	3.237095
2359.000000	3.260789
2360.000000	3.273473
2361.000000	3.293342
2362.000000	3.319159
2363.000000	3.349102
2364.000000	3.369726
2365.000000	3.395341
2366.000000	3.422566
2367.000000	3.435184
2368.000000	3.446421
2369.000000	3.473135
2370.000000	3.494236
2371.000000	3.495724
2372.000000	3.509125
2373.000000	3.529465
2374.000000	3.533037
2375.000000	3.537715
2376.000000	3.548183
2377.000000	3.568086
2378.000000	3.562004
2379.000000	3.565011
2380.000000	3.591632
2381.000000	3.593714
2382.000000	3.588245
2383.000000	3.590310
2384.000000	3.595256
2385.000000	3.587066
2386.000000	3.594470
2387.000000	3.603932
2388.000000	3.605228
2389.000000	3.598852
2390.000000	3.585204
2391.000000	3.569189
2392.000000	3.566454
2393.000000	3.567134
2394.000000	3.553057
2395.000000	3.546138
2396.000000	3.537919
2397.000000	3.532928
2398.000000	3.521698
2399.000000	3.491342
2400.000000	3.482095
2401.000000	3.483014
2402.000000	3.470469
2403.000000	3.458106
2404.000000	3.436328
2405.000000	3.414731
2406.000000	3.406170
2407.000000	3.423066
2408.000000	3.428854
2409.000000	3.408231
2410.000000	3.381713
2411.000000	3.351387
2412.000000	3.320214
2413.000000	3.295915
2414.000000	3.284109
2415.000000	3.286897
2416.000000	3.274483
2417.000000	3.261084
2418.000000	3.253365
2419.000000	3.230256
2420.000000	3.219670
2421.000000	3.215819
2422.000000	3.198149
2423.000000	3.181701
2424.000000	3.167848
2425.000000	3.152478
2426.000000	3.140301
2427.000000	3.125415
2428.000000	3.107535
2429.000000	3.094952
2430.000000	3.074975
2431.000000	3.053019
2432.000000	3.037406
2433.000000	3.014772
2434.000000	2.992443
2435.000000	2.969649
2436.000000	2.942995
2437.000000	2.907103
2438.000000	2.883677
2439.000000	2.857465
2440.000000	2.845983
2441.000000	2.816083
2442.000000	2.782833
2443.000000	2.753332
2444.000000	2.728958
2445.000000	2.695540
2446.000000	2.668390
2447.000000	2.654572
2448.000000	2.625072
2449.000000	2.589095
2450.000000	2.564460
2451.000000	2.525273
2452.000000	2.497954
2453.000000	2.453311
2454.000000	2.424350
2455.000000	2.404675
2456.000000	2.381265
2457.000000	2.330283
2458.000000	2.306061
2459.000000	2.302405
2460.000000	2.281353
2461.000000	2.270351
2462.000000	2.240616
2463.000000	2.245873
2464.000000	2.214837
2465.000000	2.194006
2466.000000	2.211342
2467.000000	2.186735
2468.000000	2.198538
2469.000000	2.207744
2470.000000	2.206178
2471.000000	2.185132
2472.000000	2.187668
2473.000000	2.149188
2474.000000	2.153320
2475.000000	2.145310
2476.000000	2.142135
2477.000000	2.161288
2478.000000	2.138231
2479.000000	2.148764
2480.000000	2.144782
2481.000000	2.149029
2482.000000	2.121444
2483.000000	2.129597
2484.000000	2.142090
2485.000000	2.135487
2486.000000	2.125411
2487.000000	2.144565
2488.000000	2.160366
2489.000000	2.154610
2490.000000	2.165364
2491.000000	2.130336
2492.000000	2.104691
2493.000000	2.206621
2494.000000	2.114685
2495.000000	2.184746
2496.000000	2.107943
2497.000000	2.200232
2498.000000	2.184082
2499.000000	2.197914
2500.000000	2.154609
