PE UV       SUBTECH     SPECTRUM    ASCII       PEDS        4.00        
   -1
CICIMAUCR0001-5.Sample.ASC
24/04/23
10:47:46.00
24/04/23
10:47:46.00
Vinicio Soto Monge
C. kalinini
250,000000
1
Lambda 1050
1050L1511233
PerkinElmer UV WinLab 6.3.2.0749 / 2.02.05 Lambda 900 UV/VIS/NIR, Aug  7 2015 09:38:08

0
0
3350/servo 860,8/2
0
0
UV/VIS
1
1
1
DoubleDePol,CommonBeamDepol,RBeamAtt,SBeamAtt,60mm sphere, WB InGaAs Detector
0
0
0
0
Program
Program
3350/servo 860,8/2
3350/0,2 860,8/0,2
3350/0,2 860,8/0,2
0
15.00
 
 
 
0
 
860,8
319,2
860,8
Front
100
on
S:100 R:100
0
0
0
0
 
0
 
 
 
0
 
 
0
0
0
0
0
 
 
 
 
0
0


0
0
#HDR
-1
-1
#GR
nm
%R
1.0
0.0
2500,000000
-1,000000
2251
8
101,472100
5,465400
#DATA
250.000000	1.977787
251.000000	1.974389
252.000000	1.978931
253.000000	1.945492
254.000000	1.942698
255.000000	1.944439
256.000000	1.934173
257.000000	1.928637
258.000000	1.925230
259.000000	1.926503
260.000000	1.926329
261.000000	1.902640
262.000000	1.886988
263.000000	1.887995
264.000000	1.873679
265.000000	1.858114
266.000000	1.854972
267.000000	1.832495
268.000000	1.837006
269.000000	1.832178
270.000000	1.828036
271.000000	1.822934
272.000000	1.827910
273.000000	1.810121
274.000000	1.810930
275.000000	1.805868
276.000000	1.787096
277.000000	1.798609
278.000000	1.797825
279.000000	1.786646
280.000000	1.785257
281.000000	1.776778
282.000000	1.774093
283.000000	1.782417
284.000000	1.769502
285.000000	1.763318
286.000000	1.758047
287.000000	1.765107
288.000000	1.773120
289.000000	1.774522
290.000000	1.762308
291.000000	1.757030
292.000000	1.758589
293.000000	1.761532
294.000000	1.759342
295.000000	1.756926
296.000000	1.747724
297.000000	1.751179
298.000000	1.760873
299.000000	1.747137
300.000000	1.740448
301.000000	1.734975
302.000000	1.731075
303.000000	1.730514
304.000000	1.732262
305.000000	1.740636
306.000000	1.753698
307.000000	1.746881
308.000000	1.749494
309.000000	1.739859
310.000000	1.738431
311.000000	1.734414
312.000000	1.726919
313.000000	1.740500
314.000000	1.739719
315.000000	1.718067
316.000000	1.802186
317.000000	1.858277
318.000000	1.800462
319.000000	1.797817
320.000000	1.821945
321.000000	1.827591
322.000000	1.852922
323.000000	1.838310
324.000000	1.800173
325.000000	1.816001
326.000000	1.827947
327.000000	1.813761
328.000000	1.802352
329.000000	1.801264
330.000000	1.802756
331.000000	1.810146
332.000000	1.804569
333.000000	1.796898
334.000000	1.773270
335.000000	1.767255
336.000000	1.752713
337.000000	1.770674
338.000000	1.795141
339.000000	1.785852
340.000000	1.772771
341.000000	1.748636
342.000000	1.765096
343.000000	1.784265
344.000000	1.800775
345.000000	1.782592
346.000000	1.785958
347.000000	1.784895
348.000000	1.800223
349.000000	1.806922
350.000000	1.796103
351.000000	1.794737
352.000000	1.821371
353.000000	1.833655
354.000000	1.828265
355.000000	1.822959
356.000000	1.829003
357.000000	1.842975
358.000000	1.852860
359.000000	1.856807
360.000000	1.857654
361.000000	1.870527
362.000000	1.880676
363.000000	1.889177
364.000000	1.898639
365.000000	1.904706
366.000000	1.884956
367.000000	1.898187
368.000000	1.918631
369.000000	1.896280
370.000000	1.899233
371.000000	1.913440
372.000000	1.920108
373.000000	1.911411
374.000000	1.911308
375.000000	1.934763
376.000000	1.992873
377.000000	2.030628
378.000000	2.039071
379.000000	2.045242
380.000000	2.049604
381.000000	2.057489
382.000000	2.065316
383.000000	2.078314
384.000000	2.086637
385.000000	2.092253
386.000000	2.097604
387.000000	2.105805
388.000000	2.114370
389.000000	2.120325
390.000000	2.121440
391.000000	2.129637
392.000000	2.134769
393.000000	2.139785
394.000000	2.144526
395.000000	2.147052
396.000000	2.151428
397.000000	2.154131
398.000000	2.161607
399.000000	2.170817
400.000000	2.182327
401.000000	2.192873
402.000000	2.198121
403.000000	2.214298
404.000000	2.230879
405.000000	2.248316
406.000000	2.273263
407.000000	2.297569
408.000000	2.326986
409.000000	2.359821
410.000000	2.394855
411.000000	2.440074
412.000000	2.482541
413.000000	2.527946
414.000000	2.580569
415.000000	2.640476
416.000000	2.710208
417.000000	2.784028
418.000000	2.860451
419.000000	2.938367
420.000000	3.027677
421.000000	3.121401
422.000000	3.215353
423.000000	3.317625
424.000000	3.426134
425.000000	3.540963
426.000000	3.659041
427.000000	3.787727
428.000000	3.920926
429.000000	4.057119
430.000000	4.204301
431.000000	4.350446
432.000000	4.504390
433.000000	4.669999
434.000000	4.828522
435.000000	4.995273
436.000000	5.171743
437.000000	5.343757
438.000000	5.513613
439.000000	5.687292
440.000000	5.870483
441.000000	6.061519
442.000000	6.248555
443.000000	6.421730
444.000000	6.594842
445.000000	6.783670
446.000000	6.977476
447.000000	7.154684
448.000000	7.328138
449.000000	7.502699
450.000000	7.666247
451.000000	7.833273
452.000000	7.989283
453.000000	8.143972
454.000000	8.301994
455.000000	8.444465
456.000000	8.580419
457.000000	8.710707
458.000000	8.834512
459.000000	8.949966
460.000000	9.070357
461.000000	9.184685
462.000000	9.288576
463.000000	9.380180
464.000000	9.481432
465.000000	9.578074
466.000000	9.664624
467.000000	9.738146
468.000000	9.814554
469.000000	9.894547
470.000000	9.971233
471.000000	10.039834
472.000000	10.105521
473.000000	10.179405
474.000000	10.245364
475.000000	10.312446
476.000000	10.375355
477.000000	10.453798
478.000000	10.517634
479.000000	10.597271
480.000000	10.665794
481.000000	10.707805
482.000000	10.750062
483.000000	10.788664
484.000000	10.858147
485.000000	10.922909
486.000000	10.996390
487.000000	11.058804
488.000000	11.130437
489.000000	11.213883
490.000000	11.294716
491.000000	11.371637
492.000000	11.472547
493.000000	11.577435
494.000000	11.677859
495.000000	11.794377
496.000000	11.906482
497.000000	12.030360
498.000000	12.170457
499.000000	12.306733
500.000000	12.444247
501.000000	12.599469
502.000000	12.755089
503.000000	12.921326
504.000000	13.093867
505.000000	13.257587
506.000000	13.448791
507.000000	13.638013
508.000000	13.837585
509.000000	14.050777
510.000000	14.263904
511.000000	14.486504
512.000000	14.732121
513.000000	14.972738
514.000000	15.238483
515.000000	15.503270
516.000000	15.779607
517.000000	16.060432
518.000000	16.373854
519.000000	16.700975
520.000000	17.025441
521.000000	17.357155
522.000000	17.707338
523.000000	18.075062
524.000000	18.439305
525.000000	18.815747
526.000000	19.183100
527.000000	19.568072
528.000000	19.942582
529.000000	20.324363
530.000000	20.708851
531.000000	21.095681
532.000000	21.455360
533.000000	21.824805
534.000000	22.177035
535.000000	22.514734
536.000000	22.834762
537.000000	23.140288
538.000000	23.431976
539.000000	23.703398
540.000000	23.962648
541.000000	24.216489
542.000000	24.443790
543.000000	24.661921
544.000000	24.861304
545.000000	25.046330
546.000000	25.230910
547.000000	25.399889
548.000000	25.559464
549.000000	25.713562
550.000000	25.865828
551.000000	26.006968
552.000000	26.134806
553.000000	26.270884
554.000000	26.392406
555.000000	26.501117
556.000000	26.609518
557.000000	26.696597
558.000000	26.781873
559.000000	26.890237
560.000000	27.008216
561.000000	27.076364
562.000000	27.137749
563.000000	27.181672
564.000000	27.205785
565.000000	27.241482
566.000000	27.277327
567.000000	27.296598
568.000000	27.301074
569.000000	27.294391
570.000000	27.282844
571.000000	27.269382
572.000000	27.250087
573.000000	27.209738
574.000000	27.168107
575.000000	27.135369
576.000000	27.088673
577.000000	27.015929
578.000000	26.952569
579.000000	26.872332
580.000000	26.785270
581.000000	26.676570
582.000000	26.559311
583.000000	26.447899
584.000000	26.307935
585.000000	26.157796
586.000000	26.002181
587.000000	25.827404
588.000000	25.637941
589.000000	25.422068
590.000000	25.205050
591.000000	24.971282
592.000000	24.729015
593.000000	24.479038
594.000000	24.218321
595.000000	23.944047
596.000000	23.678496
597.000000	23.413560
598.000000	23.132383
599.000000	22.842824
600.000000	22.555005
601.000000	22.265974
602.000000	21.987039
603.000000	21.715313
604.000000	21.447584
605.000000	21.201034
606.000000	20.968867
607.000000	20.750306
608.000000	20.553608
609.000000	20.374590
610.000000	20.202313
611.000000	20.049006
612.000000	19.909847
613.000000	19.801059
614.000000	19.701801
615.000000	19.612056
616.000000	19.524314
617.000000	19.453367
618.000000	19.394200
619.000000	19.345193
620.000000	19.307519
621.000000	19.281920
622.000000	19.263475
623.000000	19.255459
624.000000	19.263648
625.000000	19.300575
626.000000	19.340286
627.000000	19.392209
628.000000	19.458830
629.000000	19.533881
630.000000	19.630796
631.000000	19.736575
632.000000	19.848587
633.000000	19.963753
634.000000	20.076610
635.000000	20.181432
636.000000	20.295965
637.000000	20.397411
638.000000	20.497877
639.000000	20.574765
640.000000	20.654667
641.000000	20.702613
642.000000	20.728930
643.000000	20.747121
644.000000	20.742727
645.000000	20.736037
646.000000	20.726397
647.000000	20.706849
648.000000	20.698015
649.000000	20.699017
650.000000	20.689499
651.000000	20.699261
652.000000	20.733528
653.000000	20.771989
654.000000	20.828489
655.000000	20.896888
656.000000	20.962350
657.000000	21.045112
658.000000	21.140063
659.000000	21.236808
660.000000	21.360777
661.000000	21.471151
662.000000	21.599689
663.000000	21.733264
664.000000	21.854545
665.000000	21.976774
666.000000	22.106388
667.000000	22.245677
668.000000	22.382521
669.000000	22.508671
670.000000	22.651172
671.000000	22.799062
672.000000	22.967045
673.000000	23.122770
674.000000	23.279304
675.000000	23.423255
676.000000	23.585137
677.000000	23.770157
678.000000	23.984481
679.000000	24.188789
680.000000	24.359188
681.000000	24.554085
682.000000	24.757598
683.000000	24.943185
684.000000	25.128183
685.000000	25.323983
686.000000	25.522468
687.000000	25.703613
688.000000	25.886137
689.000000	26.057951
690.000000	26.236282
691.000000	26.410713
692.000000	26.576887
693.000000	26.723463
694.000000	26.856852
695.000000	26.997982
696.000000	27.153054
697.000000	27.302298
698.000000	27.463678
699.000000	27.622505
700.000000	27.765054
701.000000	27.919881
702.000000	28.108760
703.000000	28.302548
704.000000	28.485377
705.000000	28.682325
706.000000	28.874247
707.000000	29.071476
708.000000	29.265663
709.000000	29.469107
710.000000	29.662225
711.000000	29.857374
712.000000	30.051572
713.000000	30.225753
714.000000	30.423691
715.000000	30.594314
716.000000	30.748071
717.000000	30.890006
718.000000	31.025792
719.000000	31.180275
720.000000	31.332617
721.000000	31.470129
722.000000	31.579275
723.000000	31.716835
724.000000	31.854658
725.000000	31.983574
726.000000	32.109122
727.000000	32.197802
728.000000	32.341473
729.000000	32.482610
730.000000	32.555065
731.000000	32.672897
732.000000	32.828092
733.000000	32.950658
734.000000	33.050156
735.000000	33.166314
736.000000	33.257059
737.000000	33.365494
738.000000	33.434871
739.000000	33.569717
740.000000	33.630799
741.000000	33.714929
742.000000	33.806330
743.000000	33.857267
744.000000	33.924762
745.000000	34.011523
746.000000	34.045600
747.000000	34.137490
748.000000	34.193973
749.000000	34.279037
750.000000	34.308705
751.000000	34.352235
752.000000	34.433015
753.000000	34.482824
754.000000	34.581285
755.000000	34.647380
756.000000	34.678333
757.000000	34.747164
758.000000	34.771144
759.000000	34.836707
760.000000	34.916625
761.000000	34.973189
762.000000	34.999240
763.000000	35.000825
764.000000	35.062193
765.000000	35.070493
766.000000	35.052381
767.000000	35.091706
768.000000	35.145709
769.000000	35.140354
770.000000	35.109498
771.000000	35.140733
772.000000	35.095627
773.000000	35.118060
774.000000	35.134326
775.000000	35.086643
776.000000	35.095856
777.000000	35.061138
778.000000	34.984336
779.000000	34.994426
780.000000	34.961539
781.000000	34.959397
782.000000	34.912210
783.000000	34.818109
784.000000	34.777477
785.000000	34.738164
786.000000	34.727501
787.000000	34.639165
788.000000	34.637986
789.000000	34.552469
790.000000	34.413648
791.000000	34.340353
792.000000	34.334281
793.000000	34.232866
794.000000	34.089193
795.000000	33.985711
796.000000	33.922738
797.000000	33.822307
798.000000	33.722696
799.000000	33.597904
800.000000	33.413996
801.000000	33.381151
802.000000	33.246240
803.000000	33.040380
804.000000	32.927348
805.000000	32.822973
806.000000	32.708960
807.000000	32.571167
808.000000	32.446020
809.000000	32.305745
810.000000	32.129850
811.000000	32.011876
812.000000	31.846081
813.000000	31.713858
814.000000	31.606706
815.000000	31.357282
816.000000	31.182259
817.000000	31.108796
818.000000	30.984628
819.000000	30.679215
820.000000	30.506818
821.000000	30.355681
822.000000	30.117800
823.000000	29.927896
824.000000	29.777156
825.000000	29.579085
826.000000	29.368127
827.000000	29.208591
828.000000	28.958887
829.000000	28.833510
830.000000	28.648427
831.000000	28.487035
832.000000	28.237320
833.000000	28.075447
834.000000	27.871015
835.000000	27.735446
836.000000	27.615184
837.000000	27.471290
838.000000	27.328011
839.000000	27.222524
840.000000	27.034220
841.000000	26.935128
842.000000	26.768396
843.000000	26.639583
844.000000	26.501311
845.000000	26.382156
846.000000	26.382030
847.000000	26.169411
848.000000	26.139707
849.000000	26.027238
850.000000	26.035197
851.000000	25.939213
852.000000	25.854775
853.000000	25.730876
854.000000	25.608367
855.000000	25.523494
856.000000	25.506796
857.000000	25.392000
858.000000	24.411979
859.000000	25.360529
860.000000	25.749788
861.000000	25.590827
862.000000	24.895800
863.000000	25.092114
864.000000	25.460890
865.000000	25.842483
866.000000	25.968528
867.000000	25.745703
868.000000	25.564254
869.000000	25.631402
870.000000	26.000270
871.000000	25.461656
872.000000	25.597061
873.000000	25.665356
874.000000	25.816502
875.000000	25.875862
876.000000	25.898953
877.000000	25.784625
878.000000	25.861489
879.000000	25.680515
880.000000	25.564037
881.000000	25.576071
882.000000	25.508736
883.000000	25.836419
884.000000	25.741251
885.000000	25.469686
886.000000	25.622507
887.000000	25.567282
888.000000	25.315345
889.000000	25.452744
890.000000	25.629774
891.000000	25.455004
892.000000	25.391107
893.000000	25.380363
894.000000	25.357695
895.000000	25.290674
896.000000	25.312124
897.000000	25.303523
898.000000	25.317504
899.000000	25.283036
900.000000	25.190593
901.000000	25.097111
902.000000	25.079905
903.000000	25.213789
904.000000	25.071741
905.000000	24.981375
906.000000	25.095893
907.000000	25.142859
908.000000	24.964139
909.000000	24.986793
910.000000	25.016606
911.000000	24.930170
912.000000	24.936756
913.000000	25.018710
914.000000	24.978574
915.000000	24.909302
916.000000	24.824428
917.000000	24.842547
918.000000	24.806308
919.000000	24.834090
920.000000	24.790521
921.000000	24.766554
922.000000	24.721271
923.000000	24.652747
924.000000	24.626279
925.000000	24.686207
926.000000	24.683427
927.000000	24.640067
928.000000	24.609632
929.000000	24.664130
930.000000	24.616100
931.000000	24.598794
932.000000	24.603681
933.000000	24.564168
934.000000	24.575976
935.000000	24.593677
936.000000	24.576651
937.000000	24.580880
938.000000	24.567012
939.000000	24.523532
940.000000	24.525541
941.000000	24.458589
942.000000	24.457204
943.000000	24.483159
944.000000	24.485121
945.000000	24.483424
946.000000	24.485994
947.000000	24.453599
948.000000	24.403706
949.000000	24.387833
950.000000	24.407719
951.000000	24.406524
952.000000	24.397657
953.000000	24.367395
954.000000	24.350304
955.000000	24.371368
956.000000	24.394477
957.000000	24.381388
958.000000	24.319372
959.000000	24.297318
960.000000	24.312944
961.000000	24.298126
962.000000	24.301523
963.000000	24.319225
964.000000	24.269769
965.000000	24.263643
966.000000	24.269273
967.000000	24.235548
968.000000	24.225711
969.000000	24.176890
970.000000	24.144971
971.000000	24.143174
972.000000	24.165410
973.000000	24.164276
974.000000	24.145314
975.000000	24.165653
976.000000	24.146831
977.000000	24.113294
978.000000	24.103226
979.000000	24.103884
980.000000	24.069265
981.000000	24.057463
982.000000	24.067068
983.000000	24.063555
984.000000	24.031016
985.000000	24.022663
986.000000	24.007980
987.000000	23.967340
988.000000	23.967076
989.000000	23.959705
990.000000	23.955857
991.000000	23.944686
992.000000	23.947851
993.000000	23.946695
994.000000	23.932944
995.000000	23.895387
996.000000	23.880944
997.000000	23.912513
998.000000	23.874480
999.000000	23.866585
1000.000000	23.872123
1001.000000	23.885385
1002.000000	23.864563
1003.000000	23.836225
1004.000000	23.842676
1005.000000	23.879864
1006.000000	23.869804
1007.000000	23.819590
1008.000000	23.820627
1009.000000	23.781971
1010.000000	23.782029
1011.000000	23.795072
1012.000000	23.805001
1013.000000	23.796654
1014.000000	23.823695
1015.000000	23.813318
1016.000000	23.775114
1017.000000	23.743620
1018.000000	23.720673
1019.000000	23.740541
1020.000000	23.726647
1021.000000	23.738986
1022.000000	23.715866
1023.000000	23.734755
1024.000000	23.775049
1025.000000	23.772517
1026.000000	23.733184
1027.000000	23.727078
1028.000000	23.716929
1029.000000	23.716767
1030.000000	23.732305
1031.000000	23.710728
1032.000000	23.725255
1033.000000	23.711205
1034.000000	23.707470
1035.000000	23.692836
1036.000000	23.690844
1037.000000	23.693283
1038.000000	23.684384
1039.000000	23.693772
1040.000000	23.710885
1041.000000	23.731384
1042.000000	23.756525
1043.000000	23.737008
1044.000000	23.724069
1045.000000	23.742693
1046.000000	23.745542
1047.000000	23.720661
1048.000000	23.691515
1049.000000	23.702005
1050.000000	23.689865
1051.000000	23.709183
1052.000000	23.742708
1053.000000	23.752779
1054.000000	23.774250
1055.000000	23.763292
1056.000000	23.771874
1057.000000	23.708578
1058.000000	23.745376
1059.000000	23.758517
1060.000000	23.765167
1061.000000	23.767356
1062.000000	23.780009
1063.000000	23.774381
1064.000000	23.801079
1065.000000	23.809385
1066.000000	23.807509
1067.000000	23.787277
1068.000000	23.788294
1069.000000	23.792006
1070.000000	23.810586
1071.000000	23.845668
1072.000000	23.848348
1073.000000	23.838251
1074.000000	23.819608
1075.000000	23.838468
1076.000000	23.834289
1077.000000	23.884608
1078.000000	23.876768
1079.000000	23.884706
1080.000000	23.920203
1081.000000	23.914570
1082.000000	23.909821
1083.000000	23.872784
1084.000000	23.925134
1085.000000	23.928627
1086.000000	23.942468
1087.000000	23.944139
1088.000000	23.941088
1089.000000	23.959930
1090.000000	23.990538
1091.000000	23.991347
1092.000000	24.013301
1093.000000	24.003926
1094.000000	23.996709
1095.000000	23.996480
1096.000000	23.992023
1097.000000	23.988862
1098.000000	24.016076
1099.000000	24.039887
1100.000000	24.048832
1101.000000	24.049784
1102.000000	24.058728
1103.000000	24.059881
1104.000000	24.049153
1105.000000	24.055570
1106.000000	24.035949
1107.000000	24.055987
1108.000000	24.075192
1109.000000	24.082281
1110.000000	24.057897
1111.000000	24.072957
1112.000000	24.092241
1113.000000	24.092055
1114.000000	24.089220
1115.000000	24.069122
1116.000000	24.045357
1117.000000	24.073971
1118.000000	24.060862
1119.000000	24.058824
1120.000000	24.053313
1121.000000	24.070529
1122.000000	24.088205
1123.000000	24.105779
1124.000000	24.092853
1125.000000	24.052800
1126.000000	24.063083
1127.000000	24.068263
1128.000000	24.043484
1129.000000	24.045362
1130.000000	24.055724
1131.000000	24.023368
1132.000000	23.970525
1133.000000	23.929519
1134.000000	23.917929
1135.000000	23.941852
1136.000000	23.937504
1137.000000	23.873232
1138.000000	23.821030
1139.000000	23.788326
1140.000000	23.768250
1141.000000	23.753370
1142.000000	23.734178
1143.000000	23.687317
1144.000000	23.654175
1145.000000	23.649683
1146.000000	23.642485
1147.000000	23.638513
1148.000000	23.643374
1149.000000	23.639188
1150.000000	23.621358
1151.000000	23.598820
1152.000000	23.583261
1153.000000	23.572872
1154.000000	23.541417
1155.000000	23.505492
1156.000000	23.467283
1157.000000	23.429643
1158.000000	23.410320
1159.000000	23.378586
1160.000000	23.335221
1161.000000	23.288337
1162.000000	23.249739
1163.000000	23.233017
1164.000000	23.194590
1165.000000	23.145070
1166.000000	23.100005
1167.000000	23.048093
1168.000000	23.005997
1169.000000	22.956653
1170.000000	22.924854
1171.000000	22.887179
1172.000000	22.859672
1173.000000	22.847859
1174.000000	22.828745
1175.000000	22.801072
1176.000000	22.755095
1177.000000	22.736589
1178.000000	22.717721
1179.000000	22.687870
1180.000000	22.673746
1181.000000	22.658620
1182.000000	22.641690
1183.000000	22.615201
1184.000000	22.600954
1185.000000	22.601292
1186.000000	22.595321
1187.000000	22.582037
1188.000000	22.555442
1189.000000	22.572252
1190.000000	22.605546
1191.000000	22.618046
1192.000000	22.637387
1193.000000	22.651964
1194.000000	22.677534
1195.000000	22.707360
1196.000000	22.731753
1197.000000	22.763254
1198.000000	22.787662
1199.000000	22.815959
1200.000000	22.851195
1201.000000	22.889147
1202.000000	22.921020
1203.000000	22.940375
1204.000000	22.963848
1205.000000	22.987675
1206.000000	23.010030
1207.000000	23.038425
1208.000000	23.068794
1209.000000	23.091786
1210.000000	23.110197
1211.000000	23.126998
1212.000000	23.150653
1213.000000	23.178278
1214.000000	23.206431
1215.000000	23.218939
1216.000000	23.232370
1217.000000	23.238513
1218.000000	23.249303
1219.000000	23.267556
1220.000000	23.278155
1221.000000	23.286115
1222.000000	23.292490
1223.000000	23.306484
1224.000000	23.319465
1225.000000	23.330198
1226.000000	23.341397
1227.000000	23.348623
1228.000000	23.352222
1229.000000	23.348225
1230.000000	23.357671
1231.000000	23.380837
1232.000000	23.409749
1233.000000	23.429206
1234.000000	23.446874
1235.000000	23.457232
1236.000000	23.462472
1237.000000	23.472016
1238.000000	23.490725
1239.000000	23.512682
1240.000000	23.527798
1241.000000	23.554875
1242.000000	23.576476
1243.000000	23.594189
1244.000000	23.623378
1245.000000	23.647941
1246.000000	23.659006
1247.000000	23.672363
1248.000000	23.679874
1249.000000	23.712649
1250.000000	23.727460
1251.000000	23.741730
1252.000000	23.759273
1253.000000	23.771971
1254.000000	23.773995
1255.000000	23.778042
1256.000000	23.777580
1257.000000	23.780855
1258.000000	23.769888
1259.000000	23.762196
1260.000000	23.763681
1261.000000	23.747345
1262.000000	23.747537
1263.000000	23.765469
1264.000000	23.779489
1265.000000	23.769296
1266.000000	23.754293
1267.000000	23.758472
1268.000000	23.776270
1269.000000	23.782252
1270.000000	23.763058
1271.000000	23.746402
1272.000000	23.724487
1273.000000	23.707781
1274.000000	23.708005
1275.000000	23.712045
1276.000000	23.725410
1277.000000	23.731471
1278.000000	23.748081
1279.000000	23.758923
1280.000000	23.766819
1281.000000	23.784170
1282.000000	23.795153
1283.000000	23.803967
1284.000000	23.821041
1285.000000	23.833201
1286.000000	23.842927
1287.000000	23.850800
1288.000000	23.857515
1289.000000	23.870459
1290.000000	23.880053
1291.000000	23.893204
1292.000000	23.913180
1293.000000	23.914344
1294.000000	23.920360
1295.000000	23.929456
1296.000000	23.925797
1297.000000	23.924255
1298.000000	23.926027
1299.000000	23.932889
1300.000000	23.919820
1301.000000	23.908280
1302.000000	23.906974
1303.000000	23.913833
1304.000000	23.913281
1305.000000	23.907067
1306.000000	23.906095
1307.000000	23.906640
1308.000000	23.888736
1309.000000	23.886979
1310.000000	23.878716
1311.000000	23.858214
1312.000000	23.840620
1313.000000	23.831037
1314.000000	23.817833
1315.000000	23.806780
1316.000000	23.808884
1317.000000	23.794965
1318.000000	23.772152
1319.000000	23.750230
1320.000000	23.748178
1321.000000	23.746726
1322.000000	23.728008
1323.000000	23.705253
1324.000000	23.669763
1325.000000	23.650385
1326.000000	23.638643
1327.000000	23.596234
1328.000000	23.598369
1329.000000	23.575414
1330.000000	23.542447
1331.000000	23.509012
1332.000000	23.494585
1333.000000	23.462969
1334.000000	23.435846
1335.000000	23.406407
1336.000000	23.387333
1337.000000	23.341490
1338.000000	23.292038
1339.000000	23.232503
1340.000000	23.222604
1341.000000	23.163361
1342.000000	23.110308
1343.000000	23.047138
1344.000000	23.008704
1345.000000	22.950255
1346.000000	22.858494
1347.000000	22.787090
1348.000000	22.798579
1349.000000	22.748770
1350.000000	22.626111
1351.000000	22.585713
1352.000000	22.536790
1353.000000	22.491664
1354.000000	22.410019
1355.000000	22.468786
1356.000000	22.446268
1357.000000	22.367037
1358.000000	22.338816
1359.000000	22.304031
1360.000000	22.235669
1361.000000	22.203735
1362.000000	22.409635
1363.000000	22.297788
1364.000000	22.096715
1365.000000	22.246362
1366.000000	22.174248
1367.000000	21.989243
1368.000000	22.084980
1369.000000	22.096267
1370.000000	21.945078
1371.000000	21.954233
1372.000000	21.981998
1373.000000	21.894903
1374.000000	21.804145
1375.000000	21.744469
1376.000000	21.708187
1377.000000	21.697563
1378.000000	21.614468
1379.000000	21.523708
1380.000000	21.465165
1381.000000	21.474962
1382.000000	21.442141
1383.000000	21.546005
1384.000000	21.457718
1385.000000	21.309440
1386.000000	21.222642
1387.000000	21.036053
1388.000000	21.033845
1389.000000	20.977759
1390.000000	20.764675
1391.000000	20.610654
1392.000000	20.570977
1393.000000	20.526415
1394.000000	20.310965
1395.000000	20.239521
1396.000000	20.299293
1397.000000	20.189516
1398.000000	19.925677
1399.000000	19.703911
1400.000000	19.693521
1401.000000	19.765774
1402.000000	19.587437
1403.000000	19.314205
1404.000000	19.146135
1405.000000	19.119191
1406.000000	18.950285
1407.000000	18.800952
1408.000000	18.686041
1409.000000	18.555807
1410.000000	18.503669
1411.000000	18.302994
1412.000000	18.111662
1413.000000	17.973415
1414.000000	17.918371
1415.000000	17.882094
1416.000000	17.701828
1417.000000	17.545530
1418.000000	17.448433
1419.000000	17.388598
1420.000000	17.321873
1421.000000	17.187890
1422.000000	17.039296
1423.000000	16.967447
1424.000000	16.924634
1425.000000	16.834493
1426.000000	16.743429
1427.000000	16.661362
1428.000000	16.614171
1429.000000	16.568726
1430.000000	16.489870
1431.000000	16.425140
1432.000000	16.404780
1433.000000	16.366428
1434.000000	16.284810
1435.000000	16.230354
1436.000000	16.172721
1437.000000	16.134918
1438.000000	16.113686
1439.000000	16.070339
1440.000000	16.040251
1441.000000	16.002263
1442.000000	15.976735
1443.000000	15.948740
1444.000000	15.883441
1445.000000	15.853728
1446.000000	15.863538
1447.000000	15.813971
1448.000000	15.757450
1449.000000	15.706374
1450.000000	15.699309
1451.000000	15.701318
1452.000000	15.676482
1453.000000	15.632364
1454.000000	15.586909
1455.000000	15.564189
1456.000000	15.545208
1457.000000	15.518074
1458.000000	15.496690
1459.000000	15.457769
1460.000000	15.423919
1461.000000	15.395921
1462.000000	15.356798
1463.000000	15.327175
1464.000000	15.309578
1465.000000	15.278053
1466.000000	15.258832
1467.000000	15.244225
1468.000000	15.208189
1469.000000	15.174542
1470.000000	15.167288
1471.000000	15.154087
1472.000000	15.121703
1473.000000	15.106031
1474.000000	15.083305
1475.000000	15.052327
1476.000000	15.020920
1477.000000	15.017144
1478.000000	15.027275
1479.000000	15.014793
1480.000000	14.989575
1481.000000	14.979560
1482.000000	14.986941
1483.000000	14.958172
1484.000000	14.938113
1485.000000	14.930432
1486.000000	14.928266
1487.000000	14.928819
1488.000000	14.915355
1489.000000	14.895881
1490.000000	14.880434
1491.000000	14.873431
1492.000000	14.878931
1493.000000	14.874582
1494.000000	14.869817
1495.000000	14.860949
1496.000000	14.863552
1497.000000	14.857766
1498.000000	14.865106
1499.000000	14.881106
1500.000000	14.890527
1501.000000	14.896592
1502.000000	14.903251
1503.000000	14.911637
1504.000000	14.937013
1505.000000	14.963023
1506.000000	14.986009
1507.000000	14.994778
1508.000000	15.004857
1509.000000	15.029659
1510.000000	15.051735
1511.000000	15.064004
1512.000000	15.085429
1513.000000	15.113901
1514.000000	15.127873
1515.000000	15.135061
1516.000000	15.154866
1517.000000	15.171901
1518.000000	15.189650
1519.000000	15.198047
1520.000000	15.217327
1521.000000	15.238031
1522.000000	15.270334
1523.000000	15.284307
1524.000000	15.298254
1525.000000	15.315678
1526.000000	15.332693
1527.000000	15.340603
1528.000000	15.371486
1529.000000	15.397368
1530.000000	15.429025
1531.000000	15.437090
1532.000000	15.439651
1533.000000	15.452853
1534.000000	15.456344
1535.000000	15.478133
1536.000000	15.505722
1537.000000	15.505248
1538.000000	15.521541
1539.000000	15.545120
1540.000000	15.556549
1541.000000	15.566873
1542.000000	15.576458
1543.000000	15.594546
1544.000000	15.618129
1545.000000	15.618804
1546.000000	15.660874
1547.000000	15.674164
1548.000000	15.706066
1549.000000	15.719896
1550.000000	15.760017
1551.000000	15.794103
1552.000000	15.826943
1553.000000	15.852851
1554.000000	15.868833
1555.000000	15.881161
1556.000000	15.911903
1557.000000	15.937268
1558.000000	15.946681
1559.000000	15.934160
1560.000000	15.951775
1561.000000	15.959739
1562.000000	15.962847
1563.000000	15.964690
1564.000000	15.954088
1565.000000	15.966389
1566.000000	15.980722
1567.000000	15.982718
1568.000000	15.952881
1569.000000	15.944570
1570.000000	15.935654
1571.000000	15.934092
1572.000000	15.913937
1573.000000	15.915941
1574.000000	15.910904
1575.000000	15.906885
1576.000000	15.918828
1577.000000	15.905150
1578.000000	15.924128
1579.000000	15.943535
1580.000000	15.956593
1581.000000	15.962034
1582.000000	15.964815
1583.000000	15.963199
1584.000000	15.970278
1585.000000	15.978672
1586.000000	15.989335
1587.000000	16.003673
1588.000000	16.019835
1589.000000	16.035639
1590.000000	16.046623
1591.000000	16.062595
1592.000000	16.074070
1593.000000	16.104716
1594.000000	16.105732
1595.000000	16.122851
1596.000000	16.115046
1597.000000	16.134279
1598.000000	16.160336
1599.000000	16.177717
1600.000000	16.177469
1601.000000	16.213451
1602.000000	16.240304
1603.000000	16.235744
1604.000000	16.270060
1605.000000	16.302347
1606.000000	16.325409
1607.000000	16.341616
1608.000000	16.362219
1609.000000	16.370075
1610.000000	16.397551
1611.000000	16.400361
1612.000000	16.424602
1613.000000	16.438883
1614.000000	16.440344
1615.000000	16.460057
1616.000000	16.467482
1617.000000	16.462330
1618.000000	16.489583
1619.000000	16.495783
1620.000000	16.525318
1621.000000	16.542009
1622.000000	16.526400
1623.000000	16.555394
1624.000000	16.566697
1625.000000	16.575210
1626.000000	16.568888
1627.000000	16.603402
1628.000000	16.605056
1629.000000	16.610049
1630.000000	16.619089
1631.000000	16.634221
1632.000000	16.652496
1633.000000	16.680579
1634.000000	16.688455
1635.000000	16.705327
1636.000000	16.714623
1637.000000	16.714574
1638.000000	16.725945
1639.000000	16.724520
1640.000000	16.730804
1641.000000	16.741564
1642.000000	16.725689
1643.000000	16.744211
1644.000000	16.726351
1645.000000	16.754564
1646.000000	16.765300
1647.000000	16.767827
1648.000000	16.741489
1649.000000	16.739782
1650.000000	16.762108
1651.000000	16.757111
1652.000000	16.751361
1653.000000	16.745112
1654.000000	16.742354
1655.000000	16.721066
1656.000000	16.708494
1657.000000	16.682996
1658.000000	16.671501
1659.000000	16.636057
1660.000000	16.611866
1661.000000	16.577032
1662.000000	16.559946
1663.000000	16.520469
1664.000000	16.455341
1665.000000	16.410562
1666.000000	16.347201
1667.000000	16.318797
1668.000000	16.253104
1669.000000	16.200858
1670.000000	16.156081
1671.000000	16.104610
1672.000000	16.037809
1673.000000	15.980978
1674.000000	15.930649
1675.000000	15.861332
1676.000000	15.808194
1677.000000	15.746739
1678.000000	15.690454
1679.000000	15.633400
1680.000000	15.566928
1681.000000	15.488339
1682.000000	15.403224
1683.000000	15.324933
1684.000000	15.277317
1685.000000	15.210682
1686.000000	15.172917
1687.000000	15.110877
1688.000000	15.065219
1689.000000	15.047067
1690.000000	15.046776
1691.000000	15.094535
1692.000000	15.101109
1693.000000	15.109968
1694.000000	15.116460
1695.000000	15.146481
1696.000000	15.153509
1697.000000	15.160432
1698.000000	15.154827
1699.000000	15.168107
1700.000000	15.179328
1701.000000	15.171749
1702.000000	15.167689
1703.000000	15.155218
1704.000000	15.132965
1705.000000	15.123002
1706.000000	15.106201
1707.000000	15.074024
1708.000000	15.037595
1709.000000	15.028525
1710.000000	14.998796
1711.000000	14.954213
1712.000000	14.912783
1713.000000	14.856707
1714.000000	14.801450
1715.000000	14.722729
1716.000000	14.648020
1717.000000	14.582965
1718.000000	14.522773
1719.000000	14.459065
1720.000000	14.380209
1721.000000	14.343120
1722.000000	14.303503
1723.000000	14.260941
1724.000000	14.236684
1725.000000	14.233073
1726.000000	14.244498
1727.000000	14.252940
1728.000000	14.253767
1729.000000	14.254436
1730.000000	14.254468
1731.000000	14.270302
1732.000000	14.289187
1733.000000	14.296062
1734.000000	14.309844
1735.000000	14.323150
1736.000000	14.342087
1737.000000	14.351260
1738.000000	14.367009
1739.000000	14.394875
1740.000000	14.412732
1741.000000	14.443856
1742.000000	14.475656
1743.000000	14.492231
1744.000000	14.507850
1745.000000	14.522089
1746.000000	14.551576
1747.000000	14.568495
1748.000000	14.579005
1749.000000	14.592166
1750.000000	14.600259
1751.000000	14.613464
1752.000000	14.630854
1753.000000	14.628474
1754.000000	14.633176
1755.000000	14.660168
1756.000000	14.665902
1757.000000	14.669759
1758.000000	14.658703
1759.000000	14.653263
1760.000000	14.646893
1761.000000	14.647077
1762.000000	14.690509
1763.000000	14.699534
1764.000000	14.672763
1765.000000	14.679343
1766.000000	14.721234
1767.000000	14.730738
1768.000000	14.757340
1769.000000	14.773785
1770.000000	14.793193
1771.000000	14.814241
1772.000000	14.830639
1773.000000	14.846623
1774.000000	14.855387
1775.000000	14.854035
1776.000000	14.886715
1777.000000	14.913263
1778.000000	14.936585
1779.000000	14.956938
1780.000000	14.945062
1781.000000	14.956212
1782.000000	14.963766
1783.000000	14.951423
1784.000000	14.954891
1785.000000	14.972422
1786.000000	14.977772
1787.000000	14.970527
1788.000000	14.986776
1789.000000	14.985829
1790.000000	14.992877
1791.000000	15.007539
1792.000000	15.007510
1793.000000	15.007548
1794.000000	14.999732
1795.000000	15.017631
1796.000000	15.040275
1797.000000	15.043310
1798.000000	15.040196
1799.000000	15.026670
1800.000000	15.051968
1801.000000	15.095802
1802.000000	15.134339
1803.000000	15.145178
1804.000000	15.099835
1805.000000	15.083157
1806.000000	15.119735
1807.000000	15.158776
1808.000000	15.148415
1809.000000	15.125674
1810.000000	15.127431
1811.000000	15.179550
1812.000000	15.187351
1813.000000	15.221582
1814.000000	15.150003
1815.000000	15.164811
1816.000000	15.247126
1817.000000	15.217417
1818.000000	15.180368
1819.000000	15.116652
1820.000000	15.162706
1821.000000	15.311941
1822.000000	15.313370
1823.000000	15.282237
1824.000000	15.174866
1825.000000	15.123737
1826.000000	15.237250
1827.000000	15.256504
1828.000000	15.210565
1829.000000	15.256129
1830.000000	15.226661
1831.000000	15.281000
1832.000000	15.324988
1833.000000	15.283539
1834.000000	15.213678
1835.000000	15.245071
1836.000000	15.309856
1837.000000	15.419050
1838.000000	15.431212
1839.000000	15.350790
1840.000000	15.320366
1841.000000	15.347622
1842.000000	15.512786
1843.000000	15.548560
1844.000000	15.383184
1845.000000	15.272968
1846.000000	15.170704
1847.000000	15.308968
1848.000000	15.594322
1849.000000	15.551199
1850.000000	15.444875
1851.000000	15.384040
1852.000000	15.190150
1853.000000	15.289203
1854.000000	15.482913
1855.000000	15.337839
1856.000000	15.239356
1857.000000	15.427525
1858.000000	15.202606
1859.000000	15.110964
1860.000000	15.356534
1861.000000	15.273908
1862.000000	15.142291
1863.000000	15.017123
1864.000000	15.107611
1865.000000	15.087217
1866.000000	14.817239
1867.000000	14.854459
1868.000000	14.984455
1869.000000	14.790495
1870.000000	14.645865
1871.000000	14.766767
1872.000000	14.638009
1873.000000	14.617208
1874.000000	14.651849
1875.000000	14.420967
1876.000000	14.278150
1877.000000	14.292084
1878.000000	14.241263
1879.000000	13.992954
1880.000000	13.887199
1881.000000	13.763763
1882.000000	13.670127
1883.000000	13.449185
1884.000000	13.418664
1885.000000	13.246905
1886.000000	13.018725
1887.000000	12.894191
1888.000000	12.645420
1889.000000	12.440019
1890.000000	12.361898
1891.000000	12.188676
1892.000000	11.917364
1893.000000	11.690870
1894.000000	11.504041
1895.000000	11.337388
1896.000000	11.064337
1897.000000	10.879911
1898.000000	10.700628
1899.000000	10.521241
1900.000000	10.417109
1901.000000	10.206673
1902.000000	9.877813
1903.000000	9.746839
1904.000000	9.528819
1905.000000	9.393824
1906.000000	9.255689
1907.000000	9.134151
1908.000000	9.003770
1909.000000	8.805931
1910.000000	8.675040
1911.000000	8.524996
1912.000000	8.445659
1913.000000	8.350807
1914.000000	8.270957
1915.000000	8.134752
1916.000000	8.116989
1917.000000	8.033972
1918.000000	7.887553
1919.000000	7.725865
1920.000000	7.768995
1921.000000	7.789577
1922.000000	7.671446
1923.000000	7.556473
1924.000000	7.524259
1925.000000	7.497965
1926.000000	7.410913
1927.000000	7.411613
1928.000000	7.391524
1929.000000	7.374132
1930.000000	7.333095
1931.000000	7.339369
1932.000000	7.306352
1933.000000	7.269527
1934.000000	7.275304
1935.000000	7.232111
1936.000000	7.239123
1937.000000	7.246458
1938.000000	7.240180
1939.000000	7.230622
1940.000000	7.281960
1941.000000	7.334200
1942.000000	7.297125
1943.000000	7.339696
1944.000000	7.359392
1945.000000	7.390977
1946.000000	7.389235
1947.000000	7.439955
1948.000000	7.478015
1949.000000	7.499225
1950.000000	7.517416
1951.000000	7.562864
1952.000000	7.577476
1953.000000	7.645136
1954.000000	7.662186
1955.000000	7.703677
1956.000000	7.721753
1957.000000	7.757155
1958.000000	7.773485
1959.000000	7.811731
1960.000000	7.858760
1961.000000	7.894488
1962.000000	7.953251
1963.000000	7.997798
1964.000000	8.009294
1965.000000	8.036034
1966.000000	8.076064
1967.000000	8.101274
1968.000000	8.127733
1969.000000	8.190045
1970.000000	8.178411
1971.000000	8.188765
1972.000000	8.227917
1973.000000	8.273234
1974.000000	8.297128
1975.000000	8.349741
1976.000000	8.418981
1977.000000	8.428207
1978.000000	8.453695
1979.000000	8.479537
1980.000000	8.534113
1981.000000	8.589528
1982.000000	8.587882
1983.000000	8.590668
1984.000000	8.663946
1985.000000	8.735974
1986.000000	8.778172
1987.000000	8.765306
1988.000000	8.760212
1989.000000	8.822955
1990.000000	8.871793
1991.000000	8.877776
1992.000000	8.901396
1993.000000	8.970209
1994.000000	8.965964
1995.000000	8.994948
1996.000000	9.079733
1997.000000	9.104182
1998.000000	9.120977
1999.000000	9.159112
2000.000000	9.171074
2001.000000	9.118956
2002.000000	9.156173
2003.000000	9.218330
2004.000000	9.190107
2005.000000	9.203774
2006.000000	9.225022
2007.000000	9.217943
2008.000000	9.208563
2009.000000	9.229585
2010.000000	9.236449
2011.000000	9.266798
2012.000000	9.231874
2013.000000	9.190624
2014.000000	9.238564
2015.000000	9.241116
2016.000000	9.224801
2017.000000	9.211970
2018.000000	9.239590
2019.000000	9.210056
2020.000000	9.196398
2021.000000	9.210111
2022.000000	9.170820
2023.000000	9.200096
2024.000000	9.208532
2025.000000	9.117248
2026.000000	9.038211
2027.000000	9.066644
2028.000000	9.065105
2029.000000	8.985850
2030.000000	8.908328
2031.000000	8.962404
2032.000000	8.895693
2033.000000	8.826799
2034.000000	8.828113
2035.000000	8.747302
2036.000000	8.740060
2037.000000	8.707244
2038.000000	8.658385
2039.000000	8.615879
2040.000000	8.543637
2041.000000	8.495905
2042.000000	8.414453
2043.000000	8.416037
2044.000000	8.402671
2045.000000	8.264871
2046.000000	8.205496
2047.000000	8.226668
2048.000000	8.174649
2049.000000	8.132605
2050.000000	8.057491
2051.000000	7.959076
2052.000000	8.013818
2053.000000	8.018362
2054.000000	7.997816
2055.000000	7.984141
2056.000000	7.966286
2057.000000	7.934724
2058.000000	7.949776
2059.000000	8.051787
2060.000000	8.123278
2061.000000	8.100411
2062.000000	8.079758
2063.000000	8.232152
2064.000000	8.292252
2065.000000	8.253848
2066.000000	8.310794
2067.000000	8.266864
2068.000000	8.266579
2069.000000	8.393574
2070.000000	8.494250
2071.000000	8.466792
2072.000000	8.479154
2073.000000	8.512676
2074.000000	8.561549
2075.000000	8.623340
2076.000000	8.647857
2077.000000	8.603518
2078.000000	8.590268
2079.000000	8.581541
2080.000000	8.619067
2081.000000	8.603358
2082.000000	8.710161
2083.000000	8.649686
2084.000000	8.546287
2085.000000	8.683545
2086.000000	8.684441
2087.000000	8.759509
2088.000000	8.684311
2089.000000	8.660025
2090.000000	8.691919
2091.000000	8.665117
2092.000000	8.755139
2093.000000	8.647230
2094.000000	8.487079
2095.000000	8.545817
2096.000000	8.735830
2097.000000	8.850439
2098.000000	8.626845
2099.000000	8.628789
2100.000000	8.553262
2101.000000	8.607700
2102.000000	8.598959
2103.000000	8.566502
2104.000000	8.689780
2105.000000	8.551569
2106.000000	8.550615
2107.000000	8.548272
2108.000000	8.707755
2109.000000	8.559270
2110.000000	8.643322
2111.000000	8.710154
2112.000000	8.699731
2113.000000	8.753609
2114.000000	8.577120
2115.000000	8.507698
2116.000000	8.637395
2117.000000	8.727954
2118.000000	8.477170
2119.000000	8.586847
2120.000000	8.594147
2121.000000	8.695814
2122.000000	8.742906
2123.000000	8.477311
2124.000000	8.643002
2125.000000	8.316550
2126.000000	8.519089
2127.000000	8.393137
2128.000000	8.588042
2129.000000	8.498126
2130.000000	8.517026
2131.000000	8.271156
2132.000000	8.374450
2133.000000	8.096506
2134.000000	8.254706
2135.000000	8.306426
2136.000000	8.059129
2137.000000	7.791063
2138.000000	8.118795
2139.000000	7.977057
2140.000000	7.925263
2141.000000	7.931840
2142.000000	8.094914
2143.000000	7.969378
2144.000000	7.894733
2145.000000	7.733747
2146.000000	7.812681
2147.000000	7.541671
2148.000000	7.901589
2149.000000	7.619614
2150.000000	7.466035
2151.000000	7.564204
2152.000000	7.631989
2153.000000	7.576167
2154.000000	7.383415
2155.000000	7.559101
2156.000000	7.295055
2157.000000	7.438067
2158.000000	7.579537
2159.000000	7.394854
2160.000000	7.270666
2161.000000	7.258125
2162.000000	7.447334
2163.000000	7.083503
2164.000000	7.211775
2165.000000	7.425338
2166.000000	7.327267
2167.000000	7.182860
2168.000000	7.135961
2169.000000	7.232376
2170.000000	7.425559
2171.000000	7.358250
2172.000000	7.153839
2173.000000	7.297937
2174.000000	7.257872
2175.000000	7.228119
2176.000000	7.197868
2177.000000	7.468869
2178.000000	7.223153
2179.000000	7.156752
2180.000000	7.292011
2181.000000	7.256446
2182.000000	7.298172
2183.000000	7.332040
2184.000000	7.195708
2185.000000	7.282719
2186.000000	7.079087
2187.000000	7.159222
2188.000000	7.091286
2189.000000	7.163909
2190.000000	7.096102
2191.000000	7.127053
2192.000000	7.206472
2193.000000	7.319718
2194.000000	7.275974
2195.000000	7.322723
2196.000000	7.363460
2197.000000	7.317086
2198.000000	7.284638
2199.000000	7.379741
2200.000000	7.348589
2201.000000	7.292973
2202.000000	7.253945
2203.000000	7.281616
2204.000000	7.269290
2205.000000	7.321427
2206.000000	7.411652
2207.000000	7.376738
2208.000000	7.349535
2209.000000	7.338184
2210.000000	7.501191
2211.000000	7.403066
2212.000000	7.467652
2213.000000	7.325273
2214.000000	7.489196
2215.000000	7.609668
2216.000000	7.564383
2217.000000	7.542759
2218.000000	7.698784
2219.000000	7.853491
2220.000000	7.589634
2221.000000	7.614327
2222.000000	7.758925
2223.000000	7.692870
2224.000000	7.731356
2225.000000	7.683821
2226.000000	7.711501
2227.000000	7.726789
2228.000000	7.656481
2229.000000	7.832725
2230.000000	7.973326
2231.000000	7.911253
2232.000000	7.815339
2233.000000	7.834532
2234.000000	7.811649
2235.000000	7.815878
2236.000000	7.681709
2237.000000	7.589307
2238.000000	7.691750
2239.000000	7.678971
2240.000000	7.673445
2241.000000	7.737856
2242.000000	7.716610
2243.000000	7.696504
2244.000000	7.561366
2245.000000	7.522939
2246.000000	7.558845
2247.000000	7.453543
2248.000000	7.492769
2249.000000	7.492287
2250.000000	7.344183
2251.000000	7.341270
2252.000000	7.293744
2253.000000	7.249249
2254.000000	7.143474
2255.000000	7.029159
2256.000000	6.887571
2257.000000	6.835834
2258.000000	6.882238
2259.000000	6.932035
2260.000000	6.803846
2261.000000	6.740721
2262.000000	6.758490
2263.000000	6.687186
2264.000000	6.762231
2265.000000	6.620824
2266.000000	6.657061
2267.000000	6.708765
2268.000000	6.777266
2269.000000	6.831929
2270.000000	6.637738
2271.000000	6.405377
2272.000000	6.420635
2273.000000	6.546421
2274.000000	6.412500
2275.000000	6.484957
2276.000000	6.568008
2277.000000	6.527323
2278.000000	6.622464
2279.000000	6.649202
2280.000000	6.504977
2281.000000	6.438952
2282.000000	6.438701
2283.000000	6.354456
2284.000000	6.265080
2285.000000	6.188632
2286.000000	6.196924
2287.000000	6.254609
2288.000000	6.317834
2289.000000	6.354745
2290.000000	6.264036
2291.000000	6.211317
2292.000000	5.991753
2293.000000	5.994697
2294.000000	6.161817
2295.000000	6.192352
2296.000000	6.190786
2297.000000	6.272222
2298.000000	6.283483
2299.000000	6.187358
2300.000000	6.098986
2301.000000	6.275335
2302.000000	6.359592
2303.000000	6.313981
2304.000000	6.087625
2305.000000	6.090858
2306.000000	6.114095
2307.000000	6.108033
2308.000000	6.242984
2309.000000	6.366642
2310.000000	6.210229
2311.000000	6.270296
2312.000000	6.266856
2313.000000	6.528477
2314.000000	6.547705
2315.000000	6.291973
2316.000000	6.296613
2317.000000	6.348851
2318.000000	6.362470
2319.000000	6.324237
2320.000000	6.393176
2321.000000	6.508748
2322.000000	6.342509
2323.000000	6.135355
2324.000000	6.280076
2325.000000	6.309058
2326.000000	6.426652
2327.000000	6.241683
2328.000000	6.095601
2329.000000	6.208229
2330.000000	6.260380
2331.000000	6.244815
2332.000000	6.302842
2333.000000	6.312641
2334.000000	6.122108
2335.000000	6.202792
2336.000000	6.232850
2337.000000	6.319476
2338.000000	6.383088
2339.000000	6.019839
2340.000000	6.120099
2341.000000	5.970609
2342.000000	6.194706
2343.000000	6.350871
2344.000000	6.055008
2345.000000	6.132015
2346.000000	6.377853
2347.000000	6.113624
2348.000000	6.379674
2349.000000	6.469461
2350.000000	6.361304
2351.000000	6.099615
2352.000000	6.268345
2353.000000	6.101089
2354.000000	6.037018
2355.000000	6.248758
2356.000000	6.156379
2357.000000	5.826479
2358.000000	6.024065
2359.000000	6.501749
2360.000000	5.964279
2361.000000	6.272926
2362.000000	6.229798
2363.000000	6.083455
2364.000000	6.054052
2365.000000	6.255512
2366.000000	6.076740
2367.000000	6.172563
2368.000000	6.268789
2369.000000	6.232810
2370.000000	6.088040
2371.000000	6.118027
2372.000000	6.095669
2373.000000	6.104031
2374.000000	5.840763
2375.000000	6.258201
2376.000000	6.341857
2377.000000	6.112148
2378.000000	6.475600
2379.000000	6.667359
2380.000000	6.413109
2381.000000	6.660901
2382.000000	6.022132
2383.000000	6.339499
2384.000000	6.228681
2385.000000	6.424455
2386.000000	6.223442
2387.000000	6.009922
2388.000000	6.239905
2389.000000	6.055815
2390.000000	6.125367
2391.000000	5.993203
2392.000000	6.196006
2393.000000	5.711028
2394.000000	6.208728
2395.000000	6.618841
2396.000000	5.899960
2397.000000	6.032706
2398.000000	6.545660
2399.000000	5.838519
2400.000000	6.147914
2401.000000	0.527007
2402.000000	0.521279
2403.000000	0.520431
2404.000000	0.514137
2405.000000	0.512865
2406.000000	0.514915
2407.000000	0.515481
2408.000000	0.513854
2409.000000	0.530047
2410.000000	0.539593
2411.000000	0.514067
2412.000000	0.509753
2413.000000	0.511662
2414.000000	0.515127
2415.000000	0.511309
2416.000000	0.510178
2417.000000	0.526936
2418.000000	0.522764
2419.000000	0.516471
2420.000000	0.516047
2421.000000	0.518239
2422.000000	0.519016
2423.000000	0.535633
2424.000000	0.540725
2425.000000	0.556210
2426.000000	0.573464
2427.000000	0.571201
2428.000000	0.578979
2429.000000	0.559109
2430.000000	0.555715
2431.000000	0.554442
2432.000000	0.549068
2433.000000	0.548432
2434.000000	0.531674
2435.000000	0.526158
2436.000000	0.511662
2437.000000	0.507773
2438.000000	0.509400
2439.000000	0.501409
2440.000000	0.486984
2441.000000	0.478641
2442.000000	0.475246
2443.000000	0.476590
2444.000000	0.456720
2445.000000	0.463579
2446.000000	0.454175
2447.000000	0.438548
2448.000000	0.446184
2449.000000	0.433032
2450.000000	0.421718
2451.000000	0.417405
2452.000000	0.410758
2453.000000	0.411041
2454.000000	0.441447
2455.000000	0.403970
2456.000000	0.387424
2457.000000	0.371938
2458.000000	0.367625
2459.000000	0.357584
2460.000000	0.376252
2461.000000	0.348674
2462.000000	0.351856
2463.000000	0.374130
2464.000000	0.358574
2465.000000	0.345987
2466.000000	0.328593
2467.000000	0.347543
2468.000000	0.343795
2469.000000	0.307591
2470.000000	0.330360
2471.000000	0.317137
2472.000000	0.353271
2473.000000	0.343230
2474.000000	0.291823
2475.000000	0.309783
2476.000000	0.304622
2477.000000	0.318622
2478.000000	0.318693
2479.000000	0.303561
2480.000000	0.251094
2481.000000	0.237022
2482.000000	0.344361
2483.000000	0.299530
2484.000000	0.301935
2485.000000	0.378726
2486.000000	0.286095
2487.000000	0.278812
2488.000000	0.306814
2489.000000	0.290267
2490.000000	0.338846
2491.000000	0.361049
2492.000000	0.267852
2493.000000	0.348886
2494.000000	0.255478
2495.000000	0.305046
2496.000000	0.295429
2497.000000	0.319047
2498.000000	0.370665
2499.000000	0.255619
2500.000000	0.259367
