PE UV       SUBTECH     SPECTRUM    ASCII       PEDS        4.00        
   -1
CICIMAUCR0108-3.Sample.ASC
24/04/22
10:06:33.00
24/04/22
10:06:33.00
Vinicio Soto Monge
C. resplendens
250,000000
1
Lambda 1050
1050L1511233
PerkinElmer UV WinLab 6.3.2.0749 / 2.02.05 Lambda 900 UV/VIS/NIR, Aug  7 2015 09:38:08

0
0
3350/servo 860,8/2
0
0
UV/VIS
1
1
1
DoubleDePol,CommonBeamDepol,RBeamAtt,SBeamAtt,60mm sphere, WB InGaAs Detector
0
0
0
0
Program
Program
3350/servo 860,8/2
3350/0,2 860,8/0,2
3350/0,2 860,8/0,2
0
15.00
 
 
 
0
 
860,8
319,2
860,8
Front
100
on
S:100 R:100
0
0
0
0
 
0
 
 
 
0
 
 
0
0
0
0
0
 
 
 
 
0
0


0
0
#HDR
-1
-1
#GR
nm
%R
1.0
0.0
2500,000000
-1,000000
2251
8
82,967800
5,292400
#DATA
250.000000	0.377823
251.000000	0.401071
252.000000	0.405186
253.000000	0.378942
254.000000	0.372598
255.000000	0.391263
256.000000	0.364544
257.000000	0.375115
258.000000	0.339540
259.000000	0.373273
260.000000	0.374740
261.000000	0.410216
262.000000	0.367234
263.000000	0.376015
264.000000	0.384902
265.000000	0.386105
266.000000	0.360257
267.000000	0.380217
268.000000	0.388158
269.000000	0.334432
270.000000	0.373560
271.000000	0.382267
272.000000	0.368060
273.000000	0.371649
274.000000	0.360726
275.000000	0.351545
276.000000	0.331856
277.000000	0.375773
278.000000	0.357938
279.000000	0.372119
280.000000	0.355710
281.000000	0.349749
282.000000	0.322016
283.000000	0.351520
284.000000	0.388931
285.000000	0.374024
286.000000	0.347414
287.000000	0.363908
288.000000	0.328477
289.000000	0.375109
290.000000	0.365803
291.000000	0.357903
292.000000	0.331556
293.000000	0.364066
294.000000	0.356231
295.000000	0.363374
296.000000	0.355275
297.000000	0.361245
298.000000	0.360862
299.000000	0.342611
300.000000	0.373635
301.000000	0.339715
302.000000	0.336682
303.000000	0.369518
304.000000	0.371313
305.000000	0.344364
306.000000	0.347657
307.000000	0.379789
308.000000	0.358994
309.000000	0.364397
310.000000	0.349363
311.000000	0.379798
312.000000	0.363778
313.000000	0.356262
314.000000	0.366757
315.000000	0.376109
316.000000	0.401075
317.000000	0.769425
318.000000	0.758664
319.000000	0.610031
320.000000	0.494184
321.000000	0.595822
322.000000	0.500147
323.000000	0.569482
324.000000	0.500329
325.000000	0.488874
326.000000	0.508105
327.000000	0.464130
328.000000	0.496708
329.000000	0.434284
330.000000	0.404512
331.000000	0.384574
332.000000	0.483165
333.000000	0.489206
334.000000	0.460824
335.000000	0.476505
336.000000	0.417260
337.000000	0.487819
338.000000	0.432153
339.000000	0.409447
340.000000	0.415668
341.000000	0.426457
342.000000	0.394119
343.000000	0.463050
344.000000	0.415845
345.000000	0.394745
346.000000	0.482671
347.000000	0.451056
348.000000	0.406941
349.000000	0.370357
350.000000	0.388009
351.000000	0.368662
352.000000	0.423818
353.000000	0.413818
354.000000	0.401329
355.000000	0.415720
356.000000	0.380985
357.000000	0.386719
358.000000	0.346417
359.000000	0.367707
360.000000	0.377971
361.000000	0.336776
362.000000	0.370677
363.000000	0.406948
364.000000	0.410159
365.000000	0.379909
366.000000	0.348425
367.000000	0.342695
368.000000	0.361609
369.000000	0.358776
370.000000	0.345267
371.000000	0.355753
372.000000	0.346376
373.000000	0.331361
374.000000	0.329239
375.000000	0.319867
376.000000	0.335581
377.000000	0.394057
378.000000	0.394945
379.000000	0.395780
380.000000	0.406066
381.000000	0.408295
382.000000	0.397374
383.000000	0.404645
384.000000	0.407275
385.000000	0.404937
386.000000	0.401440
387.000000	0.399040
388.000000	0.394841
389.000000	0.399954
390.000000	0.403394
391.000000	0.401475
392.000000	0.393889
393.000000	0.405879
394.000000	0.407876
395.000000	0.409215
396.000000	0.413343
397.000000	0.400933
398.000000	0.405739
399.000000	0.423592
400.000000	0.416635
401.000000	0.422351
402.000000	0.438782
403.000000	0.440797
404.000000	0.443622
405.000000	0.452821
406.000000	0.458164
407.000000	0.478399
408.000000	0.501099
409.000000	0.506930
410.000000	0.522273
411.000000	0.543989
412.000000	0.560178
413.000000	0.557722
414.000000	0.570945
415.000000	0.591504
416.000000	0.597290
417.000000	0.601896
418.000000	0.620999
419.000000	0.622034
420.000000	0.624293
421.000000	0.617973
422.000000	0.600645
423.000000	0.591953
424.000000	0.582696
425.000000	0.565391
426.000000	0.535462
427.000000	0.509093
428.000000	0.491120
429.000000	0.456630
430.000000	0.423596
431.000000	0.404048
432.000000	0.357402
433.000000	0.318123
434.000000	0.303776
435.000000	0.294528
436.000000	0.280767
437.000000	0.276128
438.000000	0.298419
439.000000	0.325820
440.000000	0.361674
441.000000	0.408116
442.000000	0.449440
443.000000	0.488317
444.000000	0.534555
445.000000	0.592017
446.000000	0.632739
447.000000	0.671458
448.000000	0.718432
449.000000	0.761186
450.000000	0.803058
451.000000	0.852697
452.000000	0.900672
453.000000	0.958528
454.000000	0.998263
455.000000	1.027857
456.000000	1.068088
457.000000	1.118469
458.000000	1.154103
459.000000	1.201985
460.000000	1.238293
461.000000	1.262408
462.000000	1.299263
463.000000	1.326145
464.000000	1.378924
465.000000	1.400660
466.000000	1.420678
467.000000	1.453207
468.000000	1.474184
469.000000	1.497764
470.000000	1.511652
471.000000	1.528089
472.000000	1.546817
473.000000	1.563186
474.000000	1.575314
475.000000	1.567672
476.000000	1.560417
477.000000	1.546845
478.000000	1.538946
479.000000	1.528527
480.000000	1.484004
481.000000	1.434410
482.000000	1.399669
483.000000	1.351041
484.000000	1.295368
485.000000	1.225371
486.000000	1.159545
487.000000	1.089589
488.000000	1.009345
489.000000	0.924387
490.000000	0.865122
491.000000	0.793585
492.000000	0.721086
493.000000	0.658018
494.000000	0.591723
495.000000	0.534028
496.000000	0.478775
497.000000	0.457581
498.000000	0.442324
499.000000	0.435480
500.000000	0.438113
501.000000	0.464686
502.000000	0.496191
503.000000	0.518427
504.000000	0.539233
505.000000	0.564900
506.000000	0.566971
507.000000	0.577516
508.000000	0.599343
509.000000	0.610238
510.000000	0.617610
511.000000	0.624104
512.000000	0.645277
513.000000	0.666035
514.000000	0.722672
515.000000	0.774089
516.000000	0.828686
517.000000	0.900030
518.000000	0.983125
519.000000	1.093622
520.000000	1.189186
521.000000	1.265225
522.000000	1.337756
523.000000	1.412928
524.000000	1.480017
525.000000	1.519570
526.000000	1.559751
527.000000	1.572375
528.000000	1.556654
529.000000	1.512418
530.000000	1.430855
531.000000	1.353465
532.000000	1.242042
533.000000	1.090617
534.000000	0.901894
535.000000	0.716576
536.000000	0.529294
537.000000	0.332991
538.000000	0.103543
539.000000	0.101201
540.000000	0.345317
541.000000	0.566054
542.000000	0.785977
543.000000	0.989369
544.000000	1.230977
545.000000	1.421461
546.000000	1.602111
547.000000	1.791344
548.000000	1.940908
549.000000	2.078625
550.000000	2.258175
551.000000	2.391069
552.000000	2.550163
553.000000	2.676148
554.000000	2.790528
555.000000	2.919564
556.000000	3.010315
557.000000	3.084441
558.000000	3.180996
559.000000	3.285269
560.000000	3.437816
561.000000	3.482110
562.000000	3.542732
563.000000	3.596064
564.000000	3.654024
565.000000	3.693112
566.000000	3.733882
567.000000	3.800327
568.000000	3.843096
569.000000	3.872420
570.000000	3.915213
571.000000	3.932852
572.000000	3.984713
573.000000	4.029967
574.000000	4.085137
575.000000	4.123152
576.000000	4.161494
577.000000	4.203406
578.000000	4.254673
579.000000	4.285533
580.000000	4.333245
581.000000	4.357200
582.000000	4.408891
583.000000	4.472469
584.000000	4.517227
585.000000	4.545191
586.000000	4.586581
587.000000	4.616636
588.000000	4.645714
589.000000	4.699244
590.000000	4.741946
591.000000	4.766939
592.000000	4.826659
593.000000	4.871134
594.000000	4.971909
595.000000	5.010631
596.000000	5.049358
597.000000	5.123337
598.000000	5.136417
599.000000	5.210420
600.000000	5.257497
601.000000	5.333928
602.000000	5.351386
603.000000	5.414515
604.000000	5.493179
605.000000	5.592548
606.000000	5.636117
607.000000	5.709055
608.000000	5.780187
609.000000	5.815174
610.000000	5.915934
611.000000	5.991672
612.000000	6.080935
613.000000	6.157562
614.000000	6.189841
615.000000	6.219688
616.000000	6.291973
617.000000	6.317090
618.000000	6.330048
619.000000	6.343011
620.000000	6.349283
621.000000	6.337084
622.000000	6.320481
623.000000	6.312311
624.000000	6.274389
625.000000	6.275629
626.000000	6.197904
627.000000	6.146110
628.000000	6.122462
629.000000	6.056197
630.000000	5.977793
631.000000	5.875558
632.000000	5.785864
633.000000	5.704548
634.000000	5.539580
635.000000	5.369287
636.000000	5.175711
637.000000	4.946220
638.000000	4.738714
639.000000	4.432848
640.000000	4.165220
641.000000	3.832204
642.000000	3.530315
643.000000	3.230718
644.000000	2.949810
645.000000	2.653814
646.000000	2.421581
647.000000	2.157267
648.000000	1.930695
649.000000	1.731073
650.000000	1.549335
651.000000	1.391325
652.000000	1.248777
653.000000	1.127691
654.000000	1.030811
655.000000	0.975365
656.000000	0.949848
657.000000	0.918533
658.000000	0.939387
659.000000	0.952481
660.000000	0.959129
661.000000	0.961698
662.000000	0.960207
663.000000	0.955361
664.000000	0.953920
665.000000	0.975366
666.000000	0.957010
667.000000	0.979016
668.000000	1.038847
669.000000	1.083639
670.000000	1.147098
671.000000	1.263493
672.000000	1.338963
673.000000	1.470089
674.000000	1.542265
675.000000	1.645061
676.000000	1.738966
677.000000	1.817241
678.000000	1.919883
679.000000	1.976155
680.000000	2.027942
681.000000	2.114156
682.000000	2.180063
683.000000	2.225872
684.000000	2.303962
685.000000	2.351379
686.000000	2.387296
687.000000	2.438437
688.000000	2.511404
689.000000	2.570426
690.000000	2.601624
691.000000	2.624596
692.000000	2.698605
693.000000	2.731423
694.000000	2.736012
695.000000	2.814093
696.000000	2.786826
697.000000	2.790315
698.000000	2.798581
699.000000	2.773337
700.000000	2.796084
701.000000	2.740770
702.000000	2.688397
703.000000	2.692936
704.000000	2.668451
705.000000	2.613949
706.000000	2.544130
707.000000	2.504920
708.000000	2.450177
709.000000	2.388423
710.000000	2.333955
711.000000	2.255815
712.000000	2.202745
713.000000	2.174829
714.000000	2.128157
715.000000	2.029978
716.000000	1.960284
717.000000	1.955014
718.000000	1.943975
719.000000	1.893826
720.000000	1.842639
721.000000	1.778609
722.000000	1.746349
723.000000	1.738431
724.000000	1.707324
725.000000	1.685370
726.000000	1.718213
727.000000	1.727245
728.000000	1.711910
729.000000	1.684864
730.000000	1.703271
731.000000	1.710912
732.000000	1.779850
733.000000	1.840168
734.000000	1.817827
735.000000	1.828732
736.000000	1.912819
737.000000	1.962487
738.000000	1.970424
739.000000	1.976563
740.000000	2.066648
741.000000	2.090187
742.000000	2.092602
743.000000	2.152322
744.000000	2.208242
745.000000	2.254952
746.000000	2.284133
747.000000	2.366140
748.000000	2.390785
749.000000	2.368564
750.000000	2.403956
751.000000	2.441357
752.000000	2.475644
753.000000	2.533415
754.000000	2.590197
755.000000	2.612797
756.000000	2.657289
757.000000	2.702779
758.000000	2.719321
759.000000	2.731926
760.000000	2.756679
761.000000	2.798959
762.000000	2.829350
763.000000	2.860082
764.000000	2.880501
765.000000	2.903071
766.000000	2.913197
767.000000	2.908373
768.000000	2.958666
769.000000	3.038360
770.000000	3.129693
771.000000	3.152832
772.000000	3.155588
773.000000	3.154657
774.000000	3.152119
775.000000	3.202410
776.000000	3.264783
777.000000	3.268755
778.000000	3.269740
779.000000	3.340841
780.000000	3.336692
781.000000	3.281451
782.000000	3.303354
783.000000	3.259977
784.000000	3.234819
785.000000	3.239945
786.000000	3.195452
787.000000	3.213778
788.000000	3.185064
789.000000	3.109486
790.000000	3.157592
791.000000	3.214076
792.000000	3.195743
793.000000	3.141135
794.000000	3.130832
795.000000	3.111309
796.000000	3.162383
797.000000	3.135020
798.000000	3.031097
799.000000	3.068412
800.000000	3.071907
801.000000	3.013324
802.000000	3.097523
803.000000	3.048136
804.000000	3.099955
805.000000	3.134225
806.000000	3.141549
807.000000	3.230306
808.000000	3.253497
809.000000	3.229936
810.000000	3.296073
811.000000	3.413318
812.000000	3.415372
813.000000	3.401802
814.000000	3.467900
815.000000	3.615222
816.000000	3.554576
817.000000	3.652742
818.000000	3.783159
819.000000	3.872742
820.000000	3.874665
821.000000	3.941737
822.000000	3.958121
823.000000	3.951569
824.000000	3.939121
825.000000	4.114187
826.000000	4.183606
827.000000	4.093231
828.000000	4.231012
829.000000	4.146225
830.000000	4.253761
831.000000	4.161680
832.000000	4.225790
833.000000	4.170209
834.000000	4.164373
835.000000	4.282090
836.000000	4.397946
837.000000	4.236842
838.000000	4.227357
839.000000	4.111051
840.000000	4.181624
841.000000	4.335580
842.000000	4.459350
843.000000	4.436363
844.000000	4.547734
845.000000	4.532760
846.000000	4.409687
847.000000	4.430844
848.000000	4.466068
849.000000	4.417902
850.000000	4.531963
851.000000	4.654496
852.000000	4.665284
853.000000	4.628766
854.000000	4.617968
855.000000	4.601220
856.000000	4.782121
857.000000	4.573459
858.000000	4.340557
859.000000	4.726415
860.000000	4.600298
861.000000	4.487871
862.000000	4.453626
863.000000	4.393258
864.000000	4.344034
865.000000	4.265884
866.000000	4.218735
867.000000	4.174273
868.000000	4.117457
869.000000	4.062779
870.000000	4.030984
871.000000	3.976911
872.000000	3.950732
873.000000	3.921321
874.000000	3.858693
875.000000	3.833138
876.000000	3.782446
877.000000	3.758324
878.000000	3.738860
879.000000	3.725842
880.000000	3.689283
881.000000	3.655616
882.000000	3.642113
883.000000	3.601085
884.000000	3.583085
885.000000	3.578064
886.000000	3.565159
887.000000	3.557298
888.000000	3.551049
889.000000	3.538837
890.000000	3.525523
891.000000	3.546960
892.000000	3.530855
893.000000	3.537693
894.000000	3.547358
895.000000	3.561734
896.000000	3.570738
897.000000	3.563582
898.000000	3.586349
899.000000	3.594389
900.000000	3.619849
901.000000	3.634437
902.000000	3.647850
903.000000	3.659753
904.000000	3.660321
905.000000	3.670855
906.000000	3.670999
907.000000	3.678188
908.000000	3.732321
909.000000	3.725678
910.000000	3.696715
911.000000	3.683855
912.000000	3.683274
913.000000	3.719228
914.000000	3.704602
915.000000	3.708104
916.000000	3.700609
917.000000	3.691092
918.000000	3.691304
919.000000	3.680871
920.000000	3.668867
921.000000	3.675177
922.000000	3.715485
923.000000	3.702762
924.000000	3.698694
925.000000	3.702044
926.000000	3.698292
927.000000	3.716425
928.000000	3.738224
929.000000	3.753200
930.000000	3.767239
931.000000	3.807204
932.000000	3.822548
933.000000	3.827913
934.000000	3.857935
935.000000	3.875179
936.000000	3.906809
937.000000	3.944111
938.000000	3.962530
939.000000	4.007122
940.000000	4.014449
941.000000	4.040626
942.000000	4.095315
943.000000	4.108073
944.000000	4.137616
945.000000	4.165163
946.000000	4.209454
947.000000	4.243426
948.000000	4.289999
949.000000	4.325427
950.000000	4.358137
951.000000	4.430402
952.000000	4.454261
953.000000	4.488830
954.000000	4.536288
955.000000	4.586574
956.000000	4.648092
957.000000	4.685234
958.000000	4.730056
959.000000	4.769191
960.000000	4.829336
961.000000	4.878097
962.000000	4.926985
963.000000	4.973053
964.000000	5.017117
965.000000	5.070186
966.000000	5.114816
967.000000	5.163372
968.000000	5.201755
969.000000	5.258380
970.000000	5.293390
971.000000	5.328410
972.000000	5.368495
973.000000	5.413864
974.000000	5.454214
975.000000	5.482762
976.000000	5.526745
977.000000	5.557992
978.000000	5.589928
979.000000	5.614230
980.000000	5.648581
981.000000	5.679344
982.000000	5.724867
983.000000	5.747272
984.000000	5.769529
985.000000	5.801570
986.000000	5.833380
987.000000	5.868998
988.000000	5.901028
989.000000	5.924652
990.000000	5.944851
991.000000	5.961564
992.000000	5.996491
993.000000	6.024570
994.000000	6.038079
995.000000	6.061242
996.000000	6.083527
997.000000	6.111371
998.000000	6.129129
999.000000	6.155866
1000.000000	6.181746
1001.000000	6.192350
1002.000000	6.225303
1003.000000	6.247131
1004.000000	6.260503
1005.000000	6.291781
1006.000000	6.321034
1007.000000	6.342448
1008.000000	6.368106
1009.000000	6.401351
1010.000000	6.420567
1011.000000	6.448024
1012.000000	6.479138
1013.000000	6.513954
1014.000000	6.542488
1015.000000	6.560623
1016.000000	6.584007
1017.000000	6.605684
1018.000000	6.629565
1019.000000	6.665840
1020.000000	6.686306
1021.000000	6.702040
1022.000000	6.727095
1023.000000	6.753609
1024.000000	6.782108
1025.000000	6.800436
1026.000000	6.817536
1027.000000	6.837509
1028.000000	6.857251
1029.000000	6.890979
1030.000000	6.919054
1031.000000	6.935665
1032.000000	6.972235
1033.000000	6.998751
1034.000000	7.016674
1035.000000	7.042804
1036.000000	7.071923
1037.000000	7.096623
1038.000000	7.115959
1039.000000	7.135746
1040.000000	7.158861
1041.000000	7.178808
1042.000000	7.188393
1043.000000	7.205909
1044.000000	7.229952
1045.000000	7.243134
1046.000000	7.255329
1047.000000	7.277265
1048.000000	7.298127
1049.000000	7.299625
1050.000000	7.299947
1051.000000	7.311398
1052.000000	7.323460
1053.000000	7.332578
1054.000000	7.340948
1055.000000	7.338309
1056.000000	7.348439
1057.000000	7.359452
1058.000000	7.356893
1059.000000	7.364408
1060.000000	7.369334
1061.000000	7.377907
1062.000000	7.378063
1063.000000	7.387299
1064.000000	7.395900
1065.000000	7.400994
1066.000000	7.407958
1067.000000	7.418016
1068.000000	7.430815
1069.000000	7.441960
1070.000000	7.450379
1071.000000	7.466544
1072.000000	7.474731
1073.000000	7.484675
1074.000000	7.498035
1075.000000	7.506118
1076.000000	7.514985
1077.000000	7.523775
1078.000000	7.534877
1079.000000	7.551514
1080.000000	7.575804
1081.000000	7.581757
1082.000000	7.593389
1083.000000	7.609897
1084.000000	7.619116
1085.000000	7.627589
1086.000000	7.636911
1087.000000	7.645061
1088.000000	7.661170
1089.000000	7.668518
1090.000000	7.662994
1091.000000	7.674199
1092.000000	7.680783
1093.000000	7.704704
1094.000000	7.717398
1095.000000	7.717067
1096.000000	7.723343
1097.000000	7.733576
1098.000000	7.748025
1099.000000	7.760541
1100.000000	7.762862
1101.000000	7.778575
1102.000000	7.791744
1103.000000	7.795890
1104.000000	7.811963
1105.000000	7.818933
1106.000000	7.819772
1107.000000	7.842609
1108.000000	7.850834
1109.000000	7.868607
1110.000000	7.868154
1111.000000	7.880231
1112.000000	7.883605
1113.000000	7.892431
1114.000000	7.903664
1115.000000	7.914467
1116.000000	7.921157
1117.000000	7.939628
1118.000000	7.960620
1119.000000	7.975892
1120.000000	7.975487
1121.000000	7.992039
1122.000000	8.003009
1123.000000	8.041695
1124.000000	8.061903
1125.000000	8.077744
1126.000000	8.104868
1127.000000	8.121565
1128.000000	8.144667
1129.000000	8.189173
1130.000000	8.230204
1131.000000	8.292618
1132.000000	8.346693
1133.000000	8.427185
1134.000000	8.508560
1135.000000	8.609043
1136.000000	8.723071
1137.000000	8.819095
1138.000000	8.933114
1139.000000	9.060029
1140.000000	9.156332
1141.000000	9.287912
1142.000000	9.412624
1143.000000	9.525563
1144.000000	9.644576
1145.000000	9.753280
1146.000000	9.832934
1147.000000	9.873443
1148.000000	9.890649
1149.000000	9.865807
1150.000000	9.835681
1151.000000	9.805433
1152.000000	9.783793
1153.000000	9.786338
1154.000000	9.778208
1155.000000	9.781757
1156.000000	9.842628
1157.000000	9.905705
1158.000000	9.995263
1159.000000	10.103435
1160.000000	10.191473
1161.000000	10.295270
1162.000000	10.418830
1163.000000	10.533166
1164.000000	10.648680
1165.000000	10.770601
1166.000000	10.895811
1167.000000	11.009419
1168.000000	11.133326
1169.000000	11.254234
1170.000000	11.369102
1171.000000	11.489537
1172.000000	11.633115
1173.000000	11.760917
1174.000000	11.878335
1175.000000	11.984274
1176.000000	12.105792
1177.000000	12.235963
1178.000000	12.382062
1179.000000	12.555464
1180.000000	12.773891
1181.000000	12.994841
1182.000000	13.238379
1183.000000	13.438918
1184.000000	13.621958
1185.000000	13.752251
1186.000000	13.820581
1187.000000	13.827560
1188.000000	13.766315
1189.000000	13.665364
1190.000000	13.506264
1191.000000	13.330113
1192.000000	13.127347
1193.000000	12.966266
1194.000000	12.803387
1195.000000	12.695613
1196.000000	12.612943
1197.000000	12.551763
1198.000000	12.527064
1199.000000	12.513987
1200.000000	12.513894
1201.000000	12.527248
1202.000000	12.567716
1203.000000	12.607922
1204.000000	12.640199
1205.000000	12.656546
1206.000000	12.690139
1207.000000	12.716534
1208.000000	12.721976
1209.000000	12.736576
1210.000000	12.744749
1211.000000	12.713515
1212.000000	12.713984
1213.000000	12.691238
1214.000000	12.659875
1215.000000	12.628850
1216.000000	12.589383
1217.000000	12.552887
1218.000000	12.518578
1219.000000	12.472865
1220.000000	12.411795
1221.000000	12.350551
1222.000000	12.283273
1223.000000	12.230535
1224.000000	12.167398
1225.000000	12.091265
1226.000000	12.019172
1227.000000	11.955251
1228.000000	11.871869
1229.000000	11.797908
1230.000000	11.724916
1231.000000	11.657754
1232.000000	11.580123
1233.000000	11.510222
1234.000000	11.446094
1235.000000	11.384526
1236.000000	11.316565
1237.000000	11.244331
1238.000000	11.186864
1239.000000	11.131473
1240.000000	11.064913
1241.000000	11.022207
1242.000000	10.966391
1243.000000	10.923102
1244.000000	10.890054
1245.000000	10.857514
1246.000000	10.815995
1247.000000	10.778205
1248.000000	10.754518
1249.000000	10.728357
1250.000000	10.704097
1251.000000	10.677665
1252.000000	10.661906
1253.000000	10.641415
1254.000000	10.614016
1255.000000	10.604221
1256.000000	10.585535
1257.000000	10.560086
1258.000000	10.531621
1259.000000	10.510678
1260.000000	10.488082
1261.000000	10.474914
1262.000000	10.456020
1263.000000	10.429852
1264.000000	10.417254
1265.000000	10.397303
1266.000000	10.368884
1267.000000	10.340212
1268.000000	10.320874
1269.000000	10.307564
1270.000000	10.291006
1271.000000	10.265080
1272.000000	10.246472
1273.000000	10.225651
1274.000000	10.195119
1275.000000	10.172499
1276.000000	10.161056
1277.000000	10.136536
1278.000000	10.113091
1279.000000	10.098293
1280.000000	10.080859
1281.000000	10.053933
1282.000000	10.033674
1283.000000	10.023340
1284.000000	10.012067
1285.000000	9.999645
1286.000000	9.978448
1287.000000	9.971567
1288.000000	9.962981
1289.000000	9.947151
1290.000000	9.942432
1291.000000	9.945375
1292.000000	9.940596
1293.000000	9.930086
1294.000000	9.928593
1295.000000	9.928258
1296.000000	9.937222
1297.000000	9.938524
1298.000000	9.928184
1299.000000	9.928254
1300.000000	9.930247
1301.000000	9.935202
1302.000000	9.930719
1303.000000	9.919228
1304.000000	9.921872
1305.000000	9.931558
1306.000000	9.938374
1307.000000	9.948268
1308.000000	9.950563
1309.000000	9.962625
1310.000000	9.974754
1311.000000	9.987364
1312.000000	9.999645
1313.000000	10.010967
1314.000000	10.021806
1315.000000	10.041279
1316.000000	10.059305
1317.000000	10.071227
1318.000000	10.096331
1319.000000	10.121110
1320.000000	10.139740
1321.000000	10.161855
1322.000000	10.185173
1323.000000	10.211923
1324.000000	10.236608
1325.000000	10.267482
1326.000000	10.292132
1327.000000	10.323429
1328.000000	10.359932
1329.000000	10.402026
1330.000000	10.435681
1331.000000	10.478051
1332.000000	10.519416
1333.000000	10.565108
1334.000000	10.611886
1335.000000	10.661824
1336.000000	10.721075
1337.000000	10.769234
1338.000000	10.826059
1339.000000	10.884716
1340.000000	10.939744
1341.000000	10.996328
1342.000000	11.063654
1343.000000	11.142162
1344.000000	11.225923
1345.000000	11.311503
1346.000000	11.394454
1347.000000	11.494677
1348.000000	11.607404
1349.000000	11.725366
1350.000000	11.849337
1351.000000	12.012072
1352.000000	12.211748
1353.000000	12.413787
1354.000000	12.628477
1355.000000	12.849737
1356.000000	13.026304
1357.000000	13.134036
1358.000000	13.173389
1359.000000	13.193119
1360.000000	13.176815
1361.000000	13.205922
1362.000000	13.253314
1363.000000	13.274259
1364.000000	13.291094
1365.000000	13.354375
1366.000000	13.409834
1367.000000	13.445091
1368.000000	13.516697
1369.000000	13.623561
1370.000000	13.683986
1371.000000	13.777716
1372.000000	13.921319
1373.000000	14.056669
1374.000000	14.132328
1375.000000	14.189174
1376.000000	14.234215
1377.000000	14.249075
1378.000000	14.231074
1379.000000	14.216350
1380.000000	14.185497
1381.000000	14.195570
1382.000000	14.240416
1383.000000	14.293060
1384.000000	14.347358
1385.000000	14.432456
1386.000000	14.440660
1387.000000	14.438300
1388.000000	14.431910
1389.000000	14.401352
1390.000000	14.352453
1391.000000	14.292170
1392.000000	14.242096
1393.000000	14.197279
1394.000000	14.093530
1395.000000	14.032886
1396.000000	13.981366
1397.000000	13.908365
1398.000000	13.814783
1399.000000	13.756202
1400.000000	13.751989
1401.000000	13.769349
1402.000000	13.768306
1403.000000	13.711732
1404.000000	13.713964
1405.000000	13.690605
1406.000000	13.701310
1407.000000	13.670011
1408.000000	13.647286
1409.000000	13.618718
1410.000000	13.594011
1411.000000	13.503133
1412.000000	13.406855
1413.000000	13.321832
1414.000000	13.242920
1415.000000	13.197458
1416.000000	13.127000
1417.000000	13.041201
1418.000000	12.952607
1419.000000	12.961709
1420.000000	12.940215
1421.000000	12.912436
1422.000000	12.850828
1423.000000	12.842419
1424.000000	12.810321
1425.000000	12.805283
1426.000000	12.788850
1427.000000	12.763946
1428.000000	12.747866
1429.000000	12.750704
1430.000000	12.738558
1431.000000	12.692354
1432.000000	12.716132
1433.000000	12.703014
1434.000000	12.670588
1435.000000	12.663672
1436.000000	12.644744
1437.000000	12.630819
1438.000000	12.643199
1439.000000	12.646153
1440.000000	12.646106
1441.000000	12.630314
1442.000000	12.648522
1443.000000	12.643556
1444.000000	12.645072
1445.000000	12.658764
1446.000000	12.675869
1447.000000	12.694700
1448.000000	12.697713
1449.000000	12.693076
1450.000000	12.698243
1451.000000	12.707195
1452.000000	12.716753
1453.000000	12.711236
1454.000000	12.696145
1455.000000	12.690391
1456.000000	12.700609
1457.000000	12.693813
1458.000000	12.668920
1459.000000	12.671359
1460.000000	12.649839
1461.000000	12.638203
1462.000000	12.618914
1463.000000	12.607411
1464.000000	12.591764
1465.000000	12.572310
1466.000000	12.560383
1467.000000	12.559709
1468.000000	12.535646
1469.000000	12.506696
1470.000000	12.487461
1471.000000	12.456266
1472.000000	12.450876
1473.000000	12.434117
1474.000000	12.402195
1475.000000	12.395522
1476.000000	12.372163
1477.000000	12.368442
1478.000000	12.354539
1479.000000	12.357600
1480.000000	12.346839
1481.000000	12.340056
1482.000000	12.338290
1483.000000	12.323407
1484.000000	12.315157
1485.000000	12.304512
1486.000000	12.293548
1487.000000	12.287998
1488.000000	12.280831
1489.000000	12.265390
1490.000000	12.274709
1491.000000	12.264008
1492.000000	12.248059
1493.000000	12.237432
1494.000000	12.237968
1495.000000	12.240571
1496.000000	12.243992
1497.000000	12.246073
1498.000000	12.250302
1499.000000	12.262694
1500.000000	12.273458
1501.000000	12.289114
1502.000000	12.294627
1503.000000	12.317943
1504.000000	12.336908
1505.000000	12.349508
1506.000000	12.369828
1507.000000	12.399453
1508.000000	12.428909
1509.000000	12.460990
1510.000000	12.491982
1511.000000	12.510230
1512.000000	12.524864
1513.000000	12.567380
1514.000000	12.585844
1515.000000	12.611796
1516.000000	12.641191
1517.000000	12.661307
1518.000000	12.690498
1519.000000	12.710287
1520.000000	12.733859
1521.000000	12.752621
1522.000000	12.774198
1523.000000	12.807907
1524.000000	12.835521
1525.000000	12.853796
1526.000000	12.871894
1527.000000	12.886414
1528.000000	12.915996
1529.000000	12.947651
1530.000000	12.962207
1531.000000	12.979475
1532.000000	13.002792
1533.000000	13.028520
1534.000000	13.055377
1535.000000	13.075807
1536.000000	13.092596
1537.000000	13.121685
1538.000000	13.136205
1539.000000	13.144968
1540.000000	13.175564
1541.000000	13.191734
1542.000000	13.208416
1543.000000	13.229764
1544.000000	13.256871
1545.000000	13.287519
1546.000000	13.319905
1547.000000	13.355443
1548.000000	13.399458
1549.000000	13.441745
1550.000000	13.483485
1551.000000	13.524442
1552.000000	13.568304
1553.000000	13.612586
1554.000000	13.657132
1555.000000	13.698193
1556.000000	13.726474
1557.000000	13.757414
1558.000000	13.785142
1559.000000	13.803845
1560.000000	13.831636
1561.000000	13.859644
1562.000000	13.880296
1563.000000	13.895284
1564.000000	13.892245
1565.000000	13.898540
1566.000000	13.906156
1567.000000	13.908430
1568.000000	13.908393
1569.000000	13.910536
1570.000000	13.916201
1571.000000	13.918273
1572.000000	13.916706
1573.000000	13.920838
1574.000000	13.932441
1575.000000	13.944413
1576.000000	13.947829
1577.000000	13.951897
1578.000000	13.964349
1579.000000	13.969520
1580.000000	13.985378
1581.000000	14.002989
1582.000000	14.012917
1583.000000	14.024622
1584.000000	14.043265
1585.000000	14.058770
1586.000000	14.065298
1587.000000	14.079207
1588.000000	14.102314
1589.000000	14.113234
1590.000000	14.124318
1591.000000	14.135649
1592.000000	14.144225
1593.000000	14.149990
1594.000000	14.159552
1595.000000	14.163230
1596.000000	14.181983
1597.000000	14.200004
1598.000000	14.206182
1599.000000	14.214977
1600.000000	14.229930
1601.000000	14.247654
1602.000000	14.259150
1603.000000	14.266268
1604.000000	14.274202
1605.000000	14.289078
1606.000000	14.293112
1607.000000	14.303145
1608.000000	14.311474
1609.000000	14.311453
1610.000000	14.327202
1611.000000	14.318925
1612.000000	14.305538
1613.000000	14.310817
1614.000000	14.298605
1615.000000	14.288214
1616.000000	14.272661
1617.000000	14.247187
1618.000000	14.228155
1619.000000	14.216049
1620.000000	14.196945
1621.000000	14.176929
1622.000000	14.140238
1623.000000	14.133021
1624.000000	14.111502
1625.000000	14.097063
1626.000000	14.087419
1627.000000	14.065918
1628.000000	14.041299
1629.000000	14.024373
1630.000000	14.018103
1631.000000	14.004140
1632.000000	13.988830
1633.000000	13.958330
1634.000000	13.936948
1635.000000	13.917263
1636.000000	13.892306
1637.000000	13.887311
1638.000000	13.846623
1639.000000	13.821764
1640.000000	13.809660
1641.000000	13.785666
1642.000000	13.743157
1643.000000	13.720619
1644.000000	13.695113
1645.000000	13.673785
1646.000000	13.651382
1647.000000	13.631211
1648.000000	13.602876
1649.000000	13.590455
1650.000000	13.562734
1651.000000	13.536843
1652.000000	13.522835
1653.000000	13.495743
1654.000000	13.466041
1655.000000	13.428872
1656.000000	13.402116
1657.000000	13.377386
1658.000000	13.327330
1659.000000	13.293134
1660.000000	13.252981
1661.000000	13.200785
1662.000000	13.171917
1663.000000	13.136738
1664.000000	13.079763
1665.000000	13.033610
1666.000000	12.997213
1667.000000	12.948017
1668.000000	12.906135
1669.000000	12.876466
1670.000000	12.852543
1671.000000	12.838043
1672.000000	12.837000
1673.000000	12.856419
1674.000000	12.881255
1675.000000	12.945943
1676.000000	13.036769
1677.000000	13.141556
1678.000000	13.270327
1679.000000	13.399236
1680.000000	13.544242
1681.000000	13.689472
1682.000000	13.767779
1683.000000	13.804056
1684.000000	13.787979
1685.000000	13.704222
1686.000000	13.608590
1687.000000	13.533556
1688.000000	13.486890
1689.000000	13.479569
1690.000000	13.532417
1691.000000	13.635105
1692.000000	13.746788
1693.000000	13.861750
1694.000000	13.939487
1695.000000	14.015925
1696.000000	14.052971
1697.000000	14.032929
1698.000000	14.000810
1699.000000	13.925115
1700.000000	13.856916
1701.000000	13.790004
1702.000000	13.729656
1703.000000	13.665822
1704.000000	13.627790
1705.000000	13.585542
1706.000000	13.547593
1707.000000	13.522763
1708.000000	13.456255
1709.000000	13.403653
1710.000000	13.344907
1711.000000	13.294730
1712.000000	13.234487
1713.000000	13.181614
1714.000000	13.116245
1715.000000	13.037989
1716.000000	12.943570
1717.000000	12.855942
1718.000000	12.758672
1719.000000	12.647939
1720.000000	12.557365
1721.000000	12.468780
1722.000000	12.395494
1723.000000	12.347628
1724.000000	12.323156
1725.000000	12.324535
1726.000000	12.360200
1727.000000	12.422558
1728.000000	12.488851
1729.000000	12.557438
1730.000000	12.624717
1731.000000	12.701055
1732.000000	12.767908
1733.000000	12.811329
1734.000000	12.844392
1735.000000	12.860292
1736.000000	12.852498
1737.000000	12.812677
1738.000000	12.755959
1739.000000	12.695402
1740.000000	12.623139
1741.000000	12.564762
1742.000000	12.506042
1743.000000	12.459814
1744.000000	12.408960
1745.000000	12.371300
1746.000000	12.330455
1747.000000	12.318084
1748.000000	12.312342
1749.000000	12.302546
1750.000000	12.304494
1751.000000	12.291474
1752.000000	12.299486
1753.000000	12.297699
1754.000000	12.306816
1755.000000	12.316758
1756.000000	12.337428
1757.000000	12.367527
1758.000000	12.406429
1759.000000	12.436931
1760.000000	12.475842
1761.000000	12.514298
1762.000000	12.551792
1763.000000	12.570957
1764.000000	12.572762
1765.000000	12.568646
1766.000000	12.559482
1767.000000	12.536400
1768.000000	12.516799
1769.000000	12.492979
1770.000000	12.458497
1771.000000	12.422293
1772.000000	12.381538
1773.000000	12.347165
1774.000000	12.307695
1775.000000	12.270293
1776.000000	12.242734
1777.000000	12.218828
1778.000000	12.199652
1779.000000	12.168735
1780.000000	12.144626
1781.000000	12.121971
1782.000000	12.099418
1783.000000	12.061432
1784.000000	12.031902
1785.000000	12.000778
1786.000000	11.966673
1787.000000	11.922889
1788.000000	11.884817
1789.000000	11.856728
1790.000000	11.832915
1791.000000	11.803923
1792.000000	11.779658
1793.000000	11.764554
1794.000000	11.760356
1795.000000	11.737245
1796.000000	11.714798
1797.000000	11.710352
1798.000000	11.707458
1799.000000	11.686407
1800.000000	11.666898
1801.000000	11.669743
1802.000000	11.664878
1803.000000	11.661644
1804.000000	11.640728
1805.000000	11.612009
1806.000000	11.606835
1807.000000	11.609000
1808.000000	11.602252
1809.000000	11.587459
1810.000000	11.576030
1811.000000	11.584709
1812.000000	11.588580
1813.000000	11.579086
1814.000000	11.585099
1815.000000	11.593651
1816.000000	11.601644
1817.000000	11.605956
1818.000000	11.603960
1819.000000	11.599930
1820.000000	11.599622
1821.000000	11.600976
1822.000000	11.606865
1823.000000	11.591389
1824.000000	11.540586
1825.000000	11.514037
1826.000000	11.495809
1827.000000	11.479789
1828.000000	11.468605
1829.000000	11.444560
1830.000000	11.429699
1831.000000	11.417246
1832.000000	11.393030
1833.000000	11.372493
1834.000000	11.349982
1835.000000	11.340679
1836.000000	11.354874
1837.000000	11.366464
1838.000000	11.364120
1839.000000	11.361670
1840.000000	11.354486
1841.000000	11.345560
1842.000000	11.357233
1843.000000	11.343672
1844.000000	11.312443
1845.000000	11.289563
1846.000000	11.252764
1847.000000	11.242185
1848.000000	11.252359
1849.000000	11.221834
1850.000000	11.179002
1851.000000	11.138661
1852.000000	11.093045
1853.000000	11.050618
1854.000000	11.010458
1855.000000	10.974034
1856.000000	10.932362
1857.000000	10.895789
1858.000000	10.861403
1859.000000	10.829407
1860.000000	10.798546
1861.000000	10.761507
1862.000000	10.720775
1863.000000	10.680469
1864.000000	10.630778
1865.000000	10.602148
1866.000000	10.592324
1867.000000	10.598750
1868.000000	10.606797
1869.000000	10.602526
1870.000000	10.597960
1871.000000	10.614896
1872.000000	10.605734
1873.000000	10.598794
1874.000000	10.589196
1875.000000	10.566708
1876.000000	10.562529
1877.000000	10.560049
1878.000000	10.556298
1879.000000	10.567393
1880.000000	10.577015
1881.000000	10.585756
1882.000000	10.587316
1883.000000	10.592168
1884.000000	10.564847
1885.000000	10.504210
1886.000000	10.407921
1887.000000	10.299337
1888.000000	10.171025
1889.000000	9.992296
1890.000000	9.820340
1891.000000	9.667688
1892.000000	9.466306
1893.000000	9.241440
1894.000000	9.024280
1895.000000	8.835717
1896.000000	8.658779
1897.000000	8.490199
1898.000000	8.333181
1899.000000	8.130244
1900.000000	7.921148
1901.000000	7.725565
1902.000000	7.537588
1903.000000	7.392662
1904.000000	7.232019
1905.000000	7.090670
1906.000000	6.929252
1907.000000	6.769338
1908.000000	6.637578
1909.000000	6.512203
1910.000000	6.424317
1911.000000	6.354816
1912.000000	6.272051
1913.000000	6.178711
1914.000000	6.093173
1915.000000	6.013971
1916.000000	5.941223
1917.000000	5.887361
1918.000000	5.850585
1919.000000	5.802614
1920.000000	5.765818
1921.000000	5.732276
1922.000000	5.678868
1923.000000	5.629751
1924.000000	5.598693
1925.000000	5.589270
1926.000000	5.565263
1927.000000	5.544170
1928.000000	5.539496
1929.000000	5.517866
1930.000000	5.513625
1931.000000	5.499853
1932.000000	5.491803
1933.000000	5.488450
1934.000000	5.476839
1935.000000	5.487878
1936.000000	5.473728
1937.000000	5.503094
1938.000000	5.514235
1939.000000	5.516863
1940.000000	5.525750
1941.000000	5.539847
1942.000000	5.546067
1943.000000	5.573978
1944.000000	5.588553
1945.000000	5.604539
1946.000000	5.615596
1947.000000	5.635116
1948.000000	5.658648
1949.000000	5.677996
1950.000000	5.708093
1951.000000	5.718907
1952.000000	5.748040
1953.000000	5.774487
1954.000000	5.803068
1955.000000	5.831339
1956.000000	5.846044
1957.000000	5.875775
1958.000000	5.909488
1959.000000	5.930492
1960.000000	5.967342
1961.000000	5.973605
1962.000000	6.015222
1963.000000	6.040437
1964.000000	6.063164
1965.000000	6.093547
1966.000000	6.102679
1967.000000	6.126875
1968.000000	6.137013
1969.000000	6.167086
1970.000000	6.188286
1971.000000	6.213009
1972.000000	6.241584
1973.000000	6.253589
1974.000000	6.274702
1975.000000	6.311248
1976.000000	6.328587
1977.000000	6.350758
1978.000000	6.375196
1979.000000	6.401758
1980.000000	6.427493
1981.000000	6.466355
1982.000000	6.475330
1983.000000	6.523581
1984.000000	6.542232
1985.000000	6.569842
1986.000000	6.601391
1987.000000	6.621981
1988.000000	6.662397
1989.000000	6.682359
1990.000000	6.713818
1991.000000	6.748727
1992.000000	6.784190
1993.000000	6.822580
1994.000000	6.832505
1995.000000	6.868535
1996.000000	6.916967
1997.000000	6.932249
1998.000000	6.958051
1999.000000	6.984187
2000.000000	7.014603
2001.000000	7.040457
2002.000000	7.072676
2003.000000	7.102408
2004.000000	7.125179
2005.000000	7.143414
2006.000000	7.160977
2007.000000	7.179497
2008.000000	7.198712
2009.000000	7.212941
2010.000000	7.223736
2011.000000	7.234691
2012.000000	7.255393
2013.000000	7.263084
2014.000000	7.260122
2015.000000	7.275528
2016.000000	7.273375
2017.000000	7.280945
2018.000000	7.287978
2019.000000	7.288557
2020.000000	7.296706
2021.000000	7.292887
2022.000000	7.279876
2023.000000	7.293562
2024.000000	7.273682
2025.000000	7.275707
2026.000000	7.278453
2027.000000	7.267120
2028.000000	7.244214
2029.000000	7.211817
2030.000000	7.205522
2031.000000	7.204013
2032.000000	7.186955
2033.000000	7.164370
2034.000000	7.148363
2035.000000	7.132998
2036.000000	7.109750
2037.000000	7.084268
2038.000000	7.055068
2039.000000	7.019944
2040.000000	6.995826
2041.000000	6.963803
2042.000000	6.932848
2043.000000	6.901627
2044.000000	6.869674
2045.000000	6.842859
2046.000000	6.804956
2047.000000	6.776705
2048.000000	6.753405
2049.000000	6.731390
2050.000000	6.719774
2051.000000	6.711504
2052.000000	6.707012
2053.000000	6.721882
2054.000000	6.734084
2055.000000	6.750355
2056.000000	6.781714
2057.000000	6.805553
2058.000000	6.855001
2059.000000	6.910725
2060.000000	6.963283
2061.000000	7.027427
2062.000000	7.083861
2063.000000	7.148269
2064.000000	7.209614
2065.000000	7.268600
2066.000000	7.345413
2067.000000	7.399989
2068.000000	7.468842
2069.000000	7.539385
2070.000000	7.597830
2071.000000	7.655067
2072.000000	7.704195
2073.000000	7.774968
2074.000000	7.824000
2075.000000	7.868113
2076.000000	7.911959
2077.000000	7.952660
2078.000000	8.000440
2079.000000	8.021725
2080.000000	8.046974
2081.000000	8.068555
2082.000000	8.081306
2083.000000	8.098620
2084.000000	8.105312
2085.000000	8.110412
2086.000000	8.116633
2087.000000	8.121590
2088.000000	8.113792
2089.000000	8.110901
2090.000000	8.101858
2091.000000	8.096371
2092.000000	8.078077
2093.000000	8.051601
2094.000000	8.045474
2095.000000	8.034672
2096.000000	8.024872
2097.000000	8.012341
2098.000000	7.993388
2099.000000	7.991936
2100.000000	7.990112
2101.000000	7.972914
2102.000000	7.961339
2103.000000	7.957364
2104.000000	7.950855
2105.000000	7.937540
2106.000000	7.916842
2107.000000	7.914704
2108.000000	7.911925
2109.000000	7.897919
2110.000000	7.880719
2111.000000	7.863738
2112.000000	7.852667
2113.000000	7.842626
2114.000000	7.827582
2115.000000	7.806494
2116.000000	7.781899
2117.000000	7.766830
2118.000000	7.737803
2119.000000	7.706041
2120.000000	7.683338
2121.000000	7.666126
2122.000000	7.634001
2123.000000	7.600770
2124.000000	7.569778
2125.000000	7.540435
2126.000000	7.503932
2127.000000	7.471929
2128.000000	7.443468
2129.000000	7.398796
2130.000000	7.355622
2131.000000	7.321339
2132.000000	7.287795
2133.000000	7.240050
2134.000000	7.208285
2135.000000	7.162865
2136.000000	7.110702
2137.000000	7.070919
2138.000000	7.025841
2139.000000	6.971277
2140.000000	6.920514
2141.000000	6.878213
2142.000000	6.839543
2143.000000	6.773039
2144.000000	6.714399
2145.000000	6.667690
2146.000000	6.613912
2147.000000	6.561376
2148.000000	6.509091
2149.000000	6.458840
2150.000000	6.413232
2151.000000	6.369300
2152.000000	6.323263
2153.000000	6.275061
2154.000000	6.232012
2155.000000	6.192027
2156.000000	6.144254
2157.000000	6.099638
2158.000000	6.063992
2159.000000	6.026285
2160.000000	5.985787
2161.000000	5.960829
2162.000000	5.947062
2163.000000	5.923954
2164.000000	5.902547
2165.000000	5.876552
2166.000000	5.853270
2167.000000	5.849194
2168.000000	5.839407
2169.000000	5.827929
2170.000000	5.820808
2171.000000	5.818339
2172.000000	5.808039
2173.000000	5.793999
2174.000000	5.796678
2175.000000	5.796517
2176.000000	5.795012
2177.000000	5.801772
2178.000000	5.805354
2179.000000	5.821641
2180.000000	5.813256
2181.000000	5.815377
2182.000000	5.818849
2183.000000	5.836554
2184.000000	5.830362
2185.000000	5.845762
2186.000000	5.854617
2187.000000	5.859512
2188.000000	5.864634
2189.000000	5.867046
2190.000000	5.876555
2191.000000	5.897277
2192.000000	5.902980
2193.000000	5.902840
2194.000000	5.923536
2195.000000	5.929387
2196.000000	5.947284
2197.000000	5.978978
2198.000000	5.986615
2199.000000	6.020528
2200.000000	6.020232
2201.000000	6.030220
2202.000000	6.056475
2203.000000	6.085103
2204.000000	6.103651
2205.000000	6.132743
2206.000000	6.157035
2207.000000	6.177652
2208.000000	6.194961
2209.000000	6.223993
2210.000000	6.251762
2211.000000	6.293060
2212.000000	6.314513
2213.000000	6.360025
2214.000000	6.396069
2215.000000	6.424381
2216.000000	6.473361
2217.000000	6.523881
2218.000000	6.559026
2219.000000	6.599803
2220.000000	6.647666
2221.000000	6.682844
2222.000000	6.744456
2223.000000	6.786330
2224.000000	6.834386
2225.000000	6.873849
2226.000000	6.906715
2227.000000	6.936686
2228.000000	6.995528
2229.000000	7.045589
2230.000000	7.074777
2231.000000	7.117730
2232.000000	7.139283
2233.000000	7.176647
2234.000000	7.206094
2235.000000	7.239240
2236.000000	7.271457
2237.000000	7.291452
2238.000000	7.318159
2239.000000	7.330224
2240.000000	7.360261
2241.000000	7.364676
2242.000000	7.357305
2243.000000	7.370245
2244.000000	7.386794
2245.000000	7.401003
2246.000000	7.395149
2247.000000	7.398447
2248.000000	7.396170
2249.000000	7.392147
2250.000000	7.410549
2251.000000	7.414695
2252.000000	7.412412
2253.000000	7.418159
2254.000000	7.438736
2255.000000	7.450695
2256.000000	7.457690
2257.000000	7.494564
2258.000000	7.518008
2259.000000	7.541940
2260.000000	7.567457
2261.000000	7.576474
2262.000000	7.605472
2263.000000	7.626081
2264.000000	7.638971
2265.000000	7.669077
2266.000000	7.669536
2267.000000	7.679790
2268.000000	7.679561
2269.000000	7.686835
2270.000000	7.663229
2271.000000	7.667345
2272.000000	7.660692
2273.000000	7.646294
2274.000000	7.625053
2275.000000	7.608259
2276.000000	7.583991
2277.000000	7.553958
2278.000000	7.514767
2279.000000	7.488739
2280.000000	7.448016
2281.000000	7.414234
2282.000000	7.367148
2283.000000	7.324738
2284.000000	7.299465
2285.000000	7.273558
2286.000000	7.224280
2287.000000	7.199349
2288.000000	7.191878
2289.000000	7.164420
2290.000000	7.142282
2291.000000	7.150093
2292.000000	7.166120
2293.000000	7.174978
2294.000000	7.174933
2295.000000	7.201361
2296.000000	7.242333
2297.000000	7.280153
2298.000000	7.322639
2299.000000	7.360845
2300.000000	7.414960
2301.000000	7.448986
2302.000000	7.494348
2303.000000	7.525542
2304.000000	7.556653
2305.000000	7.595047
2306.000000	7.620345
2307.000000	7.635001
2308.000000	7.647148
2309.000000	7.651390
2310.000000	7.657641
2311.000000	7.657583
2312.000000	7.639337
2313.000000	7.631213
2314.000000	7.605986
2315.000000	7.578775
2316.000000	7.547537
2317.000000	7.517374
2318.000000	7.481712
2319.000000	7.448543
2320.000000	7.412136
2321.000000	7.376152
2322.000000	7.332254
2323.000000	7.279352
2324.000000	7.241946
2325.000000	7.198021
2326.000000	7.148948
2327.000000	7.120895
2328.000000	7.077739
2329.000000	7.038050
2330.000000	7.006561
2331.000000	6.969222
2332.000000	6.942463
2333.000000	6.922911
2334.000000	6.906781
2335.000000	6.896933
2336.000000	6.893170
2337.000000	6.891604
2338.000000	6.893406
2339.000000	6.895051
2340.000000	6.911074
2341.000000	6.930357
2342.000000	6.962802
2343.000000	6.989410
2344.000000	7.022074
2345.000000	7.047223
2346.000000	7.069428
2347.000000	7.087393
2348.000000	7.115573
2349.000000	7.154400
2350.000000	7.183731
2351.000000	7.193908
2352.000000	7.207272
2353.000000	7.225480
2354.000000	7.221175
2355.000000	7.214565
2356.000000	7.206995
2357.000000	7.202830
2358.000000	7.190136
2359.000000	7.163908
2360.000000	7.143882
2361.000000	7.124793
2362.000000	7.096111
2363.000000	7.071705
2364.000000	7.048768
2365.000000	7.017093
2366.000000	6.996818
2367.000000	6.985242
2368.000000	6.959734
2369.000000	6.939594
2370.000000	6.927492
2371.000000	6.920421
2372.000000	6.916819
2373.000000	6.908951
2374.000000	6.903545
2375.000000	6.911067
2376.000000	6.910823
2377.000000	6.905682
2378.000000	6.909526
2379.000000	6.908841
2380.000000	6.917199
2381.000000	6.924287
2382.000000	6.923468
2383.000000	6.920442
2384.000000	6.934038
2385.000000	6.928488
2386.000000	6.924227
2387.000000	6.926960
2388.000000	6.937940
2389.000000	6.938799
2390.000000	6.937662
2391.000000	6.953145
2392.000000	6.951223
2393.000000	6.944595
2394.000000	6.954277
2395.000000	6.960064
2396.000000	6.957576
2397.000000	6.959583
2398.000000	6.959810
2399.000000	6.965715
2400.000000	6.951449
2401.000000	6.948821
2402.000000	6.951755
2403.000000	6.949913
2404.000000	6.946692
2405.000000	6.940337
2406.000000	6.924291
2407.000000	6.914248
2408.000000	6.905901
2409.000000	6.902762
2410.000000	6.891817
2411.000000	6.882762
2412.000000	6.865967
2413.000000	6.853824
2414.000000	6.822705
2415.000000	6.798021
2416.000000	6.786222
2417.000000	6.760130
2418.000000	6.739939
2419.000000	6.714424
2420.000000	6.672989
2421.000000	6.645286
2422.000000	6.636063
2423.000000	6.615675
2424.000000	6.586422
2425.000000	6.559818
2426.000000	6.527376
2427.000000	6.495759
2428.000000	6.461242
2429.000000	6.425210
2430.000000	6.386433
2431.000000	6.349614
2432.000000	6.314878
2433.000000	6.284937
2434.000000	6.242231
2435.000000	6.204203
2436.000000	6.173671
2437.000000	6.133509
2438.000000	6.094928
2439.000000	6.062954
2440.000000	6.036163
2441.000000	6.003911
2442.000000	5.968547
2443.000000	5.922665
2444.000000	5.887379
2445.000000	5.862211
2446.000000	5.837228
2447.000000	5.794936
2448.000000	5.756527
2449.000000	5.736193
2450.000000	5.714768
2451.000000	5.683022
2452.000000	5.677563
2453.000000	5.625516
2454.000000	5.596222
2455.000000	5.565223
2456.000000	5.545953
2457.000000	5.537066
2458.000000	5.520989
2459.000000	5.482255
2460.000000	5.463993
2461.000000	5.422816
2462.000000	5.414819
2463.000000	5.375943
2464.000000	5.373704
2465.000000	5.325290
2466.000000	5.334786
2467.000000	5.298321
2468.000000	5.271290
2469.000000	5.242442
2470.000000	5.215296
2471.000000	5.191362
2472.000000	5.184201
2473.000000	5.152845
2474.000000	5.123322
2475.000000	5.127233
2476.000000	5.071518
2477.000000	5.080643
2478.000000	5.083382
2479.000000	5.067209
2480.000000	5.046810
2481.000000	5.000991
2482.000000	5.060018
2483.000000	5.053664
2484.000000	4.975715
2485.000000	5.026288
2486.000000	4.961587
2487.000000	4.937305
2488.000000	4.995496
2489.000000	5.015655
2490.000000	4.970076
2491.000000	4.920608
2492.000000	4.977238
2493.000000	4.913140
2494.000000	4.957141
2495.000000	4.907618
2496.000000	4.934856
2497.000000	4.940410
2498.000000	4.912336
2499.000000	4.864001
2500.000000	4.925393
