PE UV       SUBTECH     SPECTRUM    ASCII       PEDS        4.00        
   -1
CICIMAUCR0015-3.Sample.ASC
24/04/12
11:43:14.00
24/04/12
11:43:14.00
Vinicio Soto Monge
C. resplendens
250,000000
1
Lambda 1050
1050L1511233
PerkinElmer UV WinLab 6.3.2.0749 / 2.02.05 Lambda 900 UV/VIS/NIR, Aug  7 2015 09:38:08

0
0
3350/servo 860,8/2
0
0
UV/VIS
1
1
1
DoubleDePol,CommonBeamDepol,RBeamAtt,SBeamAtt,60mm sphere, WB InGaAs Detector
0
0
0
0
Program
Program
3350/servo 860,8/2
3350/0,2 860,8/0,2
3350/0,2 860,8/0,2
0
15.00
 
 
 
0
 
860,8
319,2
860,8
Front
100
on
S:100 R:100
0
0
0
0
 
0
 
 
 
0
 
 
0
0
0
0
0
 
 
 
 
0
0


0
0
#HDR
-1
-1
#GR
nm
%R
1.0
0.0
2500,000000
-1,000000
2251
8
93,394800
5,535300
#DATA
250.000000	0.576354
251.000000	0.593923
252.000000	0.591338
253.000000	0.574321
254.000000	0.562704
255.000000	0.569719
256.000000	0.565339
257.000000	0.542651
258.000000	0.576556
259.000000	0.565940
260.000000	0.547518
261.000000	0.534305
262.000000	0.523424
263.000000	0.542026
264.000000	0.548810
265.000000	0.517618
266.000000	0.529721
267.000000	0.521423
268.000000	0.539844
269.000000	0.542052
270.000000	0.549395
271.000000	0.479756
272.000000	0.514783
273.000000	0.511844
274.000000	0.524300
275.000000	0.517984
276.000000	0.543322
277.000000	0.518661
278.000000	0.510711
279.000000	0.515612
280.000000	0.502550
281.000000	0.499735
282.000000	0.553495
283.000000	0.488009
284.000000	0.513040
285.000000	0.491714
286.000000	0.489907
287.000000	0.501822
288.000000	0.468976
289.000000	0.430545
290.000000	0.476966
291.000000	0.472396
292.000000	0.477594
293.000000	0.461713
294.000000	0.445416
295.000000	0.476316
296.000000	0.458367
297.000000	0.451839
298.000000	0.442038
299.000000	0.478455
300.000000	0.448555
301.000000	0.440484
302.000000	0.442405
303.000000	0.456758
304.000000	0.478763
305.000000	0.447624
306.000000	0.448872
307.000000	0.442973
308.000000	0.473608
309.000000	0.433797
310.000000	0.436915
311.000000	0.434812
312.000000	0.421685
313.000000	0.420483
314.000000	0.461167
315.000000	0.437177
316.000000	0.415563
317.000000	0.519677
318.000000	0.607336
319.000000	0.539285
320.000000	0.413483
321.000000	0.397322
322.000000	0.457968
323.000000	0.476672
324.000000	0.568364
325.000000	0.409683
326.000000	0.503433
327.000000	0.407763
328.000000	0.515171
329.000000	0.377375
330.000000	0.487803
331.000000	0.405908
332.000000	0.326145
333.000000	0.454192
334.000000	0.408719
335.000000	0.394678
336.000000	0.394414
337.000000	0.380725
338.000000	0.461198
339.000000	0.433399
340.000000	0.411550
341.000000	0.459566
342.000000	0.535619
343.000000	0.445856
344.000000	0.453513
345.000000	0.426387
346.000000	0.477197
347.000000	0.515964
348.000000	0.464119
349.000000	0.437376
350.000000	0.484306
351.000000	0.434648
352.000000	0.399250
353.000000	0.387294
354.000000	0.415348
355.000000	0.400610
356.000000	0.385211
357.000000	0.428785
358.000000	0.397767
359.000000	0.362965
360.000000	0.366528
361.000000	0.390654
362.000000	0.380231
363.000000	0.373735
364.000000	0.362012
365.000000	0.334630
366.000000	0.352731
367.000000	0.302352
368.000000	0.240331
369.000000	0.236714
370.000000	0.249247
371.000000	0.330174
372.000000	0.251924
373.000000	0.195858
374.000000	0.239274
375.000000	0.275255
376.000000	0.209382
377.000000	0.244095
378.000000	0.226131
379.000000	0.229790
380.000000	0.229910
381.000000	0.229781
382.000000	0.219739
383.000000	0.229747
384.000000	0.231577
385.000000	0.248650
386.000000	0.261174
387.000000	0.282760
388.000000	0.309390
389.000000	0.336941
390.000000	0.365082
391.000000	0.412435
392.000000	0.463559
393.000000	0.515472
394.000000	0.568151
395.000000	0.629613
396.000000	0.704329
397.000000	0.773363
398.000000	0.855009
399.000000	0.943883
400.000000	1.027565
401.000000	1.113056
402.000000	1.207347
403.000000	1.302322
404.000000	1.398612
405.000000	1.503415
406.000000	1.608025
407.000000	1.703803
408.000000	1.796169
409.000000	1.900132
410.000000	1.996951
411.000000	2.096861
412.000000	2.200418
413.000000	2.295176
414.000000	2.388796
415.000000	2.483738
416.000000	2.581164
417.000000	2.670844
418.000000	2.753792
419.000000	2.836382
420.000000	2.925690
421.000000	3.011434
422.000000	3.085688
423.000000	3.153504
424.000000	3.223719
425.000000	3.305029
426.000000	3.378274
427.000000	3.436333
428.000000	3.491471
429.000000	3.530977
430.000000	3.577963
431.000000	3.623370
432.000000	3.666482
433.000000	3.696662
434.000000	3.708639
435.000000	3.719866
436.000000	3.717564
437.000000	3.710989
438.000000	3.700768
439.000000	3.668546
440.000000	3.629714
441.000000	3.585186
442.000000	3.527111
443.000000	3.461372
444.000000	3.375255
445.000000	3.261849
446.000000	3.147829
447.000000	3.042382
448.000000	2.924192
449.000000	2.791853
450.000000	2.649687
451.000000	2.498740
452.000000	2.346934
453.000000	2.192779
454.000000	2.034390
455.000000	1.896236
456.000000	1.774899
457.000000	1.648832
458.000000	1.525594
459.000000	1.426291
460.000000	1.359595
461.000000	1.309027
462.000000	1.266375
463.000000	1.248134
464.000000	1.245111
465.000000	1.277726
466.000000	1.328622
467.000000	1.392876
468.000000	1.469006
469.000000	1.563068
470.000000	1.667666
471.000000	1.780073
472.000000	1.899215
473.000000	2.021943
474.000000	2.134974
475.000000	2.246604
476.000000	2.345874
477.000000	2.439480
478.000000	2.525203
479.000000	2.596229
480.000000	2.655906
481.000000	2.702015
482.000000	2.742535
483.000000	2.760961
484.000000	2.758976
485.000000	2.733035
486.000000	2.684003
487.000000	2.624022
488.000000	2.562075
489.000000	2.482010
490.000000	2.407117
491.000000	2.311841
492.000000	2.204037
493.000000	2.119672
494.000000	2.046929
495.000000	1.980254
496.000000	1.917633
497.000000	1.902482
498.000000	1.904906
499.000000	1.930289
500.000000	1.994214
501.000000	2.081323
502.000000	2.163456
503.000000	2.238584
504.000000	2.314783
505.000000	2.384978
506.000000	2.419734
507.000000	2.459466
508.000000	2.474475
509.000000	2.478090
510.000000	2.465913
511.000000	2.460496
512.000000	2.452146
513.000000	2.448235
514.000000	2.459862
515.000000	2.496155
516.000000	2.549131
517.000000	2.635783
518.000000	2.746297
519.000000	2.886013
520.000000	3.049421
521.000000	3.231138
522.000000	3.452816
523.000000	3.656161
524.000000	3.865422
525.000000	4.076931
526.000000	4.307323
527.000000	4.505509
528.000000	4.720707
529.000000	4.896654
530.000000	5.106594
531.000000	5.312672
532.000000	5.505172
533.000000	5.711277
534.000000	5.899701
535.000000	6.077723
536.000000	6.249759
537.000000	6.417101
538.000000	6.600548
539.000000	6.756311
540.000000	6.919636
541.000000	7.083944
542.000000	7.224669
543.000000	7.414414
544.000000	7.571991
545.000000	7.737676
546.000000	7.904737
547.000000	8.091020
548.000000	8.244829
549.000000	8.420322
550.000000	8.587108
551.000000	8.734566
552.000000	8.902112
553.000000	9.015301
554.000000	9.156078
555.000000	9.248488
556.000000	9.368246
557.000000	9.485634
558.000000	9.571958
559.000000	9.674218
560.000000	9.872275
561.000000	9.963891
562.000000	10.080434
563.000000	10.165723
564.000000	10.272251
565.000000	10.369312
566.000000	10.468383
567.000000	10.570563
568.000000	10.698309
569.000000	10.755223
570.000000	10.877755
571.000000	10.980295
572.000000	11.110643
573.000000	11.178924
574.000000	11.276374
575.000000	11.386699
576.000000	11.490209
577.000000	11.591131
578.000000	11.718598
579.000000	11.888327
580.000000	11.961325
581.000000	12.073892
582.000000	12.203321
583.000000	12.319119
584.000000	12.440761
585.000000	12.587375
586.000000	12.694164
587.000000	12.787374
588.000000	12.915567
589.000000	13.040493
590.000000	13.148928
591.000000	13.219137
592.000000	13.320749
593.000000	13.432451
594.000000	13.523415
595.000000	13.570189
596.000000	13.619756
597.000000	13.681056
598.000000	13.696593
599.000000	13.728582
600.000000	13.729829
601.000000	13.728278
602.000000	13.667321
603.000000	13.645180
604.000000	13.598860
605.000000	13.578872
606.000000	13.491252
607.000000	13.426495
608.000000	13.379588
609.000000	13.302072
610.000000	13.214006
611.000000	13.105368
612.000000	13.007581
613.000000	12.873723
614.000000	12.747515
615.000000	12.603285
616.000000	12.387535
617.000000	12.181066
618.000000	11.926944
619.000000	11.670019
620.000000	11.333799
621.000000	11.007923
622.000000	10.639457
623.000000	10.263273
624.000000	9.822608
625.000000	9.404933
626.000000	8.977043
627.000000	8.531598
628.000000	8.072354
629.000000	7.670694
630.000000	7.243009
631.000000	6.813312
632.000000	6.428927
633.000000	6.058073
634.000000	5.716122
635.000000	5.398286
636.000000	5.103840
637.000000	4.820908
638.000000	4.549691
639.000000	4.364803
640.000000	4.159950
641.000000	4.016957
642.000000	3.903455
643.000000	3.811543
644.000000	3.781481
645.000000	3.757498
646.000000	3.765290
647.000000	3.794276
648.000000	3.870338
649.000000	3.956777
650.000000	4.081061
651.000000	4.233903
652.000000	4.378091
653.000000	4.584147
654.000000	4.769913
655.000000	4.977684
656.000000	5.174927
657.000000	5.422842
658.000000	5.628973
659.000000	5.805622
660.000000	5.989803
661.000000	6.156460
662.000000	6.334659
663.000000	6.469167
664.000000	6.625205
665.000000	6.730102
666.000000	6.840910
667.000000	6.907533
668.000000	7.005667
669.000000	7.062153
670.000000	7.134422
671.000000	7.224536
672.000000	7.274303
673.000000	7.324163
674.000000	7.364332
675.000000	7.394709
676.000000	7.413195
677.000000	7.427050
678.000000	7.467765
679.000000	7.449521
680.000000	7.431657
681.000000	7.401877
682.000000	7.377851
683.000000	7.345267
684.000000	7.286621
685.000000	7.275327
686.000000	7.257294
687.000000	7.223065
688.000000	7.171753
689.000000	7.135908
690.000000	7.088831
691.000000	7.043854
692.000000	6.989569
693.000000	6.919583
694.000000	6.852158
695.000000	6.840654
696.000000	6.764831
697.000000	6.686690
698.000000	6.640144
699.000000	6.532453
700.000000	6.424181
701.000000	6.344551
702.000000	6.257720
703.000000	6.191403
704.000000	6.130371
705.000000	6.043371
706.000000	5.974849
707.000000	5.930386
708.000000	5.884324
709.000000	5.822481
710.000000	5.771054
711.000000	5.751494
712.000000	5.742374
713.000000	5.717793
714.000000	5.740993
715.000000	5.748704
716.000000	5.714866
717.000000	5.731412
718.000000	5.776237
719.000000	5.777869
720.000000	5.832771
721.000000	5.888699
722.000000	5.928046
723.000000	6.005118
724.000000	6.079180
725.000000	6.202643
726.000000	6.355730
727.000000	6.475372
728.000000	6.565350
729.000000	6.643716
730.000000	6.783397
731.000000	6.913147
732.000000	6.995473
733.000000	7.125403
734.000000	7.236102
735.000000	7.320044
736.000000	7.429900
737.000000	7.535735
738.000000	7.640478
739.000000	7.747952
740.000000	7.805280
741.000000	7.869347
742.000000	8.010022
743.000000	8.144940
744.000000	8.273092
745.000000	8.382272
746.000000	8.469799
747.000000	8.559558
748.000000	8.650618
749.000000	8.732727
750.000000	8.830294
751.000000	8.944292
752.000000	9.081786
753.000000	9.146845
754.000000	9.179675
755.000000	9.249628
756.000000	9.293793
757.000000	9.355573
758.000000	9.439641
759.000000	9.437549
760.000000	9.446235
761.000000	9.518072
762.000000	9.555472
763.000000	9.576109
764.000000	9.609173
765.000000	9.637367
766.000000	9.606164
767.000000	9.617606
768.000000	9.637996
769.000000	9.601602
770.000000	9.569467
771.000000	9.574261
772.000000	9.612112
773.000000	9.598568
774.000000	9.558425
775.000000	9.504976
776.000000	9.497395
777.000000	9.503207
778.000000	9.488552
779.000000	9.547411
780.000000	9.596430
781.000000	9.644767
782.000000	9.691819
783.000000	9.713777
784.000000	9.777692
785.000000	9.841429
786.000000	9.944164
787.000000	9.980921
788.000000	9.992543
789.000000	10.061134
790.000000	10.164880
791.000000	10.228208
792.000000	10.285445
793.000000	10.325214
794.000000	10.378530
795.000000	10.495582
796.000000	10.537225
797.000000	10.583025
798.000000	10.636992
799.000000	10.679456
800.000000	10.662712
801.000000	10.825931
802.000000	10.852933
803.000000	10.862031
804.000000	10.940071
805.000000	10.972227
806.000000	10.972817
807.000000	10.871363
808.000000	10.874907
809.000000	10.862256
810.000000	10.823814
811.000000	10.866155
812.000000	10.777001
813.000000	10.715162
814.000000	10.828561
815.000000	10.853362
816.000000	10.725885
817.000000	10.740015
818.000000	10.854796
819.000000	10.884589
820.000000	10.842186
821.000000	10.787596
822.000000	10.856160
823.000000	10.917633
824.000000	10.844271
825.000000	10.808269
826.000000	10.904894
827.000000	11.002167
828.000000	10.918770
829.000000	10.949158
830.000000	11.021703
831.000000	11.044583
832.000000	11.119278
833.000000	11.093712
834.000000	11.031414
835.000000	10.966138
836.000000	10.928730
837.000000	10.886752
838.000000	10.898941
839.000000	10.763424
840.000000	10.893272
841.000000	10.693531
842.000000	10.586699
843.000000	10.616416
844.000000	10.486427
845.000000	10.444713
846.000000	10.193088
847.000000	10.090491
848.000000	10.036209
849.000000	10.056068
850.000000	9.809321
851.000000	9.605094
852.000000	9.529316
853.000000	9.433152
854.000000	9.333015
855.000000	9.257812
856.000000	9.058578
857.000000	9.288086
858.000000	8.995132
859.000000	9.317883
860.000000	9.376390
861.000000	9.443547
862.000000	9.449242
863.000000	9.452076
864.000000	9.433186
865.000000	9.404831
866.000000	9.354532
867.000000	9.317327
868.000000	9.231130
869.000000	9.178658
870.000000	9.069086
871.000000	9.019499
872.000000	8.929101
873.000000	8.808320
874.000000	8.719324
875.000000	8.555978
876.000000	8.426457
877.000000	8.335275
878.000000	8.240982
879.000000	8.092977
880.000000	7.963856
881.000000	7.834459
882.000000	7.661532
883.000000	7.517436
884.000000	7.404089
885.000000	7.260326
886.000000	7.134270
887.000000	6.989667
888.000000	6.810709
889.000000	6.687972
890.000000	6.548134
891.000000	6.410978
892.000000	6.269563
893.000000	6.141729
894.000000	6.015362
895.000000	5.890539
896.000000	5.738809
897.000000	5.626721
898.000000	5.502639
899.000000	5.378013
900.000000	5.277597
901.000000	5.164322
902.000000	5.065083
903.000000	4.967256
904.000000	4.859776
905.000000	4.766991
906.000000	4.652425
907.000000	4.623323
908.000000	4.524053
909.000000	4.418635
910.000000	4.331612
911.000000	4.243063
912.000000	4.227114
913.000000	4.149883
914.000000	4.092980
915.000000	4.023621
916.000000	3.952929
917.000000	3.897323
918.000000	3.842095
919.000000	3.780343
920.000000	3.726482
921.000000	3.665461
922.000000	3.636361
923.000000	3.588919
924.000000	3.539346
925.000000	3.489937
926.000000	3.445440
927.000000	3.412310
928.000000	3.380842
929.000000	3.341477
930.000000	3.299334
931.000000	3.289030
932.000000	3.249311
933.000000	3.218833
934.000000	3.201512
935.000000	3.182512
936.000000	3.143012
937.000000	3.118689
938.000000	3.092845
939.000000	3.060661
940.000000	3.029696
941.000000	3.016153
942.000000	3.003369
943.000000	2.963872
944.000000	2.956024
945.000000	2.931858
946.000000	2.915849
947.000000	2.896025
948.000000	2.897176
949.000000	2.868724
950.000000	2.846651
951.000000	2.851547
952.000000	2.823497
953.000000	2.813535
954.000000	2.809581
955.000000	2.790210
956.000000	2.766264
957.000000	2.751107
958.000000	2.746909
959.000000	2.740625
960.000000	2.724056
961.000000	2.709167
962.000000	2.698632
963.000000	2.699501
964.000000	2.686716
965.000000	2.674107
966.000000	2.662644
967.000000	2.661685
968.000000	2.666983
969.000000	2.665838
970.000000	2.664224
971.000000	2.653317
972.000000	2.659451
973.000000	2.659172
974.000000	2.657383
975.000000	2.659032
976.000000	2.675019
977.000000	2.670891
978.000000	2.674210
979.000000	2.668141
980.000000	2.681502
981.000000	2.684243
982.000000	2.692537
983.000000	2.702949
984.000000	2.712955
985.000000	2.707011
986.000000	2.726105
987.000000	2.732128
988.000000	2.733285
989.000000	2.737373
990.000000	2.733498
991.000000	2.739996
992.000000	2.744786
993.000000	2.747951
994.000000	2.760780
995.000000	2.767600
996.000000	2.781318
997.000000	2.793341
998.000000	2.789804
999.000000	2.792912
1000.000000	2.788474
1001.000000	2.804099
1002.000000	2.824989
1003.000000	2.833677
1004.000000	2.840258
1005.000000	2.843232
1006.000000	2.856338
1007.000000	2.855019
1008.000000	2.859008
1009.000000	2.868490
1010.000000	2.870341
1011.000000	2.881432
1012.000000	2.886982
1013.000000	2.891237
1014.000000	2.901894
1015.000000	2.903099
1016.000000	2.908759
1017.000000	2.928496
1018.000000	2.933530
1019.000000	2.937225
1020.000000	2.942461
1021.000000	2.945852
1022.000000	2.963370
1023.000000	2.978969
1024.000000	2.986649
1025.000000	2.998265
1026.000000	3.009668
1027.000000	3.018767
1028.000000	3.042376
1029.000000	3.058498
1030.000000	3.058868
1031.000000	3.067061
1032.000000	3.083243
1033.000000	3.091704
1034.000000	3.107470
1035.000000	3.116273
1036.000000	3.120914
1037.000000	3.127239
1038.000000	3.133319
1039.000000	3.156511
1040.000000	3.166845
1041.000000	3.166461
1042.000000	3.179348
1043.000000	3.193967
1044.000000	3.203557
1045.000000	3.203874
1046.000000	3.209219
1047.000000	3.222945
1048.000000	3.235151
1049.000000	3.239502
1050.000000	3.255222
1051.000000	3.275532
1052.000000	3.279903
1053.000000	3.284131
1054.000000	3.294700
1055.000000	3.309592
1056.000000	3.321895
1057.000000	3.328313
1058.000000	3.338084
1059.000000	3.353044
1060.000000	3.368118
1061.000000	3.385560
1062.000000	3.385208
1063.000000	3.393683
1064.000000	3.418243
1065.000000	3.426552
1066.000000	3.438889
1067.000000	3.454308
1068.000000	3.459421
1069.000000	3.467131
1070.000000	3.482592
1071.000000	3.488009
1072.000000	3.507012
1073.000000	3.515572
1074.000000	3.526830
1075.000000	3.536663
1076.000000	3.547432
1077.000000	3.568419
1078.000000	3.581914
1079.000000	3.588601
1080.000000	3.603569
1081.000000	3.598709
1082.000000	3.612478
1083.000000	3.631611
1084.000000	3.638011
1085.000000	3.650110
1086.000000	3.656238
1087.000000	3.659210
1088.000000	3.674144
1089.000000	3.687857
1090.000000	3.690397
1091.000000	3.707185
1092.000000	3.716001
1093.000000	3.735907
1094.000000	3.736635
1095.000000	3.744482
1096.000000	3.755738
1097.000000	3.763694
1098.000000	3.765746
1099.000000	3.781286
1100.000000	3.782374
1101.000000	3.789515
1102.000000	3.798251
1103.000000	3.804088
1104.000000	3.800458
1105.000000	3.810270
1106.000000	3.818479
1107.000000	3.822078
1108.000000	3.843954
1109.000000	3.843200
1110.000000	3.848414
1111.000000	3.851782
1112.000000	3.865651
1113.000000	3.866516
1114.000000	3.880502
1115.000000	3.891950
1116.000000	3.900132
1117.000000	3.906909
1118.000000	3.908632
1119.000000	3.912278
1120.000000	3.917776
1121.000000	3.932184
1122.000000	3.929972
1123.000000	3.931023
1124.000000	3.936483
1125.000000	3.928699
1126.000000	3.938411
1127.000000	3.943498
1128.000000	3.938702
1129.000000	3.933004
1130.000000	3.940269
1131.000000	3.932495
1132.000000	3.931532
1133.000000	3.911069
1134.000000	3.897763
1135.000000	3.884432
1136.000000	3.868204
1137.000000	3.846525
1138.000000	3.826479
1139.000000	3.807060
1140.000000	3.793705
1141.000000	3.767854
1142.000000	3.752200
1143.000000	3.733469
1144.000000	3.709376
1145.000000	3.710200
1146.000000	3.695819
1147.000000	3.692935
1148.000000	3.685747
1149.000000	3.697493
1150.000000	3.694661
1151.000000	3.701917
1152.000000	3.714939
1153.000000	3.714804
1154.000000	3.729571
1155.000000	3.742053
1156.000000	3.750156
1157.000000	3.736194
1158.000000	3.728548
1159.000000	3.727931
1160.000000	3.712902
1161.000000	3.692564
1162.000000	3.692874
1163.000000	3.690030
1164.000000	3.671528
1165.000000	3.677089
1166.000000	3.670257
1167.000000	3.662275
1168.000000	3.662739
1169.000000	3.658640
1170.000000	3.659251
1171.000000	3.659896
1172.000000	3.647245
1173.000000	3.642092
1174.000000	3.648093
1175.000000	3.660434
1176.000000	3.642586
1177.000000	3.634729
1178.000000	3.643001
1179.000000	3.639237
1180.000000	3.640656
1181.000000	3.644003
1182.000000	3.637406
1183.000000	3.630929
1184.000000	3.641459
1185.000000	3.622470
1186.000000	3.628832
1187.000000	3.619126
1188.000000	3.621352
1189.000000	3.618121
1190.000000	3.619780
1191.000000	3.629302
1192.000000	3.629755
1193.000000	3.638175
1194.000000	3.650194
1195.000000	3.654804
1196.000000	3.668715
1197.000000	3.676655
1198.000000	3.678984
1199.000000	3.687757
1200.000000	3.696271
1201.000000	3.699468
1202.000000	3.702719
1203.000000	3.701721
1204.000000	3.709015
1205.000000	3.714485
1206.000000	3.717107
1207.000000	3.728244
1208.000000	3.729187
1209.000000	3.730007
1210.000000	3.736494
1211.000000	3.745468
1212.000000	3.753596
1213.000000	3.759805
1214.000000	3.769384
1215.000000	3.780464
1216.000000	3.777015
1217.000000	3.794254
1218.000000	3.802805
1219.000000	3.824317
1220.000000	3.828535
1221.000000	3.824097
1222.000000	3.833792
1223.000000	3.846050
1224.000000	3.850231
1225.000000	3.863860
1226.000000	3.880495
1227.000000	3.874449
1228.000000	3.878947
1229.000000	3.899640
1230.000000	3.905408
1231.000000	3.912356
1232.000000	3.916191
1233.000000	3.943381
1234.000000	3.947060
1235.000000	3.944905
1236.000000	3.957960
1237.000000	3.960610
1238.000000	3.970022
1239.000000	3.982165
1240.000000	3.999471
1241.000000	3.998055
1242.000000	4.005021
1243.000000	4.016600
1244.000000	4.026659
1245.000000	4.044302
1246.000000	4.038383
1247.000000	4.054998
1248.000000	4.066131
1249.000000	4.055788
1250.000000	4.059544
1251.000000	4.072589
1252.000000	4.083488
1253.000000	4.082435
1254.000000	4.089500
1255.000000	4.086421
1256.000000	4.096469
1257.000000	4.101299
1258.000000	4.110181
1259.000000	4.110577
1260.000000	4.117502
1261.000000	4.115312
1262.000000	4.123865
1263.000000	4.140157
1264.000000	4.135490
1265.000000	4.136591
1266.000000	4.137222
1267.000000	4.140313
1268.000000	4.154907
1269.000000	4.160835
1270.000000	4.166306
1271.000000	4.176315
1272.000000	4.186270
1273.000000	4.194737
1274.000000	4.206446
1275.000000	4.222876
1276.000000	4.219986
1277.000000	4.215691
1278.000000	4.226474
1279.000000	4.240275
1280.000000	4.243165
1281.000000	4.254233
1282.000000	4.266792
1283.000000	4.283870
1284.000000	4.295102
1285.000000	4.304480
1286.000000	4.314352
1287.000000	4.308645
1288.000000	4.313075
1289.000000	4.318913
1290.000000	4.332067
1291.000000	4.347937
1292.000000	4.358231
1293.000000	4.367008
1294.000000	4.374539
1295.000000	4.377114
1296.000000	4.380052
1297.000000	4.387059
1298.000000	4.391314
1299.000000	4.389325
1300.000000	4.396163
1301.000000	4.404842
1302.000000	4.400246
1303.000000	4.404948
1304.000000	4.416316
1305.000000	4.418208
1306.000000	4.411307
1307.000000	4.421620
1308.000000	4.433440
1309.000000	4.437190
1310.000000	4.440616
1311.000000	4.432858
1312.000000	4.421942
1313.000000	4.414472
1314.000000	4.411130
1315.000000	4.413754
1316.000000	4.414730
1317.000000	4.404210
1318.000000	4.393209
1319.000000	4.390687
1320.000000	4.388128
1321.000000	4.380008
1322.000000	4.376227
1323.000000	4.373517
1324.000000	4.360116
1325.000000	4.354854
1326.000000	4.342674
1327.000000	4.331303
1328.000000	4.323051
1329.000000	4.321468
1330.000000	4.311286
1331.000000	4.300851
1332.000000	4.295902
1333.000000	4.280855
1334.000000	4.260338
1335.000000	4.246402
1336.000000	4.239314
1337.000000	4.230511
1338.000000	4.212938
1339.000000	4.202312
1340.000000	4.196486
1341.000000	4.185722
1342.000000	4.170178
1343.000000	4.158569
1344.000000	4.136982
1345.000000	4.108826
1346.000000	4.118085
1347.000000	4.103106
1348.000000	4.077823
1349.000000	4.060506
1350.000000	4.035336
1351.000000	4.004753
1352.000000	3.980520
1353.000000	3.944222
1354.000000	3.956088
1355.000000	3.943629
1356.000000	3.896905
1357.000000	3.875906
1358.000000	3.858513
1359.000000	3.867902
1360.000000	3.857149
1361.000000	3.859708
1362.000000	3.855564
1363.000000	3.858838
1364.000000	3.858194
1365.000000	3.858703
1366.000000	3.847381
1367.000000	3.856360
1368.000000	3.842874
1369.000000	3.826663
1370.000000	3.827292
1371.000000	3.822556
1372.000000	3.803417
1373.000000	3.805460
1374.000000	3.802123
1375.000000	3.780954
1376.000000	3.772125
1377.000000	3.771385
1378.000000	3.771235
1379.000000	3.764526
1380.000000	3.771973
1381.000000	3.752968
1382.000000	3.736059
1383.000000	3.725485
1384.000000	3.692419
1385.000000	3.685731
1386.000000	3.674528
1387.000000	3.670647
1388.000000	3.647031
1389.000000	3.623562
1390.000000	3.610490
1391.000000	3.604736
1392.000000	3.583493
1393.000000	3.552686
1394.000000	3.550769
1395.000000	3.536185
1396.000000	3.516218
1397.000000	3.487775
1398.000000	3.486102
1399.000000	3.471133
1400.000000	3.443745
1401.000000	3.408889
1402.000000	3.360058
1403.000000	3.344112
1404.000000	3.328232
1405.000000	3.303051
1406.000000	3.269687
1407.000000	3.244247
1408.000000	3.209253
1409.000000	3.182236
1410.000000	3.141993
1411.000000	3.118129
1412.000000	3.103622
1413.000000	3.096799
1414.000000	3.079535
1415.000000	3.043083
1416.000000	3.012452
1417.000000	3.000902
1418.000000	2.988582
1419.000000	2.967085
1420.000000	2.944679
1421.000000	2.924346
1422.000000	2.914640
1423.000000	2.889491
1424.000000	2.854384
1425.000000	2.851117
1426.000000	2.819848
1427.000000	2.807805
1428.000000	2.795103
1429.000000	2.786016
1430.000000	2.778286
1431.000000	2.755995
1432.000000	2.754410
1433.000000	2.736901
1434.000000	2.711502
1435.000000	2.706860
1436.000000	2.695384
1437.000000	2.680129
1438.000000	2.680610
1439.000000	2.673647
1440.000000	2.667885
1441.000000	2.667317
1442.000000	2.665856
1443.000000	2.642288
1444.000000	2.633321
1445.000000	2.644349
1446.000000	2.621294
1447.000000	2.633225
1448.000000	2.621910
1449.000000	2.599766
1450.000000	2.604666
1451.000000	2.602480
1452.000000	2.588325
1453.000000	2.583191
1454.000000	2.567385
1455.000000	2.571501
1456.000000	2.565323
1457.000000	2.565314
1458.000000	2.566317
1459.000000	2.557552
1460.000000	2.546579
1461.000000	2.549946
1462.000000	2.535952
1463.000000	2.520145
1464.000000	2.519001
1465.000000	2.513626
1466.000000	2.499427
1467.000000	2.497046
1468.000000	2.502253
1469.000000	2.480124
1470.000000	2.488367
1471.000000	2.488804
1472.000000	2.465469
1473.000000	2.461483
1474.000000	2.455532
1475.000000	2.450597
1476.000000	2.446640
1477.000000	2.440044
1478.000000	2.428669
1479.000000	2.413754
1480.000000	2.413341
1481.000000	2.402965
1482.000000	2.394048
1483.000000	2.390810
1484.000000	2.390137
1485.000000	2.369900
1486.000000	2.365700
1487.000000	2.366328
1488.000000	2.359193
1489.000000	2.356731
1490.000000	2.359059
1491.000000	2.346504
1492.000000	2.337514
1493.000000	2.330338
1494.000000	2.319906
1495.000000	2.323645
1496.000000	2.317365
1497.000000	2.318494
1498.000000	2.325940
1499.000000	2.312858
1500.000000	2.314267
1501.000000	2.311517
1502.000000	2.311780
1503.000000	2.310482
1504.000000	2.310473
1505.000000	2.323063
1506.000000	2.328609
1507.000000	2.320630
1508.000000	2.327353
1509.000000	2.321680
1510.000000	2.320904
1511.000000	2.323401
1512.000000	2.337123
1513.000000	2.335956
1514.000000	2.345399
1515.000000	2.345797
1516.000000	2.347664
1517.000000	2.356673
1518.000000	2.368939
1519.000000	2.364541
1520.000000	2.372642
1521.000000	2.372080
1522.000000	2.376322
1523.000000	2.381132
1524.000000	2.396960
1525.000000	2.403110
1526.000000	2.401551
1527.000000	2.405313
1528.000000	2.408977
1529.000000	2.417313
1530.000000	2.423351
1531.000000	2.429640
1532.000000	2.440395
1533.000000	2.443186
1534.000000	2.441859
1535.000000	2.446407
1536.000000	2.449996
1537.000000	2.456383
1538.000000	2.471762
1539.000000	2.473354
1540.000000	2.473019
1541.000000	2.478649
1542.000000	2.485104
1543.000000	2.490583
1544.000000	2.489927
1545.000000	2.489519
1546.000000	2.487415
1547.000000	2.499746
1548.000000	2.507114
1549.000000	2.506760
1550.000000	2.513580
1551.000000	2.516651
1552.000000	2.519444
1553.000000	2.520432
1554.000000	2.525839
1555.000000	2.535735
1556.000000	2.539034
1557.000000	2.533675
1558.000000	2.533923
1559.000000	2.528256
1560.000000	2.527090
1561.000000	2.533263
1562.000000	2.538721
1563.000000	2.537369
1564.000000	2.525346
1565.000000	2.518945
1566.000000	2.522450
1567.000000	2.520800
1568.000000	2.523157
1569.000000	2.519794
1570.000000	2.507953
1571.000000	2.508674
1572.000000	2.503721
1573.000000	2.490449
1574.000000	2.488864
1575.000000	2.493907
1576.000000	2.493874
1577.000000	2.489555
1578.000000	2.484709
1579.000000	2.484555
1580.000000	2.490365
1581.000000	2.488699
1582.000000	2.487420
1583.000000	2.490216
1584.000000	2.484440
1585.000000	2.489674
1586.000000	2.492361
1587.000000	2.485529
1588.000000	2.478836
1589.000000	2.473869
1590.000000	2.475287
1591.000000	2.480139
1592.000000	2.477990
1593.000000	2.477856
1594.000000	2.476967
1595.000000	2.473613
1596.000000	2.473221
1597.000000	2.487312
1598.000000	2.491540
1599.000000	2.492179
1600.000000	2.493092
1601.000000	2.491263
1602.000000	2.495413
1603.000000	2.506440
1604.000000	2.496857
1605.000000	2.500520
1606.000000	2.498798
1607.000000	2.509149
1608.000000	2.515060
1609.000000	2.511464
1610.000000	2.515443
1611.000000	2.524891
1612.000000	2.524666
1613.000000	2.525028
1614.000000	2.541507
1615.000000	2.540879
1616.000000	2.541064
1617.000000	2.540210
1618.000000	2.546278
1619.000000	2.557552
1620.000000	2.554368
1621.000000	2.560778
1622.000000	2.559251
1623.000000	2.567883
1624.000000	2.577902
1625.000000	2.596286
1626.000000	2.590889
1627.000000	2.588868
1628.000000	2.596352
1629.000000	2.593940
1630.000000	2.614784
1631.000000	2.629382
1632.000000	2.633131
1633.000000	2.636323
1634.000000	2.637465
1635.000000	2.641501
1636.000000	2.662552
1637.000000	2.661018
1638.000000	2.672922
1639.000000	2.672386
1640.000000	2.681808
1641.000000	2.682599
1642.000000	2.693104
1643.000000	2.701580
1644.000000	2.702923
1645.000000	2.707297
1646.000000	2.716622
1647.000000	2.718978
1648.000000	2.727244
1649.000000	2.723858
1650.000000	2.728376
1651.000000	2.738767
1652.000000	2.737494
1653.000000	2.746472
1654.000000	2.737769
1655.000000	2.750104
1656.000000	2.752359
1657.000000	2.743588
1658.000000	2.735970
1659.000000	2.744485
1660.000000	2.740369
1661.000000	2.729668
1662.000000	2.733949
1663.000000	2.735779
1664.000000	2.723917
1665.000000	2.715382
1666.000000	2.709123
1667.000000	2.705862
1668.000000	2.672861
1669.000000	2.655122
1670.000000	2.640691
1671.000000	2.636271
1672.000000	2.627190
1673.000000	2.602112
1674.000000	2.580029
1675.000000	2.545209
1676.000000	2.536850
1677.000000	2.509244
1678.000000	2.471538
1679.000000	2.430445
1680.000000	2.375937
1681.000000	2.337899
1682.000000	2.303505
1683.000000	2.266902
1684.000000	2.248111
1685.000000	2.230468
1686.000000	2.207617
1687.000000	2.193269
1688.000000	2.189808
1689.000000	2.180360
1690.000000	2.177381
1691.000000	2.166794
1692.000000	2.162897
1693.000000	2.155735
1694.000000	2.135766
1695.000000	2.117260
1696.000000	2.120250
1697.000000	2.120674
1698.000000	2.123270
1699.000000	2.114371
1700.000000	2.131595
1701.000000	2.139244
1702.000000	2.156280
1703.000000	2.154302
1704.000000	2.147562
1705.000000	2.152574
1706.000000	2.149740
1707.000000	2.156742
1708.000000	2.143756
1709.000000	2.140944
1710.000000	2.151810
1711.000000	2.138371
1712.000000	2.122661
1713.000000	2.117185
1714.000000	2.102861
1715.000000	2.097036
1716.000000	2.090059
1717.000000	2.069928
1718.000000	2.065813
1719.000000	2.047897
1720.000000	2.038952
1721.000000	2.032805
1722.000000	2.038026
1723.000000	2.029102
1724.000000	2.012953
1725.000000	2.029200
1726.000000	2.016837
1727.000000	2.011867
1728.000000	2.004171
1729.000000	2.000540
1730.000000	2.003174
1731.000000	1.984487
1732.000000	1.984628
1733.000000	1.977928
1734.000000	1.963364
1735.000000	1.967438
1736.000000	1.981206
1737.000000	1.981752
1738.000000	1.992251
1739.000000	1.999937
1740.000000	2.010246
1741.000000	2.020898
1742.000000	2.049548
1743.000000	2.077943
1744.000000	2.082229
1745.000000	2.095507
1746.000000	2.111100
1747.000000	2.123250
1748.000000	2.140372
1749.000000	2.142162
1750.000000	2.158265
1751.000000	2.166039
1752.000000	2.162774
1753.000000	2.167144
1754.000000	2.168043
1755.000000	2.177037
1756.000000	2.180251
1757.000000	2.179250
1758.000000	2.182351
1759.000000	2.180352
1760.000000	2.181312
1761.000000	2.181469
1762.000000	2.173580
1763.000000	2.173887
1764.000000	2.181225
1765.000000	2.187699
1766.000000	2.186327
1767.000000	2.207231
1768.000000	2.208915
1769.000000	2.209791
1770.000000	2.234554
1771.000000	2.249667
1772.000000	2.262913
1773.000000	2.261712
1774.000000	2.277197
1775.000000	2.296954
1776.000000	2.299938
1777.000000	2.297581
1778.000000	2.309933
1779.000000	2.326807
1780.000000	2.339147
1781.000000	2.346988
1782.000000	2.352845
1783.000000	2.359373
1784.000000	2.364397
1785.000000	2.374951
1786.000000	2.376931
1787.000000	2.381107
1788.000000	2.388316
1789.000000	2.389373
1790.000000	2.396866
1791.000000	2.400988
1792.000000	2.406659
1793.000000	2.407300
1794.000000	2.414059
1795.000000	2.416440
1796.000000	2.424356
1797.000000	2.426553
1798.000000	2.432346
1799.000000	2.441523
1800.000000	2.447316
1801.000000	2.446819
1802.000000	2.452805
1803.000000	2.448687
1804.000000	2.446373
1805.000000	2.452138
1806.000000	2.460389
1807.000000	2.461905
1808.000000	2.463897
1809.000000	2.453738
1810.000000	2.455735
1811.000000	2.464567
1812.000000	2.460332
1813.000000	2.460974
1814.000000	2.472057
1815.000000	2.467742
1816.000000	2.455550
1817.000000	2.453747
1818.000000	2.461215
1819.000000	2.460471
1820.000000	2.449582
1821.000000	2.439127
1822.000000	2.435189
1823.000000	2.448406
1824.000000	2.458251
1825.000000	2.455299
1826.000000	2.451727
1827.000000	2.444314
1828.000000	2.441723
1829.000000	2.451499
1830.000000	2.447398
1831.000000	2.443104
1832.000000	2.449711
1833.000000	2.458286
1834.000000	2.471742
1835.000000	2.464622
1836.000000	2.453311
1837.000000	2.452025
1838.000000	2.459325
1839.000000	2.465713
1840.000000	2.465304
1841.000000	2.465154
1842.000000	2.450377
1843.000000	2.445680
1844.000000	2.450482
1845.000000	2.468036
1846.000000	2.479952
1847.000000	2.470576
1848.000000	2.453786
1849.000000	2.434645
1850.000000	2.445442
1851.000000	2.458039
1852.000000	2.457689
1853.000000	2.463793
1854.000000	2.455704
1855.000000	2.444746
1856.000000	2.456207
1857.000000	2.459662
1858.000000	2.448940
1859.000000	2.446863
1860.000000	2.434123
1861.000000	2.431042
1862.000000	2.433064
1863.000000	2.427250
1864.000000	2.436219
1865.000000	2.430436
1866.000000	2.419385
1867.000000	2.420442
1868.000000	2.414002
1869.000000	2.409714
1870.000000	2.402727
1871.000000	2.381282
1872.000000	2.360341
1873.000000	2.335898
1874.000000	2.321181
1875.000000	2.303145
1876.000000	2.293310
1877.000000	2.280471
1878.000000	2.271934
1879.000000	2.254520
1880.000000	2.227386
1881.000000	2.209497
1882.000000	2.190470
1883.000000	2.165296
1884.000000	2.147160
1885.000000	2.119902
1886.000000	2.101449
1887.000000	2.076310
1888.000000	2.048070
1889.000000	2.018900
1890.000000	2.000339
1891.000000	1.986576
1892.000000	1.978101
1893.000000	1.961664
1894.000000	1.935055
1895.000000	1.907135
1896.000000	1.896114
1897.000000	1.876131
1898.000000	1.862856
1899.000000	1.845868
1900.000000	1.841841
1901.000000	1.824880
1902.000000	1.802527
1903.000000	1.787106
1904.000000	1.761516
1905.000000	1.751303
1906.000000	1.741848
1907.000000	1.725656
1908.000000	1.698615
1909.000000	1.670639
1910.000000	1.643552
1911.000000	1.640363
1912.000000	1.644021
1913.000000	1.619802
1914.000000	1.626128
1915.000000	1.599229
1916.000000	1.574261
1917.000000	1.551420
1918.000000	1.532245
1919.000000	1.519241
1920.000000	1.527070
1921.000000	1.513840
1922.000000	1.505973
1923.000000	1.485582
1924.000000	1.477505
1925.000000	1.451503
1926.000000	1.434511
1927.000000	1.439303
1928.000000	1.427505
1929.000000	1.427465
1930.000000	1.404424
1931.000000	1.406072
1932.000000	1.381802
1933.000000	1.377593
1934.000000	1.365366
1935.000000	1.359727
1936.000000	1.357217
1937.000000	1.356746
1938.000000	1.343660
1939.000000	1.353999
1940.000000	1.337330
1941.000000	1.327348
1942.000000	1.336053
1943.000000	1.324643
1944.000000	1.326118
1945.000000	1.328383
1946.000000	1.316891
1947.000000	1.323977
1948.000000	1.327205
1949.000000	1.329860
1950.000000	1.322300
1951.000000	1.310216
1952.000000	1.326799
1953.000000	1.307101
1954.000000	1.313935
1955.000000	1.330367
1956.000000	1.330268
1957.000000	1.333444
1958.000000	1.341792
1959.000000	1.342915
1960.000000	1.348000
1961.000000	1.342057
1962.000000	1.341268
1963.000000	1.336211
1964.000000	1.349925
1965.000000	1.344257
1966.000000	1.350074
1967.000000	1.356862
1968.000000	1.359508
1969.000000	1.352966
1970.000000	1.366550
1971.000000	1.349975
1972.000000	1.352517
1973.000000	1.355678
1974.000000	1.354668
1975.000000	1.373246
1976.000000	1.365312
1977.000000	1.375045
1978.000000	1.379481
1979.000000	1.370837
1980.000000	1.366550
1981.000000	1.376329
1982.000000	1.375588
1983.000000	1.374027
1984.000000	1.380599
1985.000000	1.398340
1986.000000	1.386600
1987.000000	1.398030
1988.000000	1.395191
1989.000000	1.397711
1990.000000	1.396791
1991.000000	1.394757
1992.000000	1.397579
1993.000000	1.406337
1994.000000	1.417606
1995.000000	1.403234
1996.000000	1.407265
1997.000000	1.406046
1998.000000	1.412909
1999.000000	1.419472
2000.000000	1.428180
2001.000000	1.406787
2002.000000	1.420105
2003.000000	1.413481
2004.000000	1.412211
2005.000000	1.404555
2006.000000	1.407860
2007.000000	1.408792
2008.000000	1.406279
2009.000000	1.413675
2010.000000	1.408819
2011.000000	1.404912
2012.000000	1.404071
2013.000000	1.388437
2014.000000	1.392021
2015.000000	1.392398
2016.000000	1.393798
2017.000000	1.405320
2018.000000	1.396911
2019.000000	1.378885
2020.000000	1.376292
2021.000000	1.374678
2022.000000	1.377362
2023.000000	1.361550
2024.000000	1.353865
2025.000000	1.357545
2026.000000	1.354111
2027.000000	1.356647
2028.000000	1.352744
2029.000000	1.339206
2030.000000	1.326408
2031.000000	1.325530
2032.000000	1.330347
2033.000000	1.324140
2034.000000	1.306694
2035.000000	1.301347
2036.000000	1.297884
2037.000000	1.295836
2038.000000	1.295979
2039.000000	1.280655
2040.000000	1.268805
2041.000000	1.267034
2042.000000	1.261269
2043.000000	1.262134
2044.000000	1.250654
2045.000000	1.236361
2046.000000	1.220982
2047.000000	1.208938
2048.000000	1.209158
2049.000000	1.215602
2050.000000	1.200145
2051.000000	1.195369
2052.000000	1.188775
2053.000000	1.172739
2054.000000	1.178533
2055.000000	1.172656
2056.000000	1.166768
2057.000000	1.168313
2058.000000	1.173305
2059.000000	1.166532
2060.000000	1.160887
2061.000000	1.178541
2062.000000	1.202627
2063.000000	1.201908
2064.000000	1.191172
2065.000000	1.196937
2066.000000	1.198177
2067.000000	1.201832
2068.000000	1.219031
2069.000000	1.213095
2070.000000	1.219702
2071.000000	1.231856
2072.000000	1.232905
2073.000000	1.233620
2074.000000	1.238184
2075.000000	1.246300
2076.000000	1.244794
2077.000000	1.249774
2078.000000	1.261155
2079.000000	1.262451
2080.000000	1.252835
2081.000000	1.252757
2082.000000	1.263540
2083.000000	1.271558
2084.000000	1.276618
2085.000000	1.269909
2086.000000	1.274327
2087.000000	1.275189
2088.000000	1.273906
2089.000000	1.284064
2090.000000	1.284990
2091.000000	1.279257
2092.000000	1.280803
2093.000000	1.293148
2094.000000	1.291842
2095.000000	1.277836
2096.000000	1.271628
2097.000000	1.280397
2098.000000	1.291374
2099.000000	1.297053
2100.000000	1.294050
2101.000000	1.286329
2102.000000	1.285323
2103.000000	1.284338
2104.000000	1.282253
2105.000000	1.284238
2106.000000	1.286009
2107.000000	1.290518
2108.000000	1.293222
2109.000000	1.288661
2110.000000	1.281483
2111.000000	1.291934
2112.000000	1.299912
2113.000000	1.291895
2114.000000	1.295363
2115.000000	1.299092
2116.000000	1.298497
2117.000000	1.300029
2118.000000	1.302455
2119.000000	1.303633
2120.000000	1.301143
2121.000000	1.299473
2122.000000	1.292768
2123.000000	1.287675
2124.000000	1.290137
2125.000000	1.293100
2126.000000	1.298979
2127.000000	1.299347
2128.000000	1.291880
2129.000000	1.295543
2130.000000	1.292282
2131.000000	1.288095
2132.000000	1.281421
2133.000000	1.269556
2134.000000	1.277269
2135.000000	1.275999
2136.000000	1.278392
2137.000000	1.273358
2138.000000	1.267716
2139.000000	1.263535
2140.000000	1.254853
2141.000000	1.258352
2142.000000	1.255193
2143.000000	1.251623
2144.000000	1.243397
2145.000000	1.243120
2146.000000	1.236392
2147.000000	1.228113
2148.000000	1.219104
2149.000000	1.219428
2150.000000	1.212110
2151.000000	1.204989
2152.000000	1.200659
2153.000000	1.207363
2154.000000	1.200119
2155.000000	1.189626
2156.000000	1.180028
2157.000000	1.183519
2158.000000	1.169106
2159.000000	1.166749
2160.000000	1.164700
2161.000000	1.173121
2162.000000	1.172467
2163.000000	1.156622
2164.000000	1.163554
2165.000000	1.158096
2166.000000	1.156787
2167.000000	1.154129
2168.000000	1.152738
2169.000000	1.142978
2170.000000	1.138107
2171.000000	1.138892
2172.000000	1.144795
2173.000000	1.141582
2174.000000	1.132676
2175.000000	1.126245
2176.000000	1.123022
2177.000000	1.129832
2178.000000	1.127521
2179.000000	1.129151
2180.000000	1.125064
2181.000000	1.128468
2182.000000	1.122219
2183.000000	1.123977
2184.000000	1.129353
2185.000000	1.122389
2186.000000	1.123376
2187.000000	1.133512
2188.000000	1.135892
2189.000000	1.127978
2190.000000	1.145145
2191.000000	1.146790
2192.000000	1.130149
2193.000000	1.141176
2194.000000	1.131414
2195.000000	1.138398
2196.000000	1.137123
2197.000000	1.145866
2198.000000	1.149694
2199.000000	1.140984
2200.000000	1.143855
2201.000000	1.145826
2202.000000	1.155173
2203.000000	1.140717
2204.000000	1.150887
2205.000000	1.149842
2206.000000	1.142102
2207.000000	1.153268
2208.000000	1.162381
2209.000000	1.176333
2210.000000	1.186073
2211.000000	1.171687
2212.000000	1.166331
2213.000000	1.154182
2214.000000	1.179054
2215.000000	1.178772
2216.000000	1.181945
2217.000000	1.195187
2218.000000	1.187393
2219.000000	1.188441
2220.000000	1.206199
2221.000000	1.195899
2222.000000	1.201447
2223.000000	1.220219
2224.000000	1.221847
2225.000000	1.220071
2226.000000	1.223005
2227.000000	1.221926
2228.000000	1.236281
2229.000000	1.232332
2230.000000	1.232802
2231.000000	1.234705
2232.000000	1.231241
2233.000000	1.224548
2234.000000	1.241172
2235.000000	1.238745
2236.000000	1.236612
2237.000000	1.227320
2238.000000	1.243317
2239.000000	1.230620
2240.000000	1.217631
2241.000000	1.232330
2242.000000	1.219460
2243.000000	1.226209
2244.000000	1.213212
2245.000000	1.212056
2246.000000	1.210900
2247.000000	1.208593
2248.000000	1.189988
2249.000000	1.187474
2250.000000	1.172173
2251.000000	1.152339
2252.000000	1.143168
2253.000000	1.142544
2254.000000	1.125997
2255.000000	1.093621
2256.000000	1.090475
2257.000000	1.058767
2258.000000	1.049172
2259.000000	1.034197
2260.000000	1.003944
2261.000000	0.985910
2262.000000	0.951492
2263.000000	0.944599
2264.000000	0.932511
2265.000000	0.912970
2266.000000	0.894333
2267.000000	0.875116
2268.000000	0.864778
2269.000000	0.858325
2270.000000	0.862449
2271.000000	0.846129
2272.000000	0.832094
2273.000000	0.833189
2274.000000	0.851091
2275.000000	0.847835
2276.000000	0.859232
2277.000000	0.852242
2278.000000	0.859438
2279.000000	0.860353
2280.000000	0.876298
2281.000000	0.862319
2282.000000	0.888664
2283.000000	0.878915
2284.000000	0.889814
2285.000000	0.896160
2286.000000	0.904791
2287.000000	0.898014
2288.000000	0.904297
2289.000000	0.907391
2290.000000	0.912350
2291.000000	0.905784
2292.000000	0.907887
2293.000000	0.907502
2294.000000	0.903534
2295.000000	0.905428
2296.000000	0.887852
2297.000000	0.884741
2298.000000	0.872081
2299.000000	0.866005
2300.000000	0.850708
2301.000000	0.852733
2302.000000	0.836705
2303.000000	0.831870
2304.000000	0.825832
2305.000000	0.809781
2306.000000	0.810573
2307.000000	0.807373
2308.000000	0.813963
2309.000000	0.807739
2310.000000	0.809935
2311.000000	0.810886
2312.000000	0.825603
2313.000000	0.847397
2314.000000	0.852512
2315.000000	0.867038
2316.000000	0.877383
2317.000000	0.879573
2318.000000	0.900209
2319.000000	0.915908
2320.000000	0.918645
2321.000000	0.924430
2322.000000	0.947455
2323.000000	0.960335
2324.000000	0.968857
2325.000000	0.973643
2326.000000	0.983533
2327.000000	0.989861
2328.000000	0.997320
2329.000000	1.010772
2330.000000	1.017471
2331.000000	1.011303
2332.000000	1.025651
2333.000000	1.025142
2334.000000	1.028037
2335.000000	1.036162
2336.000000	1.041321
2337.000000	1.046574
2338.000000	1.042356
2339.000000	1.041325
2340.000000	1.034145
2341.000000	1.045666
2342.000000	1.046106
2343.000000	1.035937
2344.000000	1.034620
2345.000000	1.033428
2346.000000	1.016319
2347.000000	1.018999
2348.000000	1.026036
2349.000000	1.013532
2350.000000	1.012200
2351.000000	1.008515
2352.000000	1.003429
2353.000000	0.996254
2354.000000	0.991007
2355.000000	1.005992
2356.000000	1.011550
2357.000000	1.014695
2358.000000	1.024730
2359.000000	1.027982
2360.000000	1.034203
2361.000000	1.031118
2362.000000	1.028807
2363.000000	1.038127
2364.000000	1.048857
2365.000000	1.057241
2366.000000	1.061576
2367.000000	1.069603
2368.000000	1.073644
2369.000000	1.072681
2370.000000	1.079133
2371.000000	1.092170
2372.000000	1.093641
2373.000000	1.096573
2374.000000	1.097420
2375.000000	1.101202
2376.000000	1.105921
2377.000000	1.107388
2378.000000	1.117377
2379.000000	1.121226
2380.000000	1.114036
2381.000000	1.119970
2382.000000	1.128842
2383.000000	1.114055
2384.000000	1.117330
2385.000000	1.130719
2386.000000	1.133574
2387.000000	1.133728
2388.000000	1.133815
2389.000000	1.124455
2390.000000	1.135398
2391.000000	1.138456
2392.000000	1.137116
2393.000000	1.133798
2394.000000	1.126871
2395.000000	1.126479
2396.000000	1.139238
2397.000000	1.146306
2398.000000	1.132287
2399.000000	1.128290
2400.000000	1.132383
2401.000000	1.130719
2402.000000	1.137906
2403.000000	1.141968
2404.000000	1.137256
2405.000000	1.130433
2406.000000	1.137882
2407.000000	1.138677
2408.000000	1.143192
2409.000000	1.130649
2410.000000	1.136609
2411.000000	1.143007
2412.000000	1.131056
2413.000000	1.125980
2414.000000	1.135489
2415.000000	1.136551
2416.000000	1.141604
2417.000000	1.139249
2418.000000	1.135351
2419.000000	1.132205
2420.000000	1.130326
2421.000000	1.130822
2422.000000	1.128944
2423.000000	1.125334
2424.000000	1.117437
2425.000000	1.127458
2426.000000	1.131649
2427.000000	1.132863
2428.000000	1.137482
2429.000000	1.135644
2430.000000	1.152313
2431.000000	1.146907
2432.000000	1.146378
2433.000000	1.142303
2434.000000	1.137929
2435.000000	1.119450
2436.000000	1.118829
2437.000000	1.101622
2438.000000	1.097150
2439.000000	1.090155
2440.000000	1.077410
2441.000000	1.074228
2442.000000	1.067670
2443.000000	1.063733
2444.000000	1.040933
2445.000000	1.028761
2446.000000	1.026918
2447.000000	1.024166
2448.000000	1.002030
2449.000000	0.997712
2450.000000	0.986505
2451.000000	0.967546
2452.000000	0.970899
2453.000000	0.961338
2454.000000	0.941405
2455.000000	0.940911
2456.000000	0.918284
2457.000000	0.922572
2458.000000	0.906751
2459.000000	0.896066
2460.000000	0.902262
2461.000000	0.890867
2462.000000	0.870847
2463.000000	0.883354
2464.000000	0.893425
2465.000000	0.884194
2466.000000	0.864624
2467.000000	0.867220
2468.000000	0.879217
2469.000000	0.857277
2470.000000	0.857823
2471.000000	0.869406
2472.000000	0.851874
2473.000000	0.876573
2474.000000	0.883323
2475.000000	0.848879
2476.000000	0.848457
2477.000000	0.843341
2478.000000	0.878990
2479.000000	0.883029
2480.000000	0.836530
2481.000000	0.836203
2482.000000	0.847714
2483.000000	0.818943
2484.000000	0.804928
2485.000000	0.887112
2486.000000	0.855809
2487.000000	0.848687
2488.000000	0.853713
2489.000000	0.872369
2490.000000	0.853528
2491.000000	0.906526
2492.000000	0.863219
2493.000000	0.875478
2494.000000	0.885173
2495.000000	0.845259
2496.000000	0.886185
2497.000000	0.848979
2498.000000	0.880731
2499.000000	0.840605
2500.000000	0.918334
