PE UV       SUBTECH     SPECTRUM    ASCII       PEDS        4.00        
   -1
CICIMAUCR0015-3.Sample.ASC
24/04/12
11:43:14.00
24/04/12
11:43:14.00
Vinicio Soto Monge
C. resplendens
250,000000
1
Lambda 1050
1050L1511233
PerkinElmer UV WinLab 6.3.2.0749 / 2.02.05 Lambda 900 UV/VIS/NIR, Aug  7 2015 09:38:08

0
0
3350/servo 860,8/2
0
0
UV/VIS
1
1
1
DoubleDePol,CommonBeamDepol,RBeamAtt,SBeamAtt,60mm sphere, WB InGaAs Detector
0
0
0
0
Program
Program
3350/servo 860,8/2
3350/0,2 860,8/0,2
3350/0,2 860,8/0,2
0
15.00
 
 
 
0
 
860,8
319,2
860,8
Front
100
on
S:100 R:100
0
0
0
0
 
0
 
 
 
0
 
 
0
0
0
0
0
 
 
 
 
0
0


0
0
#HDR
-1
-1
#GR
nm
%R
1.0
0.0
2500,000000
-1,000000
2251
8
93,394800
5,535300
#DATA
250.000000	0.425450
251.000000	0.442858
252.000000	0.439870
253.000000	0.429617
254.000000	0.406799
255.000000	0.428635
256.000000	0.410874
257.000000	0.391952
258.000000	0.429704
259.000000	0.425529
260.000000	0.398879
261.000000	0.387711
262.000000	0.365967
263.000000	0.404075
264.000000	0.411443
265.000000	0.380608
266.000000	0.385818
267.000000	0.361674
268.000000	0.390686
269.000000	0.395922
270.000000	0.408466
271.000000	0.327931
272.000000	0.367761
273.000000	0.358139
274.000000	0.388497
275.000000	0.363173
276.000000	0.405957
277.000000	0.360602
278.000000	0.371038
279.000000	0.371151
280.000000	0.359467
281.000000	0.337484
282.000000	0.399673
283.000000	0.335600
284.000000	0.359597
285.000000	0.344137
286.000000	0.345627
287.000000	0.354472
288.000000	0.310162
289.000000	0.267826
290.000000	0.330759
291.000000	0.311324
292.000000	0.323221
293.000000	0.300578
294.000000	0.290671
295.000000	0.329077
296.000000	0.295443
297.000000	0.289825
298.000000	0.282252
299.000000	0.315532
300.000000	0.295745
301.000000	0.278920
302.000000	0.283095
303.000000	0.311224
304.000000	0.319685
305.000000	0.291367
306.000000	0.285352
307.000000	0.283881
308.000000	0.322178
309.000000	0.277605
310.000000	0.285648
311.000000	0.269619
312.000000	0.257916
313.000000	0.271325
314.000000	0.291545
315.000000	0.276108
316.000000	0.268124
317.000000	0.426203
318.000000	0.430215
319.000000	0.358999
320.000000	0.220661
321.000000	0.203342
322.000000	0.291024
323.000000	0.303529
324.000000	0.415228
325.000000	0.229444
326.000000	0.347640
327.000000	0.236808
328.000000	0.400153
329.000000	0.215160
330.000000	0.326198
331.000000	0.238101
332.000000	0.127123
333.000000	0.270027
334.000000	0.227734
335.000000	0.216651
336.000000	0.204591
337.000000	0.188588
338.000000	0.286528
339.000000	0.246205
340.000000	0.224671
341.000000	0.292616
342.000000	0.389794
343.000000	0.264268
344.000000	0.283996
345.000000	0.248972
346.000000	0.307201
347.000000	0.348371
348.000000	0.296576
349.000000	0.259647
350.000000	0.303738
351.000000	0.244456
352.000000	0.226767
353.000000	0.191761
354.000000	0.212986
355.000000	0.199310
356.000000	0.177761
357.000000	0.237527
358.000000	0.198032
359.000000	0.156871
360.000000	0.164204
361.000000	0.167709
362.000000	0.153406
363.000000	0.143007
364.000000	0.127695
365.000000	0.094218
366.000000	0.118509
367.000000	0.078930
368.000000	0.060453
369.000000	0.101006
370.000000	0.058131
371.000000	0.132225
372.000000	0.174655
373.000000	0.209301
374.000000	0.143288
375.000000	0.277301
376.000000	0.200060
377.000000	0.098836
378.000000	0.120106
379.000000	0.127513
380.000000	0.141365
381.000000	0.148424
382.000000	0.161307
383.000000	0.162923
384.000000	0.169810
385.000000	0.157100
386.000000	0.148948
387.000000	0.127375
388.000000	0.106281
389.000000	0.088237
390.000000	0.074620
391.000000	0.056273
392.000000	0.073584
393.000000	0.112380
394.000000	0.161235
395.000000	0.226126
396.000000	0.294912
397.000000	0.352564
398.000000	0.427208
399.000000	0.522631
400.000000	0.605810
401.000000	0.685951
402.000000	0.774493
403.000000	0.870075
404.000000	0.964047
405.000000	1.066523
406.000000	1.171991
407.000000	1.265417
408.000000	1.356717
409.000000	1.460937
410.000000	1.557394
411.000000	1.657474
412.000000	1.760936
413.000000	1.853419
414.000000	1.948270
415.000000	2.047835
416.000000	2.148059
417.000000	2.239430
418.000000	2.322633
419.000000	2.405153
420.000000	2.497679
421.000000	2.585998
422.000000	2.660996
423.000000	2.730109
424.000000	2.801752
425.000000	2.888162
426.000000	2.962879
427.000000	3.020903
428.000000	3.079557
429.000000	3.121359
430.000000	3.170110
431.000000	3.216260
432.000000	3.262267
433.000000	3.295786
434.000000	3.306517
435.000000	3.316923
436.000000	3.314763
437.000000	3.306810
438.000000	3.293796
439.000000	3.259018
440.000000	3.217669
441.000000	3.168760
442.000000	3.104607
443.000000	3.032499
444.000000	2.937832
445.000000	2.813441
446.000000	2.688181
447.000000	2.571636
448.000000	2.440346
449.000000	2.292696
450.000000	2.135263
451.000000	1.967286
452.000000	1.797532
453.000000	1.623367
454.000000	1.444594
455.000000	1.287377
456.000000	1.145782
457.000000	1.001586
458.000000	0.861808
459.000000	0.747063
460.000000	0.668844
461.000000	0.606794
462.000000	0.553545
463.000000	0.534777
464.000000	0.527602
465.000000	0.557460
466.000000	0.610759
467.000000	0.680350
468.000000	0.749353
469.000000	0.832593
470.000000	0.929249
471.000000	1.036440
472.000000	1.144279
473.000000	1.254642
474.000000	1.357334
475.000000	1.455790
476.000000	1.540709
477.000000	1.620119
478.000000	1.687615
479.000000	1.739506
480.000000	1.782855
481.000000	1.808254
482.000000	1.828239
483.000000	1.826445
484.000000	1.801307
485.000000	1.750987
486.000000	1.676176
487.000000	1.593441
488.000000	1.511751
489.000000	1.414902
490.000000	1.332278
491.000000	1.238837
492.000000	1.151545
493.000000	1.118585
494.000000	1.137418
495.000000	1.190535
496.000000	1.281853
497.000000	1.438900
498.000000	1.609469
499.000000	1.799669
500.000000	2.018851
501.000000	2.234828
502.000000	2.419816
503.000000	2.580143
504.000000	2.727764
505.000000	2.841794
506.000000	2.905300
507.000000	2.953096
508.000000	2.973022
509.000000	2.931406
510.000000	2.861640
511.000000	2.782173
512.000000	2.664641
513.000000	2.530008
514.000000	2.377698
515.000000	2.207181
516.000000	2.034681
517.000000	1.874343
518.000000	1.746118
519.000000	1.641359
520.000000	1.568779
521.000000	1.553924
522.000000	1.624838
523.000000	1.712037
524.000000	1.833165
525.000000	1.985562
526.000000	2.176431
527.000000	2.345100
528.000000	2.540818
529.000000	2.699918
530.000000	2.901744
531.000000	3.102222
532.000000	3.290490
533.000000	3.498162
534.000000	3.686236
535.000000	3.864349
536.000000	4.038559
537.000000	4.208658
538.000000	4.398073
539.000000	4.557865
540.000000	4.729961
541.000000	4.900484
542.000000	5.046503
543.000000	5.248629
544.000000	5.415082
545.000000	5.594583
546.000000	5.778830
547.000000	5.976958
548.000000	6.142286
549.000000	6.328686
550.000000	6.509675
551.000000	6.670414
552.000000	6.849654
553.000000	6.967616
554.000000	7.114488
555.000000	7.210014
556.000000	7.332884
557.000000	7.456691
558.000000	7.542369
559.000000	7.651891
560.000000	7.877790
561.000000	7.971444
562.000000	8.090373
563.000000	8.183906
564.000000	8.296989
565.000000	8.405691
566.000000	8.509038
567.000000	8.623527
568.000000	8.764491
569.000000	8.820276
570.000000	8.964323
571.000000	9.077836
572.000000	9.221688
573.000000	9.297565
574.000000	9.415069
575.000000	9.538909
576.000000	9.658300
577.000000	9.773589
578.000000	9.919686
579.000000	10.119123
580.000000	10.201969
581.000000	10.335835
582.000000	10.489051
583.000000	10.631254
584.000000	10.777892
585.000000	10.956940
586.000000	11.085381
587.000000	11.208532
588.000000	11.364319
589.000000	11.518130
590.000000	11.652867
591.000000	11.747503
592.000000	11.883260
593.000000	12.025220
594.000000	12.143599
595.000000	12.214048
596.000000	12.282174
597.000000	12.371150
598.000000	12.411089
599.000000	12.465813
600.000000	12.486009
601.000000	12.509555
602.000000	12.452690
603.000000	12.450971
604.000000	12.426959
605.000000	12.425412
606.000000	12.350905
607.000000	12.304802
608.000000	12.278109
609.000000	12.222510
610.000000	12.152641
611.000000	12.064960
612.000000	11.987043
613.000000	11.867022
614.000000	11.762714
615.000000	11.632823
616.000000	11.426079
617.000000	11.225814
618.000000	10.980104
619.000000	10.723547
620.000000	10.379170
621.000000	10.047472
622.000000	9.664508
623.000000	9.275459
624.000000	8.815123
625.000000	8.367860
626.000000	7.912060
627.000000	7.430090
628.000000	6.931929
629.000000	6.497797
630.000000	6.024265
631.000000	5.544784
632.000000	5.115011
633.000000	4.685278
634.000000	4.300601
635.000000	3.925970
636.000000	3.577533
637.000000	3.242747
638.000000	2.914305
639.000000	2.681688
640.000000	2.434643
641.000000	2.242797
642.000000	2.094171
643.000000	1.967448
644.000000	1.912429
645.000000	1.866762
646.000000	1.853252
647.000000	1.864852
648.000000	1.925700
649.000000	1.996500
650.000000	2.110538
651.000000	2.257150
652.000000	2.392340
653.000000	2.600754
654.000000	2.786388
655.000000	3.000219
656.000000	3.201491
657.000000	3.456024
658.000000	3.670586
659.000000	3.857101
660.000000	4.049530
661.000000	4.218948
662.000000	4.409152
663.000000	4.546877
664.000000	4.701635
665.000000	4.810216
666.000000	4.920068
667.000000	4.979305
668.000000	5.073284
669.000000	5.127677
670.000000	5.201882
671.000000	5.288559
672.000000	5.339861
673.000000	5.377168
674.000000	5.411044
675.000000	5.432905
676.000000	5.448977
677.000000	5.455886
678.000000	5.493023
679.000000	5.465172
680.000000	5.440280
681.000000	5.399142
682.000000	5.364670
683.000000	5.323828
684.000000	5.254333
685.000000	5.237128
686.000000	5.211043
687.000000	5.171035
688.000000	5.117420
689.000000	5.074533
690.000000	5.021466
691.000000	4.974341
692.000000	4.904598
693.000000	4.818539
694.000000	4.749551
695.000000	4.737444
696.000000	4.648499
697.000000	4.557920
698.000000	4.504279
699.000000	4.378104
700.000000	4.253587
701.000000	4.159754
702.000000	4.060154
703.000000	3.985840
704.000000	3.909946
705.000000	3.811118
706.000000	3.731901
707.000000	3.682751
708.000000	3.629356
709.000000	3.551224
710.000000	3.488529
711.000000	3.461704
712.000000	3.443922
713.000000	3.412405
714.000000	3.424304
715.000000	3.419456
716.000000	3.373437
717.000000	3.385697
718.000000	3.418006
719.000000	3.408419
720.000000	3.453882
721.000000	3.495802
722.000000	3.528300
723.000000	3.600355
724.000000	3.669962
725.000000	3.794174
726.000000	3.945182
727.000000	4.057155
728.000000	4.138649
729.000000	4.207812
730.000000	4.351981
731.000000	4.469920
732.000000	4.542723
733.000000	4.675225
734.000000	4.779292
735.000000	4.848901
736.000000	4.950641
737.000000	5.058393
738.000000	5.159713
739.000000	5.258776
740.000000	5.311450
741.000000	5.373039
742.000000	5.515445
743.000000	5.667036
744.000000	5.807318
745.000000	5.920841
746.000000	6.009987
747.000000	6.102716
748.000000	6.209769
749.000000	6.305239
750.000000	6.411604
751.000000	6.539971
752.000000	6.688007
753.000000	6.761269
754.000000	6.806016
755.000000	6.887398
756.000000	6.935334
757.000000	7.005008
758.000000	7.098545
759.000000	7.099835
760.000000	7.122356
761.000000	7.204561
762.000000	7.252034
763.000000	7.276837
764.000000	7.318503
765.000000	7.350893
766.000000	7.302636
767.000000	7.320227
768.000000	7.340721
769.000000	7.296282
770.000000	7.255627
771.000000	7.258973
772.000000	7.296275
773.000000	7.266903
774.000000	7.217403
775.000000	7.163923
776.000000	7.144813
777.000000	7.137381
778.000000	7.125975
779.000000	7.182870
780.000000	7.232846
781.000000	7.286288
782.000000	7.333002
783.000000	7.372123
784.000000	7.444989
785.000000	7.511496
786.000000	7.613680
787.000000	7.660769
788.000000	7.681836
789.000000	7.760339
790.000000	7.868769
791.000000	7.941321
792.000000	8.005053
793.000000	8.064924
794.000000	8.141534
795.000000	8.270882
796.000000	8.336109
797.000000	8.398288
798.000000	8.477031
799.000000	8.533104
800.000000	8.509987
801.000000	8.689424
802.000000	8.729428
803.000000	8.734783
804.000000	8.833678
805.000000	8.885329
806.000000	8.887704
807.000000	8.770109
808.000000	8.767359
809.000000	8.769653
810.000000	8.723372
811.000000	8.786064
812.000000	8.677079
813.000000	8.601829
814.000000	8.733645
815.000000	8.747107
816.000000	8.594463
817.000000	8.636541
818.000000	8.764079
819.000000	8.784268
820.000000	8.741293
821.000000	8.684999
822.000000	8.748537
823.000000	8.828730
824.000000	8.754384
825.000000	8.717466
826.000000	8.814471
827.000000	8.930077
828.000000	8.846555
829.000000	8.890684
830.000000	8.982116
831.000000	9.002316
832.000000	9.107416
833.000000	9.120170
834.000000	9.036032
835.000000	8.965116
836.000000	8.960802
837.000000	8.915880
838.000000	8.956894
839.000000	8.875965
840.000000	9.009684
841.000000	8.802031
842.000000	8.709071
843.000000	8.728561
844.000000	8.611394
845.000000	8.586963
846.000000	8.290606
847.000000	8.221602
848.000000	8.138700
849.000000	8.155369
850.000000	7.937816
851.000000	7.763996
852.000000	7.714348
853.000000	7.553820
854.000000	7.409006
855.000000	7.432544
856.000000	7.163439
857.000000	7.454165
858.000000	7.348247
859.000000	7.737052
860.000000	7.828190
861.000000	7.906687
862.000000	7.919761
863.000000	7.936395
864.000000	7.929434
865.000000	7.907459
866.000000	7.864920
867.000000	7.832390
868.000000	7.736077
869.000000	7.690064
870.000000	7.577966
871.000000	7.529323
872.000000	7.433535
873.000000	7.306619
874.000000	7.210251
875.000000	7.030719
876.000000	6.890142
877.000000	6.796268
878.000000	6.693465
879.000000	6.532863
880.000000	6.392998
881.000000	6.250113
882.000000	6.053381
883.000000	5.894391
884.000000	5.771516
885.000000	5.613743
886.000000	5.475537
887.000000	5.318462
888.000000	5.120964
889.000000	4.981331
890.000000	4.823264
891.000000	4.678143
892.000000	4.520961
893.000000	4.381216
894.000000	4.244966
895.000000	4.115661
896.000000	3.944802
897.000000	3.821027
898.000000	3.677050
899.000000	3.544057
900.000000	3.435359
901.000000	3.313085
902.000000	3.204468
903.000000	3.103791
904.000000	2.979778
905.000000	2.875606
906.000000	2.751205
907.000000	2.719983
908.000000	2.617321
909.000000	2.493271
910.000000	2.391190
911.000000	2.294878
912.000000	2.277621
913.000000	2.196077
914.000000	2.128212
915.000000	2.049895
916.000000	1.965916
917.000000	1.901860
918.000000	1.833082
919.000000	1.762346
920.000000	1.696292
921.000000	1.625824
922.000000	1.589676
923.000000	1.537708
924.000000	1.480138
925.000000	1.422705
926.000000	1.365521
927.000000	1.326616
928.000000	1.293576
929.000000	1.247182
930.000000	1.199372
931.000000	1.184820
932.000000	1.140803
933.000000	1.108788
934.000000	1.091820
935.000000	1.070651
936.000000	1.029986
937.000000	1.006306
938.000000	0.981789
939.000000	0.953287
940.000000	0.925791
941.000000	0.918737
942.000000	0.915435
943.000000	0.883684
944.000000	0.887797
945.000000	0.874723
946.000000	0.870718
947.000000	0.871715
948.000000	0.885791
949.000000	0.877103
950.000000	0.872377
951.000000	0.896585
952.000000	0.891108
953.000000	0.908101
954.000000	0.916503
955.000000	0.925258
956.000000	0.939419
957.000000	0.967318
958.000000	0.980296
959.000000	0.995724
960.000000	1.007992
961.000000	1.027022
962.000000	1.058907
963.000000	1.078954
964.000000	1.087518
965.000000	1.100816
966.000000	1.122439
967.000000	1.146401
968.000000	1.174446
969.000000	1.186570
970.000000	1.215345
971.000000	1.234692
972.000000	1.263603
973.000000	1.273255
974.000000	1.300462
975.000000	1.320906
976.000000	1.353827
977.000000	1.364168
978.000000	1.381601
979.000000	1.402619
980.000000	1.436052
981.000000	1.449635
982.000000	1.475413
983.000000	1.514390
984.000000	1.538269
985.000000	1.551934
986.000000	1.582416
987.000000	1.602393
988.000000	1.622359
989.000000	1.647586
990.000000	1.665743
991.000000	1.693362
992.000000	1.709368
993.000000	1.722430
994.000000	1.760837
995.000000	1.778281
996.000000	1.800974
997.000000	1.833792
998.000000	1.858053
999.000000	1.874327
1000.000000	1.890716
1001.000000	1.914943
1002.000000	1.944430
1003.000000	1.976789
1004.000000	2.002455
1005.000000	2.012065
1006.000000	2.035414
1007.000000	2.059079
1008.000000	2.079674
1009.000000	2.099684
1010.000000	2.121247
1011.000000	2.137939
1012.000000	2.155882
1013.000000	2.173240
1014.000000	2.197929
1015.000000	2.222157
1016.000000	2.237237
1017.000000	2.251208
1018.000000	2.262749
1019.000000	2.273669
1020.000000	2.284835
1021.000000	2.296208
1022.000000	2.318377
1023.000000	2.331409
1024.000000	2.335592
1025.000000	2.352732
1026.000000	2.373262
1027.000000	2.387347
1028.000000	2.407490
1029.000000	2.429228
1030.000000	2.432019
1031.000000	2.443005
1032.000000	2.465573
1033.000000	2.482541
1034.000000	2.501738
1035.000000	2.510092
1036.000000	2.517197
1037.000000	2.534438
1038.000000	2.553811
1039.000000	2.581127
1040.000000	2.597682
1041.000000	2.611677
1042.000000	2.627970
1043.000000	2.645516
1044.000000	2.666336
1045.000000	2.680473
1046.000000	2.694081
1047.000000	2.708949
1048.000000	2.725807
1049.000000	2.746212
1050.000000	2.763672
1051.000000	2.780860
1052.000000	2.787672
1053.000000	2.788300
1054.000000	2.809142
1055.000000	2.830370
1056.000000	2.837489
1057.000000	2.841608
1058.000000	2.847409
1059.000000	2.856744
1060.000000	2.859857
1061.000000	2.873512
1062.000000	2.874330
1063.000000	2.874389
1064.000000	2.886637
1065.000000	2.886068
1066.000000	2.891585
1067.000000	2.905529
1068.000000	2.906944
1069.000000	2.911919
1070.000000	2.928079
1071.000000	2.928354
1072.000000	2.943486
1073.000000	2.947253
1074.000000	2.944634
1075.000000	2.954340
1076.000000	2.962565
1077.000000	2.978540
1078.000000	2.989982
1079.000000	2.989892
1080.000000	3.005265
1081.000000	3.012963
1082.000000	3.026279
1083.000000	3.037624
1084.000000	3.044332
1085.000000	3.050893
1086.000000	3.063910
1087.000000	3.069445
1088.000000	3.082991
1089.000000	3.091886
1090.000000	3.111321
1091.000000	3.130217
1092.000000	3.134521
1093.000000	3.149214
1094.000000	3.159160
1095.000000	3.179844
1096.000000	3.196518
1097.000000	3.213913
1098.000000	3.222037
1099.000000	3.246032
1100.000000	3.256662
1101.000000	3.269007
1102.000000	3.280155
1103.000000	3.294623
1104.000000	3.313199
1105.000000	3.320739
1106.000000	3.334635
1107.000000	3.337878
1108.000000	3.374801
1109.000000	3.377812
1110.000000	3.390326
1111.000000	3.397059
1112.000000	3.417509
1113.000000	3.423965
1114.000000	3.441790
1115.000000	3.454434
1116.000000	3.460355
1117.000000	3.475358
1118.000000	3.473124
1119.000000	3.476046
1120.000000	3.487591
1121.000000	3.497977
1122.000000	3.509283
1123.000000	3.510082
1124.000000	3.516655
1125.000000	3.525108
1126.000000	3.537352
1127.000000	3.544785
1128.000000	3.547468
1129.000000	3.553711
1130.000000	3.573264
1131.000000	3.594402
1132.000000	3.608071
1133.000000	3.621849
1134.000000	3.632142
1135.000000	3.638381
1136.000000	3.656824
1137.000000	3.680831
1138.000000	3.698206
1139.000000	3.719628
1140.000000	3.738523
1141.000000	3.748565
1142.000000	3.775179
1143.000000	3.791580
1144.000000	3.803792
1145.000000	3.829567
1146.000000	3.847659
1147.000000	3.854325
1148.000000	3.861206
1149.000000	3.869081
1150.000000	3.865975
1151.000000	3.867716
1152.000000	3.876630
1153.000000	3.886063
1154.000000	3.898239
1155.000000	3.916432
1156.000000	3.931611
1157.000000	3.935635
1158.000000	3.946348
1159.000000	3.970841
1160.000000	3.987847
1161.000000	3.995925
1162.000000	4.027725
1163.000000	4.051948
1164.000000	4.065206
1165.000000	4.087483
1166.000000	4.116784
1167.000000	4.136840
1168.000000	4.171190
1169.000000	4.184663
1170.000000	4.211228
1171.000000	4.230010
1172.000000	4.235610
1173.000000	4.247185
1174.000000	4.270935
1175.000000	4.299375
1176.000000	4.292248
1177.000000	4.304028
1178.000000	4.319881
1179.000000	4.325759
1180.000000	4.344918
1181.000000	4.359384
1182.000000	4.372967
1183.000000	4.386240
1184.000000	4.413585
1185.000000	4.410879
1186.000000	4.434259
1187.000000	4.442226
1188.000000	4.444512
1189.000000	4.450314
1190.000000	4.446850
1191.000000	4.451990
1192.000000	4.428370
1193.000000	4.417493
1194.000000	4.407356
1195.000000	4.393044
1196.000000	4.390914
1197.000000	4.382265
1198.000000	4.374887
1199.000000	4.378939
1200.000000	4.388483
1201.000000	4.378401
1202.000000	4.386593
1203.000000	4.388693
1204.000000	4.394272
1205.000000	4.403400
1206.000000	4.415798
1207.000000	4.424532
1208.000000	4.424901
1209.000000	4.429390
1210.000000	4.442834
1211.000000	4.447752
1212.000000	4.460782
1213.000000	4.461038
1214.000000	4.478496
1215.000000	4.486962
1216.000000	4.480307
1217.000000	4.498960
1218.000000	4.505821
1219.000000	4.521839
1220.000000	4.530783
1221.000000	4.520585
1222.000000	4.520971
1223.000000	4.533880
1224.000000	4.526385
1225.000000	4.532967
1226.000000	4.545456
1227.000000	4.530553
1228.000000	4.529107
1229.000000	4.539664
1230.000000	4.534782
1231.000000	4.534299
1232.000000	4.525167
1233.000000	4.537457
1234.000000	4.527861
1235.000000	4.518173
1236.000000	4.517324
1237.000000	4.509779
1238.000000	4.505039
1239.000000	4.501532
1240.000000	4.513024
1241.000000	4.499021
1242.000000	4.491085
1243.000000	4.487795
1244.000000	4.489315
1245.000000	4.491536
1246.000000	4.476222
1247.000000	4.476154
1248.000000	4.478406
1249.000000	4.459778
1250.000000	4.457577
1251.000000	4.459236
1252.000000	4.456608
1253.000000	4.449612
1254.000000	4.448195
1255.000000	4.438501
1256.000000	4.439850
1257.000000	4.435935
1258.000000	4.443746
1259.000000	4.437954
1260.000000	4.436757
1261.000000	4.429193
1262.000000	4.432085
1263.000000	4.444140
1264.000000	4.435771
1265.000000	4.437104
1266.000000	4.435692
1267.000000	4.429084
1268.000000	4.440891
1269.000000	4.448169
1270.000000	4.442287
1271.000000	4.452333
1272.000000	4.462919
1273.000000	4.466586
1274.000000	4.472213
1275.000000	4.484519
1276.000000	4.479660
1277.000000	4.470868
1278.000000	4.477734
1279.000000	4.488696
1280.000000	4.490073
1281.000000	4.496601
1282.000000	4.506564
1283.000000	4.517072
1284.000000	4.521661
1285.000000	4.524390
1286.000000	4.532611
1287.000000	4.533422
1288.000000	4.534905
1289.000000	4.534407
1290.000000	4.548146
1291.000000	4.562267
1292.000000	4.565638
1293.000000	4.571581
1294.000000	4.579166
1295.000000	4.586581
1296.000000	4.594563
1297.000000	4.601006
1298.000000	4.606811
1299.000000	4.605799
1300.000000	4.616551
1301.000000	4.624869
1302.000000	4.617511
1303.000000	4.626800
1304.000000	4.635479
1305.000000	4.636632
1306.000000	4.636384
1307.000000	4.649003
1308.000000	4.661267
1309.000000	4.665822
1310.000000	4.668636
1311.000000	4.661042
1312.000000	4.651699
1313.000000	4.647685
1314.000000	4.644949
1315.000000	4.648881
1316.000000	4.652071
1317.000000	4.642593
1318.000000	4.635249
1319.000000	4.631643
1320.000000	4.628875
1321.000000	4.625209
1322.000000	4.625771
1323.000000	4.626436
1324.000000	4.613119
1325.000000	4.610209
1326.000000	4.596673
1327.000000	4.589459
1328.000000	4.580444
1329.000000	4.580168
1330.000000	4.569259
1331.000000	4.559099
1332.000000	4.564409
1333.000000	4.551517
1334.000000	4.535466
1335.000000	4.531490
1336.000000	4.534014
1337.000000	4.530095
1338.000000	4.513870
1339.000000	4.514933
1340.000000	4.525391
1341.000000	4.518085
1342.000000	4.508174
1343.000000	4.511795
1344.000000	4.501867
1345.000000	4.481234
1346.000000	4.516736
1347.000000	4.515571
1348.000000	4.505802
1349.000000	4.507262
1350.000000	4.508101
1351.000000	4.500355
1352.000000	4.504125
1353.000000	4.510399
1354.000000	4.545923
1355.000000	4.552093
1356.000000	4.531518
1357.000000	4.540957
1358.000000	4.541124
1359.000000	4.564897
1360.000000	4.568176
1361.000000	4.566464
1362.000000	4.541747
1363.000000	4.538852
1364.000000	4.557218
1365.000000	4.560759
1366.000000	4.545626
1367.000000	4.558179
1368.000000	4.548696
1369.000000	4.534073
1370.000000	4.543776
1371.000000	4.542656
1372.000000	4.524435
1373.000000	4.536863
1374.000000	4.548930
1375.000000	4.542452
1376.000000	4.536605
1377.000000	4.542216
1378.000000	4.547070
1379.000000	4.542018
1380.000000	4.529001
1381.000000	4.512046
1382.000000	4.468391
1383.000000	4.434263
1384.000000	4.401943
1385.000000	4.374979
1386.000000	4.361699
1387.000000	4.359115
1388.000000	4.333090
1389.000000	4.290327
1390.000000	4.278874
1391.000000	4.279862
1392.000000	4.246432
1393.000000	4.205914
1394.000000	4.202915
1395.000000	4.171181
1396.000000	4.100495
1397.000000	4.061113
1398.000000	4.074359
1399.000000	4.071137
1400.000000	4.019575
1401.000000	3.924656
1402.000000	3.870685
1403.000000	3.864645
1404.000000	3.841609
1405.000000	3.794600
1406.000000	3.749091
1407.000000	3.718673
1408.000000	3.668765
1409.000000	3.633008
1410.000000	3.564102
1411.000000	3.522094
1412.000000	3.520552
1413.000000	3.500152
1414.000000	3.464616
1415.000000	3.394237
1416.000000	3.357416
1417.000000	3.347950
1418.000000	3.331266
1419.000000	3.286948
1420.000000	3.247202
1421.000000	3.216032
1422.000000	3.204729
1423.000000	3.175597
1424.000000	3.121845
1425.000000	3.107733
1426.000000	3.077361
1427.000000	3.060884
1428.000000	3.049247
1429.000000	3.016074
1430.000000	3.011107
1431.000000	2.996909
1432.000000	2.984963
1433.000000	2.960447
1434.000000	2.935441
1435.000000	2.912651
1436.000000	2.907155
1437.000000	2.892386
1438.000000	2.878381
1439.000000	2.875471
1440.000000	2.864459
1441.000000	2.857549
1442.000000	2.856526
1443.000000	2.835468
1444.000000	2.831706
1445.000000	2.838005
1446.000000	2.796794
1447.000000	2.814315
1448.000000	2.811052
1449.000000	2.797600
1450.000000	2.805025
1451.000000	2.789282
1452.000000	2.771537
1453.000000	2.767464
1454.000000	2.751829
1455.000000	2.757193
1456.000000	2.745027
1457.000000	2.751015
1458.000000	2.752983
1459.000000	2.754828
1460.000000	2.739977
1461.000000	2.742671
1462.000000	2.725012
1463.000000	2.713864
1464.000000	2.715283
1465.000000	2.712792
1466.000000	2.693274
1467.000000	2.692839
1468.000000	2.698097
1469.000000	2.684120
1470.000000	2.687841
1471.000000	2.686856
1472.000000	2.670141
1473.000000	2.660340
1474.000000	2.657746
1475.000000	2.654958
1476.000000	2.649932
1477.000000	2.634611
1478.000000	2.623628
1479.000000	2.610586
1480.000000	2.612487
1481.000000	2.595370
1482.000000	2.582195
1483.000000	2.581855
1484.000000	2.581035
1485.000000	2.568089
1486.000000	2.564839
1487.000000	2.559999
1488.000000	2.547095
1489.000000	2.543256
1490.000000	2.549866
1491.000000	2.538323
1492.000000	2.520792
1493.000000	2.512578
1494.000000	2.503609
1495.000000	2.508825
1496.000000	2.499431
1497.000000	2.504594
1498.000000	2.507594
1499.000000	2.496794
1500.000000	2.497348
1501.000000	2.501676
1502.000000	2.500046
1503.000000	2.502091
1504.000000	2.502972
1505.000000	2.508831
1506.000000	2.512895
1507.000000	2.515378
1508.000000	2.522863
1509.000000	2.521886
1510.000000	2.519892
1511.000000	2.525192
1512.000000	2.535390
1513.000000	2.538232
1514.000000	2.549566
1515.000000	2.549587
1516.000000	2.556991
1517.000000	2.568683
1518.000000	2.585355
1519.000000	2.582398
1520.000000	2.591795
1521.000000	2.596245
1522.000000	2.601122
1523.000000	2.610715
1524.000000	2.626310
1525.000000	2.633736
1526.000000	2.637016
1527.000000	2.645427
1528.000000	2.651969
1529.000000	2.663987
1530.000000	2.675035
1531.000000	2.682691
1532.000000	2.695494
1533.000000	2.697069
1534.000000	2.707012
1535.000000	2.717942
1536.000000	2.717987
1537.000000	2.731272
1538.000000	2.755139
1539.000000	2.758779
1540.000000	2.756961
1541.000000	2.764807
1542.000000	2.778636
1543.000000	2.786625
1544.000000	2.791626
1545.000000	2.795026
1546.000000	2.793019
1547.000000	2.808125
1548.000000	2.822001
1549.000000	2.822326
1550.000000	2.830606
1551.000000	2.837864
1552.000000	2.844275
1553.000000	2.848406
1554.000000	2.856855
1555.000000	2.871753
1556.000000	2.873978
1557.000000	2.865993
1558.000000	2.869153
1559.000000	2.864797
1560.000000	2.865525
1561.000000	2.870224
1562.000000	2.873637
1563.000000	2.876591
1564.000000	2.868353
1565.000000	2.857638
1566.000000	2.859843
1567.000000	2.861769
1568.000000	2.865313
1569.000000	2.863997
1570.000000	2.850826
1571.000000	2.851843
1572.000000	2.847905
1573.000000	2.832954
1574.000000	2.834408
1575.000000	2.841627
1576.000000	2.843888
1577.000000	2.841815
1578.000000	2.835087
1579.000000	2.835415
1580.000000	2.841611
1581.000000	2.842446
1582.000000	2.844211
1583.000000	2.847248
1584.000000	2.838345
1585.000000	2.847205
1586.000000	2.856347
1587.000000	2.847170
1588.000000	2.838098
1589.000000	2.836761
1590.000000	2.839402
1591.000000	2.846901
1592.000000	2.847354
1593.000000	2.849123
1594.000000	2.852887
1595.000000	2.851021
1596.000000	2.854021
1597.000000	2.867472
1598.000000	2.869923
1599.000000	2.874795
1600.000000	2.882119
1601.000000	2.882188
1602.000000	2.886679
1603.000000	2.895841
1604.000000	2.888567
1605.000000	2.894665
1606.000000	2.901633
1607.000000	2.913488
1608.000000	2.914821
1609.000000	2.917524
1610.000000	2.925116
1611.000000	2.930598
1612.000000	2.934242
1613.000000	2.938850
1614.000000	2.956485
1615.000000	2.959819
1616.000000	2.958719
1617.000000	2.958191
1618.000000	2.963597
1619.000000	2.983873
1620.000000	2.982768
1621.000000	2.990095
1622.000000	2.994282
1623.000000	3.004053
1624.000000	3.014392
1625.000000	3.036372
1626.000000	3.033252
1627.000000	3.031992
1628.000000	3.043262
1629.000000	3.047132
1630.000000	3.071172
1631.000000	3.092407
1632.000000	3.098431
1633.000000	3.100960
1634.000000	3.102608
1635.000000	3.106173
1636.000000	3.131095
1637.000000	3.133828
1638.000000	3.150794
1639.000000	3.153986
1640.000000	3.164536
1641.000000	3.173091
1642.000000	3.182688
1643.000000	3.194756
1644.000000	3.193517
1645.000000	3.202511
1646.000000	3.215800
1647.000000	3.220851
1648.000000	3.230734
1649.000000	3.222764
1650.000000	3.231629
1651.000000	3.248419
1652.000000	3.248844
1653.000000	3.258284
1654.000000	3.248972
1655.000000	3.260821
1656.000000	3.265154
1657.000000	3.253236
1658.000000	3.248897
1659.000000	3.252977
1660.000000	3.243736
1661.000000	3.235744
1662.000000	3.235343
1663.000000	3.235435
1664.000000	3.218215
1665.000000	3.207355
1666.000000	3.192582
1667.000000	3.186117
1668.000000	3.140091
1669.000000	3.114294
1670.000000	3.091079
1671.000000	3.082437
1672.000000	3.063506
1673.000000	3.022770
1674.000000	2.982901
1675.000000	2.925945
1676.000000	2.891462
1677.000000	2.849644
1678.000000	2.785924
1679.000000	2.725990
1680.000000	2.640221
1681.000000	2.581925
1682.000000	2.540059
1683.000000	2.499178
1684.000000	2.474269
1685.000000	2.474891
1686.000000	2.451983
1687.000000	2.438509
1688.000000	2.424521
1689.000000	2.412936
1690.000000	2.388817
1691.000000	2.367731
1692.000000	2.348234
1693.000000	2.334505
1694.000000	2.315599
1695.000000	2.303669
1696.000000	2.311426
1697.000000	2.321174
1698.000000	2.326965
1699.000000	2.335166
1700.000000	2.358144
1701.000000	2.373640
1702.000000	2.393211
1703.000000	2.386439
1704.000000	2.383992
1705.000000	2.394858
1706.000000	2.385123
1707.000000	2.398362
1708.000000	2.378900
1709.000000	2.374990
1710.000000	2.376265
1711.000000	2.365743
1712.000000	2.341683
1713.000000	2.330345
1714.000000	2.306142
1715.000000	2.295061
1716.000000	2.279734
1717.000000	2.264453
1718.000000	2.247891
1719.000000	2.226706
1720.000000	2.206859
1721.000000	2.203517
1722.000000	2.203794
1723.000000	2.198937
1724.000000	2.175315
1725.000000	2.179951
1726.000000	2.158544
1727.000000	2.142948
1728.000000	2.121460
1729.000000	2.115929
1730.000000	2.111886
1731.000000	2.096667
1732.000000	2.094239
1733.000000	2.085228
1734.000000	2.075402
1735.000000	2.081674
1736.000000	2.102966
1737.000000	2.122564
1738.000000	2.140929
1739.000000	2.161336
1740.000000	2.181090
1741.000000	2.202401
1742.000000	2.238510
1743.000000	2.273641
1744.000000	2.293803
1745.000000	2.308785
1746.000000	2.321573
1747.000000	2.339349
1748.000000	2.355744
1749.000000	2.356713
1750.000000	2.378924
1751.000000	2.390358
1752.000000	2.389555
1753.000000	2.390211
1754.000000	2.387266
1755.000000	2.393889
1756.000000	2.392540
1757.000000	2.389676
1758.000000	2.389226
1759.000000	2.381197
1760.000000	2.382387
1761.000000	2.382745
1762.000000	2.378012
1763.000000	2.385046
1764.000000	2.391971
1765.000000	2.409386
1766.000000	2.408774
1767.000000	2.438284
1768.000000	2.449816
1769.000000	2.461837
1770.000000	2.492351
1771.000000	2.507595
1772.000000	2.530104
1773.000000	2.538360
1774.000000	2.558200
1775.000000	2.581676
1776.000000	2.587173
1777.000000	2.595722
1778.000000	2.607796
1779.000000	2.628324
1780.000000	2.642479
1781.000000	2.653210
1782.000000	2.669578
1783.000000	2.682156
1784.000000	2.684738
1785.000000	2.698885
1786.000000	2.700285
1787.000000	2.705250
1788.000000	2.719169
1789.000000	2.724076
1790.000000	2.734638
1791.000000	2.739591
1792.000000	2.746557
1793.000000	2.754402
1794.000000	2.765328
1795.000000	2.764600
1796.000000	2.775481
1797.000000	2.781301
1798.000000	2.791107
1799.000000	2.807556
1800.000000	2.817974
1801.000000	2.818456
1802.000000	2.824934
1803.000000	2.822717
1804.000000	2.823660
1805.000000	2.834795
1806.000000	2.844289
1807.000000	2.844325
1808.000000	2.845542
1809.000000	2.840794
1810.000000	2.851582
1811.000000	2.864183
1812.000000	2.853768
1813.000000	2.852814
1814.000000	2.867708
1815.000000	2.864750
1816.000000	2.848279
1817.000000	2.847132
1818.000000	2.865705
1819.000000	2.877818
1820.000000	2.865240
1821.000000	2.839759
1822.000000	2.818815
1823.000000	2.835775
1824.000000	2.866275
1825.000000	2.877144
1826.000000	2.876698
1827.000000	2.868964
1828.000000	2.867270
1829.000000	2.873799
1830.000000	2.871853
1831.000000	2.860712
1832.000000	2.865781
1833.000000	2.888763
1834.000000	2.918249
1835.000000	2.918402
1836.000000	2.901027
1837.000000	2.884481
1838.000000	2.884511
1839.000000	2.899389
1840.000000	2.899340
1841.000000	2.890376
1842.000000	2.847077
1843.000000	2.833422
1844.000000	2.861789
1845.000000	2.902114
1846.000000	2.940131
1847.000000	2.924213
1848.000000	2.867426
1849.000000	2.820516
1850.000000	2.837739
1851.000000	2.871370
1852.000000	2.880344
1853.000000	2.883785
1854.000000	2.859553
1855.000000	2.836981
1856.000000	2.845541
1857.000000	2.849399
1858.000000	2.835176
1859.000000	2.818823
1860.000000	2.787495
1861.000000	2.771814
1862.000000	2.765748
1863.000000	2.755907
1864.000000	2.771123
1865.000000	2.776425
1866.000000	2.762427
1867.000000	2.756962
1868.000000	2.739591
1869.000000	2.707804
1870.000000	2.675472
1871.000000	2.627384
1872.000000	2.575412
1873.000000	2.509565
1874.000000	2.467999
1875.000000	2.435784
1876.000000	2.406109
1877.000000	2.370663
1878.000000	2.328889
1879.000000	2.292440
1880.000000	2.252415
1881.000000	2.213297
1882.000000	2.181047
1883.000000	2.128582
1884.000000	2.072169
1885.000000	2.013747
1886.000000	1.975980
1887.000000	1.939633
1888.000000	1.904865
1889.000000	1.862936
1890.000000	1.830981
1891.000000	1.793452
1892.000000	1.748999
1893.000000	1.705321
1894.000000	1.672025
1895.000000	1.643101
1896.000000	1.641493
1897.000000	1.611081
1898.000000	1.601474
1899.000000	1.564106
1900.000000	1.525366
1901.000000	1.494954
1902.000000	1.468461
1903.000000	1.451816
1904.000000	1.423651
1905.000000	1.393701
1906.000000	1.365679
1907.000000	1.336303
1908.000000	1.309860
1909.000000	1.287611
1910.000000	1.278183
1911.000000	1.278692
1912.000000	1.278273
1913.000000	1.237635
1914.000000	1.232574
1915.000000	1.201876
1916.000000	1.181825
1917.000000	1.176388
1918.000000	1.169035
1919.000000	1.159317
1920.000000	1.155004
1921.000000	1.143025
1922.000000	1.123534
1923.000000	1.108782
1924.000000	1.109627
1925.000000	1.093719
1926.000000	1.073263
1927.000000	1.077302
1928.000000	1.068881
1929.000000	1.064847
1930.000000	1.037524
1931.000000	1.048188
1932.000000	1.023513
1933.000000	1.025506
1934.000000	1.012487
1935.000000	1.015634
1936.000000	1.016404
1937.000000	1.018467
1938.000000	1.000736
1939.000000	1.006007
1940.000000	0.994513
1941.000000	0.985201
1942.000000	0.985114
1943.000000	0.986875
1944.000000	0.987587
1945.000000	0.996560
1946.000000	0.985164
1947.000000	0.989187
1948.000000	0.996620
1949.000000	0.999500
1950.000000	0.990846
1951.000000	0.985950
1952.000000	1.003003
1953.000000	0.988467
1954.000000	0.985953
1955.000000	1.003580
1956.000000	1.008323
1957.000000	1.007727
1958.000000	1.022364
1959.000000	1.017079
1960.000000	1.026833
1961.000000	1.026804
1962.000000	1.028745
1963.000000	1.012141
1964.000000	1.036542
1965.000000	1.032064
1966.000000	1.035129
1967.000000	1.041674
1968.000000	1.044738
1969.000000	1.043572
1970.000000	1.058393
1971.000000	1.040664
1972.000000	1.047971
1973.000000	1.039363
1974.000000	1.050209
1975.000000	1.062645
1976.000000	1.061409
1977.000000	1.071531
1978.000000	1.073923
1979.000000	1.075738
1980.000000	1.065265
1981.000000	1.078562
1982.000000	1.085726
1983.000000	1.081772
1984.000000	1.088301
1985.000000	1.106172
1986.000000	1.097643
1987.000000	1.105221
1988.000000	1.116084
1989.000000	1.110904
1990.000000	1.105738
1991.000000	1.108618
1992.000000	1.104393
1993.000000	1.120186
1994.000000	1.132848
1995.000000	1.124082
1996.000000	1.125039
1997.000000	1.127120
1998.000000	1.133232
1999.000000	1.136331
2000.000000	1.154537
2001.000000	1.128231
2002.000000	1.136950
2003.000000	1.137362
2004.000000	1.131055
2005.000000	1.132703
2006.000000	1.134881
2007.000000	1.133732
2008.000000	1.130772
2009.000000	1.134238
2010.000000	1.131005
2011.000000	1.131920
2012.000000	1.129959
2013.000000	1.124958
2014.000000	1.116068
2015.000000	1.117218
2016.000000	1.117447
2017.000000	1.126023
2018.000000	1.113295
2019.000000	1.103162
2020.000000	1.100759
2021.000000	1.094063
2022.000000	1.099388
2023.000000	1.084553
2024.000000	1.076423
2025.000000	1.079809
2026.000000	1.075254
2027.000000	1.073686
2028.000000	1.066089
2029.000000	1.046997
2030.000000	1.034556
2031.000000	1.040537
2032.000000	1.039444
2033.000000	1.030358
2034.000000	1.015650
2035.000000	1.006714
2036.000000	1.001579
2037.000000	0.994404
2038.000000	1.001252
2039.000000	0.987888
2040.000000	0.972352
2041.000000	0.972465
2042.000000	0.970711
2043.000000	0.966991
2044.000000	0.963952
2045.000000	0.942061
2046.000000	0.922007
2047.000000	0.917323
2048.000000	0.917843
2049.000000	0.925169
2050.000000	0.911867
2051.000000	0.905025
2052.000000	0.900423
2053.000000	0.886067
2054.000000	0.890286
2055.000000	0.885624
2056.000000	0.881073
2057.000000	0.880495
2058.000000	0.887122
2059.000000	0.884992
2060.000000	0.880021
2061.000000	0.897676
2062.000000	0.917549
2063.000000	0.914092
2064.000000	0.905725
2065.000000	0.913271
2066.000000	0.914491
2067.000000	0.918808
2068.000000	0.935171
2069.000000	0.933179
2070.000000	0.936699
2071.000000	0.947615
2072.000000	0.951636
2073.000000	0.955726
2074.000000	0.965508
2075.000000	0.971198
2076.000000	0.966005
2077.000000	0.971271
2078.000000	0.983458
2079.000000	0.987904
2080.000000	0.981203
2081.000000	0.982734
2082.000000	0.993548
2083.000000	0.998168
2084.000000	1.004223
2085.000000	0.998209
2086.000000	1.001786
2087.000000	1.006601
2088.000000	1.009677
2089.000000	1.020078
2090.000000	1.021757
2091.000000	1.014829
2092.000000	1.017079
2093.000000	1.031217
2094.000000	1.026847
2095.000000	1.008769
2096.000000	1.003644
2097.000000	1.012281
2098.000000	1.020910
2099.000000	1.030722
2100.000000	1.034341
2101.000000	1.026457
2102.000000	1.020577
2103.000000	1.019626
2104.000000	1.021502
2105.000000	1.019799
2106.000000	1.020395
2107.000000	1.025779
2108.000000	1.026889
2109.000000	1.024545
2110.000000	1.016193
2111.000000	1.023758
2112.000000	1.031713
2113.000000	1.022710
2114.000000	1.025937
2115.000000	1.030830
2116.000000	1.033952
2117.000000	1.035412
2118.000000	1.033893
2119.000000	1.035573
2120.000000	1.032734
2121.000000	1.025346
2122.000000	1.019344
2123.000000	1.015256
2124.000000	1.011855
2125.000000	1.011223
2126.000000	1.018028
2127.000000	1.014126
2128.000000	1.003554
2129.000000	1.008495
2130.000000	1.003756
2131.000000	0.997047
2132.000000	0.990872
2133.000000	0.978415
2134.000000	0.980833
2135.000000	0.977855
2136.000000	0.984421
2137.000000	0.981013
2138.000000	0.975569
2139.000000	0.971680
2140.000000	0.956317
2141.000000	0.962452
2142.000000	0.960117
2143.000000	0.954489
2144.000000	0.945727
2145.000000	0.946981
2146.000000	0.940927
2147.000000	0.931439
2148.000000	0.921274
2149.000000	0.926050
2150.000000	0.923804
2151.000000	0.915175
2152.000000	0.908245
2153.000000	0.913620
2154.000000	0.904928
2155.000000	0.891695
2156.000000	0.884954
2157.000000	0.891400
2158.000000	0.881872
2159.000000	0.875882
2160.000000	0.870269
2161.000000	0.878425
2162.000000	0.877402
2163.000000	0.865344
2164.000000	0.872889
2165.000000	0.870870
2166.000000	0.867190
2167.000000	0.867758
2168.000000	0.863799
2169.000000	0.854129
2170.000000	0.852147
2171.000000	0.857930
2172.000000	0.865399
2173.000000	0.867224
2174.000000	0.858434
2175.000000	0.851825
2176.000000	0.844623
2177.000000	0.845812
2178.000000	0.849370
2179.000000	0.851971
2180.000000	0.850220
2181.000000	0.855580
2182.000000	0.840443
2183.000000	0.846964
2184.000000	0.853403
2185.000000	0.844119
2186.000000	0.843922
2187.000000	0.850349
2188.000000	0.855733
2189.000000	0.853292
2190.000000	0.870838
2191.000000	0.871454
2192.000000	0.858051
2193.000000	0.871200
2194.000000	0.861584
2195.000000	0.873283
2196.000000	0.865795
2197.000000	0.882833
2198.000000	0.887296
2199.000000	0.873208
2200.000000	0.880042
2201.000000	0.874703
2202.000000	0.881473
2203.000000	0.869962
2204.000000	0.878353
2205.000000	0.868931
2206.000000	0.867495
2207.000000	0.878228
2208.000000	0.886630
2209.000000	0.900620
2210.000000	0.897418
2211.000000	0.893876
2212.000000	0.892831
2213.000000	0.874969
2214.000000	0.898307
2215.000000	0.895344
2216.000000	0.905815
2217.000000	0.909128
2218.000000	0.904109
2219.000000	0.911045
2220.000000	0.919140
2221.000000	0.909603
2222.000000	0.919943
2223.000000	0.932647
2224.000000	0.937805
2225.000000	0.932846
2226.000000	0.931124
2227.000000	0.932174
2228.000000	0.942163
2229.000000	0.940387
2230.000000	0.945310
2231.000000	0.947397
2232.000000	0.942328
2233.000000	0.932077
2234.000000	0.944933
2235.000000	0.941762
2236.000000	0.946240
2237.000000	0.937419
2238.000000	0.944606
2239.000000	0.934373
2240.000000	0.918893
2241.000000	0.933031
2242.000000	0.924270
2243.000000	0.936672
2244.000000	0.914908
2245.000000	0.922784
2246.000000	0.917903
2247.000000	0.922481
2248.000000	0.906306
2249.000000	0.906417
2250.000000	0.889946
2251.000000	0.879560
2252.000000	0.871990
2253.000000	0.871082
2254.000000	0.856991
2255.000000	0.840371
2256.000000	0.840391
2257.000000	0.810890
2258.000000	0.808127
2259.000000	0.797153
2260.000000	0.778804
2261.000000	0.764165
2262.000000	0.738889
2263.000000	0.737095
2264.000000	0.728339
2265.000000	0.717983
2266.000000	0.702153
2267.000000	0.685815
2268.000000	0.679002
2269.000000	0.675120
2270.000000	0.679018
2271.000000	0.671910
2272.000000	0.647206
2273.000000	0.651043
2274.000000	0.667622
2275.000000	0.666675
2276.000000	0.677545
2277.000000	0.667006
2278.000000	0.669518
2279.000000	0.672183
2280.000000	0.684860
2281.000000	0.664965
2282.000000	0.688967
2283.000000	0.681717
2284.000000	0.688270
2285.000000	0.696113
2286.000000	0.701665
2287.000000	0.693415
2288.000000	0.699422
2289.000000	0.701553
2290.000000	0.713231
2291.000000	0.706569
2292.000000	0.708302
2293.000000	0.704191
2294.000000	0.704914
2295.000000	0.711156
2296.000000	0.696799
2297.000000	0.693954
2298.000000	0.687493
2299.000000	0.683336
2300.000000	0.673528
2301.000000	0.682347
2302.000000	0.667200
2303.000000	0.667922
2304.000000	0.667278
2305.000000	0.653098
2306.000000	0.653336
2307.000000	0.646484
2308.000000	0.656502
2309.000000	0.648841
2310.000000	0.650078
2311.000000	0.649716
2312.000000	0.658463
2313.000000	0.671752
2314.000000	0.673070
2315.000000	0.687520
2316.000000	0.688495
2317.000000	0.688985
2318.000000	0.712425
2319.000000	0.723489
2320.000000	0.719850
2321.000000	0.720253
2322.000000	0.740158
2323.000000	0.751128
2324.000000	0.762242
2325.000000	0.762155
2326.000000	0.768278
2327.000000	0.772681
2328.000000	0.777535
2329.000000	0.788484
2330.000000	0.796767
2331.000000	0.787237
2332.000000	0.801610
2333.000000	0.795147
2334.000000	0.798588
2335.000000	0.809537
2336.000000	0.814751
2337.000000	0.818077
2338.000000	0.814644
2339.000000	0.814943
2340.000000	0.802716
2341.000000	0.813733
2342.000000	0.817428
2343.000000	0.811376
2344.000000	0.811515
2345.000000	0.810499
2346.000000	0.794078
2347.000000	0.799356
2348.000000	0.809870
2349.000000	0.793102
2350.000000	0.789841
2351.000000	0.785823
2352.000000	0.782730
2353.000000	0.777270
2354.000000	0.769983
2355.000000	0.782669
2356.000000	0.787612
2357.000000	0.788272
2358.000000	0.794394
2359.000000	0.794235
2360.000000	0.801297
2361.000000	0.795225
2362.000000	0.789193
2363.000000	0.796824
2364.000000	0.807892
2365.000000	0.818441
2366.000000	0.821263
2367.000000	0.823656
2368.000000	0.824463
2369.000000	0.824501
2370.000000	0.830461
2371.000000	0.838798
2372.000000	0.837347
2373.000000	0.839912
2374.000000	0.839630
2375.000000	0.843766
2376.000000	0.847780
2377.000000	0.843068
2378.000000	0.855207
2379.000000	0.863580
2380.000000	0.852553
2381.000000	0.858335
2382.000000	0.868840
2383.000000	0.851703
2384.000000	0.851090
2385.000000	0.867425
2386.000000	0.871331
2387.000000	0.872054
2388.000000	0.874382
2389.000000	0.864924
2390.000000	0.879624
2391.000000	0.882744
2392.000000	0.879451
2393.000000	0.875971
2394.000000	0.870834
2395.000000	0.871260
2396.000000	0.884600
2397.000000	0.891662
2398.000000	0.876092
2399.000000	0.874052
2400.000000	0.881179
2401.000000	0.876926
2402.000000	0.885965
2403.000000	0.888448
2404.000000	0.882653
2405.000000	0.877385
2406.000000	0.888227
2407.000000	0.891575
2408.000000	0.898354
2409.000000	0.886347
2410.000000	0.893879
2411.000000	0.901516
2412.000000	0.892229
2413.000000	0.884296
2414.000000	0.892397
2415.000000	0.894764
2416.000000	0.902583
2417.000000	0.901674
2418.000000	0.899366
2419.000000	0.893552
2420.000000	0.893328
2421.000000	0.895756
2422.000000	0.894296
2423.000000	0.888822
2424.000000	0.881959
2425.000000	0.898103
2426.000000	0.907783
2427.000000	0.917757
2428.000000	0.929891
2429.000000	0.931857
2430.000000	0.947511
2431.000000	0.938419
2432.000000	0.941200
2433.000000	0.934324
2434.000000	0.934786
2435.000000	0.919656
2436.000000	0.918775
2437.000000	0.898692
2438.000000	0.896616
2439.000000	0.891835
2440.000000	0.881146
2441.000000	0.878474
2442.000000	0.872062
2443.000000	0.870650
2444.000000	0.852704
2445.000000	0.840162
2446.000000	0.838466
2447.000000	0.829653
2448.000000	0.813992
2449.000000	0.808693
2450.000000	0.798081
2451.000000	0.780890
2452.000000	0.788403
2453.000000	0.778623
2454.000000	0.761261
2455.000000	0.763805
2456.000000	0.737537
2457.000000	0.739104
2458.000000	0.725158
2459.000000	0.713282
2460.000000	0.719003
2461.000000	0.704961
2462.000000	0.691252
2463.000000	0.698789
2464.000000	0.714490
2465.000000	0.698799
2466.000000	0.674787
2467.000000	0.684124
2468.000000	0.693553
2469.000000	0.667451
2470.000000	0.673278
2471.000000	0.686794
2472.000000	0.665709
2473.000000	0.688988
2474.000000	0.694953
2475.000000	0.655339
2476.000000	0.655575
2477.000000	0.643044
2478.000000	0.687090
2479.000000	0.688529
2480.000000	0.638773
2481.000000	0.647379
2482.000000	0.655557
2483.000000	0.622075
2484.000000	0.614103
2485.000000	0.707537
2486.000000	0.660736
2487.000000	0.654913
2488.000000	0.654390
2489.000000	0.681387
2490.000000	0.656065
2491.000000	0.713568
2492.000000	0.650179
2493.000000	0.684598
2494.000000	0.688600
2495.000000	0.650218
2496.000000	0.682479
2497.000000	0.661344
2498.000000	0.695190
2499.000000	0.627841
2500.000000	0.711447
