PE UV       SUBTECH     SPECTRUM    ASCII       PEDS        4.00        
   -1
CICIMAUCR0210-2.ASC
24/06/06
16:29:53.00
24/06/06
16:29:53.00
Vinicio Soto Monge
C. resplendens. Sex F. Dorsal
250,000000
1
Lambda 1050
1050L1511233
PerkinElmer UV WinLab 6.3.2.0749 / 2.02.05 Lambda 900 UV/VIS/NIR, Aug  7 2015 09:38:08

0
0
3350/servo 860,8/2
0
0
UV/VIS
1
1
1
DoubleDePol,CommonBeamDepol,RBeamAtt,SBeamAtt,60mm sphere, WB InGaAs Detector
0
0
0
0
Program
Program
3350/servo 860,8/2
3350/0,2 860,8/0,2
3350/0,2 860,8/0,2
0
15.00
 
 
 
0
 
860,8
319,2
860,8
Front
100
on
S:100 R:100
0
0
0
0
 
0
 
 
 
0
 
 
0
0
0
0
0
 
 
 
 
0
0


0
0
#HDR
-1
-1
#GR
nm
%R
1.0
0.0
2500,000000
-1,000000
2251
8
92,391500
5,437200
#DATA
2500,000000	6,109900
2499,000000	6,078500
2498,000000	6,009000
2497,000000	6,192800
2496,000000	6,075900
2495,000000	6,078400
2494,000000	5,957900
2493,000000	6,005900
2492,000000	6,014600
2491,000000	6,012300
2490,000000	5,922200
2489,000000	6,015600
2488,000000	6,013000
2487,000000	5,920800
2486,000000	5,995400
2485,000000	5,919800
2484,000000	5,990100
2483,000000	5,928800
2482,000000	5,912600
2481,000000	5,912100
2480,000000	5,878500
2479,000000	5,878200
2478,000000	5,951900
2477,000000	5,939300
2476,000000	5,886000
2475,000000	5,929900
2474,000000	5,909500
2473,000000	5,927700
2472,000000	5,922800
2471,000000	5,935800
2470,000000	5,910600
2469,000000	5,921700
2468,000000	5,897000
2467,000000	5,956600
2466,000000	5,943000
2465,000000	5,954100
2464,000000	5,997500
2463,000000	5,951000
2462,000000	5,997700
2461,000000	5,997700
2460,000000	6,048600
2459,000000	6,045200
2458,000000	6,053700
2457,000000	6,084200
2456,000000	6,104500
2455,000000	6,142800
2454,000000	6,138100
2453,000000	6,176400
2452,000000	6,181500
2451,000000	6,237300
2450,000000	6,254300
2449,000000	6,299400
2448,000000	6,351700
2447,000000	6,369300
2446,000000	6,391800
2445,000000	6,417000
2444,000000	6,443800
2443,000000	6,498400
2442,000000	6,538500
2441,000000	6,556800
2440,000000	6,595700
2439,000000	6,629700
2438,000000	6,664800
2437,000000	6,706400
2436,000000	6,711500
2435,000000	6,732300
2434,000000	6,786700
2433,000000	6,815300
2432,000000	6,833900
2431,000000	6,835800
2430,000000	6,877300
2429,000000	6,900800
2428,000000	6,928000
2427,000000	6,949400
2426,000000	6,973400
2425,000000	6,982100
2424,000000	6,994900
2423,000000	7,020700
2422,000000	7,043100
2421,000000	7,077400
2420,000000	7,085000
2419,000000	7,110400
2418,000000	7,122200
2417,000000	7,120300
2416,000000	7,150700
2415,000000	7,175600
2414,000000	7,178600
2413,000000	7,192900
2412,000000	7,212200
2411,000000	7,216500
2410,000000	7,236400
2409,000000	7,245900
2408,000000	7,243400
2407,000000	7,276500
2406,000000	7,296500
2405,000000	7,308500
2404,000000	7,332400
2403,000000	7,340500
2402,000000	7,355500
2401,000000	7,369400
2400,000000	7,385400
2399,000000	7,426400
2398,000000	7,489800
2397,000000	7,527500
2396,000000	7,575100
2395,000000	7,595600
2394,000000	7,609800
2393,000000	7,607000
2392,000000	7,621700
2391,000000	7,645900
2390,000000	7,677600
2389,000000	7,706300
2388,000000	7,708500
2387,000000	7,708700
2386,000000	7,726900
2385,000000	7,740300
2384,000000	7,749000
2383,000000	7,759800
2382,000000	7,770300
2381,000000	7,759400
2380,000000	7,766900
2379,000000	7,793600
2378,000000	7,790700
2377,000000	7,787500
2376,000000	7,790100
2375,000000	7,781300
2374,000000	7,774000
2373,000000	7,778000
2372,000000	7,777500
2371,000000	7,770500
2370,000000	7,772900
2369,000000	7,762200
2368,000000	7,742000
2367,000000	7,738200
2366,000000	7,713500
2365,000000	7,680800
2364,000000	7,657200
2363,000000	7,626100
2362,000000	7,600000
2361,000000	7,593800
2360,000000	7,579600
2359,000000	7,547900
2358,000000	7,519400
2357,000000	7,480300
2356,000000	7,452800
2355,000000	7,448100
2354,000000	7,431100
2353,000000	7,420400
2352,000000	7,419300
2351,000000	7,426900
2350,000000	7,431000
2349,000000	7,441100
2348,000000	7,464100
2347,000000	7,485100
2346,000000	7,503700
2345,000000	7,528100
2344,000000	7,560300
2343,000000	7,589200
2342,000000	7,620600
2341,000000	7,643800
2340,000000	7,657900
2339,000000	7,685900
2338,000000	7,715700
2337,000000	7,724100
2336,000000	7,746400
2335,000000	7,763400
2334,000000	7,750800
2333,000000	7,740300
2332,000000	7,744000
2331,000000	7,717200
2330,000000	7,692700
2329,000000	7,681100
2328,000000	7,665400
2327,000000	7,629200
2326,000000	7,585500
2325,000000	7,555000
2324,000000	7,523400
2323,000000	7,486900
2322,000000	7,437500
2321,000000	7,384500
2320,000000	7,342300
2319,000000	7,296400
2318,000000	7,235000
2317,000000	7,173400
2316,000000	7,111900
2315,000000	7,055300
2314,000000	7,007200
2313,000000	6,956100
2312,000000	6,909600
2311,000000	6,848900
2310,000000	6,795600
2309,000000	6,777600
2308,000000	6,751300
2307,000000	6,725600
2306,000000	6,708700
2305,000000	6,702700
2304,000000	6,718100
2303,000000	6,735700
2302,000000	6,760500
2301,000000	6,782600
2300,000000	6,831500
2299,000000	6,862700
2298,000000	6,912100
2297,000000	6,968900
2296,000000	7,032000
2295,000000	7,059000
2294,000000	7,093300
2293,000000	7,142400
2292,000000	7,212100
2291,000000	7,243500
2290,000000	7,270600
2289,000000	7,284300
2288,000000	7,314100
2287,000000	7,325200
2286,000000	7,305200
2285,000000	7,290800
2284,000000	7,291900
2283,000000	7,285400
2282,000000	7,251900
2281,000000	7,230400
2280,000000	7,192400
2279,000000	7,167400
2278,000000	7,162500
2277,000000	7,131300
2276,000000	7,077400
2275,000000	7,057100
2274,000000	7,028300
2273,000000	7,020200
2272,000000	7,005800
2271,000000	6,996300
2270,000000	7,003400
2269,000000	6,991200
2268,000000	7,023200
2267,000000	7,054000
2266,000000	7,085800
2265,000000	7,139300
2264,000000	7,211100
2263,000000	7,285500
2262,000000	7,387300
2261,000000	7,477400
2260,000000	7,604000
2259,000000	7,706500
2258,000000	7,838300
2257,000000	7,987300
2256,000000	8,135600
2255,000000	8,295600
2254,000000	8,443700
2253,000000	8,583900
2252,000000	8,728500
2251,000000	8,883500
2250,000000	9,022900
2249,000000	9,163500
2248,000000	9,297400
2247,000000	9,432100
2246,000000	9,550400
2245,000000	9,641500
2244,000000	9,754300
2243,000000	9,858100
2242,000000	9,948500
2241,000000	10,019000
2240,000000	10,110900
2239,000000	10,156700
2238,000000	10,230400
2237,000000	10,311900
2236,000000	10,383000
2235,000000	10,421600
2234,000000	10,487800
2233,000000	10,526000
2232,000000	10,570700
2231,000000	10,635400
2230,000000	10,634100
2229,000000	10,675300
2228,000000	10,685500
2227,000000	10,719300
2226,000000	10,734400
2225,000000	10,733400
2224,000000	10,750600
2223,000000	10,768400
2222,000000	10,772100
2221,000000	10,732100
2220,000000	10,760600
2219,000000	10,756800
2218,000000	10,719800
2217,000000	10,724100
2216,000000	10,702800
2215,000000	10,704700
2214,000000	10,673500
2213,000000	10,674200
2212,000000	10,654100
2211,000000	10,639300
2210,000000	10,602500
2209,000000	10,603300
2208,000000	10,607700
2207,000000	10,569100
2206,000000	10,570500
2205,000000	10,560300
2204,000000	10,548800
2203,000000	10,537800
2202,000000	10,534700
2201,000000	10,509200
2200,000000	10,504300
2199,000000	10,510600
2198,000000	10,489500
2197,000000	10,471300
2196,000000	10,467500
2195,000000	10,482900
2194,000000	10,458200
2193,000000	10,443100
2192,000000	10,434400
2191,000000	10,425800
2190,000000	10,437400
2189,000000	10,416100
2188,000000	10,399700
2187,000000	10,389300
2186,000000	10,374300
2185,000000	10,362200
2184,000000	10,358900
2183,000000	10,344400
2182,000000	10,347500
2181,000000	10,340000
2180,000000	10,334000
2179,000000	10,305300
2178,000000	10,288900
2177,000000	10,282100
2176,000000	10,284100
2175,000000	10,288500
2174,000000	10,275700
2173,000000	10,257000
2172,000000	10,258600
2171,000000	10,264900
2170,000000	10,264300
2169,000000	10,277900
2168,000000	10,267200
2167,000000	10,273100
2166,000000	10,282300
2165,000000	10,290700
2164,000000	10,303300
2163,000000	10,311800
2162,000000	10,321200
2161,000000	10,328600
2160,000000	10,322000
2159,000000	10,340900
2158,000000	10,362200
2157,000000	10,388100
2156,000000	10,411400
2155,000000	10,428400
2154,000000	10,450400
2153,000000	10,472500
2152,000000	10,498900
2151,000000	10,515100
2150,000000	10,520600
2149,000000	10,534000
2148,000000	10,557500
2147,000000	10,573300
2146,000000	10,590600
2145,000000	10,592900
2144,000000	10,637400
2143,000000	10,646800
2142,000000	10,664000
2141,000000	10,673500
2140,000000	10,698100
2139,000000	10,713000
2138,000000	10,714400
2137,000000	10,714700
2136,000000	10,751200
2135,000000	10,746900
2134,000000	10,732100
2133,000000	10,731500
2132,000000	10,749200
2131,000000	10,761000
2130,000000	10,751900
2129,000000	10,757600
2128,000000	10,749200
2127,000000	10,740100
2126,000000	10,740200
2125,000000	10,738200
2124,000000	10,739000
2123,000000	10,729600
2122,000000	10,716100
2121,000000	10,695400
2120,000000	10,681800
2119,000000	10,676100
2118,000000	10,646900
2117,000000	10,629100
2116,000000	10,626300
2115,000000	10,609300
2114,000000	10,583200
2113,000000	10,558100
2112,000000	10,530100
2111,000000	10,516800
2110,000000	10,487100
2109,000000	10,454600
2108,000000	10,439900
2107,000000	10,421400
2106,000000	10,403400
2105,000000	10,370200
2104,000000	10,352200
2103,000000	10,336900
2102,000000	10,318200
2101,000000	10,293100
2100,000000	10,268300
2099,000000	10,255400
2098,000000	10,226600
2097,000000	10,195800
2096,000000	10,189800
2095,000000	10,167900
2094,000000	10,136900
2093,000000	10,120500
2092,000000	10,104600
2091,000000	10,094800
2090,000000	10,080200
2089,000000	10,062700
2088,000000	10,047700
2087,000000	10,024700
2086,000000	10,007500
2085,000000	9,996200
2084,000000	9,971900
2083,000000	9,951400
2082,000000	9,929800
2081,000000	9,920600
2080,000000	9,913000
2079,000000	9,880800
2078,000000	9,852300
2077,000000	9,841400
2076,000000	9,832800
2075,000000	9,799100
2074,000000	9,775300
2073,000000	9,760300
2072,000000	9,733500
2071,000000	9,712600
2070,000000	9,677600
2069,000000	9,651900
2068,000000	9,641100
2067,000000	9,612200
2066,000000	9,582000
2065,000000	9,561400
2064,000000	9,537900
2063,000000	9,530600
2062,000000	9,512900
2061,000000	9,492900
2060,000000	9,475400
2059,000000	9,455400
2058,000000	9,454400
2057,000000	9,448700
2056,000000	9,444700
2055,000000	9,440900
2054,000000	9,442700
2053,000000	9,458800
2052,000000	9,476600
2051,000000	9,492300
2050,000000	9,510300
2049,000000	9,538100
2048,000000	9,577200
2047,000000	9,607400
2046,000000	9,647300
2045,000000	9,694000
2044,000000	9,728100
2043,000000	9,778800
2042,000000	9,800700
2041,000000	9,845600
2040,000000	9,893200
2039,000000	9,936300
2038,000000	9,965600
2037,000000	10,002900
2036,000000	10,061600
2035,000000	10,093100
2034,000000	10,097900
2033,000000	10,126500
2032,000000	10,153400
2031,000000	10,160000
2030,000000	10,183700
2029,000000	10,214900
2028,000000	10,228300
2027,000000	10,227800
2026,000000	10,247900
2025,000000	10,262800
2024,000000	10,274800
2023,000000	10,263200
2022,000000	10,258400
2021,000000	10,267400
2020,000000	10,258900
2019,000000	10,265100
2018,000000	10,272700
2017,000000	10,255500
2016,000000	10,255400
2015,000000	10,253700
2014,000000	10,256100
2013,000000	10,223000
2012,000000	10,211500
2011,000000	10,203400
2010,000000	10,195200
2009,000000	10,176700
2008,000000	10,129800
2007,000000	10,103400
2006,000000	10,088400
2005,000000	10,061200
2004,000000	10,026000
2003,000000	9,997200
2002,000000	9,970100
2001,000000	9,928100
2000,000000	9,884500
1999,000000	9,850900
1998,000000	9,822000
1997,000000	9,780300
1996,000000	9,731300
1995,000000	9,697600
1994,000000	9,668100
1993,000000	9,618400
1992,000000	9,571200
1991,000000	9,528200
1990,000000	9,479100
1989,000000	9,427700
1988,000000	9,384600
1987,000000	9,328000
1986,000000	9,277600
1985,000000	9,224800
1984,000000	9,182600
1983,000000	9,126300
1982,000000	9,082200
1981,000000	9,010700
1980,000000	8,965600
1979,000000	8,921600
1978,000000	8,885000
1977,000000	8,831300
1976,000000	8,790800
1975,000000	8,732400
1974,000000	8,676000
1973,000000	8,619500
1972,000000	8,576400
1971,000000	8,537500
1970,000000	8,501700
1969,000000	8,419400
1968,000000	8,393100
1967,000000	8,351600
1966,000000	8,299200
1965,000000	8,279100
1964,000000	8,223800
1963,000000	8,171700
1962,000000	8,140700
1961,000000	8,069800
1960,000000	8,041800
1959,000000	8,002700
1958,000000	7,963200
1957,000000	7,946900
1956,000000	7,887600
1955,000000	7,862400
1954,000000	7,803100
1953,000000	7,770400
1952,000000	7,747200
1951,000000	7,703300
1950,000000	7,672000
1949,000000	7,624800
1948,000000	7,598000
1947,000000	7,594200
1946,000000	7,547200
1945,000000	7,521600
1944,000000	7,513700
1943,000000	7,485400
1942,000000	7,465200
1941,000000	7,435500
1940,000000	7,425600
1939,000000	7,435800
1938,000000	7,418200
1937,000000	7,407600
1936,000000	7,415800
1935,000000	7,445300
1934,000000	7,423500
1933,000000	7,450800
1932,000000	7,445700
1931,000000	7,464700
1930,000000	7,494900
1929,000000	7,516000
1928,000000	7,540400
1927,000000	7,590400
1926,000000	7,628000
1925,000000	7,670100
1924,000000	7,723200
1923,000000	7,771300
1922,000000	7,824200
1921,000000	7,901100
1920,000000	7,973200
1919,000000	8,064500
1918,000000	8,146800
1917,000000	8,214400
1916,000000	8,293100
1915,000000	8,362300
1914,000000	8,434700
1913,000000	8,546600
1912,000000	8,683200
1911,000000	8,821600
1910,000000	8,913400
1909,000000	9,023700
1908,000000	9,135800
1907,000000	9,217600
1906,000000	9,352900
1905,000000	9,516100
1904,000000	9,700700
1903,000000	9,856600
1902,000000	10,018000
1901,000000	10,185700
1900,000000	10,334300
1899,000000	10,522600
1898,000000	10,747000
1897,000000	10,973600
1896,000000	11,178000
1895,000000	11,366100
1894,000000	11,539100
1893,000000	11,737500
1892,000000	11,996000
1891,000000	12,284600
1890,000000	12,569200
1889,000000	12,857300
1888,000000	13,172700
1887,000000	13,494400
1886,000000	13,783700
1885,000000	14,153000
1884,000000	14,546700
1883,000000	14,994700
1882,000000	15,479600
1881,000000	15,924200
1880,000000	16,405300
1879,000000	16,828200
1878,000000	17,241000
1877,000000	17,724100
1876,000000	18,176000
1875,000000	18,604500
1874,000000	19,007800
1873,000000	19,451800
1872,000000	19,864000
1871,000000	20,272600
1870,000000	20,647200
1869,000000	20,994700
1868,000000	21,347700
1867,000000	21,651300
1866,000000	21,900400
1865,000000	22,078000
1864,000000	22,265200
1863,000000	22,421700
1862,000000	22,537600
1861,000000	22,710500
1860,000000	22,881900
1859,000000	23,033600
1858,000000	23,157500
1857,000000	23,279200
1856,000000	23,345600
1855,000000	23,404900
1854,000000	23,461900
1853,000000	23,537500
1852,000000	23,566800
1851,000000	23,583700
1850,000000	23,589500
1849,000000	23,577600
1848,000000	23,581800
1847,000000	23,623600
1846,000000	23,671800
1845,000000	23,659800
1844,000000	23,608100
1843,000000	23,552700
1842,000000	23,519000
1841,000000	23,545100
1840,000000	23,550600
1839,000000	23,566700
1838,000000	23,537400
1837,000000	23,514900
1836,000000	23,512600
1835,000000	23,495000
1834,000000	23,465400
1833,000000	23,404000
1832,000000	23,323000
1831,000000	23,257600
1830,000000	23,216200
1829,000000	23,177600
1828,000000	23,123500
1827,000000	23,044800
1826,000000	22,985100
1825,000000	22,948300
1824,000000	22,886000
1823,000000	22,822700
1822,000000	22,771300
1821,000000	22,733300
1820,000000	22,721900
1819,000000	22,707600
1818,000000	22,660500
1817,000000	22,622300
1816,000000	22,597600
1815,000000	22,579700
1814,000000	22,562000
1813,000000	22,546700
1812,000000	22,547000
1811,000000	22,516500
1810,000000	22,495200
1809,000000	22,468700
1808,000000	22,418600
1807,000000	22,366100
1806,000000	22,333300
1805,000000	22,302700
1804,000000	22,252100
1803,000000	22,199500
1802,000000	22,148600
1801,000000	22,096900
1800,000000	22,052300
1799,000000	22,001700
1798,000000	21,946700
1797,000000	21,899500
1796,000000	21,842300
1795,000000	21,782700
1794,000000	21,747600
1793,000000	21,699900
1792,000000	21,652300
1791,000000	21,598600
1790,000000	21,547400
1789,000000	21,503800
1788,000000	21,444100
1787,000000	21,390700
1786,000000	21,335700
1785,000000	21,268100
1784,000000	21,202200
1783,000000	21,136400
1782,000000	21,060000
1781,000000	20,987000
1780,000000	20,942500
1779,000000	20,887400
1778,000000	20,803600
1777,000000	20,731700
1776,000000	20,669500
1775,000000	20,594100
1774,000000	20,509000
1773,000000	20,427500
1772,000000	20,329000
1771,000000	20,229800
1770,000000	20,140400
1769,000000	20,040700
1768,000000	19,950200
1767,000000	19,874500
1766,000000	19,770000
1765,000000	19,691700
1764,000000	19,643800
1763,000000	19,599500
1762,000000	19,574100
1761,000000	19,581500
1760,000000	19,612700
1759,000000	19,661000
1758,000000	19,735700
1757,000000	19,800200
1756,000000	19,876000
1755,000000	19,944600
1754,000000	19,998400
1753,000000	20,043300
1752,000000	20,091900
1751,000000	20,109000
1750,000000	20,122400
1749,000000	20,117100
1748,000000	20,090500
1747,000000	20,060500
1746,000000	20,031900
1745,000000	19,958800
1744,000000	19,899700
1743,000000	19,797300
1742,000000	19,683200
1741,000000	19,538200
1740,000000	19,370900
1739,000000	19,199200
1738,000000	19,014300
1737,000000	18,840500
1736,000000	18,673100
1735,000000	18,532400
1734,000000	18,423000
1733,000000	18,350900
1732,000000	18,322600
1731,000000	18,337800
1730,000000	18,392400
1729,000000	18,458600
1728,000000	18,549300
1727,000000	18,651000
1726,000000	18,767600
1725,000000	18,872100
1724,000000	18,947000
1723,000000	19,029600
1722,000000	19,087000
1721,000000	19,119700
1720,000000	19,144900
1719,000000	19,164700
1718,000000	19,200200
1717,000000	19,226400
1716,000000	19,267100
1715,000000	19,300500
1714,000000	19,337000
1713,000000	19,409800
1712,000000	19,457000
1711,000000	19,506500
1710,000000	19,544500
1709,000000	19,568700
1708,000000	19,563900
1707,000000	19,561900
1706,000000	19,529200
1705,000000	19,490700
1704,000000	19,457400
1703,000000	19,381300
1702,000000	19,307400
1701,000000	19,217800
1700,000000	19,108100
1699,000000	18,982000
1698,000000	18,837900
1697,000000	18,699200
1696,000000	18,570500
1695,000000	18,494600
1694,000000	18,436500
1693,000000	18,471400
1692,000000	18,522900
1691,000000	18,642200
1690,000000	18,775200
1689,000000	18,923300
1688,000000	19,051800
1687,000000	19,140800
1686,000000	19,225700
1685,000000	19,259500
1684,000000	19,294900
1683,000000	19,376400
1682,000000	19,477300
1681,000000	19,691200
1680,000000	19,987100
1679,000000	20,358300
1678,000000	20,791300
1677,000000	21,274500
1676,000000	21,728900
1675,000000	22,153200
1674,000000	22,551800
1673,000000	22,897400
1672,000000	23,152600
1671,000000	23,417800
1670,000000	23,630300
1669,000000	23,808200
1668,000000	23,962400
1667,000000	24,077700
1666,000000	24,178500
1665,000000	24,295700
1664,000000	24,360000
1663,000000	24,430300
1662,000000	24,499600
1661,000000	24,511300
1660,000000	24,567000
1659,000000	24,624600
1658,000000	24,624400
1657,000000	24,633600
1656,000000	24,660100
1655,000000	24,667500
1654,000000	24,667300
1653,000000	24,646000
1652,000000	24,626600
1651,000000	24,593800
1650,000000	24,563000
1649,000000	24,533400
1648,000000	24,499700
1647,000000	24,479400
1646,000000	24,420100
1645,000000	24,370800
1644,000000	24,313600
1643,000000	24,295100
1642,000000	24,230000
1641,000000	24,165700
1640,000000	24,118400
1639,000000	24,040300
1638,000000	23,969200
1637,000000	23,931700
1636,000000	23,877300
1635,000000	23,792800
1634,000000	23,742500
1633,000000	23,666100
1632,000000	23,580500
1631,000000	23,515500
1630,000000	23,443900
1629,000000	23,370700
1628,000000	23,300600
1627,000000	23,214300
1626,000000	23,125600
1625,000000	23,062900
1624,000000	22,977700
1623,000000	22,908500
1622,000000	22,840400
1621,000000	22,761400
1620,000000	22,665400
1619,000000	22,620900
1618,000000	22,537900
1617,000000	22,460200
1616,000000	22,405700
1615,000000	22,349300
1614,000000	22,283200
1613,000000	22,210600
1612,000000	22,146300
1611,000000	22,093900
1610,000000	22,000700
1609,000000	21,959100
1608,000000	21,891500
1607,000000	21,829300
1606,000000	21,766900
1605,000000	21,706500
1604,000000	21,651300
1603,000000	21,581300
1602,000000	21,534900
1601,000000	21,459100
1600,000000	21,406400
1599,000000	21,334000
1598,000000	21,271100
1597,000000	21,207800
1596,000000	21,170000
1595,000000	21,109300
1594,000000	21,043400
1593,000000	20,993200
1592,000000	20,933600
1591,000000	20,878500
1590,000000	20,824600
1589,000000	20,770100
1588,000000	20,737700
1587,000000	20,685300
1586,000000	20,647500
1585,000000	20,603300
1584,000000	20,550500
1583,000000	20,495000
1582,000000	20,456200
1581,000000	20,420900
1580,000000	20,383400
1579,000000	20,354300
1578,000000	20,317800
1577,000000	20,297200
1576,000000	20,267200
1575,000000	20,252100
1574,000000	20,229000
1573,000000	20,202900
1572,000000	20,179600
1571,000000	20,156800
1570,000000	20,150000
1569,000000	20,140600
1568,000000	20,132900
1567,000000	20,115500
1566,000000	20,106900
1565,000000	20,104800
1564,000000	20,085300
1563,000000	20,072400
1562,000000	20,061500
1561,000000	20,046900
1560,000000	20,038600
1559,000000	20,034700
1558,000000	20,018100
1557,000000	20,013800
1556,000000	20,011200
1555,000000	19,977000
1554,000000	19,968000
1553,000000	19,953800
1552,000000	19,910600
1551,000000	19,888900
1550,000000	19,866400
1549,000000	19,843400
1548,000000	19,813200
1547,000000	19,780100
1546,000000	19,751700
1545,000000	19,720500
1544,000000	19,689700
1543,000000	19,674200
1542,000000	19,657200
1541,000000	19,623800
1540,000000	19,593400
1539,000000	19,578200
1538,000000	19,575700
1537,000000	19,559700
1536,000000	19,506800
1535,000000	19,483300
1534,000000	19,469800
1533,000000	19,425800
1532,000000	19,384200
1531,000000	19,359700
1530,000000	19,320700
1529,000000	19,286300
1528,000000	19,260500
1527,000000	19,226300
1526,000000	19,182800
1525,000000	19,140000
1524,000000	19,090400
1523,000000	19,036100
1522,000000	18,995400
1521,000000	18,953500
1520,000000	18,907100
1519,000000	18,865000
1518,000000	18,815200
1517,000000	18,767300
1516,000000	18,721400
1515,000000	18,668200
1514,000000	18,618800
1513,000000	18,575000
1512,000000	18,531800
1511,000000	18,470000
1510,000000	18,401000
1509,000000	18,351800
1508,000000	18,299900
1507,000000	18,250800
1506,000000	18,209200
1505,000000	18,152100
1504,000000	18,090100
1503,000000	18,028800
1502,000000	17,979500
1501,000000	17,939100
1500,000000	17,886900
1499,000000	17,846400
1498,000000	17,804600
1497,000000	17,750400
1496,000000	17,703000
1495,000000	17,675400
1494,000000	17,633700
1493,000000	17,573500
1492,000000	17,544400
1491,000000	17,506900
1490,000000	17,469800
1489,000000	17,446000
1488,000000	17,412700
1487,000000	17,386700
1486,000000	17,364300
1485,000000	17,319700
1484,000000	17,277100
1483,000000	17,239900
1482,000000	17,219800
1481,000000	17,200100
1480,000000	17,179700
1479,000000	17,153000
1478,000000	17,125800
1477,000000	17,119600
1476,000000	17,119900
1475,000000	17,099900
1474,000000	17,082700
1473,000000	17,074700
1472,000000	17,073700
1471,000000	17,068700
1470,000000	17,063800
1469,000000	17,060900
1468,000000	17,063100
1467,000000	17,059500
1466,000000	17,052800
1465,000000	17,054300
1464,000000	17,051100
1463,000000	17,051300
1462,000000	17,077900
1461,000000	17,092800
1460,000000	17,107200
1459,000000	17,133000
1458,000000	17,172500
1457,000000	17,211200
1456,000000	17,237500
1455,000000	17,276300
1454,000000	17,330600
1453,000000	17,392000
1452,000000	17,432800
1451,000000	17,487700
1450,000000	17,559700
1449,000000	17,610800
1448,000000	17,674900
1447,000000	17,744200
1446,000000	17,808700
1445,000000	17,876700
1444,000000	17,959100
1443,000000	18,038600
1442,000000	18,093400
1441,000000	18,183300
1440,000000	18,278300
1439,000000	18,352300
1438,000000	18,448100
1437,000000	18,550100
1436,000000	18,628700
1435,000000	18,731900
1434,000000	18,820300
1433,000000	18,946800
1432,000000	19,068400
1431,000000	19,184300
1430,000000	19,280000
1429,000000	19,392600
1428,000000	19,527400
1427,000000	19,674800
1426,000000	19,827700
1425,000000	19,957800
1424,000000	20,149900
1423,000000	20,347700
1422,000000	20,547300
1421,000000	20,721500
1420,000000	20,899800
1419,000000	21,120600
1418,000000	21,342900
1417,000000	21,580600
1416,000000	21,745200
1415,000000	21,970600
1414,000000	22,247400
1413,000000	22,510200
1412,000000	22,777900
1411,000000	23,019300
1410,000000	23,299000
1409,000000	23,609000
1408,000000	23,953900
1407,000000	24,326900
1406,000000	24,690000
1405,000000	25,024900
1404,000000	25,433200
1403,000000	25,818700
1402,000000	26,232800
1401,000000	26,575900
1400,000000	27,017900
1399,000000	27,478100
1398,000000	27,819400
1397,000000	28,085800
1396,000000	28,400000
1395,000000	28,824000
1394,000000	29,215800
1393,000000	29,504700
1392,000000	29,775500
1391,000000	30,163200
1390,000000	30,523800
1389,000000	30,847600
1388,000000	31,245000
1387,000000	31,724900
1386,000000	32,174800
1385,000000	32,661700
1384,000000	33,173400
1383,000000	33,721800
1382,000000	34,320900
1381,000000	34,838800
1380,000000	35,336700
1379,000000	35,580400
1378,000000	35,956900
1377,000000	36,163700
1376,000000	36,393500
1375,000000	36,577100
1374,000000	36,810200
1373,000000	37,042500
1372,000000	37,342400
1371,000000	37,676100
1370,000000	38,035700
1369,000000	38,338000
1368,000000	38,632100
1367,000000	38,929700
1366,000000	39,203800
1365,000000	39,412200
1364,000000	39,640300
1363,000000	39,831800
1362,000000	40,019300
1361,000000	40,179100
1360,000000	40,342900
1359,000000	40,455500
1358,000000	40,512900
1357,000000	40,595200
1356,000000	40,753700
1355,000000	40,923400
1354,000000	41,224200
1353,000000	41,559500
1352,000000	41,911200
1351,000000	42,349600
1350,000000	42,793700
1349,000000	43,220300
1348,000000	43,627300
1347,000000	43,975200
1346,000000	44,316900
1345,000000	44,631000
1344,000000	44,924800
1343,000000	45,270000
1342,000000	45,547800
1341,000000	45,847100
1340,000000	46,141000
1339,000000	46,442900
1338,000000	46,728400
1337,000000	47,002400
1336,000000	47,282500
1335,000000	47,555900
1334,000000	47,803400
1333,000000	48,070200
1332,000000	48,332400
1331,000000	48,576100
1330,000000	48,830000
1329,000000	49,056900
1328,000000	49,279000
1327,000000	49,530500
1326,000000	49,736600
1325,000000	49,932400
1324,000000	50,125000
1323,000000	50,337800
1322,000000	50,506000
1321,000000	50,688200
1320,000000	50,854800
1319,000000	51,028800
1318,000000	51,186400
1317,000000	51,370200
1316,000000	51,511400
1315,000000	51,661600
1314,000000	51,808700
1313,000000	51,934300
1312,000000	52,064700
1311,000000	52,188600
1310,000000	52,303900
1309,000000	52,424300
1308,000000	52,525500
1307,000000	52,625400
1306,000000	52,706300
1305,000000	52,788800
1304,000000	52,864400
1303,000000	52,945700
1302,000000	53,006300
1301,000000	53,047500
1300,000000	53,104300
1299,000000	53,152000
1298,000000	53,189500
1297,000000	53,227600
1296,000000	53,252500
1295,000000	53,277400
1294,000000	53,305000
1293,000000	53,322500
1292,000000	53,334500
1291,000000	53,359200
1290,000000	53,359600
1289,000000	53,353500
1288,000000	53,349700
1287,000000	53,328000
1286,000000	53,314100
1285,000000	53,290800
1284,000000	53,258300
1283,000000	53,214600
1282,000000	53,168300
1281,000000	53,126500
1280,000000	53,071600
1279,000000	53,037000
1278,000000	52,993500
1277,000000	52,942600
1276,000000	52,898300
1275,000000	52,846600
1274,000000	52,796100
1273,000000	52,759500
1272,000000	52,721700
1271,000000	52,690800
1270,000000	52,643600
1269,000000	52,602500
1268,000000	52,575200
1267,000000	52,531800
1266,000000	52,475500
1265,000000	52,442300
1264,000000	52,396300
1263,000000	52,346500
1262,000000	52,301400
1261,000000	52,260000
1260,000000	52,211600
1259,000000	52,174400
1258,000000	52,124800
1257,000000	52,060900
1256,000000	52,001900
1255,000000	51,955400
1254,000000	51,907600
1253,000000	51,831100
1252,000000	51,766300
1251,000000	51,705600
1250,000000	51,632800
1249,000000	51,570300
1248,000000	51,499600
1247,000000	51,410800
1246,000000	51,315300
1245,000000	51,229000
1244,000000	51,119700
1243,000000	51,013000
1242,000000	50,910100
1241,000000	50,793700
1240,000000	50,681400
1239,000000	50,561900
1238,000000	50,432400
1237,000000	50,314800
1236,000000	50,204100
1235,000000	50,068600
1234,000000	49,917800
1233,000000	49,771900
1232,000000	49,641100
1231,000000	49,498500
1230,000000	49,334200
1229,000000	49,182400
1228,000000	49,025500
1227,000000	48,868400
1226,000000	48,719400
1225,000000	48,565200
1224,000000	48,391200
1223,000000	48,223100
1222,000000	48,054500
1221,000000	47,878700
1220,000000	47,721300
1219,000000	47,558000
1218,000000	47,402700
1217,000000	47,248700
1216,000000	47,105900
1215,000000	46,960100
1214,000000	46,822100
1213,000000	46,690100
1212,000000	46,550400
1211,000000	46,418500
1210,000000	46,302600
1209,000000	46,189200
1208,000000	46,064800
1207,000000	45,959000
1206,000000	45,870800
1205,000000	45,790300
1204,000000	45,719300
1203,000000	45,666300
1202,000000	45,618000
1201,000000	45,581500
1200,000000	45,539300
1199,000000	45,484000
1198,000000	45,414300
1197,000000	45,342700
1196,000000	45,242600
1195,000000	45,093500
1194,000000	44,902300
1193,000000	44,658400
1192,000000	44,380200
1191,000000	44,045300
1190,000000	43,655700
1189,000000	43,261800
1188,000000	42,893500
1187,000000	42,598200
1186,000000	42,391500
1185,000000	42,270400
1184,000000	42,281200
1183,000000	42,409200
1182,000000	42,620700
1181,000000	42,965400
1180,000000	43,388700
1179,000000	43,847200
1178,000000	44,301000
1177,000000	44,735000
1176,000000	45,110900
1175,000000	45,449200
1174,000000	45,745500
1173,000000	46,036600
1172,000000	46,322800
1171,000000	46,616800
1170,000000	46,919700
1169,000000	47,205500
1168,000000	47,516400
1167,000000	47,834800
1166,000000	48,152500
1165,000000	48,468900
1164,000000	48,798300
1163,000000	49,123900
1162,000000	49,477600
1161,000000	49,825600
1160,000000	50,178600
1159,000000	50,518400
1158,000000	50,847700
1157,000000	51,159100
1156,000000	51,472500
1155,000000	51,743400
1154,000000	52,015600
1153,000000	52,220900
1152,000000	52,390000
1151,000000	52,513100
1150,000000	52,634100
1149,000000	52,741300
1148,000000	52,823100
1147,000000	52,898300
1146,000000	53,017600
1145,000000	53,162900
1144,000000	53,372900
1143,000000	53,607800
1142,000000	53,907300
1141,000000	54,240700
1140,000000	54,572500
1139,000000	54,929300
1138,000000	55,310100
1137,000000	55,673100
1136,000000	56,063100
1135,000000	56,496200
1134,000000	56,915200
1133,000000	57,324200
1132,000000	57,642800
1131,000000	57,988700
1130,000000	58,319000
1129,000000	58,605700
1128,000000	58,862200
1127,000000	59,071200
1126,000000	59,243100
1125,000000	59,389100
1124,000000	59,501600
1123,000000	59,593100
1122,000000	59,664400
1121,000000	59,736800
1120,000000	59,808900
1119,000000	59,857600
1118,000000	59,903600
1117,000000	59,921700
1116,000000	59,948900
1115,000000	59,968100
1114,000000	59,993300
1113,000000	59,994800
1112,000000	60,011200
1111,000000	60,000200
1110,000000	60,005600
1109,000000	60,034600
1108,000000	60,031600
1107,000000	60,035400
1106,000000	60,040200
1105,000000	60,029300
1104,000000	60,040000
1103,000000	60,042100
1102,000000	60,065200
1101,000000	60,061700
1100,000000	60,068200
1099,000000	60,057000
1098,000000	60,062400
1097,000000	60,049200
1096,000000	60,028900
1095,000000	60,005200
1094,000000	60,019900
1093,000000	59,972300
1092,000000	59,956300
1091,000000	59,950100
1090,000000	59,923700
1089,000000	59,877200
1088,000000	59,854600
1087,000000	59,840100
1086,000000	59,790300
1085,000000	59,748900
1084,000000	59,713700
1083,000000	59,693500
1082,000000	59,639800
1081,000000	59,614000
1080,000000	59,545700
1079,000000	59,501100
1078,000000	59,473400
1077,000000	59,433000
1076,000000	59,369800
1075,000000	59,354400
1074,000000	59,295100
1073,000000	59,253100
1072,000000	59,225400
1071,000000	59,192800
1070,000000	59,150600
1069,000000	59,102100
1068,000000	59,062900
1067,000000	59,026100
1066,000000	58,980500
1065,000000	58,940900
1064,000000	58,891600
1063,000000	58,858300
1062,000000	58,825400
1061,000000	58,791400
1060,000000	58,738600
1059,000000	58,712000
1058,000000	58,666800
1057,000000	58,633600
1056,000000	58,599300
1055,000000	58,552900
1054,000000	58,525400
1053,000000	58,495500
1052,000000	58,442700
1051,000000	58,412000
1050,000000	58,395400
1049,000000	58,384000
1048,000000	58,361300
1047,000000	58,333600
1046,000000	58,312300
1045,000000	58,300100
1044,000000	58,276200
1043,000000	58,262300
1042,000000	58,252800
1041,000000	58,244000
1040,000000	58,229800
1039,000000	58,215700
1038,000000	58,203800
1037,000000	58,197500
1036,000000	58,185400
1035,000000	58,170800
1034,000000	58,142500
1033,000000	58,131000
1032,000000	58,100900
1031,000000	58,079600
1030,000000	58,059900
1029,000000	58,036600
1028,000000	58,024200
1027,000000	58,010000
1026,000000	57,987700
1025,000000	57,960100
1024,000000	57,920700
1023,000000	57,898400
1022,000000	57,878300
1021,000000	57,845600
1020,000000	57,825300
1019,000000	57,806600
1018,000000	57,792400
1017,000000	57,785700
1016,000000	57,773900
1015,000000	57,774600
1014,000000	57,784100
1013,000000	57,800800
1012,000000	57,797700
1011,000000	57,839000
1010,000000	57,867800
1009,000000	57,902000
1008,000000	57,938900
1007,000000	57,995700
1006,000000	58,054900
1005,000000	58,111300
1004,000000	58,165300
1003,000000	58,222600
1002,000000	58,279900
1001,000000	58,341800
1000,000000	58,413100
999,000000	58,478300
998,000000	58,555000
997,000000	58,619800
996,000000	58,693600
995,000000	58,798200
994,000000	58,879300
993,000000	58,962000
992,000000	59,058700
991,000000	59,164200
990,000000	59,279500
989,000000	59,361500
988,000000	59,464900
987,000000	59,584900
986,000000	59,698500
985,000000	59,835700
984,000000	59,970500
983,000000	60,093600
982,000000	60,221600
981,000000	60,367700
980,000000	60,490300
979,000000	60,638200
978,000000	60,778400
977,000000	60,923200
976,000000	61,049200
975,000000	61,201800
974,000000	61,366100
973,000000	61,511400
972,000000	61,664500
971,000000	61,821500
970,000000	61,975100
969,000000	62,128700
968,000000	62,284100
967,000000	62,446700
966,000000	62,606900
965,000000	62,764600
964,000000	62,935200
963,000000	63,112000
962,000000	63,287900
961,000000	63,456600
960,000000	63,613000
959,000000	63,778000
958,000000	63,951100
957,000000	64,115800
956,000000	64,282200
955,000000	64,427900
954,000000	64,585400
953,000000	64,745900
952,000000	64,892700
951,000000	65,049000
950,000000	65,189400
949,000000	65,327400
948,000000	65,478600
947,000000	65,622600
946,000000	65,750700
945,000000	65,884200
944,000000	66,028800
943,000000	66,160900
942,000000	66,280500
941,000000	66,407500
940,000000	66,530600
939,000000	66,648500
938,000000	66,763700
937,000000	66,894400
936,000000	67,007100
935,000000	67,111200
934,000000	67,222100
933,000000	67,325200
932,000000	67,432200
931,000000	67,555200
930,000000	67,664200
929,000000	67,748200
928,000000	67,863800
927,000000	67,965700
926,000000	68,062500
925,000000	68,155700
924,000000	68,239900
923,000000	68,373400
922,000000	68,477600
921,000000	68,548400
920,000000	68,643000
919,000000	68,735800
918,000000	68,824000
917,000000	68,893600
916,000000	68,968700
915,000000	69,037400
914,000000	69,100000
913,000000	69,165300
912,000000	69,254400
911,000000	69,318000
910,000000	69,367000
909,000000	69,403100
908,000000	69,440500
907,000000	69,498200
906,000000	69,555900
905,000000	69,605100
904,000000	69,668100
903,000000	69,728800
902,000000	69,788100
901,000000	69,850500
900,000000	69,910500
899,000000	69,952900
898,000000	69,986000
897,000000	70,022300
896,000000	70,064900
895,000000	70,110600
894,000000	70,167000
893,000000	70,192800
892,000000	70,174100
891,000000	70,167100
890,000000	70,197500
889,000000	70,179500
888,000000	70,178700
887,000000	70,190500
886,000000	70,177000
885,000000	70,134100
884,000000	70,099500
883,000000	70,034300
882,000000	69,993600
881,000000	69,900800
880,000000	69,852600
879,000000	69,762600
878,000000	69,680000
877,000000	69,562300
876,000000	69,401000
875,000000	69,276000
874,000000	69,069200
873,000000	68,806700
872,000000	68,494800
871,000000	68,203100
870,000000	68,036500
869,000000	68,013500
868,000000	68,053800
867,000000	68,122800
866,000000	68,175800
865,000000	68,213900
864,000000	68,242900
863,000000	68,248400
862,000000	68,297000
861,000000	68,346900
860,000000	68,356200
859,000000	68,402300
858,000000	68,422100
857,000000	72,134300
856,000000	72,411800
855,000000	72,673000
854,000000	72,506300
853,000000	72,839100
852,000000	72,820300
851,000000	72,761500
850,000000	72,721200
849,000000	72,366800
848,000000	72,482300
847,000000	72,375000
846,000000	72,074100
845,000000	72,432800
844,000000	72,245100
843,000000	72,434600
842,000000	72,307100
841,000000	72,049600
840,000000	72,168100
839,000000	71,940600
838,000000	72,056100
837,000000	72,116400
836,000000	72,140300
835,000000	72,294700
834,000000	72,460300
833,000000	72,588500
832,000000	72,459500
831,000000	72,907300
830,000000	72,806400
829,000000	73,335200
828,000000	73,362900
827,000000	73,821000
826,000000	74,331500
825,000000	74,582700
824,000000	74,900700
823,000000	75,539100
822,000000	75,655000
821,000000	76,106100
820,000000	76,676600
819,000000	77,156800
818,000000	77,373700
817,000000	77,635400
816,000000	78,030400
815,000000	78,274700
814,000000	78,785200
813,000000	79,249300
812,000000	79,413500
811,000000	79,875700
810,000000	80,053800
809,000000	80,493400
808,000000	80,721800
807,000000	80,927900
806,000000	81,260900
805,000000	81,601500
804,000000	81,695600
803,000000	82,231000
802,000000	82,292200
801,000000	82,635300
800,000000	82,771800
799,000000	82,944400
798,000000	83,004000
797,000000	83,365100
796,000000	83,665300
795,000000	83,845700
794,000000	83,925500
793,000000	84,190400
792,000000	84,415000
791,000000	84,742300
790,000000	84,798400
789,000000	85,142200
788,000000	85,413500
787,000000	85,505300
786,000000	85,731100
785,000000	85,920200
784,000000	86,229600
783,000000	86,242000
782,000000	86,518400
781,000000	86,832600
780,000000	87,077600
779,000000	87,169100
778,000000	87,195200
777,000000	87,510400
776,000000	87,516100
775,000000	87,482200
774,000000	87,576900
773,000000	87,819800
772,000000	87,821600
771,000000	87,920300
770,000000	87,962300
769,000000	87,919900
768,000000	87,991200
767,000000	88,055300
766,000000	88,151400
765,000000	88,234000
764,000000	88,125500
763,000000	88,371600
762,000000	88,602200
761,000000	88,463500
760,000000	88,584100
759,000000	88,492200
758,000000	88,583400
757,000000	88,592600
756,000000	88,589100
755,000000	88,685000
754,000000	88,681400
753,000000	88,786800
752,000000	88,779600
751,000000	88,895700
750,000000	88,824100
749,000000	88,765600
748,000000	88,629500
747,000000	88,506900
746,000000	88,566700
745,000000	88,507700
744,000000	88,345900
743,000000	88,343100
742,000000	88,197000
741,000000	88,102100
740,000000	88,006400
739,000000	87,806900
738,000000	87,685900
737,000000	87,496000
736,000000	87,331100
735,000000	87,120000
734,000000	86,834900
733,000000	86,611000
732,000000	86,444400
731,000000	86,162700
730,000000	85,801400
729,000000	85,538500
728,000000	85,203600
727,000000	84,695600
726,000000	84,270700
725,000000	83,918700
724,000000	83,427800
723,000000	82,896300
722,000000	82,411500
721,000000	81,798100
720,000000	81,330700
719,000000	80,920600
718,000000	80,247200
717,000000	79,696800
716,000000	79,143200
715,000000	78,540700
714,000000	77,987700
713,000000	77,455600
712,000000	76,825200
711,000000	76,270400
710,000000	75,752700
709,000000	75,197800
708,000000	74,651300
707,000000	74,166200
706,000000	73,635300
705,000000	73,180300
704,000000	72,715600
703,000000	72,297300
702,000000	71,897100
701,000000	71,487700
700,000000	71,165300
699,000000	70,802200
698,000000	70,526900
697,000000	70,265300
696,000000	69,983900
695,000000	69,729000
694,000000	69,512500
693,000000	69,333400
692,000000	69,165400
691,000000	68,995200
690,000000	68,854800
689,000000	68,841800
688,000000	68,744700
687,000000	68,607400
686,000000	68,573100
685,000000	68,571200
684,000000	68,570200
683,000000	68,534900
682,000000	68,482400
681,000000	68,496700
680,000000	68,487200
679,000000	68,434900
678,000000	68,426000
677,000000	68,398600
676,000000	68,414700
675,000000	68,378600
674,000000	68,249700
673,000000	68,162400
672,000000	68,068500
671,000000	67,957000
670,000000	67,836700
669,000000	67,642400
668,000000	67,449400
667,000000	67,230300
666,000000	66,980100
665,000000	66,772300
664,000000	66,475500
663,000000	66,166000
662,000000	65,841900
661,000000	65,409500
660,000000	64,932900
659,000000	64,372600
658,000000	63,809400
657,000000	63,210400
656,000000	62,547500
655,000000	61,820200
654,000000	61,066400
653,000000	60,253600
652,000000	59,436500
651,000000	58,633200
650,000000	57,834500
649,000000	57,068400
648,000000	56,343700
647,000000	55,645700
646,000000	55,043500
645,000000	54,574600
644,000000	54,156300
643,000000	53,816700
642,000000	53,602600
641,000000	53,517700
640,000000	53,499700
639,000000	53,545900
638,000000	53,737200
637,000000	54,012800
636,000000	54,366300
635,000000	54,832200
634,000000	55,403400
633,000000	56,054600
632,000000	56,767100
631,000000	57,582200
630,000000	58,480600
629,000000	59,426300
628,000000	60,439600
627,000000	61,553200
626,000000	62,706800
625,000000	63,937900
624,000000	65,200800
623,000000	66,493800
622,000000	67,844200
621,000000	69,176700
620,000000	70,460700
619,000000	71,778300
618,000000	73,069000
617,000000	74,275400
616,000000	75,470700
615,000000	76,592000
614,000000	77,635300
613,000000	78,678000
612,000000	79,725100
611,000000	80,654400
610,000000	81,518300
609,000000	82,335200
608,000000	83,161800
607,000000	83,919900
606,000000	84,648800
605,000000	85,358800
604,000000	85,977900
603,000000	86,628100
602,000000	87,238700
601,000000	87,825500
600,000000	88,378200
599,000000	88,886000
598,000000	89,312900
597,000000	89,750000
596,000000	90,124400
595,000000	90,504800
594,000000	90,837200
593,000000	91,105900
592,000000	91,360700
591,000000	91,585700
590,000000	91,733500
589,000000	91,952700
588,000000	92,028600
587,000000	92,116900
586,000000	92,264300
585,000000	92,305100
584,000000	92,350800
583,000000	92,362000
582,000000	92,378700
581,000000	92,389000
580,000000	92,391500
579,000000	92,359800
578,000000	92,283500
577,000000	92,259400
576,000000	92,207200
575,000000	92,123600
574,000000	92,028900
573,000000	91,973500
572,000000	91,864500
571,000000	91,756600
570,000000	91,607900
569,000000	91,480400
568,000000	91,318200
567,000000	91,157000
566,000000	90,934600
565,000000	90,689500
564,000000	90,413100
563,000000	90,140500
562,000000	89,843000
561,000000	89,547200
560,000000	89,180400
559,000000	88,745900
558,000000	88,325100
557,000000	87,897500
556,000000	87,433800
555,000000	86,946300
554,000000	86,409200
553,000000	85,827700
552,000000	85,241800
551,000000	84,626000
550,000000	83,964300
549,000000	83,290500
548,000000	82,598500
547,000000	81,886400
546,000000	81,164200
545,000000	80,381800
544,000000	79,631000
543,000000	78,782700
542,000000	77,918700
541,000000	77,043200
540,000000	76,133800
539,000000	75,198700
538,000000	74,247700
537,000000	73,237600
536,000000	72,192700
535,000000	71,136100
534,000000	69,995200
533,000000	68,856800
532,000000	67,605100
531,000000	66,308800
530,000000	64,993700
529,000000	63,696800
528,000000	62,245500
527,000000	60,836800
526,000000	59,354200
525,000000	57,874400
524,000000	56,327500
523,000000	54,752400
522,000000	53,173900
521,000000	51,565900
520,000000	49,916300
519,000000	48,376000
518,000000	46,825900
517,000000	45,265500
516,000000	43,814300
515,000000	42,398200
514,000000	41,000600
513,000000	39,691400
512,000000	38,521900
511,000000	37,394200
510,000000	36,365700
509,000000	35,462900
508,000000	34,692500
507,000000	34,002900
506,000000	33,442200
505,000000	32,926100
504,000000	32,518800
503,000000	32,251700
502,000000	32,011600
501,000000	31,875900
500,000000	31,796300
499,000000	31,793000
498,000000	31,776100
497,000000	31,795000
496,000000	31,860400
495,000000	31,948100
494,000000	32,024200
493,000000	32,110500
492,000000	32,195900
491,000000	32,225700
490,000000	32,293200
489,000000	32,318800
488,000000	32,314100
487,000000	32,317800
486,000000	32,260100
485,000000	32,206300
484,000000	32,116600
483,000000	32,017800
482,000000	31,878600
481,000000	31,719900
480,000000	31,554600
479,000000	31,356700
478,000000	31,146500
477,000000	30,953000
476,000000	30,715500
475,000000	30,534900
474,000000	30,272000
473,000000	30,055500
472,000000	29,823900
471,000000	29,583100
470,000000	29,329500
469,000000	29,096900
468,000000	28,848400
467,000000	28,597800
466,000000	28,334000
465,000000	28,064000
464,000000	27,801200
463,000000	27,564900
462,000000	27,303400
461,000000	27,001100
460,000000	26,709900
459,000000	26,447800
458,000000	26,152800
457,000000	25,887600
456,000000	25,530900
455,000000	25,198400
454,000000	24,841300
453,000000	24,443100
452,000000	24,052500
451,000000	23,643800
450,000000	23,189800
449,000000	22,790900
448,000000	22,285500
447,000000	21,828700
446,000000	21,285200
445,000000	20,773300
444,000000	20,263100
443,000000	19,655700
442,000000	19,095400
441,000000	18,501100
440,000000	17,909900
439,000000	17,308500
438,000000	16,714200
437,000000	16,108300
436,000000	15,539500
435,000000	14,988500
434,000000	14,393900
433,000000	13,867000
432,000000	13,319900
431,000000	12,807700
430,000000	12,331700
429,000000	11,877800
428,000000	11,416800
427,000000	11,007900
426,000000	10,589200
425,000000	10,223100
424,000000	9,896100
423,000000	9,564800
422,000000	9,254200
421,000000	8,975500
420,000000	8,717400
419,000000	8,529700
418,000000	8,304300
417,000000	8,105700
416,000000	7,935900
415,000000	7,805000
414,000000	7,654900
413,000000	7,535200
412,000000	7,406100
411,000000	7,295900
410,000000	7,215100
409,000000	7,127900
408,000000	7,054900
407,000000	6,995800
406,000000	6,951100
405,000000	6,875900
404,000000	6,816600
403,000000	6,777300
402,000000	6,766800
401,000000	6,746400
400,000000	6,707500
399,000000	6,675700
398,000000	6,648900
397,000000	6,637100
396,000000	6,599200
395,000000	6,583300
394,000000	6,561800
393,000000	6,530200
392,000000	6,502900
391,000000	6,494500
390,000000	6,491700
389,000000	6,484600
388,000000	6,448300
387,000000	6,421400
386,000000	6,428500
385,000000	6,399900
384,000000	6,390400
383,000000	6,361700
382,000000	6,330400
381,000000	6,315200
380,000000	6,299400
379,000000	6,268200
378,000000	6,256800
377,000000	6,244000
376,000000	6,205700
375,000000	6,200600
374,000000	6,224000
373,000000	6,172200
372,000000	6,166100
371,000000	6,123000
370,000000	6,092500
369,000000	6,049100
368,000000	5,995800
367,000000	6,031900
366,000000	6,072500
365,000000	6,072300
364,000000	6,048100
363,000000	6,011600
362,000000	5,989300
361,000000	5,957500
360,000000	5,947400
359,000000	5,898400
358,000000	5,878900
357,000000	5,894000
356,000000	5,848000
355,000000	5,857500
354,000000	5,871200
353,000000	5,836200
352,000000	5,771900
351,000000	5,739000
350,000000	5,744500
349,000000	5,751200
348,000000	5,741800
347,000000	5,697400
346,000000	5,763200
345,000000	5,743100
344,000000	5,650100
343,000000	5,702400
342,000000	5,669700
341,000000	5,665500
340,000000	5,679900
339,000000	5,694600
338,000000	5,684900
337,000000	5,601900
336,000000	5,604200
335,000000	5,580500
334,000000	5,574300
333,000000	5,573000
332,000000	5,558400
331,000000	5,593600
330,000000	5,551300
329,000000	5,597900
328,000000	5,622500
327,000000	5,477500
326,000000	5,471700
325,000000	5,485100
324,000000	5,476200
323,000000	5,517300
322,000000	5,554500
321,000000	5,534000
320,000000	5,549100
319,000000	5,533000
318,000000	5,630800
317,000000	5,568700
316,000000	5,437200
315,000000	5,463700
314,000000	5,503300
313,000000	5,516500
312,000000	5,533400
311,000000	5,528300
310,000000	5,501600
309,000000	5,513300
308,000000	5,546700
307,000000	5,537800
306,000000	5,544000
305,000000	5,573700
304,000000	5,556200
303,000000	5,548300
302,000000	5,575400
301,000000	5,580300
300,000000	5,582900
299,000000	5,582100
298,000000	5,611600
297,000000	5,629400
296,000000	5,622200
295,000000	5,621900
294,000000	5,615600
293,000000	5,617800
292,000000	5,658600
291,000000	5,670000
290,000000	5,671800
289,000000	5,683600
288,000000	5,678000
287,000000	5,709200
286,000000	5,727800
285,000000	5,705300
284,000000	5,688700
283,000000	5,736900
282,000000	5,762000
281,000000	5,776600
280,000000	5,752400
279,000000	5,777200
278,000000	5,834500
277,000000	5,803100
276,000000	5,789800
275,000000	5,851000
274,000000	5,854000
273,000000	5,842500
272,000000	5,896800
271,000000	5,886000
270,000000	5,869000
269,000000	5,942700
268,000000	5,956600
267,000000	5,960700
266,000000	5,946000
265,000000	5,981500
264,000000	6,029200
263,000000	6,016300
262,000000	6,061400
261,000000	6,079200
260,000000	6,092600
259,000000	6,109100
258,000000	6,105600
257,000000	6,171000
256,000000	6,184700
255,000000	6,185000
254,000000	6,166900
253,000000	6,202400
252,000000	6,244700
251,000000	6,215700
250,000000	6,244100
