PE UV       SUBTECH     SPECTRUM    ASCII       PEDS        4.00        
   -1
CICIMAUCR0240-1.Sample.ASC
24/06/20
11:15:44.00
24/06/20
11:15:44.00
Vinicio Soto Monge
C. resplendens. Sex M. Dorsal.
250,000000
1
Lambda 1050
1050L1511233
PerkinElmer UV WinLab 6.3.2.0749 / 2.02.05 Lambda 900 UV/VIS/NIR, Aug  7 2015 09:38:08

0
0
3350/servo 860,8/2
0
0
UV/VIS
1
1
1
DoubleDePol,CommonBeamDepol,RBeamAtt,SBeamAtt,60mm sphere, WB InGaAs Detector
0
0
0
0
Program
Program
3350/servo 860,8/2
3350/0,2 860,8/0,2
3350/0,2 860,8/0,2
0
15.00
 
 
 
0
 
860,8
319,2
860,8
Front
100
on
S:100 R:100
0
0
0
0
 
0
 
 
 
0
 
 
0
0
0
0
0
 
 
 
 
0
0


0
0
#HDR
-1
-1
#GR
nm
%R
1.0
0.0
2500,000000
-1,000000
2251
8
90,154900
5,495900
#DATA
2500,000000	10,390200
2499,000000	10,360700
2498,000000	10,258200
2497,000000	10,271600
2496,000000	10,200400
2495,000000	10,355000
2494,000000	10,215400
2493,000000	10,131800
2492,000000	10,135200
2491,000000	10,194200
2490,000000	10,155900
2489,000000	10,116600
2488,000000	10,107700
2487,000000	10,110800
2486,000000	10,053100
2485,000000	10,133300
2484,000000	10,088100
2483,000000	10,080900
2482,000000	10,091300
2481,000000	10,099800
2480,000000	10,081700
2479,000000	10,099300
2478,000000	10,108600
2477,000000	10,172900
2476,000000	10,154300
2475,000000	10,173100
2474,000000	10,181900
2473,000000	10,197200
2472,000000	10,183300
2471,000000	10,193600
2470,000000	10,246500
2469,000000	10,256200
2468,000000	10,291900
2467,000000	10,296200
2466,000000	10,318100
2465,000000	10,345400
2464,000000	10,358800
2463,000000	10,384600
2462,000000	10,431700
2461,000000	10,518700
2460,000000	10,521500
2459,000000	10,572900
2458,000000	10,637500
2457,000000	10,674800
2456,000000	10,718800
2455,000000	10,796100
2454,000000	10,832900
2453,000000	10,895000
2452,000000	10,981900
2451,000000	11,059900
2450,000000	11,152200
2449,000000	11,207200
2448,000000	11,269400
2447,000000	11,340800
2446,000000	11,399900
2445,000000	11,508500
2444,000000	11,579100
2443,000000	11,673500
2442,000000	11,739800
2441,000000	11,826100
2440,000000	11,891500
2439,000000	11,967600
2438,000000	12,050400
2437,000000	12,123700
2436,000000	12,182800
2435,000000	12,267500
2434,000000	12,354000
2433,000000	12,408800
2432,000000	12,479000
2431,000000	12,523800
2430,000000	12,608300
2429,000000	12,700400
2428,000000	12,757200
2427,000000	12,802800
2426,000000	12,865300
2425,000000	12,925600
2424,000000	12,992300
2423,000000	13,044200
2422,000000	13,089600
2421,000000	13,121400
2420,000000	13,184500
2419,000000	13,232300
2418,000000	13,279800
2417,000000	13,328500
2416,000000	13,377700
2415,000000	13,428400
2414,000000	13,473900
2413,000000	13,511600
2412,000000	13,546100
2411,000000	13,587300
2410,000000	13,630300
2409,000000	13,676200
2408,000000	13,702100
2407,000000	13,737700
2406,000000	13,774100
2405,000000	13,804100
2404,000000	13,836800
2403,000000	13,890900
2402,000000	13,930900
2401,000000	13,958100
2400,000000	14,006400
2399,000000	14,042200
2398,000000	14,071700
2397,000000	14,096100
2396,000000	14,115400
2395,000000	14,154600
2394,000000	14,187300
2393,000000	14,214200
2392,000000	14,244100
2391,000000	14,265700
2390,000000	14,293800
2389,000000	14,321000
2388,000000	14,337200
2387,000000	14,346400
2386,000000	14,368000
2385,000000	14,393200
2384,000000	14,404600
2383,000000	14,413400
2382,000000	14,416300
2381,000000	14,423000
2380,000000	14,424300
2379,000000	14,425400
2378,000000	14,423100
2377,000000	14,418400
2376,000000	14,422400
2375,000000	14,430000
2374,000000	14,422400
2373,000000	14,407500
2372,000000	14,393200
2371,000000	14,366100
2370,000000	14,365300
2369,000000	14,370500
2368,000000	14,347600
2367,000000	14,324400
2366,000000	14,312200
2365,000000	14,299000
2364,000000	14,266600
2363,000000	14,237700
2362,000000	14,225100
2361,000000	14,195300
2360,000000	14,152200
2359,000000	14,120000
2358,000000	14,084600
2357,000000	14,060000
2356,000000	14,039400
2355,000000	14,007600
2354,000000	13,979600
2353,000000	13,979800
2352,000000	13,972200
2351,000000	13,949900
2350,000000	13,949800
2349,000000	13,962600
2348,000000	13,983500
2347,000000	14,004900
2346,000000	14,036900
2345,000000	14,066200
2344,000000	14,088100
2343,000000	14,125600
2342,000000	14,160700
2341,000000	14,191900
2340,000000	14,224000
2339,000000	14,249400
2338,000000	14,268400
2337,000000	14,302200
2336,000000	14,327000
2335,000000	14,335200
2334,000000	14,337800
2333,000000	14,334300
2332,000000	14,337900
2331,000000	14,332400
2330,000000	14,319400
2329,000000	14,302500
2328,000000	14,301500
2327,000000	14,275100
2326,000000	14,241300
2325,000000	14,217600
2324,000000	14,170800
2323,000000	14,131400
2322,000000	14,080300
2321,000000	14,017400
2320,000000	13,952800
2319,000000	13,874800
2318,000000	13,797700
2317,000000	13,726700
2316,000000	13,632600
2315,000000	13,544700
2314,000000	13,464800
2313,000000	13,373100
2312,000000	13,291700
2311,000000	13,212800
2310,000000	13,146700
2309,000000	13,075000
2308,000000	13,012300
2307,000000	12,962600
2306,000000	12,951200
2305,000000	12,932300
2304,000000	12,927500
2303,000000	12,949800
2302,000000	12,979100
2301,000000	13,011200
2300,000000	13,069700
2299,000000	13,103100
2298,000000	13,186200
2297,000000	13,255400
2296,000000	13,322500
2295,000000	13,386000
2294,000000	13,478700
2293,000000	13,541300
2292,000000	13,608100
2291,000000	13,668500
2290,000000	13,719700
2289,000000	13,761400
2288,000000	13,785300
2287,000000	13,834000
2286,000000	13,849000
2285,000000	13,845600
2284,000000	13,848600
2283,000000	13,870700
2282,000000	13,863300
2281,000000	13,828800
2280,000000	13,803600
2279,000000	13,778400
2278,000000	13,758900
2277,000000	13,735700
2276,000000	13,710700
2275,000000	13,687800
2274,000000	13,678300
2273,000000	13,678400
2272,000000	13,656400
2271,000000	13,663300
2270,000000	13,678100
2269,000000	13,701800
2268,000000	13,739500
2267,000000	13,804900
2266,000000	13,866800
2265,000000	13,955100
2264,000000	14,083400
2263,000000	14,195400
2262,000000	14,331800
2261,000000	14,495200
2260,000000	14,660200
2259,000000	14,833300
2258,000000	15,033200
2257,000000	15,238100
2256,000000	15,433700
2255,000000	15,645100
2254,000000	15,866800
2253,000000	16,079300
2252,000000	16,275800
2251,000000	16,473400
2250,000000	16,657300
2249,000000	16,844700
2248,000000	17,037200
2247,000000	17,191600
2246,000000	17,358100
2245,000000	17,476900
2244,000000	17,632000
2243,000000	17,719000
2242,000000	17,843800
2241,000000	17,945200
2240,000000	18,046200
2239,000000	18,132200
2238,000000	18,186500
2237,000000	18,270000
2236,000000	18,304300
2235,000000	18,372600
2234,000000	18,416800
2233,000000	18,455200
2232,000000	18,489300
2231,000000	18,506300
2230,000000	18,527200
2229,000000	18,530700
2228,000000	18,532300
2227,000000	18,513900
2226,000000	18,494000
2225,000000	18,494700
2224,000000	18,458300
2223,000000	18,446500
2222,000000	18,407800
2221,000000	18,361700
2220,000000	18,338000
2219,000000	18,300100
2218,000000	18,244300
2217,000000	18,203700
2216,000000	18,154800
2215,000000	18,107500
2214,000000	18,055700
2213,000000	18,016600
2212,000000	17,955600
2211,000000	17,916200
2210,000000	17,867000
2209,000000	17,842600
2208,000000	17,803000
2207,000000	17,780300
2206,000000	17,743400
2205,000000	17,718400
2204,000000	17,689400
2203,000000	17,677800
2202,000000	17,642300
2201,000000	17,624900
2200,000000	17,596100
2199,000000	17,591100
2198,000000	17,569900
2197,000000	17,554600
2196,000000	17,527000
2195,000000	17,516100
2194,000000	17,491500
2193,000000	17,486500
2192,000000	17,471700
2191,000000	17,449400
2190,000000	17,449000
2189,000000	17,425900
2188,000000	17,421200
2187,000000	17,381200
2186,000000	17,373700
2185,000000	17,365900
2184,000000	17,344900
2183,000000	17,314600
2182,000000	17,304300
2181,000000	17,289700
2180,000000	17,285800
2179,000000	17,271600
2178,000000	17,249000
2177,000000	17,231600
2176,000000	17,234400
2175,000000	17,232100
2174,000000	17,222600
2173,000000	17,234900
2172,000000	17,238400
2171,000000	17,252900
2170,000000	17,242200
2169,000000	17,262600
2168,000000	17,273200
2167,000000	17,291200
2166,000000	17,322800
2165,000000	17,337800
2164,000000	17,360300
2163,000000	17,401200
2162,000000	17,434600
2161,000000	17,452100
2160,000000	17,495000
2159,000000	17,533500
2158,000000	17,580300
2157,000000	17,632700
2156,000000	17,684800
2155,000000	17,736000
2154,000000	17,796700
2153,000000	17,846100
2152,000000	17,912400
2151,000000	17,967600
2150,000000	18,028400
2149,000000	18,094600
2148,000000	18,138000
2147,000000	18,202300
2146,000000	18,267500
2145,000000	18,334100
2144,000000	18,399800
2143,000000	18,455100
2142,000000	18,508900
2141,000000	18,568300
2140,000000	18,632100
2139,000000	18,682500
2138,000000	18,734700
2137,000000	18,775300
2136,000000	18,836900
2135,000000	18,875100
2134,000000	18,922600
2133,000000	18,960500
2132,000000	19,005600
2131,000000	19,044100
2130,000000	19,085600
2129,000000	19,101800
2128,000000	19,120400
2127,000000	19,131100
2126,000000	19,160500
2125,000000	19,188100
2124,000000	19,203700
2123,000000	19,230800
2122,000000	19,253800
2121,000000	19,247000
2120,000000	19,238200
2119,000000	19,255500
2118,000000	19,254500
2117,000000	19,250300
2116,000000	19,236700
2115,000000	19,250300
2114,000000	19,242300
2113,000000	19,215000
2112,000000	19,219200
2111,000000	19,212500
2110,000000	19,188300
2109,000000	19,167400
2108,000000	19,161300
2107,000000	19,140500
2106,000000	19,123800
2105,000000	19,104100
2104,000000	19,092700
2103,000000	19,082500
2102,000000	19,049300
2101,000000	19,030000
2100,000000	19,011000
2099,000000	19,000100
2098,000000	18,984500
2097,000000	18,966900
2096,000000	18,950900
2095,000000	18,926100
2094,000000	18,916000
2093,000000	18,919500
2092,000000	18,916900
2091,000000	18,911000
2090,000000	18,902100
2089,000000	18,876800
2088,000000	18,866200
2087,000000	18,850600
2086,000000	18,837200
2085,000000	18,828000
2084,000000	18,792500
2083,000000	18,768100
2082,000000	18,743700
2081,000000	18,722000
2080,000000	18,693200
2079,000000	18,646100
2078,000000	18,603500
2077,000000	18,559300
2076,000000	18,515500
2075,000000	18,471500
2074,000000	18,420300
2073,000000	18,359300
2072,000000	18,295800
2071,000000	18,235100
2070,000000	18,168200
2069,000000	18,094000
2068,000000	18,020900
2067,000000	17,952900
2066,000000	17,876900
2065,000000	17,806700
2064,000000	17,733300
2063,000000	17,651000
2062,000000	17,581900
2061,000000	17,512700
2060,000000	17,435500
2059,000000	17,378500
2058,000000	17,328500
2057,000000	17,277600
2056,000000	17,225000
2055,000000	17,193300
2054,000000	17,172400
2053,000000	17,155800
2052,000000	17,165400
2051,000000	17,191200
2050,000000	17,207200
2049,000000	17,240700
2048,000000	17,293900
2047,000000	17,358900
2046,000000	17,421300
2045,000000	17,474500
2044,000000	17,571800
2043,000000	17,651100
2042,000000	17,743400
2041,000000	17,848400
2040,000000	17,925500
2039,000000	18,018700
2038,000000	18,109000
2037,000000	18,193600
2036,000000	18,268900
2035,000000	18,321200
2034,000000	18,388200
2033,000000	18,452000
2032,000000	18,506000
2031,000000	18,563200
2030,000000	18,599800
2029,000000	18,642000
2028,000000	18,671600
2027,000000	18,703200
2026,000000	18,732900
2025,000000	18,774100
2024,000000	18,792900
2023,000000	18,819400
2022,000000	18,818800
2021,000000	18,837700
2020,000000	18,847900
2019,000000	18,853600
2018,000000	18,836900
2017,000000	18,841900
2016,000000	18,844200
2015,000000	18,828300
2014,000000	18,817400
2013,000000	18,804900
2012,000000	18,789900
2011,000000	18,765000
2010,000000	18,741500
2009,000000	18,721800
2008,000000	18,705900
2007,000000	18,652800
2006,000000	18,623700
2005,000000	18,603000
2004,000000	18,557400
2003,000000	18,509900
2002,000000	18,464700
2001,000000	18,410000
2000,000000	18,362000
1999,000000	18,302700
1998,000000	18,246600
1997,000000	18,198200
1996,000000	18,117500
1995,000000	18,052100
1994,000000	17,981500
1993,000000	17,929700
1992,000000	17,847800
1991,000000	17,779100
1990,000000	17,703200
1989,000000	17,645700
1988,000000	17,547100
1987,000000	17,460700
1986,000000	17,376500
1985,000000	17,304100
1984,000000	17,211300
1983,000000	17,114600
1982,000000	17,055200
1981,000000	16,945200
1980,000000	16,876700
1979,000000	16,793400
1978,000000	16,681000
1977,000000	16,605700
1976,000000	16,520400
1975,000000	16,447600
1974,000000	16,360700
1973,000000	16,275900
1972,000000	16,201800
1971,000000	16,127600
1970,000000	16,055700
1969,000000	15,967900
1968,000000	15,883200
1967,000000	15,804400
1966,000000	15,737000
1965,000000	15,670400
1964,000000	15,586800
1963,000000	15,503900
1962,000000	15,449100
1961,000000	15,373500
1960,000000	15,302200
1959,000000	15,229300
1958,000000	15,165500
1957,000000	15,084500
1956,000000	15,012400
1955,000000	14,959500
1954,000000	14,908100
1953,000000	14,828700
1952,000000	14,744500
1951,000000	14,710900
1950,000000	14,642900
1949,000000	14,596700
1948,000000	14,568300
1947,000000	14,509600
1946,000000	14,450900
1945,000000	14,401600
1944,000000	14,375900
1943,000000	14,345800
1942,000000	14,326400
1941,000000	14,309200
1940,000000	14,263000
1939,000000	14,277300
1938,000000	14,261100
1937,000000	14,252900
1936,000000	14,275400
1935,000000	14,281500
1934,000000	14,295700
1933,000000	14,327000
1932,000000	14,373100
1931,000000	14,384500
1930,000000	14,459800
1929,000000	14,510200
1928,000000	14,597300
1927,000000	14,659700
1926,000000	14,759100
1925,000000	14,814000
1924,000000	14,946000
1923,000000	15,025700
1922,000000	15,136400
1921,000000	15,283200
1920,000000	15,453500
1919,000000	15,594400
1918,000000	15,719300
1917,000000	15,886600
1916,000000	16,050800
1915,000000	16,207400
1914,000000	16,400800
1913,000000	16,621400
1912,000000	16,838600
1911,000000	17,060000
1910,000000	17,270200
1909,000000	17,483000
1908,000000	17,695500
1907,000000	17,947600
1906,000000	18,225200
1905,000000	18,526000
1904,000000	18,831300
1903,000000	19,128000
1902,000000	19,440400
1901,000000	19,761500
1900,000000	20,088300
1899,000000	20,484400
1898,000000	20,862200
1897,000000	21,208500
1896,000000	21,571000
1895,000000	21,898700
1894,000000	22,271600
1893,000000	22,652200
1892,000000	23,077100
1891,000000	23,547400
1890,000000	24,007000
1889,000000	24,449400
1888,000000	24,926000
1887,000000	25,366000
1886,000000	25,820500
1885,000000	26,267500
1884,000000	26,781500
1883,000000	27,278400
1882,000000	27,744600
1881,000000	28,224200
1880,000000	28,694400
1879,000000	29,088300
1878,000000	29,532000
1877,000000	29,956000
1876,000000	30,352600
1875,000000	30,749900
1874,000000	31,119500
1873,000000	31,505500
1872,000000	31,849600
1871,000000	32,170700
1870,000000	32,456400
1869,000000	32,686700
1868,000000	32,937000
1867,000000	33,122700
1866,000000	33,276500
1865,000000	33,410900
1864,000000	33,561200
1863,000000	33,684200
1862,000000	33,830400
1861,000000	33,979300
1860,000000	34,132100
1859,000000	34,251600
1858,000000	34,340700
1857,000000	34,431700
1856,000000	34,497800
1855,000000	34,552400
1854,000000	34,610600
1853,000000	34,659800
1852,000000	34,659500
1851,000000	34,700700
1850,000000	34,737100
1849,000000	34,787800
1848,000000	34,817400
1847,000000	34,825800
1846,000000	34,782600
1845,000000	34,730100
1844,000000	34,731100
1843,000000	34,728900
1842,000000	34,768200
1841,000000	34,803800
1840,000000	34,767400
1839,000000	34,734500
1838,000000	34,716200
1837,000000	34,691000
1836,000000	34,664800
1835,000000	34,613500
1834,000000	34,544100
1833,000000	34,478000
1832,000000	34,440800
1831,000000	34,425300
1830,000000	34,399500
1829,000000	34,363300
1828,000000	34,309600
1827,000000	34,243800
1826,000000	34,203400
1825,000000	34,158700
1824,000000	34,102300
1823,000000	34,073700
1822,000000	34,100500
1821,000000	34,118600
1820,000000	34,089100
1819,000000	34,048600
1818,000000	34,010000
1817,000000	33,984700
1816,000000	33,973400
1815,000000	33,960500
1814,000000	33,930700
1813,000000	33,920600
1812,000000	33,911900
1811,000000	33,886400
1810,000000	33,850200
1809,000000	33,815300
1808,000000	33,787700
1807,000000	33,760300
1806,000000	33,744900
1805,000000	33,703100
1804,000000	33,656900
1803,000000	33,636100
1802,000000	33,616600
1801,000000	33,582800
1800,000000	33,541800
1799,000000	33,493200
1798,000000	33,454700
1797,000000	33,425400
1796,000000	33,390800
1795,000000	33,365100
1794,000000	33,337200
1793,000000	33,304200
1792,000000	33,266300
1791,000000	33,237100
1790,000000	33,204700
1789,000000	33,167100
1788,000000	33,139500
1787,000000	33,123600
1786,000000	33,102600
1785,000000	33,075400
1784,000000	33,046400
1783,000000	32,992000
1782,000000	32,949300
1781,000000	32,919800
1780,000000	32,873100
1779,000000	32,840600
1778,000000	32,796100
1777,000000	32,738700
1776,000000	32,682800
1775,000000	32,626600
1774,000000	32,558400
1773,000000	32,494500
1772,000000	32,429700
1771,000000	32,344000
1770,000000	32,264600
1769,000000	32,183200
1768,000000	32,091900
1767,000000	31,999700
1766,000000	31,937000
1765,000000	31,883900
1764,000000	31,841100
1763,000000	31,807400
1762,000000	31,798900
1761,000000	31,810600
1760,000000	31,827200
1759,000000	31,860000
1758,000000	31,913000
1757,000000	31,969500
1756,000000	32,017300
1755,000000	32,054600
1754,000000	32,099200
1753,000000	32,142100
1752,000000	32,175700
1751,000000	32,186000
1750,000000	32,199200
1749,000000	32,193500
1748,000000	32,179500
1747,000000	32,179900
1746,000000	32,141400
1745,000000	32,071000
1744,000000	32,005500
1743,000000	31,911300
1742,000000	31,813700
1741,000000	31,711800
1740,000000	31,586900
1739,000000	31,438400
1738,000000	31,271900
1737,000000	31,123600
1736,000000	30,979400
1735,000000	30,842300
1734,000000	30,742100
1733,000000	30,637300
1732,000000	30,572300
1731,000000	30,551900
1730,000000	30,550500
1729,000000	30,579800
1728,000000	30,622700
1727,000000	30,688600
1726,000000	30,749200
1725,000000	30,791600
1724,000000	30,834900
1723,000000	30,884900
1722,000000	30,954300
1721,000000	31,030800
1720,000000	31,108400
1719,000000	31,193400
1718,000000	31,288700
1717,000000	31,410300
1716,000000	31,525800
1715,000000	31,641700
1714,000000	31,762300
1713,000000	31,869900
1712,000000	31,984600
1711,000000	32,080300
1710,000000	32,175100
1709,000000	32,245400
1708,000000	32,299100
1707,000000	32,342800
1706,000000	32,346600
1705,000000	32,370900
1704,000000	32,383700
1703,000000	32,382700
1702,000000	32,356900
1701,000000	32,311100
1700,000000	32,269200
1699,000000	32,207400
1698,000000	32,152000
1697,000000	32,095300
1696,000000	32,027600
1695,000000	32,000100
1694,000000	31,996000
1693,000000	31,991700
1692,000000	32,055000
1691,000000	32,091200
1690,000000	32,168400
1689,000000	32,259300
1688,000000	32,316800
1687,000000	32,396900
1686,000000	32,454100
1685,000000	32,541900
1684,000000	32,657600
1683,000000	32,779000
1682,000000	32,935400
1681,000000	33,190100
1680,000000	33,430800
1679,000000	33,723900
1678,000000	34,020700
1677,000000	34,327300
1676,000000	34,644400
1675,000000	34,908400
1674,000000	35,174100
1673,000000	35,389600
1672,000000	35,599900
1671,000000	35,805000
1670,000000	35,953800
1669,000000	36,114800
1668,000000	36,241400
1667,000000	36,350400
1666,000000	36,460300
1665,000000	36,582400
1664,000000	36,667800
1663,000000	36,763400
1662,000000	36,823300
1661,000000	36,905000
1660,000000	36,965100
1659,000000	37,016600
1658,000000	37,071100
1657,000000	37,123900
1656,000000	37,140600
1655,000000	37,158400
1654,000000	37,192500
1653,000000	37,193200
1652,000000	37,196000
1651,000000	37,197200
1650,000000	37,190600
1649,000000	37,173100
1648,000000	37,172000
1647,000000	37,143900
1646,000000	37,122300
1645,000000	37,079000
1644,000000	37,069000
1643,000000	37,032500
1642,000000	36,998000
1641,000000	36,968400
1640,000000	36,937700
1639,000000	36,904700
1638,000000	36,881000
1637,000000	36,838100
1636,000000	36,781000
1635,000000	36,747800
1634,000000	36,681900
1633,000000	36,648500
1632,000000	36,587000
1631,000000	36,537800
1630,000000	36,493000
1629,000000	36,407200
1628,000000	36,355400
1627,000000	36,318600
1626,000000	36,239200
1625,000000	36,164300
1624,000000	36,112700
1623,000000	36,069000
1622,000000	35,984500
1621,000000	35,929900
1620,000000	35,876900
1619,000000	35,810900
1618,000000	35,772000
1617,000000	35,706400
1616,000000	35,642200
1615,000000	35,598700
1614,000000	35,543100
1613,000000	35,467300
1612,000000	35,411100
1611,000000	35,359400
1610,000000	35,296400
1609,000000	35,251600
1608,000000	35,172000
1607,000000	35,111100
1606,000000	35,056900
1605,000000	34,999400
1604,000000	34,927300
1603,000000	34,850600
1602,000000	34,783100
1601,000000	34,733700
1600,000000	34,658000
1599,000000	34,592300
1598,000000	34,520200
1597,000000	34,459900
1596,000000	34,408600
1595,000000	34,342700
1594,000000	34,271600
1593,000000	34,233600
1592,000000	34,166100
1591,000000	34,098100
1590,000000	34,056600
1589,000000	34,014300
1588,000000	33,965800
1587,000000	33,899800
1586,000000	33,864900
1585,000000	33,818700
1584,000000	33,766100
1583,000000	33,722900
1582,000000	33,659200
1581,000000	33,609500
1580,000000	33,591500
1579,000000	33,547500
1578,000000	33,515900
1577,000000	33,481300
1576,000000	33,435700
1575,000000	33,414500
1574,000000	33,393700
1573,000000	33,368300
1572,000000	33,351800
1571,000000	33,330400
1570,000000	33,320900
1569,000000	33,322800
1568,000000	33,312400
1567,000000	33,311000
1566,000000	33,300100
1565,000000	33,311300
1564,000000	33,312700
1563,000000	33,286100
1562,000000	33,284900
1561,000000	33,270100
1560,000000	33,257000
1559,000000	33,258700
1558,000000	33,232100
1557,000000	33,209500
1556,000000	33,187900
1555,000000	33,144500
1554,000000	33,109000
1553,000000	33,063400
1552,000000	33,020100
1551,000000	32,981400
1550,000000	32,925900
1549,000000	32,870800
1548,000000	32,814000
1547,000000	32,769800
1546,000000	32,722100
1545,000000	32,663700
1544,000000	32,607900
1543,000000	32,569100
1542,000000	32,530800
1541,000000	32,489200
1540,000000	32,456300
1539,000000	32,421100
1538,000000	32,385700
1537,000000	32,357700
1536,000000	32,318900
1535,000000	32,285900
1534,000000	32,259200
1533,000000	32,215300
1532,000000	32,182200
1531,000000	32,144900
1530,000000	32,099000
1529,000000	32,054900
1528,000000	32,016800
1527,000000	31,973600
1526,000000	31,920600
1525,000000	31,870700
1524,000000	31,814900
1523,000000	31,761400
1522,000000	31,724800
1521,000000	31,672100
1520,000000	31,610000
1519,000000	31,544300
1518,000000	31,492800
1517,000000	31,444800
1516,000000	31,382600
1515,000000	31,320300
1514,000000	31,258000
1513,000000	31,193700
1512,000000	31,119800
1511,000000	31,046600
1510,000000	30,983400
1509,000000	30,924400
1508,000000	30,854200
1507,000000	30,787800
1506,000000	30,716000
1505,000000	30,651000
1504,000000	30,575400
1503,000000	30,499700
1502,000000	30,444600
1501,000000	30,383500
1500,000000	30,323600
1499,000000	30,250900
1498,000000	30,196400
1497,000000	30,144300
1496,000000	30,102400
1495,000000	30,062300
1494,000000	30,005700
1493,000000	29,961800
1492,000000	29,920200
1491,000000	29,875400
1490,000000	29,835200
1489,000000	29,800300
1488,000000	29,761400
1487,000000	29,728100
1486,000000	29,696600
1485,000000	29,658600
1484,000000	29,630400
1483,000000	29,610200
1482,000000	29,590700
1481,000000	29,554100
1480,000000	29,523100
1479,000000	29,498000
1478,000000	29,489900
1477,000000	29,489100
1476,000000	29,481200
1475,000000	29,470000
1474,000000	29,471400
1473,000000	29,482100
1472,000000	29,508300
1471,000000	29,523900
1470,000000	29,528200
1469,000000	29,538300
1468,000000	29,551200
1467,000000	29,574200
1466,000000	29,592700
1465,000000	29,606800
1464,000000	29,617100
1463,000000	29,658400
1462,000000	29,699700
1461,000000	29,740400
1460,000000	29,775100
1459,000000	29,812500
1458,000000	29,857900
1457,000000	29,928800
1456,000000	29,983400
1455,000000	30,033200
1454,000000	30,081400
1453,000000	30,153400
1452,000000	30,225800
1451,000000	30,304700
1450,000000	30,389300
1449,000000	30,442900
1448,000000	30,502100
1447,000000	30,599600
1446,000000	30,688200
1445,000000	30,775500
1444,000000	30,856700
1443,000000	30,920300
1442,000000	31,008800
1441,000000	31,122100
1440,000000	31,221100
1439,000000	31,318500
1438,000000	31,412400
1437,000000	31,532500
1436,000000	31,624800
1435,000000	31,732800
1434,000000	31,871800
1433,000000	31,990400
1432,000000	32,135400
1431,000000	32,252400
1430,000000	32,351200
1429,000000	32,508000
1428,000000	32,675300
1427,000000	32,825800
1426,000000	32,976600
1425,000000	33,166000
1424,000000	33,372300
1423,000000	33,542300
1422,000000	33,734400
1421,000000	33,923700
1420,000000	34,171400
1419,000000	34,416100
1418,000000	34,648900
1417,000000	34,817400
1416,000000	35,067900
1415,000000	35,348400
1414,000000	35,630500
1413,000000	35,899500
1412,000000	36,152200
1411,000000	36,418800
1410,000000	36,750900
1409,000000	37,129800
1408,000000	37,438400
1407,000000	37,796900
1406,000000	38,102700
1405,000000	38,480700
1404,000000	38,802500
1403,000000	39,183600
1402,000000	39,524600
1401,000000	39,932600
1400,000000	40,338700
1399,000000	40,677500
1398,000000	40,926300
1397,000000	41,231100
1396,000000	41,613300
1395,000000	41,988500
1394,000000	42,283000
1393,000000	42,564400
1392,000000	42,872400
1391,000000	43,208400
1390,000000	43,563500
1389,000000	43,884300
1388,000000	44,341300
1387,000000	44,762800
1386,000000	45,145900
1385,000000	45,547200
1384,000000	46,051000
1383,000000	46,439300
1382,000000	46,871700
1381,000000	47,221900
1380,000000	47,513500
1379,000000	47,724600
1378,000000	47,937900
1377,000000	48,098500
1376,000000	48,270900
1375,000000	48,452400
1374,000000	48,630100
1373,000000	48,823000
1372,000000	49,089900
1371,000000	49,297700
1370,000000	49,536700
1369,000000	49,719600
1368,000000	49,975500
1367,000000	50,166800
1366,000000	50,331200
1365,000000	50,492200
1364,000000	50,668100
1363,000000	50,775700
1362,000000	50,937900
1361,000000	51,080300
1360,000000	51,167300
1359,000000	51,170400
1358,000000	51,292700
1357,000000	51,380100
1356,000000	51,484000
1355,000000	51,659500
1354,000000	51,858900
1353,000000	52,057800
1352,000000	52,236800
1351,000000	52,544100
1350,000000	52,820500
1349,000000	53,083000
1348,000000	53,328700
1347,000000	53,584400
1346,000000	53,803000
1345,000000	54,031400
1344,000000	54,271100
1343,000000	54,508300
1342,000000	54,702400
1341,000000	54,932900
1340,000000	55,141200
1339,000000	55,365800
1338,000000	55,547300
1337,000000	55,736100
1336,000000	55,936600
1335,000000	56,141500
1334,000000	56,336200
1333,000000	56,520800
1332,000000	56,699900
1331,000000	56,872500
1330,000000	57,058000
1329,000000	57,216800
1328,000000	57,384200
1327,000000	57,527600
1326,000000	57,682800
1325,000000	57,828500
1324,000000	57,976200
1323,000000	58,100800
1322,000000	58,229600
1321,000000	58,359600
1320,000000	58,490000
1319,000000	58,604500
1318,000000	58,706700
1317,000000	58,828900
1316,000000	58,926200
1315,000000	59,043800
1314,000000	59,150300
1313,000000	59,244700
1312,000000	59,339300
1311,000000	59,425800
1310,000000	59,517900
1309,000000	59,599800
1308,000000	59,680300
1307,000000	59,743700
1306,000000	59,826300
1305,000000	59,870900
1304,000000	59,936300
1303,000000	60,000900
1302,000000	60,049300
1301,000000	60,089100
1300,000000	60,131000
1299,000000	60,166200
1298,000000	60,200900
1297,000000	60,234000
1296,000000	60,267300
1295,000000	60,290500
1294,000000	60,323400
1293,000000	60,347000
1292,000000	60,357600
1291,000000	60,374600
1290,000000	60,381500
1289,000000	60,387100
1288,000000	60,391300
1287,000000	60,383500
1286,000000	60,374700
1285,000000	60,379500
1284,000000	60,363100
1283,000000	60,346500
1282,000000	60,331700
1281,000000	60,314200
1280,000000	60,278700
1279,000000	60,248200
1278,000000	60,228000
1277,000000	60,202100
1276,000000	60,175500
1275,000000	60,168600
1274,000000	60,149100
1273,000000	60,138500
1272,000000	60,125900
1271,000000	60,113100
1270,000000	60,108800
1269,000000	60,113800
1268,000000	60,098800
1267,000000	60,081000
1266,000000	60,052300
1265,000000	60,036600
1264,000000	60,017100
1263,000000	60,016400
1262,000000	59,985400
1261,000000	59,949900
1260,000000	59,915000
1259,000000	59,900800
1258,000000	59,865400
1257,000000	59,831800
1256,000000	59,803900
1255,000000	59,758900
1254,000000	59,715800
1253,000000	59,669700
1252,000000	59,608400
1251,000000	59,561300
1250,000000	59,497400
1249,000000	59,408600
1248,000000	59,349500
1247,000000	59,293200
1246,000000	59,209400
1245,000000	59,121900
1244,000000	59,045900
1243,000000	58,949100
1242,000000	58,864000
1241,000000	58,788800
1240,000000	58,686500
1239,000000	58,591100
1238,000000	58,512400
1237,000000	58,434100
1236,000000	58,349500
1235,000000	58,248800
1234,000000	58,142000
1233,000000	58,048200
1232,000000	57,960200
1231,000000	57,861700
1230,000000	57,757700
1229,000000	57,659200
1228,000000	57,562900
1227,000000	57,457200
1226,000000	57,347500
1225,000000	57,235300
1224,000000	57,122100
1223,000000	57,015500
1222,000000	56,915000
1221,000000	56,793200
1220,000000	56,682000
1219,000000	56,593000
1218,000000	56,488000
1217,000000	56,385700
1216,000000	56,302800
1215,000000	56,222900
1214,000000	56,133400
1213,000000	56,057300
1212,000000	55,993300
1211,000000	55,930400
1210,000000	55,855300
1209,000000	55,765000
1208,000000	55,693500
1207,000000	55,634900
1206,000000	55,571500
1205,000000	55,528200
1204,000000	55,490900
1203,000000	55,450000
1202,000000	55,413700
1201,000000	55,368600
1200,000000	55,336700
1199,000000	55,305400
1198,000000	55,257000
1197,000000	55,201500
1196,000000	55,134000
1195,000000	55,037900
1194,000000	54,913100
1193,000000	54,769300
1192,000000	54,606800
1191,000000	54,428200
1190,000000	54,211000
1189,000000	54,001200
1188,000000	53,812300
1187,000000	53,680200
1186,000000	53,600500
1185,000000	53,563400
1184,000000	53,576700
1183,000000	53,649700
1182,000000	53,787200
1181,000000	53,975000
1180,000000	54,200700
1179,000000	54,444300
1178,000000	54,691000
1177,000000	54,904600
1176,000000	55,110000
1175,000000	55,293500
1174,000000	55,466100
1173,000000	55,645800
1172,000000	55,801900
1171,000000	55,970200
1170,000000	56,141500
1169,000000	56,333900
1168,000000	56,514000
1167,000000	56,706500
1166,000000	56,912600
1165,000000	57,136400
1164,000000	57,338000
1163,000000	57,557700
1162,000000	57,795800
1161,000000	58,047000
1160,000000	58,280400
1159,000000	58,503600
1158,000000	58,749100
1157,000000	58,971000
1156,000000	59,175400
1155,000000	59,375100
1154,000000	59,565400
1153,000000	59,737400
1152,000000	59,882700
1151,000000	60,007100
1150,000000	60,119600
1149,000000	60,226200
1148,000000	60,341600
1147,000000	60,443800
1146,000000	60,570900
1145,000000	60,730800
1144,000000	60,876800
1143,000000	61,059700
1142,000000	61,279500
1141,000000	61,506300
1140,000000	61,753900
1139,000000	62,003200
1138,000000	62,280500
1137,000000	62,561000
1136,000000	62,851500
1135,000000	63,186900
1134,000000	63,494300
1133,000000	63,740400
1132,000000	63,967900
1131,000000	64,207500
1130,000000	64,428800
1129,000000	64,638400
1128,000000	64,792800
1127,000000	64,933900
1126,000000	65,063800
1125,000000	65,162700
1124,000000	65,239700
1123,000000	65,301500
1122,000000	65,331600
1121,000000	65,378400
1120,000000	65,412000
1119,000000	65,434100
1118,000000	65,439500
1117,000000	65,452000
1116,000000	65,458000
1115,000000	65,454100
1114,000000	65,452200
1113,000000	65,441100
1112,000000	65,439500
1111,000000	65,433100
1110,000000	65,426900
1109,000000	65,433800
1108,000000	65,436000
1107,000000	65,431800
1106,000000	65,427500
1105,000000	65,410900
1104,000000	65,436100
1103,000000	65,432000
1102,000000	65,426800
1101,000000	65,424300
1100,000000	65,420800
1099,000000	65,430500
1098,000000	65,414100
1097,000000	65,420700
1096,000000	65,413900
1095,000000	65,413600
1094,000000	65,420600
1093,000000	65,410800
1092,000000	65,402300
1091,000000	65,401800
1090,000000	65,374400
1089,000000	65,343700
1088,000000	65,316600
1087,000000	65,293100
1086,000000	65,273700
1085,000000	65,253600
1084,000000	65,219800
1083,000000	65,204700
1082,000000	65,164600
1081,000000	65,124500
1080,000000	65,100300
1079,000000	65,046400
1078,000000	65,016000
1077,000000	64,975000
1076,000000	64,928500
1075,000000	64,856500
1074,000000	64,803400
1073,000000	64,745700
1072,000000	64,701800
1071,000000	64,622200
1070,000000	64,575500
1069,000000	64,519800
1068,000000	64,422800
1067,000000	64,377200
1066,000000	64,310200
1065,000000	64,249900
1064,000000	64,166400
1063,000000	64,103000
1062,000000	64,031700
1061,000000	63,972400
1060,000000	63,899600
1059,000000	63,828500
1058,000000	63,767300
1057,000000	63,699800
1056,000000	63,626000
1055,000000	63,571900
1054,000000	63,501500
1053,000000	63,453000
1052,000000	63,380600
1051,000000	63,331900
1050,000000	63,282700
1049,000000	63,233100
1048,000000	63,182600
1047,000000	63,159800
1046,000000	63,116600
1045,000000	63,083900
1044,000000	63,057000
1043,000000	63,028100
1042,000000	63,013900
1041,000000	62,966400
1040,000000	62,958400
1039,000000	62,930100
1038,000000	62,905100
1037,000000	62,896300
1036,000000	62,894700
1035,000000	62,860700
1034,000000	62,858100
1033,000000	62,843600
1032,000000	62,828200
1031,000000	62,816000
1030,000000	62,800600
1029,000000	62,771700
1028,000000	62,763400
1027,000000	62,745100
1026,000000	62,704400
1025,000000	62,679800
1024,000000	62,633500
1023,000000	62,587600
1022,000000	62,565900
1021,000000	62,520900
1020,000000	62,473400
1019,000000	62,428900
1018,000000	62,379100
1017,000000	62,339800
1016,000000	62,316900
1015,000000	62,272000
1014,000000	62,235700
1013,000000	62,202900
1012,000000	62,164400
1011,000000	62,141500
1010,000000	62,114200
1009,000000	62,080500
1008,000000	62,019000
1007,000000	62,000700
1006,000000	61,972300
1005,000000	61,921600
1004,000000	61,891000
1003,000000	61,847900
1002,000000	61,809900
1001,000000	61,757500
1000,000000	61,709100
999,000000	61,674500
998,000000	61,650900
997,000000	61,614300
996,000000	61,564400
995,000000	61,537800
994,000000	61,532800
993,000000	61,524500
992,000000	61,515100
991,000000	61,508700
990,000000	61,489100
989,000000	61,485400
988,000000	61,504500
987,000000	61,527300
986,000000	61,539800
985,000000	61,564400
984,000000	61,604000
983,000000	61,642200
982,000000	61,670600
981,000000	61,701400
980,000000	61,744800
979,000000	61,789400
978,000000	61,821800
977,000000	61,857900
976,000000	61,906400
975,000000	61,952900
974,000000	62,007800
973,000000	62,060600
972,000000	62,130200
971,000000	62,210100
970,000000	62,275800
969,000000	62,357000
968,000000	62,438100
967,000000	62,518600
966,000000	62,604300
965,000000	62,688700
964,000000	62,777500
963,000000	62,868100
962,000000	62,950900
961,000000	63,040400
960,000000	63,120800
959,000000	63,196200
958,000000	63,269600
957,000000	63,339400
956,000000	63,424300
955,000000	63,490200
954,000000	63,549000
953,000000	63,614300
952,000000	63,701700
951,000000	63,789900
950,000000	63,862200
949,000000	63,951900
948,000000	64,034500
947,000000	64,099800
946,000000	64,192700
945,000000	64,273400
944,000000	64,337000
943,000000	64,417900
942,000000	64,498000
941,000000	64,563900
940,000000	64,616700
939,000000	64,683000
938,000000	64,755900
937,000000	64,799800
936,000000	64,849000
935,000000	64,908400
934,000000	64,954800
933,000000	65,021500
932,000000	65,098800
931,000000	65,147900
930,000000	65,211800
929,000000	65,305200
928,000000	65,386300
927,000000	65,467300
926,000000	65,572700
925,000000	65,673500
924,000000	65,780200
923,000000	65,895600
922,000000	66,007200
921,000000	66,113400
920,000000	66,220400
919,000000	66,354400
918,000000	66,464500
917,000000	66,570400
916,000000	66,684800
915,000000	66,799100
914,000000	66,929700
913,000000	67,053200
912,000000	67,186800
911,000000	67,327700
910,000000	67,456400
909,000000	67,600300
908,000000	67,763100
907,000000	67,907500
906,000000	68,059100
905,000000	68,218200
904,000000	68,383100
903,000000	68,552900
902,000000	68,719400
901,000000	68,873000
900,000000	69,026100
899,000000	69,166000
898,000000	69,317100
897,000000	69,463300
896,000000	69,615400
895,000000	69,741000
894,000000	69,806400
893,000000	69,922800
892,000000	69,998700
891,000000	70,062000
890,000000	70,149200
889,000000	70,221900
888,000000	70,336800
887,000000	70,450600
886,000000	70,551300
885,000000	70,623400
884,000000	70,702900
883,000000	70,779100
882,000000	70,863100
881,000000	70,920800
880,000000	71,014300
879,000000	71,082900
878,000000	71,141000
877,000000	71,181100
876,000000	71,250500
875,000000	71,252700
874,000000	71,238800
873,000000	71,211900
872,000000	71,134800
871,000000	71,056000
870,000000	71,095600
869,000000	71,257000
868,000000	71,438600
867,000000	71,655100
866,000000	71,919600
865,000000	72,125900
864,000000	72,344400
863,000000	72,551500
862,000000	72,783600
861,000000	73,026300
860,000000	73,269200
859,000000	73,494600
858,000000	73,712600
857,000000	76,226900
856,000000	76,920700
855,000000	77,494100
854,000000	77,861800
853,000000	78,248800
852,000000	78,214800
851,000000	78,649000
850,000000	78,955700
849,000000	79,726100
848,000000	80,194200
847,000000	80,175200
846,000000	80,301400
845,000000	80,410300
844,000000	80,880800
843,000000	81,345800
842,000000	81,771400
841,000000	82,226600
840,000000	82,330900
839,000000	82,652000
838,000000	83,014400
837,000000	83,333000
836,000000	83,593400
835,000000	83,607200
834,000000	83,947600
833,000000	84,027800
832,000000	84,305200
831,000000	84,303300
830,000000	84,824500
829,000000	84,689600
828,000000	84,816900
827,000000	85,114300
826,000000	85,072300
825,000000	85,243400
824,000000	85,441500
823,000000	85,478000
822,000000	85,291900
821,000000	85,564200
820,000000	85,595600
819,000000	85,712000
818,000000	85,502000
817,000000	85,551700
816,000000	85,417300
815,000000	85,562600
814,000000	85,711000
813,000000	85,743900
812,000000	85,779600
811,000000	85,900800
810,000000	85,915100
809,000000	85,920600
808,000000	86,286900
807,000000	86,157900
806,000000	86,482800
805,000000	86,494200
804,000000	86,666300
803,000000	86,739300
802,000000	86,806800
801,000000	87,163700
800,000000	87,172200
799,000000	87,393400
798,000000	87,346500
797,000000	87,583600
796,000000	87,632800
795,000000	87,665700
794,000000	87,998500
793,000000	87,958100
792,000000	88,004800
791,000000	88,316300
790,000000	88,351700
789,000000	88,362600
788,000000	88,434300
787,000000	88,608200
786,000000	88,658000
785,000000	88,526100
784,000000	88,555900
783,000000	88,758900
782,000000	88,692500
781,000000	88,726000
780,000000	88,700200
779,000000	88,476400
778,000000	88,561100
777,000000	88,519200
776,000000	88,417800
775,000000	88,655300
774,000000	88,513300
773,000000	88,403000
772,000000	88,437900
771,000000	88,469500
770,000000	88,394000
769,000000	88,469300
768,000000	88,409400
767,000000	88,364600
766,000000	88,462000
765,000000	88,295200
764,000000	88,242400
763,000000	88,276200
762,000000	88,210600
761,000000	88,102600
760,000000	87,965300
759,000000	87,963800
758,000000	87,835800
757,000000	87,719700
756,000000	87,578400
755,000000	87,586900
754,000000	87,415700
753,000000	87,234700
752,000000	87,198800
751,000000	87,063200
750,000000	86,862100
749,000000	86,704200
748,000000	86,316900
747,000000	86,147600
746,000000	85,992900
745,000000	85,663300
744,000000	85,216000
743,000000	84,934400
742,000000	84,583900
741,000000	84,083600
740,000000	83,729400
739,000000	83,363100
738,000000	83,053300
737,000000	82,651400
736,000000	82,404700
735,000000	82,005700
734,000000	81,649900
733,000000	81,414300
732,000000	81,171400
731,000000	80,872300
730,000000	80,608700
729,000000	80,459200
728,000000	80,237300
727,000000	80,013600
726,000000	79,835100
725,000000	79,605600
724,000000	79,445000
723,000000	79,331400
722,000000	79,179100
721,000000	79,107700
720,000000	79,002700
719,000000	78,858200
718,000000	78,770800
717,000000	78,736800
716,000000	78,719100
715,000000	78,679400
714,000000	78,682600
713,000000	78,631800
712,000000	78,642000
711,000000	78,659800
710,000000	78,698900
709,000000	78,717400
708,000000	78,702500
707,000000	78,765700
706,000000	78,713700
705,000000	78,694700
704,000000	78,733400
703,000000	78,644500
702,000000	78,655500
701,000000	78,584200
700,000000	78,490700
699,000000	78,395400
698,000000	78,305100
697,000000	78,225200
696,000000	78,082000
695,000000	77,966600
694,000000	77,842500
693,000000	77,688100
692,000000	77,566600
691,000000	77,337100
690,000000	77,134300
689,000000	76,876200
688,000000	76,591600
687,000000	76,282200
686,000000	75,924600
685,000000	75,561300
684,000000	75,140300
683,000000	74,612500
682,000000	74,095500
681,000000	73,502100
680,000000	72,848500
679,000000	72,163200
678,000000	71,427800
677,000000	70,689400
676,000000	69,901800
675,000000	69,097600
674,000000	68,249000
673,000000	67,374200
672,000000	66,520000
671,000000	65,641300
670,000000	64,806100
669,000000	63,929400
668,000000	63,070800
667,000000	62,299100
666,000000	61,522100
665,000000	60,795000
664,000000	60,091200
663,000000	59,400000
662,000000	58,804900
661,000000	58,339100
660,000000	57,951100
659,000000	57,634100
658,000000	57,413000
657,000000	57,279200
656,000000	57,238800
655,000000	57,347200
654,000000	57,582400
653,000000	57,927000
652,000000	58,353200
651,000000	58,895500
650,000000	59,540100
649,000000	60,241200
648,000000	61,011100
647,000000	61,887400
646,000000	62,838600
645,000000	63,802200
644,000000	64,818700
643,000000	65,865800
642,000000	66,915400
641,000000	67,948600
640,000000	68,971600
639,000000	69,988100
638,000000	70,958300
637,000000	71,894700
636,000000	72,839300
635,000000	73,752900
634,000000	74,622500
633,000000	75,492400
632,000000	76,316200
631,000000	77,100400
630,000000	77,845100
629,000000	78,560000
628,000000	79,255600
627,000000	79,974300
626,000000	80,600000
625,000000	81,219900
624,000000	81,856900
623,000000	82,437000
622,000000	83,011300
621,000000	83,545000
620,000000	84,041600
619,000000	84,564300
618,000000	85,062200
617,000000	85,479900
616,000000	85,932600
615,000000	86,361300
614,000000	86,707000
613,000000	87,041400
612,000000	87,381300
611,000000	87,685300
610,000000	87,975100
609,000000	88,179500
608,000000	88,373200
607,000000	88,567800
606,000000	88,736000
605,000000	88,855200
604,000000	89,012300
603,000000	89,153900
602,000000	89,283500
601,000000	89,382600
600,000000	89,471400
599,000000	89,585500
598,000000	89,682100
597,000000	89,763800
596,000000	89,838600
595,000000	89,882000
594,000000	89,927900
593,000000	90,004800
592,000000	90,104000
591,000000	90,154900
590,000000	90,147200
589,000000	90,150000
588,000000	90,122800
587,000000	90,103800
586,000000	90,080700
585,000000	89,996100
584,000000	89,876900
583,000000	89,775000
582,000000	89,649000
581,000000	89,511000
580,000000	89,349200
579,000000	89,174700
578,000000	88,965900
577,000000	88,747800
576,000000	88,487900
575,000000	88,240100
574,000000	88,012500
573,000000	87,751700
572,000000	87,416300
571,000000	87,150400
570,000000	86,877300
569,000000	86,568100
568,000000	86,230800
567,000000	85,927300
566,000000	85,615400
565,000000	85,277400
564,000000	84,948200
563,000000	84,594300
562,000000	84,225100
561,000000	83,837300
560,000000	83,392200
559,000000	82,922700
558,000000	82,465600
557,000000	81,980600
556,000000	81,471500
555,000000	80,908700
554,000000	80,296700
553,000000	79,645900
552,000000	78,933300
551,000000	78,143800
550,000000	77,293800
549,000000	76,416600
548,000000	75,523100
547,000000	74,451000
546,000000	73,414600
545,000000	72,285200
544,000000	71,114600
543,000000	69,853400
542,000000	68,563200
541,000000	67,220800
540,000000	65,911300
539,000000	64,601800
538,000000	63,263300
537,000000	61,935000
536,000000	60,605500
535,000000	59,273000
534,000000	57,949200
533,000000	56,623500
532,000000	55,359500
531,000000	54,108200
530,000000	52,925400
529,000000	51,754000
528,000000	50,620800
527,000000	49,607500
526,000000	48,621400
525,000000	47,671500
524,000000	46,784300
523,000000	45,937700
522,000000	45,157700
521,000000	44,428000
520,000000	43,738000
519,000000	43,088100
518,000000	42,483700
517,000000	41,914400
516,000000	41,346100
515,000000	40,803600
514,000000	40,290200
513,000000	39,759000
512,000000	39,228100
511,000000	38,742100
510,000000	38,223400
509,000000	37,732600
508,000000	37,279600
507,000000	36,764600
506,000000	36,282400
505,000000	35,776800
504,000000	35,290000
503,000000	34,798900
502,000000	34,286900
501,000000	33,851800
500,000000	33,408300
499,000000	32,987600
498,000000	32,593500
497,000000	32,221900
496,000000	31,868500
495,000000	31,542800
494,000000	31,240400
493,000000	30,953500
492,000000	30,701000
491,000000	30,458200
490,000000	30,255000
489,000000	30,055900
488,000000	29,876900
487,000000	29,721800
486,000000	29,574700
485,000000	29,500100
484,000000	29,347200
483,000000	29,291500
482,000000	29,230800
481,000000	29,226000
480,000000	29,210800
479,000000	29,211300
478,000000	29,213100
477,000000	29,207000
476,000000	29,225500
475,000000	29,251500
474,000000	29,282500
473,000000	29,305200
472,000000	29,332400
471,000000	29,331900
470,000000	29,359900
469,000000	29,351500
468,000000	29,372200
467,000000	29,381500
466,000000	29,354000
465,000000	29,332400
464,000000	29,279100
463,000000	29,220400
462,000000	29,145100
461,000000	29,074000
460,000000	28,989000
459,000000	28,851100
458,000000	28,746900
457,000000	28,581500
456,000000	28,457200
455,000000	28,276600
454,000000	28,129600
453,000000	27,916900
452,000000	27,707100
451,000000	27,473600
450,000000	27,233700
449,000000	26,971700
448,000000	26,695000
447,000000	26,430000
446,000000	26,149400
445,000000	25,893900
444,000000	25,543900
443,000000	25,198900
442,000000	24,812400
441,000000	24,465300
440,000000	24,075700
439,000000	23,681900
438,000000	23,250700
437,000000	22,829900
436,000000	22,366300
435,000000	21,941200
434,000000	21,471200
433,000000	20,962000
432,000000	20,488600
431,000000	20,016400
430,000000	19,510200
429,000000	19,001600
428,000000	18,518600
427,000000	18,023300
426,000000	17,508500
425,000000	16,980900
424,000000	16,458600
423,000000	15,983300
422,000000	15,495300
421,000000	15,017800
420,000000	14,527000
419,000000	14,057400
418,000000	13,630800
417,000000	13,191800
416,000000	12,755100
415,000000	12,379600
414,000000	12,019200
413,000000	11,617900
412,000000	11,255200
411,000000	10,936300
410,000000	10,628200
409,000000	10,330700
408,000000	10,071300
407,000000	9,799100
406,000000	9,552500
405,000000	9,306200
404,000000	9,087500
403,000000	8,916000
402,000000	8,735800
401,000000	8,523200
400,000000	8,375100
399,000000	8,221500
398,000000	8,076500
397,000000	7,968800
396,000000	7,856200
395,000000	7,747900
394,000000	7,628300
393,000000	7,544400
392,000000	7,471000
391,000000	7,386700
390,000000	7,333300
389,000000	7,270200
388,000000	7,183900
387,000000	7,125500
386,000000	7,075400
385,000000	7,033100
384,000000	6,992100
383,000000	6,946800
382,000000	6,895900
381,000000	6,842000
380,000000	6,815700
379,000000	6,779000
378,000000	6,749000
377,000000	6,705000
376,000000	6,721800
375,000000	6,644600
374,000000	6,313400
373,000000	6,247900
372,000000	6,319200
371,000000	6,348100
370,000000	6,413900
369,000000	6,366000
368,000000	6,301700
367,000000	6,392800
366,000000	6,352600
365,000000	6,309700
364,000000	6,319400
363,000000	6,310900
362,000000	6,247300
361,000000	6,259900
360,000000	6,290800
359,000000	6,254400
358,000000	6,196200
357,000000	6,282400
356,000000	6,181400
355,000000	6,096300
354,000000	6,068800
353,000000	5,841800
352,000000	5,762600
351,000000	5,912400
350,000000	6,054800
349,000000	6,186000
348,000000	6,120400
347,000000	6,001600
346,000000	6,087300
345,000000	5,969400
344,000000	5,877000
343,000000	6,011400
342,000000	6,021800
341,000000	5,943000
340,000000	5,827800
339,000000	5,859200
338,000000	5,876900
337,000000	5,738800
336,000000	5,985000
335,000000	6,030700
334,000000	5,847700
333,000000	6,067300
332,000000	5,925500
331,000000	5,701200
330,000000	5,810400
329,000000	5,728300
328,000000	5,764700
327,000000	5,995500
326,000000	5,911500
325,000000	5,749500
324,000000	5,921100
323,000000	5,875500
322,000000	5,947300
321,000000	6,230000
320,000000	6,206100
319,000000	6,253100
318,000000	6,505900
317,000000	6,425600
316,000000	5,865500
315,000000	5,541500
314,000000	5,570200
313,000000	5,564300
312,000000	5,555500
311,000000	5,596700
310,000000	5,548400
309,000000	5,545100
308,000000	5,535000
307,000000	5,512400
306,000000	5,529200
305,000000	5,548000
304,000000	5,557300
303,000000	5,539700
302,000000	5,545600
301,000000	5,558800
300,000000	5,554600
299,000000	5,519900
298,000000	5,533800
297,000000	5,550000
296,000000	5,588500
295,000000	5,587500
294,000000	5,562100
293,000000	5,554600
292,000000	5,527100
291,000000	5,553300
290,000000	5,589100
289,000000	5,581100
288,000000	5,564200
287,000000	5,535100
286,000000	5,495900
285,000000	5,529300
284,000000	5,549600
283,000000	5,557000
282,000000	5,575700
281,000000	5,610900
280,000000	5,612000
279,000000	5,606500
278,000000	5,615000
277,000000	5,604000
276,000000	5,602200
275,000000	5,635100
274,000000	5,676600
273,000000	5,668500
272,000000	5,673800
271,000000	5,668700
270,000000	5,690200
269,000000	5,727100
268,000000	5,747300
267,000000	5,718700
266,000000	5,736600
265,000000	5,787100
264,000000	5,827900
263,000000	5,856900
262,000000	5,846900
261,000000	5,902400
260,000000	5,908900
259,000000	5,954100
258,000000	5,932800
257,000000	5,949800
256,000000	5,911800
255,000000	5,919700
254,000000	5,930000
253,000000	5,964900
252,000000	5,966100
251,000000	5,975800
250,000000	5,959200
