PE UV       SUBTECH     SPECTRUM    ASCII       PEDS        4.00        
   -1
CICIMAUCR0213-1.Sample.ASC
24/06/12
14:50:37.00
24/06/12
14:50:37.00
Vinicio Soto Monge
C. resplendens. Sex M. Dorsal.
250,000000
1
Lambda 1050
1050L1511233
PerkinElmer UV WinLab 6.3.2.0749 / 2.02.05 Lambda 900 UV/VIS/NIR, Aug  7 2015 09:38:08

0
0
3350/servo 860,8/2
0
0
UV/VIS
1
1
1
DoubleDePol,CommonBeamDepol,RBeamAtt,SBeamAtt,60mm sphere, WB InGaAs Detector
0
0
0
0
Program
Program
3350/servo 860,8/2
3350/0,2 860,8/0,2
3350/0,2 860,8/0,2
0
15.00
 
 
 
0
 
860,8
319,2
860,8
Front
100
on
S:100 R:100
0
0
0
0
 
0
 
 
 
0
 
 
0
0
0
0
0
 
 
 
 
0
0


0
0
#HDR
-1
-1
#GR
nm
%R
1.0
0.0
2500,000000
-1,000000
2251
8
89,701000
5,287800
#DATA
2500,000000	8,415100
2499,000000	8,326400
2498,000000	8,247800
2497,000000	8,148300
2496,000000	8,239400
2495,000000	8,161700
2494,000000	8,081600
2493,000000	8,123800
2492,000000	8,194300
2491,000000	7,941100
2490,000000	8,015800
2489,000000	7,912300
2488,000000	8,050000
2487,000000	7,913500
2486,000000	7,915400
2485,000000	7,924100
2484,000000	7,901100
2483,000000	7,910700
2482,000000	7,828100
2481,000000	7,906400
2480,000000	7,998600
2479,000000	7,902400
2478,000000	7,971000
2477,000000	7,949600
2476,000000	7,929400
2475,000000	7,962900
2474,000000	7,923400
2473,000000	7,824500
2472,000000	7,756400
2471,000000	7,862400
2470,000000	7,941800
2469,000000	7,922100
2468,000000	7,873000
2467,000000	7,957700
2466,000000	7,959200
2465,000000	7,972800
2464,000000	7,995900
2463,000000	8,001300
2462,000000	7,972800
2461,000000	7,954100
2460,000000	8,031000
2459,000000	8,069300
2458,000000	8,116600
2457,000000	8,155800
2456,000000	8,175800
2455,000000	8,149700
2454,000000	8,223500
2453,000000	8,307600
2452,000000	8,337000
2451,000000	8,410700
2450,000000	8,432500
2449,000000	8,532900
2448,000000	8,533800
2447,000000	8,603500
2446,000000	8,679900
2445,000000	8,747400
2444,000000	8,815200
2443,000000	8,855400
2442,000000	8,915500
2441,000000	8,973700
2440,000000	9,058200
2439,000000	9,102100
2438,000000	9,135800
2437,000000	9,231600
2436,000000	9,275200
2435,000000	9,350600
2434,000000	9,393500
2433,000000	9,467300
2432,000000	9,517700
2431,000000	9,545000
2430,000000	9,568600
2429,000000	9,640100
2428,000000	9,693500
2427,000000	9,757300
2426,000000	9,774200
2425,000000	9,829300
2424,000000	9,898200
2423,000000	9,921500
2422,000000	9,949200
2421,000000	9,997000
2420,000000	10,037800
2419,000000	10,045400
2418,000000	10,080100
2417,000000	10,153200
2416,000000	10,144800
2415,000000	10,165800
2414,000000	10,211100
2413,000000	10,265100
2412,000000	10,275100
2411,000000	10,297200
2410,000000	10,325400
2409,000000	10,366300
2408,000000	10,381900
2407,000000	10,430400
2406,000000	10,457200
2405,000000	10,502100
2404,000000	10,517100
2403,000000	10,506200
2402,000000	10,543200
2401,000000	10,562600
2400,000000	10,598000
2399,000000	10,628000
2398,000000	10,656000
2397,000000	10,684000
2396,000000	10,705600
2395,000000	10,717400
2394,000000	10,749900
2393,000000	10,774900
2392,000000	10,809000
2391,000000	10,834800
2390,000000	10,874800
2389,000000	10,887800
2388,000000	10,892000
2387,000000	10,901200
2386,000000	10,907400
2385,000000	10,940200
2384,000000	10,983500
2383,000000	10,983900
2382,000000	10,991800
2381,000000	10,992800
2380,000000	10,983900
2379,000000	10,976400
2378,000000	10,979100
2377,000000	10,996400
2376,000000	10,988600
2375,000000	10,992200
2374,000000	10,989500
2373,000000	10,986500
2372,000000	10,985500
2371,000000	10,968600
2370,000000	10,975300
2369,000000	10,976000
2368,000000	10,945200
2367,000000	10,920200
2366,000000	10,912000
2365,000000	10,904800
2364,000000	10,870100
2363,000000	10,844700
2362,000000	10,812500
2361,000000	10,761000
2360,000000	10,729600
2359,000000	10,706600
2358,000000	10,652700
2357,000000	10,591500
2356,000000	10,544100
2355,000000	10,497600
2354,000000	10,477100
2353,000000	10,456800
2352,000000	10,426600
2351,000000	10,418900
2350,000000	10,419200
2349,000000	10,402200
2348,000000	10,412800
2347,000000	10,441100
2346,000000	10,493500
2345,000000	10,530500
2344,000000	10,559800
2343,000000	10,590500
2342,000000	10,637600
2341,000000	10,686900
2340,000000	10,723900
2339,000000	10,755100
2338,000000	10,792600
2337,000000	10,833500
2336,000000	10,849100
2335,000000	10,860700
2334,000000	10,871700
2333,000000	10,869200
2332,000000	10,855100
2331,000000	10,839900
2330,000000	10,842200
2329,000000	10,825400
2328,000000	10,788800
2327,000000	10,757700
2326,000000	10,722800
2325,000000	10,688300
2324,000000	10,650900
2323,000000	10,595300
2322,000000	10,529300
2321,000000	10,463900
2320,000000	10,387400
2319,000000	10,307600
2318,000000	10,226100
2317,000000	10,146200
2316,000000	10,056200
2315,000000	9,954100
2314,000000	9,859200
2313,000000	9,782600
2312,000000	9,686400
2311,000000	9,609300
2310,000000	9,530900
2309,000000	9,448300
2308,000000	9,401400
2307,000000	9,350200
2306,000000	9,299400
2305,000000	9,279800
2304,000000	9,278700
2303,000000	9,297300
2302,000000	9,313400
2301,000000	9,338300
2300,000000	9,388300
2299,000000	9,447900
2298,000000	9,507100
2297,000000	9,560900
2296,000000	9,633100
2295,000000	9,722000
2294,000000	9,803900
2293,000000	9,873000
2292,000000	9,927100
2291,000000	10,006700
2290,000000	10,052400
2289,000000	10,101800
2288,000000	10,155900
2287,000000	10,183300
2286,000000	10,200800
2285,000000	10,206100
2284,000000	10,204100
2283,000000	10,191300
2282,000000	10,186400
2281,000000	10,170400
2280,000000	10,161200
2279,000000	10,128200
2278,000000	10,090200
2277,000000	10,040400
2276,000000	10,024100
2275,000000	9,994700
2274,000000	9,964700
2273,000000	9,954600
2272,000000	9,933200
2271,000000	9,921300
2270,000000	9,929500
2269,000000	9,947800
2268,000000	9,966200
2267,000000	10,009400
2266,000000	10,047700
2265,000000	10,145900
2264,000000	10,231100
2263,000000	10,342000
2262,000000	10,465100
2261,000000	10,599600
2260,000000	10,769400
2259,000000	10,948600
2258,000000	11,130600
2257,000000	11,321100
2256,000000	11,524600
2255,000000	11,749900
2254,000000	11,946800
2253,000000	12,136100
2252,000000	12,332200
2251,000000	12,543000
2250,000000	12,755900
2249,000000	12,921500
2248,000000	13,088500
2247,000000	13,255500
2246,000000	13,413000
2245,000000	13,564500
2244,000000	13,682600
2243,000000	13,795700
2242,000000	13,917600
2241,000000	14,026900
2240,000000	14,115500
2239,000000	14,202100
2238,000000	14,279700
2237,000000	14,341500
2236,000000	14,422000
2235,000000	14,479500
2234,000000	14,537500
2233,000000	14,573000
2232,000000	14,609600
2231,000000	14,647000
2230,000000	14,680900
2229,000000	14,697600
2228,000000	14,716900
2227,000000	14,735200
2226,000000	14,748500
2225,000000	14,742200
2224,000000	14,749500
2223,000000	14,744600
2222,000000	14,716400
2221,000000	14,694800
2220,000000	14,661800
2219,000000	14,651600
2218,000000	14,628400
2217,000000	14,591300
2216,000000	14,557700
2215,000000	14,544600
2214,000000	14,519600
2213,000000	14,496100
2212,000000	14,467900
2211,000000	14,424800
2210,000000	14,406200
2209,000000	14,375100
2208,000000	14,368400
2207,000000	14,331000
2206,000000	14,291400
2205,000000	14,298400
2204,000000	14,269200
2203,000000	14,253300
2202,000000	14,270000
2201,000000	14,215800
2200,000000	14,205600
2199,000000	14,210200
2198,000000	14,190200
2197,000000	14,173100
2196,000000	14,155600
2195,000000	14,144300
2194,000000	14,129100
2193,000000	14,139700
2192,000000	14,130700
2191,000000	14,098000
2190,000000	14,098600
2189,000000	14,082300
2188,000000	14,075200
2187,000000	14,071700
2186,000000	14,058600
2185,000000	14,041500
2184,000000	14,032900
2183,000000	14,010100
2182,000000	13,977700
2181,000000	13,960700
2180,000000	13,962900
2179,000000	13,939200
2178,000000	13,930500
2177,000000	13,919700
2176,000000	13,916900
2175,000000	13,915600
2174,000000	13,893600
2173,000000	13,914000
2172,000000	13,937000
2171,000000	13,933400
2170,000000	13,922200
2169,000000	13,934400
2168,000000	13,953500
2167,000000	13,973300
2166,000000	13,966400
2165,000000	14,000600
2164,000000	14,012200
2163,000000	14,024000
2162,000000	14,051800
2161,000000	14,088900
2160,000000	14,092400
2159,000000	14,125100
2158,000000	14,162100
2157,000000	14,195100
2156,000000	14,224600
2155,000000	14,251400
2154,000000	14,287200
2153,000000	14,328900
2152,000000	14,378300
2151,000000	14,401500
2150,000000	14,442300
2149,000000	14,494100
2148,000000	14,529300
2147,000000	14,559300
2146,000000	14,598000
2145,000000	14,646900
2144,000000	14,672100
2143,000000	14,701100
2142,000000	14,748300
2141,000000	14,791100
2140,000000	14,828800
2139,000000	14,838600
2138,000000	14,867300
2137,000000	14,902600
2136,000000	14,920800
2135,000000	14,948700
2134,000000	14,980400
2133,000000	14,999000
2132,000000	15,021500
2131,000000	15,046000
2130,000000	15,049800
2129,000000	15,056700
2128,000000	15,068900
2127,000000	15,085000
2126,000000	15,088000
2125,000000	15,104200
2124,000000	15,088200
2123,000000	15,089400
2122,000000	15,090800
2121,000000	15,089900
2120,000000	15,090200
2119,000000	15,079700
2118,000000	15,058400
2117,000000	15,043600
2116,000000	15,039700
2115,000000	15,034000
2114,000000	15,009700
2113,000000	14,998200
2112,000000	14,997500
2111,000000	14,976100
2110,000000	14,944100
2109,000000	14,928000
2108,000000	14,910400
2107,000000	14,890100
2106,000000	14,873000
2105,000000	14,843800
2104,000000	14,819500
2103,000000	14,805200
2102,000000	14,792400
2101,000000	14,774200
2100,000000	14,754500
2099,000000	14,729500
2098,000000	14,699900
2097,000000	14,690300
2096,000000	14,670900
2095,000000	14,657600
2094,000000	14,644800
2093,000000	14,634100
2092,000000	14,621100
2091,000000	14,602400
2090,000000	14,584300
2089,000000	14,573800
2088,000000	14,565700
2087,000000	14,550500
2086,000000	14,533900
2085,000000	14,517000
2084,000000	14,496100
2083,000000	14,469200
2082,000000	14,435100
2081,000000	14,426000
2080,000000	14,409400
2079,000000	14,355100
2078,000000	14,316400
2077,000000	14,283300
2076,000000	14,254700
2075,000000	14,234000
2074,000000	14,187800
2073,000000	14,126800
2072,000000	14,082100
2071,000000	14,043800
2070,000000	13,996200
2069,000000	13,949100
2068,000000	13,895700
2067,000000	13,825300
2066,000000	13,772200
2065,000000	13,720200
2064,000000	13,670600
2063,000000	13,622700
2062,000000	13,552400
2061,000000	13,505000
2060,000000	13,454300
2059,000000	13,389600
2058,000000	13,347600
2057,000000	13,309900
2056,000000	13,280300
2055,000000	13,246900
2054,000000	13,220300
2053,000000	13,217900
2052,000000	13,218900
2051,000000	13,227200
2050,000000	13,247700
2049,000000	13,280200
2048,000000	13,320700
2047,000000	13,354900
2046,000000	13,405900
2045,000000	13,461400
2044,000000	13,524200
2043,000000	13,578000
2042,000000	13,647000
2041,000000	13,721100
2040,000000	13,794100
2039,000000	13,879200
2038,000000	13,935300
2037,000000	13,989600
2036,000000	14,066500
2035,000000	14,127500
2034,000000	14,172400
2033,000000	14,223300
2032,000000	14,259400
2031,000000	14,308300
2030,000000	14,343600
2029,000000	14,363500
2028,000000	14,388400
2027,000000	14,414500
2026,000000	14,447400
2025,000000	14,468700
2024,000000	14,484000
2023,000000	14,499800
2022,000000	14,504100
2021,000000	14,498100
2020,000000	14,502900
2019,000000	14,512900
2018,000000	14,509400
2017,000000	14,492500
2016,000000	14,481900
2015,000000	14,473400
2014,000000	14,468900
2013,000000	14,450400
2012,000000	14,431400
2011,000000	14,423700
2010,000000	14,403700
2009,000000	14,384500
2008,000000	14,354100
2007,000000	14,337100
2006,000000	14,307000
2005,000000	14,277600
2004,000000	14,247300
2003,000000	14,202500
2002,000000	14,149200
2001,000000	14,110000
2000,000000	14,079400
1999,000000	14,028700
1998,000000	13,977000
1997,000000	13,948300
1996,000000	13,863200
1995,000000	13,802900
1994,000000	13,758500
1993,000000	13,699600
1992,000000	13,618700
1991,000000	13,545100
1990,000000	13,495900
1989,000000	13,450200
1988,000000	13,363000
1987,000000	13,280100
1986,000000	13,219600
1985,000000	13,134200
1984,000000	13,081300
1983,000000	13,000500
1982,000000	12,915700
1981,000000	12,858900
1980,000000	12,786200
1979,000000	12,708800
1978,000000	12,619500
1977,000000	12,563400
1976,000000	12,470600
1975,000000	12,416100
1974,000000	12,360500
1973,000000	12,267300
1972,000000	12,188400
1971,000000	12,124500
1970,000000	12,046800
1969,000000	11,979700
1968,000000	11,916500
1967,000000	11,849700
1966,000000	11,794400
1965,000000	11,740700
1964,000000	11,669100
1963,000000	11,601100
1962,000000	11,535100
1961,000000	11,453400
1960,000000	11,391400
1959,000000	11,349700
1958,000000	11,272400
1957,000000	11,228200
1956,000000	11,161900
1955,000000	11,104400
1954,000000	11,051600
1953,000000	10,985400
1952,000000	10,922400
1951,000000	10,868300
1950,000000	10,843100
1949,000000	10,799600
1948,000000	10,757800
1947,000000	10,711400
1946,000000	10,668900
1945,000000	10,621600
1944,000000	10,591300
1943,000000	10,564100
1942,000000	10,540800
1941,000000	10,513700
1940,000000	10,495100
1939,000000	10,476300
1938,000000	10,471100
1937,000000	10,443400
1936,000000	10,471100
1935,000000	10,481200
1934,000000	10,482000
1933,000000	10,487000
1932,000000	10,533100
1931,000000	10,553800
1930,000000	10,586500
1929,000000	10,630500
1928,000000	10,676100
1927,000000	10,737600
1926,000000	10,782500
1925,000000	10,858100
1924,000000	10,938500
1923,000000	11,020300
1922,000000	11,099700
1921,000000	11,207600
1920,000000	11,310600
1919,000000	11,427300
1918,000000	11,532000
1917,000000	11,674400
1916,000000	11,815400
1915,000000	11,942700
1914,000000	12,092200
1913,000000	12,244200
1912,000000	12,414400
1911,000000	12,579900
1910,000000	12,741200
1909,000000	12,926300
1908,000000	13,088400
1907,000000	13,313300
1906,000000	13,528500
1905,000000	13,745800
1904,000000	13,978500
1903,000000	14,208400
1902,000000	14,440200
1901,000000	14,727800
1900,000000	14,983400
1899,000000	15,274300
1898,000000	15,581000
1897,000000	15,861100
1896,000000	16,168500
1895,000000	16,481600
1894,000000	16,799300
1893,000000	17,142900
1892,000000	17,483500
1891,000000	17,889300
1890,000000	18,277200
1889,000000	18,648300
1888,000000	19,042900
1887,000000	19,483100
1886,000000	19,883900
1885,000000	20,344700
1884,000000	20,793700
1883,000000	21,278100
1882,000000	21,759200
1881,000000	22,219400
1880,000000	22,701200
1879,000000	23,122300
1878,000000	23,533200
1877,000000	23,984800
1876,000000	24,392500
1875,000000	24,778000
1874,000000	25,163000
1873,000000	25,522900
1872,000000	25,862900
1871,000000	26,189600
1870,000000	26,484700
1869,000000	26,743200
1868,000000	27,030500
1867,000000	27,265100
1866,000000	27,449200
1865,000000	27,632500
1864,000000	27,794400
1863,000000	27,938000
1862,000000	28,100200
1861,000000	28,257200
1860,000000	28,407200
1859,000000	28,518400
1858,000000	28,622900
1857,000000	28,717000
1856,000000	28,795800
1855,000000	28,859100
1854,000000	28,928600
1853,000000	28,968100
1852,000000	28,967600
1851,000000	29,015600
1850,000000	29,065900
1849,000000	29,109600
1848,000000	29,149700
1847,000000	29,145400
1846,000000	29,090300
1845,000000	29,041100
1844,000000	29,041000
1843,000000	29,057500
1842,000000	29,089800
1841,000000	29,103400
1840,000000	29,102600
1839,000000	29,067000
1838,000000	29,011800
1837,000000	29,011400
1836,000000	28,987300
1835,000000	28,945200
1834,000000	28,906400
1833,000000	28,863400
1832,000000	28,828400
1831,000000	28,799100
1830,000000	28,766900
1829,000000	28,728700
1828,000000	28,682400
1827,000000	28,617400
1826,000000	28,565900
1825,000000	28,523900
1824,000000	28,480700
1823,000000	28,458800
1822,000000	28,466300
1821,000000	28,477100
1820,000000	28,436200
1819,000000	28,379600
1818,000000	28,331600
1817,000000	28,307000
1816,000000	28,287800
1815,000000	28,277700
1814,000000	28,258900
1813,000000	28,254600
1812,000000	28,245100
1811,000000	28,217400
1810,000000	28,178400
1809,000000	28,139100
1808,000000	28,102800
1807,000000	28,071800
1806,000000	28,059200
1805,000000	28,013800
1804,000000	27,960500
1803,000000	27,938500
1802,000000	27,906700
1801,000000	27,852600
1800,000000	27,795600
1799,000000	27,759700
1798,000000	27,716300
1797,000000	27,668000
1796,000000	27,636000
1795,000000	27,593600
1794,000000	27,537200
1793,000000	27,485900
1792,000000	27,458200
1791,000000	27,416100
1790,000000	27,380900
1789,000000	27,332000
1788,000000	27,286200
1787,000000	27,253800
1786,000000	27,220200
1785,000000	27,178800
1784,000000	27,122600
1783,000000	27,063100
1782,000000	27,010800
1781,000000	26,955900
1780,000000	26,904600
1779,000000	26,849300
1778,000000	26,778800
1777,000000	26,706500
1776,000000	26,651900
1775,000000	26,584100
1774,000000	26,507100
1773,000000	26,421000
1772,000000	26,341000
1771,000000	26,264000
1770,000000	26,168800
1769,000000	26,067900
1768,000000	25,976200
1767,000000	25,884600
1766,000000	25,801700
1765,000000	25,725600
1764,000000	25,669000
1763,000000	25,630800
1762,000000	25,606700
1761,000000	25,616500
1760,000000	25,652300
1759,000000	25,689200
1758,000000	25,743800
1757,000000	25,806300
1756,000000	25,856400
1755,000000	25,902900
1754,000000	25,959200
1753,000000	26,014300
1752,000000	26,049500
1751,000000	26,064900
1750,000000	26,079900
1749,000000	26,088100
1748,000000	26,079600
1747,000000	26,054000
1746,000000	26,017600
1745,000000	25,964600
1744,000000	25,899100
1743,000000	25,800200
1742,000000	25,690300
1741,000000	25,563600
1740,000000	25,417700
1739,000000	25,250200
1738,000000	25,089800
1737,000000	24,921800
1736,000000	24,755500
1735,000000	24,604900
1734,000000	24,486800
1733,000000	24,389200
1732,000000	24,338200
1731,000000	24,326900
1730,000000	24,342300
1729,000000	24,381400
1728,000000	24,448000
1727,000000	24,517100
1726,000000	24,611200
1725,000000	24,678300
1724,000000	24,747600
1723,000000	24,818600
1722,000000	24,870400
1721,000000	24,931100
1720,000000	24,996600
1719,000000	25,077400
1718,000000	25,125900
1717,000000	25,208600
1716,000000	25,283900
1715,000000	25,383200
1714,000000	25,468000
1713,000000	25,580000
1712,000000	25,675600
1711,000000	25,748200
1710,000000	25,808200
1709,000000	25,857300
1708,000000	25,912100
1707,000000	25,932400
1706,000000	25,932300
1705,000000	25,928300
1704,000000	25,916800
1703,000000	25,910000
1702,000000	25,875300
1701,000000	25,834400
1700,000000	25,749900
1699,000000	25,674400
1698,000000	25,599900
1697,000000	25,509300
1696,000000	25,440700
1695,000000	25,396300
1694,000000	25,390900
1693,000000	25,403000
1692,000000	25,439800
1691,000000	25,534000
1690,000000	25,639200
1689,000000	25,731400
1688,000000	25,831700
1687,000000	25,909400
1686,000000	25,972000
1685,000000	26,026400
1684,000000	26,092800
1683,000000	26,181500
1682,000000	26,325800
1681,000000	26,524500
1680,000000	26,758400
1679,000000	27,075600
1678,000000	27,434800
1677,000000	27,776100
1676,000000	28,124500
1675,000000	28,426800
1674,000000	28,690700
1673,000000	28,944700
1672,000000	29,176700
1671,000000	29,338600
1670,000000	29,522800
1669,000000	29,656000
1668,000000	29,780100
1667,000000	29,873400
1666,000000	29,961800
1665,000000	30,042000
1664,000000	30,154600
1663,000000	30,208900
1662,000000	30,279800
1661,000000	30,325700
1660,000000	30,358900
1659,000000	30,408800
1658,000000	30,440800
1657,000000	30,471700
1656,000000	30,491400
1655,000000	30,486400
1654,000000	30,485300
1653,000000	30,493200
1652,000000	30,483800
1651,000000	30,495800
1650,000000	30,466300
1649,000000	30,445900
1648,000000	30,434300
1647,000000	30,389800
1646,000000	30,343500
1645,000000	30,316200
1644,000000	30,282100
1643,000000	30,247500
1642,000000	30,204300
1641,000000	30,165800
1640,000000	30,120400
1639,000000	30,055100
1638,000000	30,014000
1637,000000	29,982200
1636,000000	29,919500
1635,000000	29,876000
1634,000000	29,811600
1633,000000	29,762500
1632,000000	29,693500
1631,000000	29,633200
1630,000000	29,569500
1629,000000	29,507100
1628,000000	29,442000
1627,000000	29,364900
1626,000000	29,326700
1625,000000	29,244900
1624,000000	29,171100
1623,000000	29,134300
1622,000000	29,045800
1621,000000	28,981600
1620,000000	28,920200
1619,000000	28,863400
1618,000000	28,793900
1617,000000	28,735700
1616,000000	28,667800
1615,000000	28,621100
1614,000000	28,549700
1613,000000	28,477700
1612,000000	28,414100
1611,000000	28,348400
1610,000000	28,298700
1609,000000	28,235600
1608,000000	28,194800
1607,000000	28,117800
1606,000000	28,068900
1605,000000	28,006300
1604,000000	27,924800
1603,000000	27,878200
1602,000000	27,811300
1601,000000	27,751400
1600,000000	27,695000
1599,000000	27,642900
1598,000000	27,576800
1597,000000	27,524600
1596,000000	27,464500
1595,000000	27,404700
1594,000000	27,363500
1593,000000	27,302100
1592,000000	27,256700
1591,000000	27,214400
1590,000000	27,170700
1589,000000	27,111200
1588,000000	27,060500
1587,000000	27,012800
1586,000000	26,977400
1585,000000	26,936800
1584,000000	26,885000
1583,000000	26,840000
1582,000000	26,805000
1581,000000	26,758200
1580,000000	26,722000
1579,000000	26,679300
1578,000000	26,656700
1577,000000	26,620300
1576,000000	26,583700
1575,000000	26,561800
1574,000000	26,552700
1573,000000	26,513800
1572,000000	26,493800
1571,000000	26,487300
1570,000000	26,470500
1569,000000	26,456800
1568,000000	26,450600
1567,000000	26,446700
1566,000000	26,434400
1565,000000	26,423200
1564,000000	26,427400
1563,000000	26,414800
1562,000000	26,397500
1561,000000	26,388700
1560,000000	26,382400
1559,000000	26,373900
1558,000000	26,353400
1557,000000	26,336100
1556,000000	26,309500
1555,000000	26,288700
1554,000000	26,261400
1553,000000	26,239600
1552,000000	26,207200
1551,000000	26,157600
1550,000000	26,130900
1549,000000	26,085800
1548,000000	26,041700
1547,000000	26,009200
1546,000000	25,941800
1545,000000	25,895200
1544,000000	25,864200
1543,000000	25,823100
1542,000000	25,788100
1541,000000	25,751800
1540,000000	25,714700
1539,000000	25,675300
1538,000000	25,639800
1537,000000	25,607900
1536,000000	25,573600
1535,000000	25,554800
1534,000000	25,521500
1533,000000	25,478400
1532,000000	25,452700
1531,000000	25,402100
1530,000000	25,349400
1529,000000	25,323800
1528,000000	25,285700
1527,000000	25,235200
1526,000000	25,180500
1525,000000	25,139200
1524,000000	25,104600
1523,000000	25,058300
1522,000000	25,004500
1521,000000	24,950500
1520,000000	24,893400
1519,000000	24,837300
1518,000000	24,788700
1517,000000	24,733100
1516,000000	24,676300
1515,000000	24,623400
1514,000000	24,567500
1513,000000	24,511700
1512,000000	24,435400
1511,000000	24,373900
1510,000000	24,321600
1509,000000	24,264700
1508,000000	24,206400
1507,000000	24,133600
1506,000000	24,080100
1505,000000	24,026400
1504,000000	23,962500
1503,000000	23,891400
1502,000000	23,831200
1501,000000	23,783800
1500,000000	23,729000
1499,000000	23,673300
1498,000000	23,617000
1497,000000	23,552700
1496,000000	23,499900
1495,000000	23,451000
1494,000000	23,406800
1493,000000	23,378100
1492,000000	23,332200
1491,000000	23,296100
1490,000000	23,259800
1489,000000	23,214600
1488,000000	23,179600
1487,000000	23,141000
1486,000000	23,113600
1485,000000	23,078200
1484,000000	23,046600
1483,000000	23,005900
1482,000000	22,975200
1481,000000	22,954300
1480,000000	22,923300
1479,000000	22,909100
1478,000000	22,899800
1477,000000	22,884500
1476,000000	22,873100
1475,000000	22,874000
1474,000000	22,867500
1473,000000	22,865000
1472,000000	22,867700
1471,000000	22,874200
1470,000000	22,872500
1469,000000	22,880800
1468,000000	22,882300
1467,000000	22,877200
1466,000000	22,884400
1465,000000	22,897000
1464,000000	22,901800
1463,000000	22,915900
1462,000000	22,940500
1461,000000	22,971500
1460,000000	23,001900
1459,000000	23,028000
1458,000000	23,051700
1457,000000	23,110200
1456,000000	23,153900
1455,000000	23,207900
1454,000000	23,251200
1453,000000	23,312800
1452,000000	23,370100
1451,000000	23,434500
1450,000000	23,490900
1449,000000	23,552200
1448,000000	23,607000
1447,000000	23,668800
1446,000000	23,760100
1445,000000	23,832300
1444,000000	23,894200
1443,000000	23,962700
1442,000000	24,045400
1441,000000	24,136100
1440,000000	24,219700
1439,000000	24,306600
1438,000000	24,383000
1437,000000	24,490700
1436,000000	24,591500
1435,000000	24,665900
1434,000000	24,759500
1433,000000	24,876900
1432,000000	24,989600
1431,000000	25,121500
1430,000000	25,227100
1429,000000	25,346300
1428,000000	25,501900
1427,000000	25,632400
1426,000000	25,774500
1425,000000	25,927200
1424,000000	26,096500
1423,000000	26,277300
1422,000000	26,425900
1421,000000	26,600800
1420,000000	26,817100
1419,000000	27,031000
1418,000000	27,217800
1417,000000	27,436000
1416,000000	27,624300
1415,000000	27,859500
1414,000000	28,114000
1413,000000	28,382300
1412,000000	28,604700
1411,000000	28,827400
1410,000000	29,133400
1409,000000	29,468000
1408,000000	29,768300
1407,000000	30,100200
1406,000000	30,413200
1405,000000	30,750100
1404,000000	31,121200
1403,000000	31,442800
1402,000000	31,767100
1401,000000	32,134400
1400,000000	32,559700
1399,000000	32,896400
1398,000000	33,165200
1397,000000	33,429700
1396,000000	33,769400
1395,000000	34,128800
1394,000000	34,441600
1393,000000	34,695000
1392,000000	35,008500
1391,000000	35,340600
1390,000000	35,685200
1389,000000	36,000400
1388,000000	36,445100
1387,000000	36,863300
1386,000000	37,288000
1385,000000	37,727600
1384,000000	38,181900
1383,000000	38,684500
1382,000000	39,173800
1381,000000	39,597000
1380,000000	39,952600
1379,000000	40,197600
1378,000000	40,447400
1377,000000	40,633100
1376,000000	40,848400
1375,000000	41,033900
1374,000000	41,214300
1373,000000	41,426000
1372,000000	41,704300
1371,000000	41,985500
1370,000000	42,258400
1369,000000	42,521100
1368,000000	42,780400
1367,000000	43,025100
1366,000000	43,222300
1365,000000	43,397500
1364,000000	43,594600
1363,000000	43,742400
1362,000000	43,920500
1361,000000	44,058600
1360,000000	44,205100
1359,000000	44,203600
1358,000000	44,332700
1357,000000	44,417700
1356,000000	44,549600
1355,000000	44,712300
1354,000000	44,965500
1353,000000	45,221600
1352,000000	45,457700
1351,000000	45,857300
1350,000000	46,226000
1349,000000	46,547200
1348,000000	46,839400
1347,000000	47,171100
1346,000000	47,437400
1345,000000	47,711800
1344,000000	47,978000
1343,000000	48,270700
1342,000000	48,516900
1341,000000	48,779300
1340,000000	49,025800
1339,000000	49,281800
1338,000000	49,519900
1337,000000	49,769500
1336,000000	50,028200
1335,000000	50,237600
1334,000000	50,500500
1333,000000	50,714000
1332,000000	50,941800
1331,000000	51,158600
1330,000000	51,389300
1329,000000	51,584300
1328,000000	51,785000
1327,000000	51,978000
1326,000000	52,168000
1325,000000	52,360800
1324,000000	52,551000
1323,000000	52,705400
1322,000000	52,873800
1321,000000	53,034300
1320,000000	53,198300
1319,000000	53,342900
1318,000000	53,498800
1317,000000	53,636700
1316,000000	53,772900
1315,000000	53,898800
1314,000000	54,036500
1313,000000	54,173200
1312,000000	54,291500
1311,000000	54,401000
1310,000000	54,509700
1309,000000	54,598200
1308,000000	54,695600
1307,000000	54,797300
1306,000000	54,867100
1305,000000	54,946200
1304,000000	55,015600
1303,000000	55,086800
1302,000000	55,155500
1301,000000	55,204100
1300,000000	55,257000
1299,000000	55,303300
1298,000000	55,341700
1297,000000	55,364600
1296,000000	55,394400
1295,000000	55,432000
1294,000000	55,455500
1293,000000	55,473400
1292,000000	55,493500
1291,000000	55,501100
1290,000000	55,510900
1289,000000	55,510900
1288,000000	55,499100
1287,000000	55,486100
1286,000000	55,463400
1285,000000	55,445300
1284,000000	55,424700
1283,000000	55,389400
1282,000000	55,356000
1281,000000	55,333600
1280,000000	55,291300
1279,000000	55,259900
1278,000000	55,217400
1277,000000	55,166400
1276,000000	55,132600
1275,000000	55,100500
1274,000000	55,072200
1273,000000	55,044700
1272,000000	55,010400
1271,000000	54,984700
1270,000000	54,955800
1269,000000	54,917200
1268,000000	54,889700
1267,000000	54,859000
1266,000000	54,821700
1265,000000	54,787100
1264,000000	54,752900
1263,000000	54,713900
1262,000000	54,682600
1261,000000	54,638400
1260,000000	54,600300
1259,000000	54,569800
1258,000000	54,520100
1257,000000	54,457700
1256,000000	54,402300
1255,000000	54,358500
1254,000000	54,312100
1253,000000	54,256500
1252,000000	54,192300
1251,000000	54,137200
1250,000000	54,063400
1249,000000	53,989600
1248,000000	53,921400
1247,000000	53,828100
1246,000000	53,738400
1245,000000	53,642700
1244,000000	53,538900
1243,000000	53,435700
1242,000000	53,343500
1241,000000	53,243500
1240,000000	53,130800
1239,000000	53,010900
1238,000000	52,885000
1237,000000	52,769000
1236,000000	52,661600
1235,000000	52,547300
1234,000000	52,415500
1233,000000	52,282300
1232,000000	52,158700
1231,000000	52,025100
1230,000000	51,891300
1229,000000	51,749400
1228,000000	51,606900
1227,000000	51,462500
1226,000000	51,315100
1225,000000	51,175000
1224,000000	51,028800
1223,000000	50,879100
1222,000000	50,729700
1221,000000	50,577500
1220,000000	50,429200
1219,000000	50,283000
1218,000000	50,141000
1217,000000	50,005600
1216,000000	49,878600
1215,000000	49,763300
1214,000000	49,658100
1213,000000	49,558500
1212,000000	49,452500
1211,000000	49,341400
1210,000000	49,236900
1209,000000	49,147700
1208,000000	49,069500
1207,000000	48,979900
1206,000000	48,888800
1205,000000	48,827800
1204,000000	48,788000
1203,000000	48,736100
1202,000000	48,698300
1201,000000	48,673600
1200,000000	48,641000
1199,000000	48,610700
1198,000000	48,552800
1197,000000	48,478000
1196,000000	48,390200
1195,000000	48,280500
1194,000000	48,133600
1193,000000	47,944200
1192,000000	47,706900
1191,000000	47,444800
1190,000000	47,156200
1189,000000	46,875700
1188,000000	46,624000
1187,000000	46,413400
1186,000000	46,263000
1185,000000	46,204400
1184,000000	46,221700
1183,000000	46,343300
1182,000000	46,548100
1181,000000	46,814400
1180,000000	47,136200
1179,000000	47,476400
1178,000000	47,821200
1177,000000	48,159600
1176,000000	48,453000
1175,000000	48,710300
1174,000000	48,938400
1173,000000	49,160500
1172,000000	49,375300
1171,000000	49,611000
1170,000000	49,843500
1169,000000	50,094000
1168,000000	50,334600
1167,000000	50,572200
1166,000000	50,827800
1165,000000	51,086900
1164,000000	51,369800
1163,000000	51,649100
1162,000000	51,936000
1161,000000	52,206800
1160,000000	52,496500
1159,000000	52,781300
1158,000000	53,052700
1157,000000	53,315700
1156,000000	53,582500
1155,000000	53,821300
1154,000000	54,041300
1153,000000	54,203300
1152,000000	54,367300
1151,000000	54,493100
1150,000000	54,587500
1149,000000	54,672800
1148,000000	54,774800
1147,000000	54,877500
1146,000000	55,012900
1145,000000	55,160400
1144,000000	55,333100
1143,000000	55,569500
1142,000000	55,827300
1141,000000	56,119800
1140,000000	56,443800
1139,000000	56,758400
1138,000000	57,095900
1137,000000	57,439800
1136,000000	57,799900
1135,000000	58,188000
1134,000000	58,599500
1133,000000	58,978000
1132,000000	59,256700
1131,000000	59,581600
1130,000000	59,883400
1129,000000	60,155500
1128,000000	60,372600
1127,000000	60,567900
1126,000000	60,708200
1125,000000	60,834200
1124,000000	60,949400
1123,000000	61,045000
1122,000000	61,116100
1121,000000	61,180000
1120,000000	61,233900
1119,000000	61,263900
1118,000000	61,307300
1117,000000	61,317900
1116,000000	61,354300
1115,000000	61,351300
1114,000000	61,353400
1113,000000	61,358800
1112,000000	61,361000
1111,000000	61,364700
1110,000000	61,342300
1109,000000	61,360700
1108,000000	61,349300
1107,000000	61,348500
1106,000000	61,347000
1105,000000	61,338300
1104,000000	61,353700
1103,000000	61,346600
1102,000000	61,342400
1101,000000	61,316100
1100,000000	61,314300
1099,000000	61,309500
1098,000000	61,271200
1097,000000	61,287100
1096,000000	61,258500
1095,000000	61,259400
1094,000000	61,217500
1093,000000	61,200400
1092,000000	61,176400
1091,000000	61,148900
1090,000000	61,116400
1089,000000	61,061200
1088,000000	61,039600
1087,000000	61,004400
1086,000000	60,960000
1085,000000	60,921600
1084,000000	60,850100
1083,000000	60,805600
1082,000000	60,772500
1081,000000	60,713600
1080,000000	60,660000
1079,000000	60,623800
1078,000000	60,567900
1077,000000	60,501600
1076,000000	60,466200
1075,000000	60,406900
1074,000000	60,351800
1073,000000	60,296300
1072,000000	60,227700
1071,000000	60,174500
1070,000000	60,107600
1069,000000	60,035500
1068,000000	59,983900
1067,000000	59,936300
1066,000000	59,868300
1065,000000	59,796800
1064,000000	59,717600
1063,000000	59,648000
1062,000000	59,592100
1061,000000	59,533800
1060,000000	59,458200
1059,000000	59,388300
1058,000000	59,306500
1057,000000	59,244900
1056,000000	59,174400
1055,000000	59,107300
1054,000000	59,033100
1053,000000	58,982200
1052,000000	58,883900
1051,000000	58,827600
1050,000000	58,760600
1049,000000	58,716400
1048,000000	58,645700
1047,000000	58,575100
1046,000000	58,541300
1045,000000	58,484200
1044,000000	58,436900
1043,000000	58,390100
1042,000000	58,316500
1041,000000	58,274300
1040,000000	58,234200
1039,000000	58,199500
1038,000000	58,132600
1037,000000	58,078600
1036,000000	58,031400
1035,000000	57,983400
1034,000000	57,939600
1033,000000	57,899800
1032,000000	57,843100
1031,000000	57,797600
1030,000000	57,743500
1029,000000	57,685100
1028,000000	57,639800
1027,000000	57,589700
1026,000000	57,541100
1025,000000	57,475900
1024,000000	57,406300
1023,000000	57,381600
1022,000000	57,313600
1021,000000	57,239700
1020,000000	57,204500
1019,000000	57,137700
1018,000000	57,091900
1017,000000	57,044000
1016,000000	56,987000
1015,000000	56,922600
1014,000000	56,883200
1013,000000	56,864500
1012,000000	56,830100
1011,000000	56,811000
1010,000000	56,755800
1009,000000	56,737900
1008,000000	56,713200
1007,000000	56,682000
1006,000000	56,655800
1005,000000	56,638700
1004,000000	56,620500
1003,000000	56,593500
1002,000000	56,561900
1001,000000	56,521600
1000,000000	56,478300
999,000000	56,449300
998,000000	56,403400
997,000000	56,381100
996,000000	56,358800
995,000000	56,308900
994,000000	56,278400
993,000000	56,256500
992,000000	56,222100
991,000000	56,192000
990,000000	56,157400
989,000000	56,130100
988,000000	56,125700
987,000000	56,102300
986,000000	56,082200
985,000000	56,069300
984,000000	56,078300
983,000000	56,075000
982,000000	56,070200
981,000000	56,080900
980,000000	56,102500
979,000000	56,110700
978,000000	56,136900
977,000000	56,158200
976,000000	56,184500
975,000000	56,220000
974,000000	56,249700
973,000000	56,303800
972,000000	56,357600
971,000000	56,410100
970,000000	56,463800
969,000000	56,521100
968,000000	56,582200
967,000000	56,642100
966,000000	56,715600
965,000000	56,793400
964,000000	56,870500
963,000000	56,957400
962,000000	57,044400
961,000000	57,135400
960,000000	57,216500
959,000000	57,296800
958,000000	57,377100
957,000000	57,457300
956,000000	57,549100
955,000000	57,635300
954,000000	57,698000
953,000000	57,773100
952,000000	57,849000
951,000000	57,903900
950,000000	57,975100
949,000000	58,035400
948,000000	58,069400
947,000000	58,122800
946,000000	58,173900
945,000000	58,210500
944,000000	58,251300
943,000000	58,305100
942,000000	58,344400
941,000000	58,358700
940,000000	58,382800
939,000000	58,432300
938,000000	58,468000
937,000000	58,483400
936,000000	58,518900
935,000000	58,577400
934,000000	58,631600
933,000000	58,666000
932,000000	58,707000
931,000000	58,757600
930,000000	58,828900
929,000000	58,892600
928,000000	58,926500
927,000000	58,983200
926,000000	59,077200
925,000000	59,150000
924,000000	59,223600
923,000000	59,299200
922,000000	59,368800
921,000000	59,446500
920,000000	59,560200
919,000000	59,660500
918,000000	59,739000
917,000000	59,805100
916,000000	59,895000
915,000000	60,012200
914,000000	60,096100
913,000000	60,176400
912,000000	60,256500
911,000000	60,368800
910,000000	60,479200
909,000000	60,563500
908,000000	60,680300
907,000000	60,785300
906,000000	60,902500
905,000000	61,026100
904,000000	61,152200
903,000000	61,296000
902,000000	61,446000
901,000000	61,593300
900,000000	61,754800
899,000000	61,911200
898,000000	62,071300
897,000000	62,224100
896,000000	62,361700
895,000000	62,539000
894,000000	62,748700
893,000000	62,938500
892,000000	63,126700
891,000000	63,309400
890,000000	63,505100
889,000000	63,682500
888,000000	63,879300
887,000000	64,074500
886,000000	64,251000
885,000000	64,414300
884,000000	64,616800
883,000000	64,775700
882,000000	64,953600
881,000000	65,144000
880,000000	65,309500
879,000000	65,525800
878,000000	65,715200
877,000000	65,899600
876,000000	66,092700
875,000000	66,260100
874,000000	66,446200
873,000000	66,638400
872,000000	66,839900
871,000000	67,061100
870,000000	67,265500
869,000000	67,497100
868,000000	67,724800
867,000000	67,955200
866,000000	68,173200
865,000000	68,413900
864,000000	68,666100
863,000000	68,943100
862,000000	69,199400
861,000000	69,443100
860,000000	69,777300
859,000000	70,032800
858,000000	70,343000
857,000000	73,463300
856,000000	73,368100
855,000000	73,577600
854,000000	74,048800
853,000000	74,284200
852,000000	75,018100
851,000000	75,109700
850,000000	74,824200
849,000000	75,027200
848,000000	75,968800
847,000000	76,676500
846,000000	77,530100
845,000000	77,083400
844,000000	76,987300
843,000000	77,716100
842,000000	78,416800
841,000000	78,833300
840,000000	78,807400
839,000000	78,913000
838,000000	78,876200
837,000000	79,149000
836,000000	80,154600
835,000000	80,615900
834,000000	80,739900
833,000000	81,172200
832,000000	80,898200
831,000000	81,353100
830,000000	81,434000
829,000000	81,626500
828,000000	82,120900
827,000000	82,169300
826,000000	82,811200
825,000000	82,941700
824,000000	83,281800
823,000000	83,446300
822,000000	82,927900
821,000000	83,779700
820,000000	83,819400
819,000000	83,596500
818,000000	83,575400
817,000000	84,178800
816,000000	84,103700
815,000000	84,351400
814,000000	84,056200
813,000000	84,547800
812,000000	84,037900
811,000000	84,203500
810,000000	83,768800
809,000000	84,490600
808,000000	84,414200
807,000000	84,040600
806,000000	84,485100
805,000000	84,473100
804,000000	84,238100
803,000000	84,522000
802,000000	84,318700
801,000000	84,492800
800,000000	84,291400
799,000000	84,071800
798,000000	84,650700
797,000000	84,904500
796,000000	84,785100
795,000000	84,916400
794,000000	84,837700
793,000000	84,962600
792,000000	85,291700
791,000000	85,003400
790,000000	85,002500
789,000000	85,489200
788,000000	85,626900
787,000000	85,747000
786,000000	85,818600
785,000000	85,991000
784,000000	85,854000
783,000000	86,049900
782,000000	86,124300
781,000000	86,277600
780,000000	86,381300
779,000000	86,527300
778,000000	86,241100
777,000000	86,670800
776,000000	86,295800
775,000000	86,349400
774,000000	86,312000
773,000000	86,147900
772,000000	86,442100
771,000000	86,344700
770,000000	86,188700
769,000000	86,238600
768,000000	85,796100
767,000000	85,891700
766,000000	86,099400
765,000000	85,895800
764,000000	85,433500
763,000000	85,458400
762,000000	85,054100
761,000000	85,105500
760,000000	84,947100
759,000000	84,608200
758,000000	84,477000
757,000000	84,184100
756,000000	83,858500
755,000000	83,842100
754,000000	83,752300
753,000000	83,512000
752,000000	83,359500
751,000000	82,938100
750,000000	82,574400
749,000000	82,478400
748,000000	82,510400
747,000000	81,956400
746,000000	81,675800
745,000000	81,186100
744,000000	80,799700
743,000000	80,336200
742,000000	79,977600
741,000000	79,588600
740,000000	79,236000
739,000000	78,888300
738,000000	78,189600
737,000000	77,567300
736,000000	77,271200
735,000000	76,913600
734,000000	76,366500
733,000000	76,164900
732,000000	75,680100
731,000000	75,117100
730,000000	74,707200
729,000000	74,323400
728,000000	73,941800
727,000000	73,378700
726,000000	73,055400
725,000000	72,549200
724,000000	72,351100
723,000000	71,944500
722,000000	71,567200
721,000000	71,278900
720,000000	71,147400
719,000000	70,873700
718,000000	70,737100
717,000000	70,652600
716,000000	70,500900
715,000000	70,376300
714,000000	70,318200
713,000000	70,238600
712,000000	70,202800
711,000000	70,097000
710,000000	70,097100
709,000000	69,999700
708,000000	70,110500
707,000000	70,173800
706,000000	70,077100
705,000000	70,081600
704,000000	70,218300
703,000000	70,197800
702,000000	70,341000
701,000000	70,408700
700,000000	70,463200
699,000000	70,530600
698,000000	70,469300
697,000000	70,564200
696,000000	70,639700
695,000000	70,617500
694,000000	70,713500
693,000000	70,632200
692,000000	70,530600
691,000000	70,468800
690,000000	70,484800
689,000000	70,398200
688,000000	70,225900
687,000000	70,086400
686,000000	69,931600
685,000000	69,916300
684,000000	69,778200
683,000000	69,661600
682,000000	69,414100
681,000000	69,153100
680,000000	68,829500
679,000000	68,576200
678,000000	68,336800
677,000000	68,117600
676,000000	67,697600
675,000000	67,300900
674,000000	66,921500
673,000000	66,520800
672,000000	66,091700
671,000000	65,626800
670,000000	65,094500
669,000000	64,601200
668,000000	64,119100
667,000000	63,620500
666,000000	63,046800
665,000000	62,494600
664,000000	61,964200
663,000000	61,407300
662,000000	60,815500
661,000000	60,359600
660,000000	59,862500
659,000000	59,339700
658,000000	58,850800
657,000000	58,400900
656,000000	58,009200
655,000000	57,720500
654,000000	57,492900
653,000000	57,337900
652,000000	57,282900
651,000000	57,222600
650,000000	57,267200
649,000000	57,430200
648,000000	57,599500
647,000000	57,806500
646,000000	58,093600
645,000000	58,465300
644,000000	58,842300
643,000000	59,336800
642,000000	59,917700
641,000000	60,471400
640,000000	61,107100
639,000000	61,782000
638,000000	62,514900
637,000000	63,263900
636,000000	64,032700
635,000000	64,859400
634,000000	65,710300
633,000000	66,508100
632,000000	67,321200
631,000000	68,151100
630,000000	69,072400
629,000000	69,944000
628,000000	70,690400
627,000000	71,526200
626,000000	72,329400
625,000000	73,178600
624,000000	74,041000
623,000000	74,894200
622,000000	75,706100
621,000000	76,500100
620,000000	77,325100
619,000000	78,080100
618,000000	78,734600
617,000000	79,437200
616,000000	80,173700
615,000000	80,788100
614,000000	81,428100
613,000000	82,012400
612,000000	82,622700
611,000000	83,115000
610,000000	83,568300
609,000000	84,032600
608,000000	84,592500
607,000000	85,020600
606,000000	85,325800
605,000000	85,765200
604,000000	86,149600
603,000000	86,518600
602,000000	86,889700
601,000000	87,191000
600,000000	87,491200
599,000000	87,800900
598,000000	88,104600
597,000000	88,314700
596,000000	88,504000
595,000000	88,706000
594,000000	88,917400
593,000000	89,024100
592,000000	89,189800
591,000000	89,333300
590,000000	89,430000
589,000000	89,550300
588,000000	89,637500
587,000000	89,652700
586,000000	89,701000
585,000000	89,674200
584,000000	89,693200
583,000000	89,671400
582,000000	89,627200
581,000000	89,595300
580,000000	89,540800
579,000000	89,525500
578,000000	89,428400
577,000000	89,342200
576,000000	89,189000
575,000000	89,059300
574,000000	89,007000
573,000000	88,847000
572,000000	88,659000
571,000000	88,530900
570,000000	88,371900
569,000000	88,129300
568,000000	87,898800
567,000000	87,748300
566,000000	87,587900
565,000000	87,339300
564,000000	87,091900
563,000000	86,771300
562,000000	86,536400
561,000000	86,186700
560,000000	85,875700
559,000000	85,494400
558,000000	85,057100
557,000000	84,754900
556,000000	84,365600
555,000000	83,945800
554,000000	83,445300
553,000000	82,963900
552,000000	82,416100
551,000000	81,823800
550,000000	81,237100
549,000000	80,640900
548,000000	79,955300
547,000000	79,332300
546,000000	78,592800
545,000000	77,841700
544,000000	77,038900
543,000000	76,208700
542,000000	75,329400
541,000000	74,506600
540,000000	73,510800
539,000000	72,540000
538,000000	71,618800
537,000000	70,596200
536,000000	69,491600
535,000000	68,498500
534,000000	67,382500
533,000000	66,227700
532,000000	65,057700
531,000000	63,918000
530,000000	62,724800
529,000000	61,459100
528,000000	60,302800
527,000000	59,096200
526,000000	57,925600
525,000000	56,765800
524,000000	55,552400
523,000000	54,413600
522,000000	53,304500
521,000000	52,218700
520,000000	51,235500
519,000000	50,277000
518,000000	49,320100
517,000000	48,350000
516,000000	47,486000
515,000000	46,643800
514,000000	45,831000
513,000000	45,111300
512,000000	44,374000
511,000000	43,683100
510,000000	43,043700
509,000000	42,459000
508,000000	41,756800
507,000000	41,194200
506,000000	40,691800
505,000000	40,269500
504,000000	39,809600
503,000000	39,334100
502,000000	38,913600
501,000000	38,502500
500,000000	38,130800
499,000000	37,777600
498,000000	37,458200
497,000000	37,064200
496,000000	36,808900
495,000000	36,336400
494,000000	36,077500
493,000000	35,842100
492,000000	35,528300
491,000000	35,171100
490,000000	34,972100
489,000000	34,709900
488,000000	34,448800
487,000000	34,207500
486,000000	33,951000
485,000000	33,685900
484,000000	33,496700
483,000000	33,211800
482,000000	32,988800
481,000000	32,662700
480,000000	32,415800
479,000000	32,159500
478,000000	31,928700
477,000000	31,583800
476,000000	31,344500
475,000000	31,049500
474,000000	30,793100
473,000000	30,481700
472,000000	30,196100
471,000000	29,917800
470,000000	29,588900
469,000000	29,311500
468,000000	29,043200
467,000000	28,754900
466,000000	28,443100
465,000000	28,286200
464,000000	28,013400
463,000000	27,839700
462,000000	27,574700
461,000000	27,434200
460,000000	27,248400
459,000000	27,097700
458,000000	26,866000
457,000000	26,753400
456,000000	26,624100
455,000000	26,521600
454,000000	26,374800
453,000000	26,241900
452,000000	26,100700
451,000000	26,074800
450,000000	25,930300
449,000000	25,894900
448,000000	25,753300
447,000000	25,639800
446,000000	25,563300
445,000000	25,536600
444,000000	25,432400
443,000000	25,306300
442,000000	25,238300
441,000000	25,089400
440,000000	24,983100
439,000000	24,841400
438,000000	24,761000
437,000000	24,539200
436,000000	24,391500
435,000000	24,251700
434,000000	24,028500
433,000000	23,837300
432,000000	23,667800
431,000000	23,371500
430,000000	23,205200
429,000000	22,981100
428,000000	22,757900
427,000000	22,409200
426,000000	22,153900
425,000000	21,912800
424,000000	21,578300
423,000000	21,277200
422,000000	20,937800
421,000000	20,597500
420,000000	20,218900
419,000000	19,862200
418,000000	19,520800
417,000000	19,139600
416,000000	18,747300
415,000000	18,360300
414,000000	17,975300
413,000000	17,559100
412,000000	17,201200
411,000000	16,758600
410,000000	16,396000
409,000000	15,960400
408,000000	15,481000
407,000000	15,146100
406,000000	14,775700
405,000000	14,357100
404,000000	13,945700
403,000000	13,516500
402,000000	13,122600
401,000000	12,751400
400,000000	12,396700
399,000000	12,050000
398,000000	11,683500
397,000000	11,302300
396,000000	10,968000
395,000000	10,665200
394,000000	10,346400
393,000000	10,020000
392,000000	9,781400
391,000000	9,520300
390,000000	9,247000
389,000000	9,016900
388,000000	8,791700
387,000000	8,568700
386,000000	8,415300
385,000000	8,246300
384,000000	8,077700
383,000000	7,878400
382,000000	7,690300
381,000000	7,573300
380,000000	7,462300
379,000000	7,377300
378,000000	7,300300
377,000000	7,159300
376,000000	6,967800
375,000000	6,727700
374,000000	6,572300
373,000000	6,411100
372,000000	6,219900
371,000000	6,216100
370,000000	6,154200
369,000000	6,288000
368,000000	6,303200
367,000000	6,324900
366,000000	6,517100
365,000000	6,511700
364,000000	6,358900
363,000000	6,357300
362,000000	6,366100
361,000000	6,286900
360,000000	6,090300
359,000000	6,023800
358,000000	6,297600
357,000000	6,304500
356,000000	6,173900
355,000000	6,188800
354,000000	6,038800
353,000000	6,043800
352,000000	6,031600
351,000000	6,145600
350,000000	5,932100
349,000000	5,800000
348,000000	5,962400
347,000000	5,741200
346,000000	5,737300
345,000000	6,020300
344,000000	5,765400
343,000000	5,968300
342,000000	6,105800
341,000000	5,842000
340,000000	5,702900
339,000000	5,965700
338,000000	6,274900
337,000000	6,053100
336,000000	6,249300
335,000000	6,037500
334,000000	5,287800
333,000000	5,432600
332,000000	5,997700
331,000000	6,584600
330,000000	6,382500
329,000000	6,113500
328,000000	6,566100
327,000000	6,408400
326,000000	5,648900
325,000000	5,625000
324,000000	6,070900
323,000000	6,243200
322,000000	6,509100
321,000000	6,374300
320,000000	6,374000
319,000000	6,350200
318,000000	6,968500
317,000000	7,068900
316,000000	6,052600
315,000000	5,597600
314,000000	5,586800
313,000000	5,494900
312,000000	5,450500
311,000000	5,522100
310,000000	5,630500
309,000000	5,668800
308,000000	5,620800
307,000000	5,621300
306,000000	5,599400
305,000000	5,558600
304,000000	5,576800
303,000000	5,605000
302,000000	5,607100
301,000000	5,659300
300,000000	5,643000
299,000000	5,590400
298,000000	5,590700
297,000000	5,596000
296,000000	5,594000
295,000000	5,588700
294,000000	5,596300
293,000000	5,605700
292,000000	5,607300
291,000000	5,586700
290,000000	5,621700
289,000000	5,570800
288,000000	5,572300
287,000000	5,642300
286,000000	5,695200
285,000000	5,611700
284,000000	5,620800
283,000000	5,626500
282,000000	5,675500
281,000000	5,627200
280,000000	5,636900
279,000000	5,700000
278,000000	5,669800
277,000000	5,711400
276,000000	5,722500
275,000000	5,721800
274,000000	5,777600
273,000000	5,769000
272,000000	5,778500
271,000000	5,827000
270,000000	5,834900
269,000000	5,811300
268,000000	5,804300
267,000000	5,855100
266,000000	5,831600
265,000000	5,851800
264,000000	5,922800
263,000000	5,925900
262,000000	5,923900
261,000000	6,008700
260,000000	5,917100
259,000000	6,017500
258,000000	6,043200
257,000000	6,009400
256,000000	6,029100
255,000000	6,124000
254,000000	6,037900
253,000000	6,052000
252,000000	6,064400
251,000000	6,076200
250,000000	6,131900
