PE UV       SUBTECH     SPECTRUM    ASCII       PEDS        4.00        
   -1
CICIMAUCR0260-2.Sample.ASC
24/07/01
11:36:37.00
24/07/01
11:36:37.00
Vinicio Soto Monge
C. resplendens. Sex F. Dorsal.
250,000000
1
Lambda 1050
1050L1511233
PerkinElmer UV WinLab 6.3.2.0749 / 2.02.05 Lambda 900 UV/VIS/NIR, Aug  7 2015 09:38:08

0
0
3350/servo 860,8/2
0
0
UV/VIS
1
1
1
DoubleDePol,CommonBeamDepol,RBeamAtt,SBeamAtt,60mm sphere, WB InGaAs Detector
0
0
0
0
Program
Program
3350/servo 860,8/2
3350/0,2 860,8/0,2
3350/0,2 860,8/0,2
0
15.00
 
 
 
0
 
860,8
319,2
860,8
Front
100
on
S:100 R:100
0
0
0
0
 
0
 
 
 
0
 
 
0
0
0
0
0
 
 
 
 
0
0


0
0
#HDR
-1
-1
#GR
nm
%R
1.0
0.0
2500,000000
-1,000000
2251
8
91,591200
5,627200
#DATA
2500,000000	8,956400
2499,000000	9,008400
2498,000000	8,982800
2497,000000	9,018800
2496,000000	8,986800
2495,000000	8,986200
2494,000000	9,015800
2493,000000	8,960800
2492,000000	8,896000
2491,000000	8,864000
2490,000000	8,904000
2489,000000	8,869700
2488,000000	8,949200
2487,000000	8,893700
2486,000000	8,857400
2485,000000	8,832600
2484,000000	8,879400
2483,000000	8,851600
2482,000000	8,851300
2481,000000	8,881700
2480,000000	8,907000
2479,000000	8,912200
2478,000000	8,911400
2477,000000	8,961900
2476,000000	8,953600
2475,000000	8,938700
2474,000000	8,958100
2473,000000	8,934200
2472,000000	8,933100
2471,000000	8,919200
2470,000000	8,956100
2469,000000	8,957500
2468,000000	8,982100
2467,000000	9,015900
2466,000000	9,038900
2465,000000	9,047200
2464,000000	9,092900
2463,000000	9,093300
2462,000000	9,135000
2461,000000	9,178700
2460,000000	9,214400
2459,000000	9,222300
2458,000000	9,252500
2457,000000	9,312900
2456,000000	9,364400
2455,000000	9,428600
2454,000000	9,485500
2453,000000	9,513500
2452,000000	9,590800
2451,000000	9,645800
2450,000000	9,716200
2449,000000	9,757400
2448,000000	9,828200
2447,000000	9,903000
2446,000000	9,945900
2445,000000	10,008200
2444,000000	10,070600
2443,000000	10,156900
2442,000000	10,196900
2441,000000	10,249500
2440,000000	10,332700
2439,000000	10,391100
2438,000000	10,464800
2437,000000	10,518600
2436,000000	10,584500
2435,000000	10,652500
2434,000000	10,706700
2433,000000	10,753000
2432,000000	10,817100
2431,000000	10,896100
2430,000000	10,940400
2429,000000	10,999500
2428,000000	11,050300
2427,000000	11,107800
2426,000000	11,164700
2425,000000	11,216500
2424,000000	11,263500
2423,000000	11,300800
2422,000000	11,353200
2421,000000	11,399100
2420,000000	11,446200
2419,000000	11,487300
2418,000000	11,539400
2417,000000	11,562400
2416,000000	11,601300
2415,000000	11,646800
2414,000000	11,679300
2413,000000	11,720000
2412,000000	11,754500
2411,000000	11,788600
2410,000000	11,838600
2409,000000	11,868100
2408,000000	11,892000
2407,000000	11,931400
2406,000000	11,961700
2405,000000	11,992000
2404,000000	12,052000
2403,000000	12,093800
2402,000000	12,116900
2401,000000	12,160700
2400,000000	12,186500
2399,000000	12,211900
2398,000000	12,242800
2397,000000	12,263400
2396,000000	12,297700
2395,000000	12,324900
2394,000000	12,350700
2393,000000	12,367000
2392,000000	12,396400
2391,000000	12,421100
2390,000000	12,446400
2389,000000	12,472800
2388,000000	12,489100
2387,000000	12,504300
2386,000000	12,524600
2385,000000	12,548000
2384,000000	12,556900
2383,000000	12,576100
2382,000000	12,580600
2381,000000	12,588000
2380,000000	12,604700
2379,000000	12,614700
2378,000000	12,614500
2377,000000	12,604700
2376,000000	12,621200
2375,000000	12,625800
2374,000000	12,617900
2373,000000	12,601100
2372,000000	12,591900
2371,000000	12,593100
2370,000000	12,584500
2369,000000	12,573700
2368,000000	12,561200
2367,000000	12,549800
2366,000000	12,543200
2365,000000	12,533100
2364,000000	12,510300
2363,000000	12,492700
2362,000000	12,479100
2361,000000	12,443600
2360,000000	12,412700
2359,000000	12,404100
2358,000000	12,375400
2357,000000	12,358700
2356,000000	12,350100
2355,000000	12,319300
2354,000000	12,297500
2353,000000	12,276100
2352,000000	12,267700
2351,000000	12,277800
2350,000000	12,284100
2349,000000	12,283600
2348,000000	12,298900
2347,000000	12,326500
2346,000000	12,351500
2345,000000	12,376000
2344,000000	12,405900
2343,000000	12,446800
2342,000000	12,479200
2341,000000	12,516200
2340,000000	12,539900
2339,000000	12,549600
2338,000000	12,576300
2337,000000	12,611900
2336,000000	12,647200
2335,000000	12,653700
2334,000000	12,651100
2333,000000	12,667600
2332,000000	12,682900
2331,000000	12,680200
2330,000000	12,679100
2329,000000	12,667700
2328,000000	12,659200
2327,000000	12,641100
2326,000000	12,614800
2325,000000	12,594600
2324,000000	12,574100
2323,000000	12,547900
2322,000000	12,517400
2321,000000	12,452800
2320,000000	12,399300
2319,000000	12,365100
2318,000000	12,312300
2317,000000	12,230200
2316,000000	12,160900
2315,000000	12,100700
2314,000000	12,032800
2313,000000	11,969000
2312,000000	11,900100
2311,000000	11,825500
2310,000000	11,758300
2309,000000	11,707800
2308,000000	11,658900
2307,000000	11,630400
2306,000000	11,599800
2305,000000	11,590500
2304,000000	11,582700
2303,000000	11,594700
2302,000000	11,615100
2301,000000	11,647400
2300,000000	11,688200
2299,000000	11,758700
2298,000000	11,813200
2297,000000	11,872100
2296,000000	11,945700
2295,000000	12,018600
2294,000000	12,090700
2293,000000	12,162600
2292,000000	12,218800
2291,000000	12,289000
2290,000000	12,337000
2289,000000	12,378200
2288,000000	12,422800
2287,000000	12,449000
2286,000000	12,483000
2285,000000	12,497200
2284,000000	12,483100
2283,000000	12,482800
2282,000000	12,464100
2281,000000	12,454300
2280,000000	12,436100
2279,000000	12,405600
2278,000000	12,384700
2277,000000	12,355100
2276,000000	12,316700
2275,000000	12,268300
2274,000000	12,252400
2273,000000	12,237200
2272,000000	12,207200
2271,000000	12,190700
2270,000000	12,197200
2269,000000	12,211900
2268,000000	12,235700
2267,000000	12,258200
2266,000000	12,310800
2265,000000	12,415100
2264,000000	12,497300
2263,000000	12,587500
2262,000000	12,706200
2261,000000	12,827800
2260,000000	12,996800
2259,000000	13,166300
2258,000000	13,332600
2257,000000	13,514300
2256,000000	13,723600
2255,000000	13,904100
2254,000000	14,083600
2253,000000	14,284300
2252,000000	14,475400
2251,000000	14,684000
2250,000000	14,874500
2249,000000	15,034400
2248,000000	15,196800
2247,000000	15,380500
2246,000000	15,506900
2245,000000	15,647500
2244,000000	15,772200
2243,000000	15,895000
2242,000000	16,006000
2241,000000	16,109400
2240,000000	16,186800
2239,000000	16,283500
2238,000000	16,349100
2237,000000	16,438300
2236,000000	16,494100
2235,000000	16,531100
2234,000000	16,598600
2233,000000	16,623500
2232,000000	16,677200
2231,000000	16,702000
2230,000000	16,713400
2229,000000	16,738400
2228,000000	16,755900
2227,000000	16,747100
2226,000000	16,780100
2225,000000	16,770000
2224,000000	16,742000
2223,000000	16,728300
2222,000000	16,713700
2221,000000	16,674000
2220,000000	16,648500
2219,000000	16,607900
2218,000000	16,568900
2217,000000	16,550800
2216,000000	16,522900
2215,000000	16,481500
2214,000000	16,445600
2213,000000	16,391300
2212,000000	16,374100
2211,000000	16,347200
2210,000000	16,323700
2209,000000	16,289900
2208,000000	16,271600
2207,000000	16,229200
2206,000000	16,202400
2205,000000	16,194600
2204,000000	16,148100
2203,000000	16,148300
2202,000000	16,127100
2201,000000	16,105400
2200,000000	16,098700
2199,000000	16,077900
2198,000000	16,059700
2197,000000	16,046400
2196,000000	16,048100
2195,000000	16,032100
2194,000000	16,025800
2193,000000	16,012400
2192,000000	15,991800
2191,000000	15,981000
2190,000000	15,966500
2189,000000	15,968600
2188,000000	15,948900
2187,000000	15,946000
2186,000000	15,941800
2185,000000	15,915800
2184,000000	15,895200
2183,000000	15,873200
2182,000000	15,884600
2181,000000	15,871200
2180,000000	15,856000
2179,000000	15,840000
2178,000000	15,814000
2177,000000	15,794800
2176,000000	15,805500
2175,000000	15,791300
2174,000000	15,776000
2173,000000	15,786000
2172,000000	15,782900
2171,000000	15,782300
2170,000000	15,796000
2169,000000	15,804100
2168,000000	15,794400
2167,000000	15,807400
2166,000000	15,818100
2165,000000	15,815400
2164,000000	15,846600
2163,000000	15,862000
2162,000000	15,897700
2161,000000	15,923100
2160,000000	15,932900
2159,000000	15,972400
2158,000000	16,000600
2157,000000	16,032500
2156,000000	16,063200
2155,000000	16,102800
2154,000000	16,125200
2153,000000	16,181800
2152,000000	16,235500
2151,000000	16,276000
2150,000000	16,331400
2149,000000	16,381300
2148,000000	16,408900
2147,000000	16,444000
2146,000000	16,497500
2145,000000	16,537100
2144,000000	16,579900
2143,000000	16,633000
2142,000000	16,678800
2141,000000	16,721500
2140,000000	16,763400
2139,000000	16,793700
2138,000000	16,846900
2137,000000	16,872300
2136,000000	16,903000
2135,000000	16,925700
2134,000000	16,963300
2133,000000	16,985000
2132,000000	17,015900
2131,000000	17,038800
2130,000000	17,049500
2129,000000	17,071500
2128,000000	17,096700
2127,000000	17,110800
2126,000000	17,123000
2125,000000	17,127400
2124,000000	17,138200
2123,000000	17,143100
2122,000000	17,160000
2121,000000	17,141400
2120,000000	17,135200
2119,000000	17,142400
2118,000000	17,136400
2117,000000	17,129200
2116,000000	17,111500
2115,000000	17,089900
2114,000000	17,070200
2113,000000	17,058300
2112,000000	17,046600
2111,000000	17,049000
2110,000000	17,041600
2109,000000	17,016000
2108,000000	16,981300
2107,000000	16,961000
2106,000000	16,949400
2105,000000	16,936400
2104,000000	16,909500
2103,000000	16,877300
2102,000000	16,857500
2101,000000	16,826800
2100,000000	16,789000
2099,000000	16,782700
2098,000000	16,784900
2097,000000	16,754100
2096,000000	16,732600
2095,000000	16,721600
2094,000000	16,702500
2093,000000	16,682700
2092,000000	16,666900
2091,000000	16,664000
2090,000000	16,654100
2089,000000	16,630600
2088,000000	16,614300
2087,000000	16,614400
2086,000000	16,609600
2085,000000	16,584900
2084,000000	16,560700
2083,000000	16,531700
2082,000000	16,522200
2081,000000	16,494700
2080,000000	16,445700
2079,000000	16,410900
2078,000000	16,390300
2077,000000	16,351800
2076,000000	16,303100
2075,000000	16,273900
2074,000000	16,241800
2073,000000	16,187600
2072,000000	16,137400
2071,000000	16,086600
2070,000000	16,020400
2069,000000	15,959700
2068,000000	15,920500
2067,000000	15,862800
2066,000000	15,801600
2065,000000	15,744300
2064,000000	15,676500
2063,000000	15,624900
2062,000000	15,569900
2061,000000	15,517300
2060,000000	15,482400
2059,000000	15,440100
2058,000000	15,399300
2057,000000	15,380500
2056,000000	15,344400
2055,000000	15,310000
2054,000000	15,301000
2053,000000	15,310400
2052,000000	15,316100
2051,000000	15,335500
2050,000000	15,359500
2049,000000	15,374400
2048,000000	15,428100
2047,000000	15,468700
2046,000000	15,501700
2045,000000	15,573500
2044,000000	15,632500
2043,000000	15,693700
2042,000000	15,737100
2041,000000	15,794400
2040,000000	15,870700
2039,000000	15,915800
2038,000000	15,954800
2037,000000	16,009100
2036,000000	16,052600
2035,000000	16,098300
2034,000000	16,143500
2033,000000	16,174900
2032,000000	16,198300
2031,000000	16,224900
2030,000000	16,238700
2029,000000	16,256800
2028,000000	16,277900
2027,000000	16,296600
2026,000000	16,302800
2025,000000	16,303900
2024,000000	16,323200
2023,000000	16,315100
2022,000000	16,327400
2021,000000	16,326100
2020,000000	16,296600
2019,000000	16,291000
2018,000000	16,290400
2017,000000	16,283900
2016,000000	16,250300
2015,000000	16,230900
2014,000000	16,226300
2013,000000	16,205000
2012,000000	16,177700
2011,000000	16,138700
2010,000000	16,087500
2009,000000	16,076900
2008,000000	16,056500
2007,000000	16,017600
2006,000000	15,971100
2005,000000	15,914800
2004,000000	15,872400
2003,000000	15,820500
2002,000000	15,769500
2001,000000	15,711800
2000,000000	15,660700
1999,000000	15,589500
1998,000000	15,531200
1997,000000	15,489300
1996,000000	15,423100
1995,000000	15,334100
1994,000000	15,272500
1993,000000	15,200000
1992,000000	15,145900
1991,000000	15,068900
1990,000000	14,991000
1989,000000	14,925600
1988,000000	14,849200
1987,000000	14,765800
1986,000000	14,696200
1985,000000	14,620800
1984,000000	14,543800
1983,000000	14,463500
1982,000000	14,377700
1981,000000	14,306700
1980,000000	14,223000
1979,000000	14,129900
1978,000000	14,045400
1977,000000	13,977200
1976,000000	13,903700
1975,000000	13,843100
1974,000000	13,762600
1973,000000	13,679000
1972,000000	13,606500
1971,000000	13,504800
1970,000000	13,438000
1969,000000	13,397800
1968,000000	13,318800
1967,000000	13,231800
1966,000000	13,170500
1965,000000	13,095700
1964,000000	13,053200
1963,000000	13,009200
1962,000000	12,898500
1961,000000	12,820200
1960,000000	12,780900
1959,000000	12,702200
1958,000000	12,646400
1957,000000	12,585500
1956,000000	12,523000
1955,000000	12,464700
1954,000000	12,398200
1953,000000	12,326700
1952,000000	12,266800
1951,000000	12,229800
1950,000000	12,199100
1949,000000	12,150700
1948,000000	12,082100
1947,000000	12,043300
1946,000000	12,011100
1945,000000	11,965700
1944,000000	11,913600
1943,000000	11,908800
1942,000000	11,866900
1941,000000	11,833500
1940,000000	11,798500
1939,000000	11,794000
1938,000000	11,758500
1937,000000	11,773500
1936,000000	11,767900
1935,000000	11,744600
1934,000000	11,765000
1933,000000	11,797900
1932,000000	11,804100
1931,000000	11,825300
1930,000000	11,847800
1929,000000	11,879000
1928,000000	11,913500
1927,000000	11,975100
1926,000000	12,014700
1925,000000	12,108900
1924,000000	12,207600
1923,000000	12,254300
1922,000000	12,336400
1921,000000	12,428500
1920,000000	12,545100
1919,000000	12,655400
1918,000000	12,746500
1917,000000	12,915700
1916,000000	13,036100
1915,000000	13,152100
1914,000000	13,279800
1913,000000	13,463500
1912,000000	13,632700
1911,000000	13,802300
1910,000000	13,961100
1909,000000	14,150600
1908,000000	14,336300
1907,000000	14,533500
1906,000000	14,738400
1905,000000	14,981300
1904,000000	15,198800
1903,000000	15,433400
1902,000000	15,695200
1901,000000	15,944300
1900,000000	16,241300
1899,000000	16,564800
1898,000000	16,907100
1897,000000	17,256300
1896,000000	17,564600
1895,000000	17,892000
1894,000000	18,235200
1893,000000	18,601000
1892,000000	18,945900
1891,000000	19,377100
1890,000000	19,787300
1889,000000	20,197700
1888,000000	20,616600
1887,000000	21,065200
1886,000000	21,505800
1885,000000	21,961600
1884,000000	22,446000
1883,000000	22,933300
1882,000000	23,380400
1881,000000	23,845200
1880,000000	24,334900
1879,000000	24,755000
1878,000000	25,178600
1877,000000	25,616200
1876,000000	26,002500
1875,000000	26,349700
1874,000000	26,731900
1873,000000	27,098800
1872,000000	27,416600
1871,000000	27,714800
1870,000000	28,017600
1869,000000	28,263800
1868,000000	28,569400
1867,000000	28,804200
1866,000000	29,012700
1865,000000	29,201000
1864,000000	29,394600
1863,000000	29,598900
1862,000000	29,773500
1861,000000	29,930300
1860,000000	30,074100
1859,000000	30,202000
1858,000000	30,289300
1857,000000	30,390800
1856,000000	30,498400
1855,000000	30,557600
1854,000000	30,628900
1853,000000	30,683700
1852,000000	30,699800
1851,000000	30,754500
1850,000000	30,838000
1849,000000	30,908900
1848,000000	30,930400
1847,000000	30,889700
1846,000000	30,844500
1845,000000	30,814100
1844,000000	30,836700
1843,000000	30,877800
1842,000000	30,941800
1841,000000	30,961000
1840,000000	30,920000
1839,000000	30,880000
1838,000000	30,846100
1837,000000	30,819900
1836,000000	30,798800
1835,000000	30,764500
1834,000000	30,724000
1833,000000	30,693700
1832,000000	30,675500
1831,000000	30,678700
1830,000000	30,650200
1829,000000	30,602400
1828,000000	30,561100
1827,000000	30,504300
1826,000000	30,449800
1825,000000	30,418600
1824,000000	30,394400
1823,000000	30,399600
1822,000000	30,425000
1821,000000	30,432600
1820,000000	30,374000
1819,000000	30,310400
1818,000000	30,269400
1817,000000	30,254800
1816,000000	30,258300
1815,000000	30,261200
1814,000000	30,250600
1813,000000	30,235400
1812,000000	30,223300
1811,000000	30,196900
1810,000000	30,156700
1809,000000	30,120700
1808,000000	30,110600
1807,000000	30,094800
1806,000000	30,074800
1805,000000	30,040200
1804,000000	29,994600
1803,000000	29,961400
1802,000000	29,932500
1801,000000	29,906600
1800,000000	29,865300
1799,000000	29,805500
1798,000000	29,770100
1797,000000	29,750700
1796,000000	29,713300
1795,000000	29,693100
1794,000000	29,668800
1793,000000	29,624000
1792,000000	29,584300
1791,000000	29,538700
1790,000000	29,503600
1789,000000	29,483500
1788,000000	29,470600
1787,000000	29,441100
1786,000000	29,415500
1785,000000	29,389500
1784,000000	29,338100
1783,000000	29,301800
1782,000000	29,271400
1781,000000	29,224900
1780,000000	29,183700
1779,000000	29,149800
1778,000000	29,101400
1777,000000	29,054500
1776,000000	29,006200
1775,000000	28,963100
1774,000000	28,914000
1773,000000	28,850900
1772,000000	28,810400
1771,000000	28,762000
1770,000000	28,705700
1769,000000	28,641600
1768,000000	28,572800
1767,000000	28,524300
1766,000000	28,478900
1765,000000	28,426600
1764,000000	28,390300
1763,000000	28,382400
1762,000000	28,365100
1761,000000	28,376500
1760,000000	28,394500
1759,000000	28,431100
1758,000000	28,466300
1757,000000	28,510600
1756,000000	28,560200
1755,000000	28,602700
1754,000000	28,643200
1753,000000	28,682900
1752,000000	28,711800
1751,000000	28,742700
1750,000000	28,753900
1749,000000	28,750800
1748,000000	28,743300
1747,000000	28,724500
1746,000000	28,693600
1745,000000	28,652900
1744,000000	28,600300
1743,000000	28,544700
1742,000000	28,469800
1741,000000	28,373100
1740,000000	28,263700
1739,000000	28,144700
1738,000000	28,038700
1737,000000	27,914600
1736,000000	27,803200
1735,000000	27,706500
1734,000000	27,626700
1733,000000	27,560700
1732,000000	27,528000
1731,000000	27,512800
1730,000000	27,516600
1729,000000	27,540500
1728,000000	27,584800
1727,000000	27,622500
1726,000000	27,662900
1725,000000	27,703100
1724,000000	27,745400
1723,000000	27,797800
1722,000000	27,851500
1721,000000	27,902000
1720,000000	27,955500
1719,000000	28,007300
1718,000000	28,066500
1717,000000	28,154900
1716,000000	28,228800
1715,000000	28,319000
1714,000000	28,411000
1713,000000	28,498900
1712,000000	28,585200
1711,000000	28,661300
1710,000000	28,724400
1709,000000	28,781500
1708,000000	28,793000
1707,000000	28,806600
1706,000000	28,821500
1705,000000	28,813500
1704,000000	28,797700
1703,000000	28,764300
1702,000000	28,726800
1701,000000	28,656600
1700,000000	28,594600
1699,000000	28,514600
1698,000000	28,429900
1697,000000	28,333000
1696,000000	28,259200
1695,000000	28,177100
1694,000000	28,170000
1693,000000	28,168700
1692,000000	28,172500
1691,000000	28,225700
1690,000000	28,298500
1689,000000	28,379200
1688,000000	28,448100
1687,000000	28,511400
1686,000000	28,579000
1685,000000	28,649500
1684,000000	28,719900
1683,000000	28,822800
1682,000000	28,977000
1681,000000	29,150600
1680,000000	29,375000
1679,000000	29,626800
1678,000000	29,933500
1677,000000	30,226200
1676,000000	30,517100
1675,000000	30,802700
1674,000000	31,059200
1673,000000	31,311400
1672,000000	31,502500
1671,000000	31,687600
1670,000000	31,804600
1669,000000	31,981100
1668,000000	32,117100
1667,000000	32,234600
1666,000000	32,329800
1665,000000	32,418400
1664,000000	32,486200
1663,000000	32,556600
1662,000000	32,619700
1661,000000	32,680800
1660,000000	32,715400
1659,000000	32,772100
1658,000000	32,809600
1657,000000	32,843700
1656,000000	32,857300
1655,000000	32,871800
1654,000000	32,885800
1653,000000	32,874300
1652,000000	32,866900
1651,000000	32,900300
1650,000000	32,856900
1649,000000	32,845400
1648,000000	32,836900
1647,000000	32,809000
1646,000000	32,804300
1645,000000	32,762900
1644,000000	32,747500
1643,000000	32,709600
1642,000000	32,662800
1641,000000	32,630800
1640,000000	32,599200
1639,000000	32,549400
1638,000000	32,533700
1637,000000	32,492800
1636,000000	32,460700
1635,000000	32,400700
1634,000000	32,370500
1633,000000	32,306500
1632,000000	32,245000
1631,000000	32,207100
1630,000000	32,158000
1629,000000	32,105600
1628,000000	32,037300
1627,000000	31,978500
1626,000000	31,916300
1625,000000	31,862500
1624,000000	31,794100
1623,000000	31,757800
1622,000000	31,701100
1621,000000	31,649800
1620,000000	31,600300
1619,000000	31,540900
1618,000000	31,481200
1617,000000	31,434200
1616,000000	31,371400
1615,000000	31,327600
1614,000000	31,275300
1613,000000	31,228600
1612,000000	31,162100
1611,000000	31,120300
1610,000000	31,059300
1609,000000	31,001600
1608,000000	30,958800
1607,000000	30,916400
1606,000000	30,848700
1605,000000	30,792900
1604,000000	30,730300
1603,000000	30,668000
1602,000000	30,611100
1601,000000	30,541000
1600,000000	30,487000
1599,000000	30,429500
1598,000000	30,390400
1597,000000	30,317700
1596,000000	30,260400
1595,000000	30,210500
1594,000000	30,154000
1593,000000	30,096700
1592,000000	30,056100
1591,000000	30,008700
1590,000000	29,952900
1589,000000	29,908500
1588,000000	29,880100
1587,000000	29,825100
1586,000000	29,771600
1585,000000	29,726800
1584,000000	29,676100
1583,000000	29,652200
1582,000000	29,609600
1581,000000	29,559500
1580,000000	29,522400
1579,000000	29,490000
1578,000000	29,467000
1577,000000	29,429900
1576,000000	29,406300
1575,000000	29,382800
1574,000000	29,346600
1573,000000	29,322500
1572,000000	29,311400
1571,000000	29,292400
1570,000000	29,268200
1569,000000	29,263000
1568,000000	29,248200
1567,000000	29,245100
1566,000000	29,236300
1565,000000	29,214000
1564,000000	29,210700
1563,000000	29,203500
1562,000000	29,197300
1561,000000	29,169800
1560,000000	29,155500
1559,000000	29,134100
1558,000000	29,106200
1557,000000	29,075000
1556,000000	29,045300
1555,000000	29,011500
1554,000000	28,979700
1553,000000	28,948300
1552,000000	28,906200
1551,000000	28,858300
1550,000000	28,816200
1549,000000	28,778600
1548,000000	28,753000
1547,000000	28,701600
1546,000000	28,655100
1545,000000	28,614800
1544,000000	28,572700
1543,000000	28,530500
1542,000000	28,495800
1541,000000	28,462400
1540,000000	28,426900
1539,000000	28,400700
1538,000000	28,372700
1537,000000	28,333500
1536,000000	28,290700
1535,000000	28,253500
1534,000000	28,215800
1533,000000	28,178700
1532,000000	28,124800
1531,000000	28,072400
1530,000000	28,035700
1529,000000	27,990000
1528,000000	27,940800
1527,000000	27,886000
1526,000000	27,826700
1525,000000	27,767700
1524,000000	27,721200
1523,000000	27,674400
1522,000000	27,633400
1521,000000	27,572400
1520,000000	27,501200
1519,000000	27,441100
1518,000000	27,377100
1517,000000	27,318000
1516,000000	27,255500
1515,000000	27,197300
1514,000000	27,129800
1513,000000	27,054200
1512,000000	26,980000
1511,000000	26,905600
1510,000000	26,838900
1509,000000	26,771800
1508,000000	26,698000
1507,000000	26,629500
1506,000000	26,562400
1505,000000	26,491700
1504,000000	26,424700
1503,000000	26,347600
1502,000000	26,273700
1501,000000	26,203800
1500,000000	26,134500
1499,000000	26,065700
1498,000000	26,004600
1497,000000	25,953900
1496,000000	25,903800
1495,000000	25,850600
1494,000000	25,792400
1493,000000	25,728000
1492,000000	25,669400
1491,000000	25,624300
1490,000000	25,592600
1489,000000	25,544800
1488,000000	25,498200
1487,000000	25,464300
1486,000000	25,428100
1485,000000	25,384300
1484,000000	25,340700
1483,000000	25,299500
1482,000000	25,266700
1481,000000	25,242100
1480,000000	25,208100
1479,000000	25,170100
1478,000000	25,133200
1477,000000	25,126200
1476,000000	25,101500
1475,000000	25,092100
1474,000000	25,078500
1473,000000	25,065100
1472,000000	25,071800
1471,000000	25,078000
1470,000000	25,073000
1469,000000	25,067200
1468,000000	25,058600
1467,000000	25,062500
1466,000000	25,075800
1465,000000	25,093300
1464,000000	25,091700
1463,000000	25,099400
1462,000000	25,129500
1461,000000	25,152300
1460,000000	25,169800
1459,000000	25,191500
1458,000000	25,227700
1457,000000	25,260500
1456,000000	25,309900
1455,000000	25,368300
1454,000000	25,424800
1453,000000	25,461400
1452,000000	25,519200
1451,000000	25,571100
1450,000000	25,624100
1449,000000	25,673500
1448,000000	25,701900
1447,000000	25,774000
1446,000000	25,862300
1445,000000	25,932600
1444,000000	25,989500
1443,000000	26,034200
1442,000000	26,096900
1441,000000	26,180000
1440,000000	26,272300
1439,000000	26,350200
1438,000000	26,442900
1437,000000	26,510400
1436,000000	26,590000
1435,000000	26,706200
1434,000000	26,792200
1433,000000	26,901100
1432,000000	27,006600
1431,000000	27,094500
1430,000000	27,198000
1429,000000	27,310900
1428,000000	27,439100
1427,000000	27,567200
1426,000000	27,719100
1425,000000	27,884000
1424,000000	28,050300
1423,000000	28,204400
1422,000000	28,366600
1421,000000	28,510100
1420,000000	28,721500
1419,000000	28,926400
1418,000000	29,120900
1417,000000	29,312300
1416,000000	29,502400
1415,000000	29,711600
1414,000000	29,985600
1413,000000	30,242000
1412,000000	30,435000
1411,000000	30,653000
1410,000000	30,950500
1409,000000	31,279400
1408,000000	31,571600
1407,000000	31,877900
1406,000000	32,153800
1405,000000	32,486000
1404,000000	32,798300
1403,000000	33,106700
1402,000000	33,449300
1401,000000	33,824900
1400,000000	34,224800
1399,000000	34,527200
1398,000000	34,813000
1397,000000	35,083300
1396,000000	35,462500
1395,000000	35,873000
1394,000000	36,192700
1393,000000	36,458700
1392,000000	36,774200
1391,000000	37,130100
1390,000000	37,505400
1389,000000	37,847100
1388,000000	38,278600
1387,000000	38,698400
1386,000000	39,088400
1385,000000	39,501900
1384,000000	39,978900
1383,000000	40,399700
1382,000000	40,828700
1381,000000	41,209000
1380,000000	41,526000
1379,000000	41,746100
1378,000000	42,009600
1377,000000	42,186900
1376,000000	42,412600
1375,000000	42,606900
1374,000000	42,756500
1373,000000	42,956900
1372,000000	43,180000
1371,000000	43,435700
1370,000000	43,657000
1369,000000	43,855700
1368,000000	44,081700
1367,000000	44,278300
1366,000000	44,455000
1365,000000	44,581800
1364,000000	44,773500
1363,000000	44,869900
1362,000000	45,052900
1361,000000	45,184400
1360,000000	45,243400
1359,000000	45,306200
1358,000000	45,373300
1357,000000	45,467500
1356,000000	45,562200
1355,000000	45,723800
1354,000000	45,902100
1353,000000	46,090200
1352,000000	46,272500
1351,000000	46,566400
1350,000000	46,859700
1349,000000	47,122700
1348,000000	47,375400
1347,000000	47,620300
1346,000000	47,851400
1345,000000	48,076600
1344,000000	48,318600
1343,000000	48,569400
1342,000000	48,762900
1341,000000	48,999200
1340,000000	49,223000
1339,000000	49,435600
1338,000000	49,640500
1337,000000	49,855200
1336,000000	50,076900
1335,000000	50,279400
1334,000000	50,472500
1333,000000	50,692700
1332,000000	50,896100
1331,000000	51,089800
1330,000000	51,269400
1329,000000	51,460700
1328,000000	51,646400
1327,000000	51,820800
1326,000000	51,991300
1325,000000	52,169400
1324,000000	52,341500
1323,000000	52,501100
1322,000000	52,646700
1321,000000	52,784600
1320,000000	52,935900
1319,000000	53,089800
1318,000000	53,231900
1317,000000	53,364500
1316,000000	53,479000
1315,000000	53,613300
1314,000000	53,735200
1313,000000	53,870900
1312,000000	53,983600
1311,000000	54,095600
1310,000000	54,206400
1309,000000	54,318400
1308,000000	54,402100
1307,000000	54,487400
1306,000000	54,575500
1305,000000	54,655100
1304,000000	54,738000
1303,000000	54,801600
1302,000000	54,860200
1301,000000	54,921400
1300,000000	54,980000
1299,000000	55,033400
1298,000000	55,068700
1297,000000	55,111700
1296,000000	55,157400
1295,000000	55,187700
1294,000000	55,216000
1293,000000	55,242400
1292,000000	55,266400
1291,000000	55,281700
1290,000000	55,286300
1289,000000	55,292500
1288,000000	55,291400
1287,000000	55,301300
1286,000000	55,293200
1285,000000	55,272700
1284,000000	55,252200
1283,000000	55,235900
1282,000000	55,206500
1281,000000	55,185300
1280,000000	55,154000
1279,000000	55,122200
1278,000000	55,091200
1277,000000	55,054100
1276,000000	55,025300
1275,000000	55,003100
1274,000000	54,980300
1273,000000	54,963800
1272,000000	54,929300
1271,000000	54,920600
1270,000000	54,898800
1269,000000	54,868100
1268,000000	54,849800
1267,000000	54,838300
1266,000000	54,823300
1265,000000	54,794900
1264,000000	54,766800
1263,000000	54,732000
1262,000000	54,716400
1261,000000	54,700700
1260,000000	54,669500
1259,000000	54,635600
1258,000000	54,610700
1257,000000	54,590000
1256,000000	54,566300
1255,000000	54,521900
1254,000000	54,482700
1253,000000	54,463400
1252,000000	54,424100
1251,000000	54,378900
1250,000000	54,328400
1249,000000	54,277700
1248,000000	54,226800
1247,000000	54,171600
1246,000000	54,118600
1245,000000	54,062000
1244,000000	53,980300
1243,000000	53,908800
1242,000000	53,852600
1241,000000	53,781300
1240,000000	53,705100
1239,000000	53,630000
1238,000000	53,569800
1237,000000	53,504700
1236,000000	53,428300
1235,000000	53,356600
1234,000000	53,286100
1233,000000	53,202900
1232,000000	53,121900
1231,000000	53,043500
1230,000000	52,971700
1229,000000	52,892800
1228,000000	52,790500
1227,000000	52,700100
1226,000000	52,608500
1225,000000	52,515100
1224,000000	52,427300
1223,000000	52,327000
1222,000000	52,228800
1221,000000	52,138800
1220,000000	52,043800
1219,000000	51,945000
1218,000000	51,845900
1217,000000	51,755300
1216,000000	51,664600
1215,000000	51,564000
1214,000000	51,471300
1213,000000	51,388400
1212,000000	51,309300
1211,000000	51,232400
1210,000000	51,128700
1209,000000	51,043300
1208,000000	50,960200
1207,000000	50,883300
1206,000000	50,800100
1205,000000	50,721600
1204,000000	50,654400
1203,000000	50,583000
1202,000000	50,545400
1201,000000	50,501000
1200,000000	50,441400
1199,000000	50,386200
1198,000000	50,335500
1197,000000	50,262600
1196,000000	50,166800
1195,000000	50,057900
1194,000000	49,928100
1193,000000	49,774500
1192,000000	49,589800
1191,000000	49,373000
1190,000000	49,148200
1189,000000	48,927600
1188,000000	48,720200
1187,000000	48,552900
1186,000000	48,439400
1185,000000	48,366400
1184,000000	48,367200
1183,000000	48,452700
1182,000000	48,590400
1181,000000	48,797900
1180,000000	49,034200
1179,000000	49,294300
1178,000000	49,562900
1177,000000	49,827100
1176,000000	50,064600
1175,000000	50,275500
1174,000000	50,459600
1173,000000	50,661500
1172,000000	50,846200
1171,000000	51,021500
1170,000000	51,221400
1169,000000	51,430400
1168,000000	51,631600
1167,000000	51,842000
1166,000000	52,069200
1165,000000	52,304300
1164,000000	52,532000
1163,000000	52,768900
1162,000000	53,014000
1161,000000	53,278800
1160,000000	53,536700
1159,000000	53,775500
1158,000000	54,024900
1157,000000	54,287000
1156,000000	54,528600
1155,000000	54,748700
1154,000000	54,964000
1153,000000	55,169200
1152,000000	55,333400
1151,000000	55,465200
1150,000000	55,593500
1149,000000	55,723600
1148,000000	55,850600
1147,000000	55,995500
1146,000000	56,128000
1145,000000	56,297200
1144,000000	56,487100
1143,000000	56,701600
1142,000000	56,943400
1141,000000	57,218300
1140,000000	57,490500
1139,000000	57,776300
1138,000000	58,077200
1137,000000	58,381700
1136,000000	58,718100
1135,000000	59,083100
1134,000000	59,420900
1133,000000	59,727700
1132,000000	59,985600
1131,000000	60,253000
1130,000000	60,508700
1129,000000	60,735900
1128,000000	60,930100
1127,000000	61,084300
1126,000000	61,214000
1125,000000	61,331400
1124,000000	61,403500
1123,000000	61,513100
1122,000000	61,563300
1121,000000	61,613900
1120,000000	61,643600
1119,000000	61,668600
1118,000000	61,702800
1117,000000	61,714500
1116,000000	61,731300
1115,000000	61,729700
1114,000000	61,736700
1113,000000	61,737100
1112,000000	61,729000
1111,000000	61,728800
1110,000000	61,699400
1109,000000	61,713600
1108,000000	61,699400
1107,000000	61,681400
1106,000000	61,696900
1105,000000	61,688300
1104,000000	61,687800
1103,000000	61,663600
1102,000000	61,648400
1101,000000	61,661600
1100,000000	61,638900
1099,000000	61,644500
1098,000000	61,638300
1097,000000	61,620800
1096,000000	61,652300
1095,000000	61,629700
1094,000000	61,619600
1093,000000	61,603400
1092,000000	61,581900
1091,000000	61,569900
1090,000000	61,557100
1089,000000	61,549900
1088,000000	61,526600
1087,000000	61,492300
1086,000000	61,477200
1085,000000	61,475200
1084,000000	61,460300
1083,000000	61,434700
1082,000000	61,423500
1081,000000	61,420100
1080,000000	61,380700
1079,000000	61,379300
1078,000000	61,351200
1077,000000	61,343000
1076,000000	61,317300
1075,000000	61,290400
1074,000000	61,265000
1073,000000	61,247200
1072,000000	61,252100
1071,000000	61,222500
1070,000000	61,206500
1069,000000	61,169200
1068,000000	61,143700
1067,000000	61,134400
1066,000000	61,122000
1065,000000	61,095400
1064,000000	61,068100
1063,000000	61,056700
1062,000000	61,042200
1061,000000	61,016700
1060,000000	60,975200
1059,000000	60,955900
1058,000000	60,928200
1057,000000	60,895700
1056,000000	60,849400
1055,000000	60,820100
1054,000000	60,790300
1053,000000	60,754900
1052,000000	60,722000
1051,000000	60,703700
1050,000000	60,666300
1049,000000	60,652700
1048,000000	60,600600
1047,000000	60,590600
1046,000000	60,551300
1045,000000	60,522300
1044,000000	60,485800
1043,000000	60,465300
1042,000000	60,431500
1041,000000	60,402000
1040,000000	60,384000
1039,000000	60,345600
1038,000000	60,306400
1037,000000	60,272600
1036,000000	60,241900
1035,000000	60,212700
1034,000000	60,179000
1033,000000	60,147900
1032,000000	60,123100
1031,000000	60,080300
1030,000000	60,050800
1029,000000	60,031200
1028,000000	60,007100
1027,000000	59,964700
1026,000000	59,937100
1025,000000	59,930700
1024,000000	59,909900
1023,000000	59,867600
1022,000000	59,877700
1021,000000	59,861100
1020,000000	59,848100
1019,000000	59,854300
1018,000000	59,847500
1017,000000	59,843800
1016,000000	59,862800
1015,000000	59,873700
1014,000000	59,904600
1013,000000	59,934100
1012,000000	59,972700
1011,000000	60,000800
1010,000000	60,049300
1009,000000	60,093700
1008,000000	60,149000
1007,000000	60,208400
1006,000000	60,293200
1005,000000	60,355000
1004,000000	60,414400
1003,000000	60,492100
1002,000000	60,558200
1001,000000	60,625700
1000,000000	60,694300
999,000000	60,772100
998,000000	60,849000
997,000000	60,914400
996,000000	60,986900
995,000000	61,064000
994,000000	61,147500
993,000000	61,214200
992,000000	61,275800
991,000000	61,343600
990,000000	61,395200
989,000000	61,465500
988,000000	61,525300
987,000000	61,596600
986,000000	61,657000
985,000000	61,730400
984,000000	61,778000
983,000000	61,842000
982,000000	61,921100
981,000000	61,991900
980,000000	62,049800
979,000000	62,106100
978,000000	62,184000
977,000000	62,259100
976,000000	62,328800
975,000000	62,390100
974,000000	62,453100
973,000000	62,524200
972,000000	62,589800
971,000000	62,683700
970,000000	62,772700
969,000000	62,855800
968,000000	62,935400
967,000000	63,024900
966,000000	63,138700
965,000000	63,258300
964,000000	63,381400
963,000000	63,510600
962,000000	63,639300
961,000000	63,770400
960,000000	63,917100
959,000000	64,079500
958,000000	64,242800
957,000000	64,386100
956,000000	64,532600
955,000000	64,688700
954,000000	64,852800
953,000000	65,019200
952,000000	65,182000
951,000000	65,348700
950,000000	65,512400
949,000000	65,669900
948,000000	65,837000
947,000000	66,000000
946,000000	66,156300
945,000000	66,317400
944,000000	66,481800
943,000000	66,627200
942,000000	66,772600
941,000000	66,922500
940,000000	67,064800
939,000000	67,204600
938,000000	67,339200
937,000000	67,473900
936,000000	67,616300
935,000000	67,725300
934,000000	67,822900
933,000000	67,934200
932,000000	68,035100
931,000000	68,146700
930,000000	68,251200
929,000000	68,334100
928,000000	68,410500
927,000000	68,507900
926,000000	68,598000
925,000000	68,670000
924,000000	68,758500
923,000000	68,851400
922,000000	68,940000
921,000000	69,041800
920,000000	69,139500
919,000000	69,230600
918,000000	69,327000
917,000000	69,433200
916,000000	69,533100
915,000000	69,651200
914,000000	69,769000
913,000000	69,890600
912,000000	70,022000
911,000000	70,154300
910,000000	70,298800
909,000000	70,453300
908,000000	70,609100
907,000000	70,782800
906,000000	70,979200
905,000000	71,189200
904,000000	71,411300
903,000000	71,631000
902,000000	71,859000
901,000000	72,101700
900,000000	72,356200
899,000000	72,607300
898,000000	72,874900
897,000000	73,122800
896,000000	73,373400
895,000000	73,637700
894,000000	73,899500
893,000000	74,132100
892,000000	74,375400
891,000000	74,623400
890,000000	74,861000
889,000000	75,086500
888,000000	75,307000
887,000000	75,521800
886,000000	75,752700
885,000000	75,966700
884,000000	76,176300
883,000000	76,394500
882,000000	76,612100
881,000000	76,829100
880,000000	77,054300
879,000000	77,262000
878,000000	77,477600
877,000000	77,665900
876,000000	77,847000
875,000000	78,042400
874,000000	78,210000
873,000000	78,346700
872,000000	78,445100
871,000000	78,543900
870,000000	78,651600
869,000000	78,826100
868,000000	79,017600
867,000000	79,268300
866,000000	79,531400
865,000000	79,757200
864,000000	79,993200
863,000000	80,231300
862,000000	80,473400
861,000000	80,698900
860,000000	80,969600
859,000000	81,209400
858,000000	81,485100
857,000000	81,425800
856,000000	82,542100
855,000000	82,559400
854,000000	82,832500
853,000000	82,942500
852,000000	83,203700
851,000000	83,636000
850,000000	83,953800
849,000000	84,026600
848,000000	84,291800
847,000000	84,393700
846,000000	84,733600
845,000000	85,099700
844,000000	85,701900
843,000000	85,488300
842,000000	86,165200
841,000000	86,549400
840,000000	86,844100
839,000000	87,124600
838,000000	87,774200
837,000000	87,789400
836,000000	87,974700
835,000000	88,450000
834,000000	88,555800
833,000000	88,884900
832,000000	89,365100
831,000000	89,492600
830,000000	89,742700
829,000000	89,950900
828,000000	90,374400
827,000000	90,355800
826,000000	90,511300
825,000000	90,779000
824,000000	90,825800
823,000000	90,811900
822,000000	91,225400
821,000000	91,286000
820,000000	91,262100
819,000000	91,394300
818,000000	91,591200
817,000000	91,405000
816,000000	91,334000
815,000000	91,426700
814,000000	91,226300
813,000000	91,313600
812,000000	91,561300
811,000000	91,403000
810,000000	91,083700
809,000000	91,030100
808,000000	91,046400
807,000000	90,627800
806,000000	90,613800
805,000000	90,581900
804,000000	90,289600
803,000000	90,646100
802,000000	90,395600
801,000000	90,136900
800,000000	90,127400
799,000000	90,151800
798,000000	89,947100
797,000000	89,910400
796,000000	89,777300
795,000000	89,791100
794,000000	89,956900
793,000000	90,170600
792,000000	89,986300
791,000000	89,821900
790,000000	89,786900
789,000000	90,023300
788,000000	89,963100
787,000000	89,632400
786,000000	89,746100
785,000000	89,739100
784,000000	89,551900
783,000000	89,751200
782,000000	89,681300
781,000000	89,725100
780,000000	89,727100
779,000000	89,559200
778,000000	89,563600
777,000000	89,638000
776,000000	89,676900
775,000000	89,759100
774,000000	89,629500
773,000000	89,732100
772,000000	89,702100
771,000000	89,704500
770,000000	89,602300
769,000000	89,732100
768,000000	89,542800
767,000000	89,465400
766,000000	89,440000
765,000000	89,346500
764,000000	89,161200
763,000000	89,048800
762,000000	88,872500
761,000000	88,850300
760,000000	88,667900
759,000000	88,646300
758,000000	88,435800
757,000000	88,267800
756,000000	88,143300
755,000000	87,920200
754,000000	87,673400
753,000000	87,425900
752,000000	87,323000
751,000000	86,998100
750,000000	86,645400
749,000000	86,393800
748,000000	85,930200
747,000000	85,595700
746,000000	85,152600
745,000000	84,737800
744,000000	84,348900
743,000000	83,816300
742,000000	83,289600
741,000000	82,748200
740,000000	82,173800
739,000000	81,745800
738,000000	81,253000
737,000000	80,775800
736,000000	80,147900
735,000000	79,634900
734,000000	79,138500
733,000000	78,594200
732,000000	78,019400
731,000000	77,389800
730,000000	76,893900
729,000000	76,256300
728,000000	75,729300
727,000000	75,184200
726,000000	74,713300
725,000000	74,191200
724,000000	73,589500
723,000000	73,181900
722,000000	72,716800
721,000000	72,333500
720,000000	71,955900
719,000000	71,649400
718,000000	71,411400
717,000000	71,128700
716,000000	71,009500
715,000000	70,917400
714,000000	70,793700
713,000000	70,721500
712,000000	70,831700
711,000000	70,923300
710,000000	71,046900
709,000000	71,112700
708,000000	71,316700
707,000000	71,345000
706,000000	71,525700
705,000000	71,635600
704,000000	71,801600
703,000000	71,954800
702,000000	72,077400
701,000000	72,231900
700,000000	72,422500
699,000000	72,536700
698,000000	72,638100
697,000000	72,788200
696,000000	72,909300
695,000000	73,060400
694,000000	73,191900
693,000000	73,356000
692,000000	73,464500
691,000000	73,596200
690,000000	73,665800
689,000000	73,734900
688,000000	73,737600
687,000000	73,692900
686,000000	73,634900
685,000000	73,584700
684,000000	73,444000
683,000000	73,225300
682,000000	73,034400
681,000000	72,730500
680,000000	72,407100
679,000000	72,156400
678,000000	71,834500
677,000000	71,474100
676,000000	71,138100
675,000000	70,830800
674,000000	70,483600
673,000000	70,059400
672,000000	69,598100
671,000000	69,150900
670,000000	68,631900
669,000000	68,034900
668,000000	67,381100
667,000000	66,736000
666,000000	65,947400
665,000000	65,157000
664,000000	64,328100
663,000000	63,447600
662,000000	62,584300
661,000000	61,697400
660,000000	60,800300
659,000000	59,974700
658,000000	59,180600
657,000000	58,441400
656,000000	57,801400
655,000000	57,249700
654,000000	56,769200
653,000000	56,349200
652,000000	56,005500
651,000000	55,784600
650,000000	55,658700
649,000000	55,575400
648,000000	55,619300
647,000000	55,780300
646,000000	56,017300
645,000000	56,382600
644,000000	56,881600
643,000000	57,483500
642,000000	58,212900
641,000000	59,058500
640,000000	60,014300
639,000000	61,055800
638,000000	62,158500
637,000000	63,353400
636,000000	64,619900
635,000000	65,914800
634,000000	67,242700
633,000000	68,579300
632,000000	69,881100
631,000000	71,193200
630,000000	72,500300
629,000000	73,753500
628,000000	74,924100
627,000000	76,004300
626,000000	77,039700
625,000000	78,020600
624,000000	78,961400
623,000000	79,851900
622,000000	80,703900
621,000000	81,500700
620,000000	82,242800
619,000000	82,936700
618,000000	83,560300
617,000000	84,148800
616,000000	84,702800
615,000000	85,203900
614,000000	85,669900
613,000000	86,066900
612,000000	86,464700
611,000000	86,814300
610,000000	87,098900
609,000000	87,382700
608,000000	87,655200
607,000000	87,857200
606,000000	87,975700
605,000000	88,111800
604,000000	88,245500
603,000000	88,301500
602,000000	88,342100
601,000000	88,338600
600,000000	88,376500
599,000000	88,397600
598,000000	88,387400
597,000000	88,364600
596,000000	88,302000
595,000000	88,228800
594,000000	88,162700
593,000000	88,098600
592,000000	88,003400
591,000000	87,892200
590,000000	87,803000
589,000000	87,666000
588,000000	87,515300
587,000000	87,407300
586,000000	87,239500
585,000000	87,034700
584,000000	86,825500
583,000000	86,623100
582,000000	86,412000
581,000000	86,159500
580,000000	85,946900
579,000000	85,640200
578,000000	85,351700
577,000000	85,081400
576,000000	84,798000
575,000000	84,440400
574,000000	84,056900
573,000000	83,726700
572,000000	83,359500
571,000000	83,018400
570,000000	82,574400
569,000000	82,142500
568,000000	81,696900
567,000000	81,239600
566,000000	80,720900
565,000000	80,193400
564,000000	79,671800
563,000000	79,199900
562,000000	78,647800
561,000000	78,043800
560,000000	77,489700
559,000000	76,868700
558,000000	76,238400
557,000000	75,641500
556,000000	75,027200
555,000000	74,374000
554,000000	73,744000
553,000000	73,040900
552,000000	72,306200
551,000000	71,557600
550,000000	70,754200
549,000000	69,959300
548,000000	69,119600
547,000000	68,249500
546,000000	67,326400
545,000000	66,342300
544,000000	65,348300
543,000000	64,281500
542,000000	63,156700
541,000000	62,060600
540,000000	60,900500
539,000000	59,726900
538,000000	58,529300
537,000000	57,377100
536,000000	56,201800
535,000000	54,984300
534,000000	53,804600
533,000000	52,640300
532,000000	51,531700
531,000000	50,429600
530,000000	49,381200
529,000000	48,399000
528,000000	47,464900
527,000000	46,581700
526,000000	45,752400
525,000000	44,973000
524,000000	44,251800
523,000000	43,560200
522,000000	42,903600
521,000000	42,295900
520,000000	41,745600
519,000000	41,226400
518,000000	40,710000
517,000000	40,233600
516,000000	39,802900
515,000000	39,346700
514,000000	38,898700
513,000000	38,461800
512,000000	38,044200
511,000000	37,583000
510,000000	37,164300
509,000000	36,709000
508,000000	36,257200
507,000000	35,766300
506,000000	35,299700
505,000000	34,791500
504,000000	34,280000
503,000000	33,818000
502,000000	33,347800
501,000000	32,829200
500,000000	32,314000
499,000000	31,844000
498,000000	31,419500
497,000000	30,939700
496,000000	30,601900
495,000000	30,259300
494,000000	29,891200
493,000000	29,614900
492,000000	29,372100
491,000000	29,131000
490,000000	28,978500
489,000000	28,832500
488,000000	28,736400
487,000000	28,710100
486,000000	28,648100
485,000000	28,634000
484,000000	28,653600
483,000000	28,691200
482,000000	28,704200
481,000000	28,727800
480,000000	28,729700
479,000000	28,745200
478,000000	28,773100
477,000000	28,795400
476,000000	28,781400
475,000000	28,778400
474,000000	28,764300
473,000000	28,736600
472,000000	28,686800
471,000000	28,643300
470,000000	28,573400
469,000000	28,486000
468,000000	28,408300
467,000000	28,349700
466,000000	28,231000
465,000000	28,124600
464,000000	27,980100
463,000000	27,877100
462,000000	27,704000
461,000000	27,568400
460,000000	27,403800
459,000000	27,256800
458,000000	27,065700
457,000000	26,911200
456,000000	26,736700
455,000000	26,536800
454,000000	26,342300
453,000000	26,121600
452,000000	25,867900
451,000000	25,627100
450,000000	25,356700
449,000000	25,095100
448,000000	24,824600
447,000000	24,522500
446,000000	24,252200
445,000000	23,929100
444,000000	23,557600
443,000000	23,210200
442,000000	22,841700
441,000000	22,472100
440,000000	22,057400
439,000000	21,634100
438,000000	21,199600
437,000000	20,745000
436,000000	20,304600
435,000000	19,818300
434,000000	19,334900
433,000000	18,831600
432,000000	18,313900
431,000000	17,818300
430,000000	17,284200
429,000000	16,768600
428,000000	16,237400
427,000000	15,722000
426,000000	15,203500
425,000000	14,726100
424,000000	14,228100
423,000000	13,722900
422,000000	13,231900
421,000000	12,782000
420,000000	12,370200
419,000000	11,953500
418,000000	11,555900
417,000000	11,174300
416,000000	10,824900
415,000000	10,480600
414,000000	10,170100
413,000000	9,885300
412,000000	9,603300
411,000000	9,355800
410,000000	9,130800
409,000000	8,939400
408,000000	8,738000
407,000000	8,559200
406,000000	8,416200
405,000000	8,261300
404,000000	8,143300
403,000000	8,019100
402,000000	7,914300
401,000000	7,806900
400,000000	7,712100
399,000000	7,637300
398,000000	7,570600
397,000000	7,509000
396,000000	7,441200
395,000000	7,365400
394,000000	7,311800
393,000000	7,270700
392,000000	7,193200
391,000000	7,137000
390,000000	7,111400
389,000000	7,043700
388,000000	7,016400
387,000000	6,970700
386,000000	6,923400
385,000000	6,874900
384,000000	6,839800
383,000000	6,804900
382,000000	6,783600
381,000000	6,740900
380,000000	6,691800
379,000000	6,667500
378,000000	6,615500
377,000000	6,582800
376,000000	6,594400
375,000000	6,572100
374,000000	6,458400
373,000000	6,496700
372,000000	6,514500
371,000000	6,441100
370,000000	6,383700
369,000000	6,474600
368,000000	6,394700
367,000000	6,394200
366,000000	6,330200
365,000000	6,232200
364,000000	6,222900
363,000000	6,281900
362,000000	6,215700
361,000000	6,063600
360,000000	6,178800
359,000000	6,166300
358,000000	6,061500
357,000000	6,020000
356,000000	5,928900
355,000000	5,930600
354,000000	6,011800
353,000000	5,940700
352,000000	5,877700
351,000000	5,963600
350,000000	5,928700
349,000000	5,828600
348,000000	5,903800
347,000000	5,946100
346,000000	5,863200
345,000000	5,870400
344,000000	5,908100
343,000000	5,923000
342,000000	5,897100
341,000000	5,851300
340,000000	5,710800
339,000000	5,636100
338,000000	5,805000
337,000000	5,891100
336,000000	5,776400
335,000000	5,751500
334,000000	5,795400
333,000000	5,736200
332,000000	5,721100
331,000000	5,799200
330,000000	5,827500
329,000000	5,979200
328,000000	6,124000
327,000000	6,032500
326,000000	5,930500
325,000000	5,874100
324,000000	5,829800
323,000000	5,831500
322,000000	5,627200
321,000000	5,636100
320,000000	6,056600
319,000000	6,108900
318,000000	6,164700
317,000000	6,391200
316,000000	6,046400
315,000000	5,716800
314,000000	5,733900
313,000000	5,745000
312,000000	5,727100
311,000000	5,747400
310,000000	5,774400
309,000000	5,748200
308,000000	5,762600
307,000000	5,811100
306,000000	5,797500
305,000000	5,788100
304,000000	5,762900
303,000000	5,748100
302,000000	5,748900
301,000000	5,767800
300,000000	5,780000
299,000000	5,738500
298,000000	5,731400
297,000000	5,742800
296,000000	5,775600
295,000000	5,789700
294,000000	5,785800
293,000000	5,788500
292,000000	5,795700
291,000000	5,797000
290,000000	5,814100
289,000000	5,819200
288,000000	5,810900
287,000000	5,817300
286,000000	5,826600
285,000000	5,827100
284,000000	5,852300
283,000000	5,862800
282,000000	5,864900
281,000000	5,885800
280,000000	5,870300
279,000000	5,892500
278,000000	5,922400
277,000000	5,925800
276,000000	5,918400
275,000000	5,936700
274,000000	5,972000
273,000000	5,960600
272,000000	5,975700
271,000000	5,996600
270,000000	5,981300
269,000000	6,023300
268,000000	6,044700
267,000000	6,071300
266,000000	6,083700
265,000000	6,125000
264,000000	6,163700
263,000000	6,164200
262,000000	6,166400
261,000000	6,202200
260,000000	6,228900
259,000000	6,239000
258,000000	6,268200
257,000000	6,302200
256,000000	6,326100
255,000000	6,306200
254,000000	6,318700
253,000000	6,342100
252,000000	6,319300
251,000000	6,343200
250,000000	6,354200
