PE UV       SUBTECH     SPECTRUM    ASCII       PEDS        4.00        
   -1
CICIMAUCR0223-1.Sample.ASC
24/06/13
15:39:12.00
24/06/13
15:39:12.00
Vinicio Soto Monge
C. resplendens. Sex M. Dorsal.
250,000000
1
Lambda 1050
1050L1511233
PerkinElmer UV WinLab 6.3.2.0749 / 2.02.05 Lambda 900 UV/VIS/NIR, Aug  7 2015 09:38:08

0
0
3350/servo 860,8/2
0
0
UV/VIS
1
1
1
DoubleDePol,CommonBeamDepol,RBeamAtt,SBeamAtt,60mm sphere, WB InGaAs Detector
0
0
0
0
Program
Program
3350/servo 860,8/2
3350/0,2 860,8/0,2
3350/0,2 860,8/0,2
0
15.00
 
 
 
0
 
860,8
319,2
860,8
Front
100
on
S:100 R:100
0
0
0
0
 
0
 
 
 
0
 
 
0
0
0
0
0
 
 
 
 
0
0


0
0
#HDR
-1
-1
#GR
nm
%R
1.0
0.0
2500,000000
-1,000000
2251
8
89,120400
5,868800
#DATA
2500,000000	8,121500
2499,000000	7,942600
2498,000000	7,991400
2497,000000	8,048900
2496,000000	8,054400
2495,000000	8,050600
2494,000000	7,911200
2493,000000	7,761900
2492,000000	7,852000
2491,000000	7,883500
2490,000000	7,916200
2489,000000	7,797400
2488,000000	7,807700
2487,000000	7,803900
2486,000000	7,882200
2485,000000	7,803800
2484,000000	7,770500
2483,000000	7,804100
2482,000000	7,824700
2481,000000	7,869300
2480,000000	7,809600
2479,000000	7,781900
2478,000000	7,869500
2477,000000	7,847400
2476,000000	7,846500
2475,000000	7,798200
2474,000000	7,855900
2473,000000	7,788700
2472,000000	7,822600
2471,000000	7,896100
2470,000000	7,888600
2469,000000	7,906100
2468,000000	7,878200
2467,000000	7,866200
2466,000000	7,904500
2465,000000	7,925700
2464,000000	7,948700
2463,000000	7,968200
2462,000000	7,999800
2461,000000	8,003000
2460,000000	8,031900
2459,000000	8,072400
2458,000000	8,086100
2457,000000	8,120800
2456,000000	8,161800
2455,000000	8,214800
2454,000000	8,237700
2453,000000	8,311700
2452,000000	8,359800
2451,000000	8,417800
2450,000000	8,462900
2449,000000	8,499000
2448,000000	8,577900
2447,000000	8,607700
2446,000000	8,678800
2445,000000	8,737500
2444,000000	8,821100
2443,000000	8,872000
2442,000000	8,928300
2441,000000	8,992500
2440,000000	9,053600
2439,000000	9,100700
2438,000000	9,150100
2437,000000	9,218400
2436,000000	9,255600
2435,000000	9,314000
2434,000000	9,391400
2433,000000	9,406400
2432,000000	9,447600
2431,000000	9,484200
2430,000000	9,551900
2429,000000	9,583900
2428,000000	9,634900
2427,000000	9,675200
2426,000000	9,730100
2425,000000	9,755500
2424,000000	9,795100
2423,000000	9,818500
2422,000000	9,842100
2421,000000	9,881000
2420,000000	9,918800
2419,000000	9,932600
2418,000000	9,966900
2417,000000	10,006100
2416,000000	10,031400
2415,000000	10,058900
2414,000000	10,089600
2413,000000	10,115700
2412,000000	10,135100
2411,000000	10,156700
2410,000000	10,185600
2409,000000	10,211000
2408,000000	10,239600
2407,000000	10,256500
2406,000000	10,268700
2405,000000	10,306000
2404,000000	10,328000
2403,000000	10,343500
2402,000000	10,377700
2401,000000	10,410400
2400,000000	10,420300
2399,000000	10,411300
2398,000000	10,400300
2397,000000	10,408000
2396,000000	10,429000
2395,000000	10,443700
2394,000000	10,474100
2393,000000	10,479200
2392,000000	10,489100
2391,000000	10,527100
2390,000000	10,535500
2389,000000	10,535500
2388,000000	10,548300
2387,000000	10,549000
2386,000000	10,535400
2385,000000	10,544200
2384,000000	10,552000
2383,000000	10,547900
2382,000000	10,546600
2381,000000	10,548500
2380,000000	10,529400
2379,000000	10,514400
2378,000000	10,510500
2377,000000	10,489600
2376,000000	10,475100
2375,000000	10,456900
2374,000000	10,435100
2373,000000	10,420300
2372,000000	10,385800
2371,000000	10,343600
2370,000000	10,326000
2369,000000	10,307500
2368,000000	10,262100
2367,000000	10,234600
2366,000000	10,188700
2365,000000	10,132200
2364,000000	10,085600
2363,000000	10,038000
2362,000000	9,990700
2361,000000	9,929800
2360,000000	9,880400
2359,000000	9,844300
2358,000000	9,784000
2357,000000	9,726300
2356,000000	9,688700
2355,000000	9,643000
2354,000000	9,622300
2353,000000	9,598100
2352,000000	9,573600
2351,000000	9,561100
2350,000000	9,560200
2349,000000	9,572400
2348,000000	9,585500
2347,000000	9,603300
2346,000000	9,615300
2345,000000	9,632400
2344,000000	9,672400
2343,000000	9,709700
2342,000000	9,732900
2341,000000	9,746700
2340,000000	9,771600
2339,000000	9,810900
2338,000000	9,839400
2337,000000	9,830200
2336,000000	9,827500
2335,000000	9,817000
2334,000000	9,799200
2333,000000	9,794900
2332,000000	9,771500
2331,000000	9,738700
2330,000000	9,716200
2329,000000	9,656200
2328,000000	9,597700
2327,000000	9,565400
2326,000000	9,510500
2325,000000	9,433400
2324,000000	9,366800
2323,000000	9,290700
2322,000000	9,210400
2321,000000	9,135800
2320,000000	9,061300
2319,000000	8,957000
2318,000000	8,872400
2317,000000	8,780000
2316,000000	8,697700
2315,000000	8,596000
2314,000000	8,491300
2313,000000	8,390400
2312,000000	8,324900
2311,000000	8,245700
2310,000000	8,179900
2309,000000	8,112000
2308,000000	8,061000
2307,000000	8,026900
2306,000000	8,026700
2305,000000	7,998300
2304,000000	7,986400
2303,000000	8,022700
2302,000000	8,049500
2301,000000	8,084400
2300,000000	8,142700
2299,000000	8,199900
2298,000000	8,271600
2297,000000	8,347800
2296,000000	8,423700
2295,000000	8,491500
2294,000000	8,571700
2293,000000	8,625700
2292,000000	8,680200
2291,000000	8,706700
2290,000000	8,741300
2289,000000	8,785900
2288,000000	8,807400
2287,000000	8,811500
2286,000000	8,813900
2285,000000	8,785600
2284,000000	8,763400
2283,000000	8,735100
2282,000000	8,699200
2281,000000	8,657100
2280,000000	8,625400
2279,000000	8,583700
2278,000000	8,528800
2277,000000	8,479500
2276,000000	8,434300
2275,000000	8,391600
2274,000000	8,348700
2273,000000	8,344800
2272,000000	8,316100
2271,000000	8,331200
2270,000000	8,317000
2269,000000	8,334700
2268,000000	8,371700
2267,000000	8,402600
2266,000000	8,470900
2265,000000	8,536700
2264,000000	8,639400
2263,000000	8,771000
2262,000000	8,899800
2261,000000	9,033700
2260,000000	9,207500
2259,000000	9,365900
2258,000000	9,564000
2257,000000	9,763500
2256,000000	9,968600
2255,000000	10,163400
2254,000000	10,389300
2253,000000	10,604300
2252,000000	10,812900
2251,000000	10,991900
2250,000000	11,185400
2249,000000	11,369900
2248,000000	11,561900
2247,000000	11,721100
2246,000000	11,894000
2245,000000	12,030600
2244,000000	12,167800
2243,000000	12,297900
2242,000000	12,419600
2241,000000	12,511300
2240,000000	12,636500
2239,000000	12,713200
2238,000000	12,798500
2237,000000	12,884100
2236,000000	12,962700
2235,000000	13,009200
2234,000000	13,085600
2233,000000	13,138900
2232,000000	13,188500
2231,000000	13,214800
2230,000000	13,248400
2229,000000	13,277100
2228,000000	13,312200
2227,000000	13,322900
2226,000000	13,318800
2225,000000	13,331300
2224,000000	13,335800
2223,000000	13,332700
2222,000000	13,319300
2221,000000	13,314300
2220,000000	13,297500
2219,000000	13,272500
2218,000000	13,259700
2217,000000	13,220700
2216,000000	13,205100
2215,000000	13,174600
2214,000000	13,146900
2213,000000	13,130600
2212,000000	13,091800
2211,000000	13,080500
2210,000000	13,048200
2209,000000	13,044800
2208,000000	13,028600
2207,000000	12,996000
2206,000000	12,974200
2205,000000	12,968300
2204,000000	12,939300
2203,000000	12,945800
2202,000000	12,904300
2201,000000	12,898200
2200,000000	12,880800
2199,000000	12,865300
2198,000000	12,877900
2197,000000	12,830300
2196,000000	12,831700
2195,000000	12,815600
2194,000000	12,799900
2193,000000	12,817400
2192,000000	12,782200
2191,000000	12,763800
2190,000000	12,748100
2189,000000	12,718600
2188,000000	12,716500
2187,000000	12,732000
2186,000000	12,690700
2185,000000	12,670700
2184,000000	12,660500
2183,000000	12,645000
2182,000000	12,625900
2181,000000	12,614500
2180,000000	12,585300
2179,000000	12,557900
2178,000000	12,562700
2177,000000	12,554700
2176,000000	12,545400
2175,000000	12,558400
2174,000000	12,540900
2173,000000	12,529300
2172,000000	12,539200
2171,000000	12,528700
2170,000000	12,530300
2169,000000	12,557500
2168,000000	12,546300
2167,000000	12,547400
2166,000000	12,561100
2165,000000	12,581000
2164,000000	12,584200
2163,000000	12,598200
2162,000000	12,620600
2161,000000	12,651300
2160,000000	12,667500
2159,000000	12,688700
2158,000000	12,718600
2157,000000	12,733600
2156,000000	12,764000
2155,000000	12,798900
2154,000000	12,829200
2153,000000	12,857100
2152,000000	12,900200
2151,000000	12,926400
2150,000000	12,962500
2149,000000	12,985500
2148,000000	13,002300
2147,000000	13,051700
2146,000000	13,083500
2145,000000	13,122500
2144,000000	13,143100
2143,000000	13,193000
2142,000000	13,220800
2141,000000	13,242100
2140,000000	13,273600
2139,000000	13,288000
2138,000000	13,316700
2137,000000	13,321600
2136,000000	13,357200
2135,000000	13,373800
2134,000000	13,377500
2133,000000	13,392700
2132,000000	13,411400
2131,000000	13,422200
2130,000000	13,419500
2129,000000	13,415000
2128,000000	13,414200
2127,000000	13,407800
2126,000000	13,408100
2125,000000	13,421700
2124,000000	13,406000
2123,000000	13,401500
2122,000000	13,383800
2121,000000	13,369700
2120,000000	13,346600
2119,000000	13,313900
2118,000000	13,297700
2117,000000	13,287700
2116,000000	13,269100
2115,000000	13,237300
2114,000000	13,214100
2113,000000	13,186300
2112,000000	13,156100
2111,000000	13,133100
2110,000000	13,099700
2109,000000	13,065900
2108,000000	13,023500
2107,000000	13,007900
2106,000000	12,978000
2105,000000	12,952500
2104,000000	12,918300
2103,000000	12,884200
2102,000000	12,866000
2101,000000	12,848400
2100,000000	12,814400
2099,000000	12,759400
2098,000000	12,739100
2097,000000	12,712800
2096,000000	12,681800
2095,000000	12,663600
2094,000000	12,641400
2093,000000	12,613800
2092,000000	12,599000
2091,000000	12,573400
2090,000000	12,559100
2089,000000	12,556600
2088,000000	12,530300
2087,000000	12,503300
2086,000000	12,481800
2085,000000	12,464200
2084,000000	12,442400
2083,000000	12,409600
2082,000000	12,382700
2081,000000	12,369100
2080,000000	12,339100
2079,000000	12,311400
2078,000000	12,287500
2077,000000	12,243000
2076,000000	12,210700
2075,000000	12,194200
2074,000000	12,152200
2073,000000	12,115900
2072,000000	12,093600
2071,000000	12,055000
2070,000000	12,019600
2069,000000	11,983900
2068,000000	11,948200
2067,000000	11,917400
2066,000000	11,873700
2065,000000	11,836400
2064,000000	11,810100
2063,000000	11,786200
2062,000000	11,761700
2061,000000	11,727800
2060,000000	11,708200
2059,000000	11,679200
2058,000000	11,658800
2057,000000	11,656400
2056,000000	11,660400
2055,000000	11,655600
2054,000000	11,658700
2053,000000	11,686300
2052,000000	11,710400
2051,000000	11,738000
2050,000000	11,769300
2049,000000	11,812100
2048,000000	11,869800
2047,000000	11,925300
2046,000000	11,979100
2045,000000	12,045100
2044,000000	12,111900
2043,000000	12,191600
2042,000000	12,262600
2041,000000	12,337000
2040,000000	12,401600
2039,000000	12,465900
2038,000000	12,546700
2037,000000	12,611000
2036,000000	12,671600
2035,000000	12,743400
2034,000000	12,791900
2033,000000	12,837000
2032,000000	12,876900
2031,000000	12,907800
2030,000000	12,965700
2029,000000	12,991100
2028,000000	13,028100
2027,000000	13,068500
2026,000000	13,093600
2025,000000	13,124400
2024,000000	13,131200
2023,000000	13,173300
2022,000000	13,199100
2021,000000	13,208100
2020,000000	13,218500
2019,000000	13,221600
2018,000000	13,246900
2017,000000	13,243900
2016,000000	13,239000
2015,000000	13,251900
2014,000000	13,260700
2013,000000	13,246400
2012,000000	13,221700
2011,000000	13,197200
2010,000000	13,182100
2009,000000	13,168900
2008,000000	13,152800
2007,000000	13,106100
2006,000000	13,087300
2005,000000	13,052500
2004,000000	13,009100
2003,000000	12,961000
2002,000000	12,931600
2001,000000	12,882200
2000,000000	12,836600
1999,000000	12,798300
1998,000000	12,744200
1997,000000	12,697400
1996,000000	12,651000
1995,000000	12,599400
1994,000000	12,543600
1993,000000	12,479600
1992,000000	12,395200
1991,000000	12,323300
1990,000000	12,268000
1989,000000	12,198500
1988,000000	12,123300
1987,000000	12,051900
1986,000000	11,987900
1985,000000	11,917200
1984,000000	11,829300
1983,000000	11,768600
1982,000000	11,706800
1981,000000	11,617300
1980,000000	11,535400
1979,000000	11,467600
1978,000000	11,386400
1977,000000	11,322600
1976,000000	11,240900
1975,000000	11,159700
1974,000000	11,074600
1973,000000	10,997900
1972,000000	10,936200
1971,000000	10,859500
1970,000000	10,812600
1969,000000	10,743500
1968,000000	10,665300
1967,000000	10,600700
1966,000000	10,516700
1965,000000	10,440200
1964,000000	10,379800
1963,000000	10,335800
1962,000000	10,276300
1961,000000	10,174000
1960,000000	10,133400
1959,000000	10,056000
1958,000000	10,014500
1957,000000	9,950400
1956,000000	9,876100
1955,000000	9,799500
1954,000000	9,756800
1953,000000	9,698400
1952,000000	9,629300
1951,000000	9,604300
1950,000000	9,533800
1949,000000	9,486200
1948,000000	9,427600
1947,000000	9,375900
1946,000000	9,342900
1945,000000	9,302700
1944,000000	9,265000
1943,000000	9,236500
1942,000000	9,212800
1941,000000	9,174100
1940,000000	9,147000
1939,000000	9,120300
1938,000000	9,123100
1937,000000	9,094700
1936,000000	9,101000
1935,000000	9,126900
1934,000000	9,131100
1933,000000	9,146700
1932,000000	9,133200
1931,000000	9,165000
1930,000000	9,184000
1929,000000	9,221300
1928,000000	9,280100
1927,000000	9,329100
1926,000000	9,426600
1925,000000	9,477400
1924,000000	9,550000
1923,000000	9,602500
1922,000000	9,684600
1921,000000	9,774700
1920,000000	9,908800
1919,000000	10,041700
1918,000000	10,146000
1917,000000	10,261900
1916,000000	10,374000
1915,000000	10,482000
1914,000000	10,601900
1913,000000	10,776000
1912,000000	10,968600
1911,000000	11,153800
1910,000000	11,302000
1909,000000	11,470500
1908,000000	11,590800
1907,000000	11,755900
1906,000000	11,968500
1905,000000	12,194200
1904,000000	12,460700
1903,000000	12,700500
1902,000000	12,918400
1901,000000	13,162400
1900,000000	13,385200
1899,000000	13,677900
1898,000000	14,012400
1897,000000	14,284000
1896,000000	14,564700
1895,000000	14,852900
1894,000000	15,097400
1893,000000	15,396300
1892,000000	15,699600
1891,000000	16,086700
1890,000000	16,482200
1889,000000	16,867400
1888,000000	17,254500
1887,000000	17,659100
1886,000000	18,058600
1885,000000	18,492900
1884,000000	18,985700
1883,000000	19,532800
1882,000000	20,047500
1881,000000	20,575600
1880,000000	21,126100
1879,000000	21,630200
1878,000000	22,097200
1877,000000	22,585400
1876,000000	23,068000
1875,000000	23,511300
1874,000000	23,946900
1873,000000	24,372500
1872,000000	24,797000
1871,000000	25,188000
1870,000000	25,540200
1869,000000	25,907700
1868,000000	26,240400
1867,000000	26,482400
1866,000000	26,710100
1865,000000	26,880500
1864,000000	27,044500
1863,000000	27,183500
1862,000000	27,326600
1861,000000	27,483100
1860,000000	27,628300
1859,000000	27,768000
1858,000000	27,885300
1857,000000	27,981100
1856,000000	28,049800
1855,000000	28,103800
1854,000000	28,154600
1853,000000	28,216800
1852,000000	28,230600
1851,000000	28,231500
1850,000000	28,240000
1849,000000	28,257500
1848,000000	28,258200
1847,000000	28,270100
1846,000000	28,271000
1845,000000	28,246800
1844,000000	28,201500
1843,000000	28,167900
1842,000000	28,153400
1841,000000	28,183900
1840,000000	28,174700
1839,000000	28,158800
1838,000000	28,127800
1837,000000	28,105800
1836,000000	28,081200
1835,000000	28,053100
1834,000000	28,017500
1833,000000	27,946200
1832,000000	27,877800
1831,000000	27,838700
1830,000000	27,794500
1829,000000	27,741400
1828,000000	27,672600
1827,000000	27,606500
1826,000000	27,552200
1825,000000	27,517200
1824,000000	27,457900
1823,000000	27,383000
1822,000000	27,354300
1821,000000	27,358800
1820,000000	27,347700
1819,000000	27,313200
1818,000000	27,266600
1817,000000	27,230900
1816,000000	27,215000
1815,000000	27,215200
1814,000000	27,199500
1813,000000	27,171300
1812,000000	27,158500
1811,000000	27,138200
1810,000000	27,114000
1809,000000	27,073700
1808,000000	27,025900
1807,000000	26,994100
1806,000000	26,951600
1805,000000	26,895600
1804,000000	26,845000
1803,000000	26,789700
1802,000000	26,739800
1801,000000	26,695800
1800,000000	26,643600
1799,000000	26,592500
1798,000000	26,545600
1797,000000	26,483800
1796,000000	26,427300
1795,000000	26,388800
1794,000000	26,327200
1793,000000	26,263700
1792,000000	26,229600
1791,000000	26,183000
1790,000000	26,129900
1789,000000	26,070500
1788,000000	26,006400
1787,000000	25,948500
1786,000000	25,886200
1785,000000	25,827600
1784,000000	25,772400
1783,000000	25,710700
1782,000000	25,635400
1781,000000	25,560600
1780,000000	25,478800
1779,000000	25,417300
1778,000000	25,356000
1777,000000	25,283500
1776,000000	25,204300
1775,000000	25,112000
1774,000000	25,025900
1773,000000	24,919400
1772,000000	24,804400
1771,000000	24,706600
1770,000000	24,610000
1769,000000	24,499600
1768,000000	24,392100
1767,000000	24,304100
1766,000000	24,211900
1765,000000	24,136200
1764,000000	24,068900
1763,000000	24,031900
1762,000000	24,007400
1761,000000	24,009400
1760,000000	24,050500
1759,000000	24,103000
1758,000000	24,167200
1757,000000	24,236800
1756,000000	24,295100
1755,000000	24,356800
1754,000000	24,422200
1753,000000	24,470200
1752,000000	24,503000
1751,000000	24,516200
1750,000000	24,518200
1749,000000	24,505600
1748,000000	24,477000
1747,000000	24,424400
1746,000000	24,375500
1745,000000	24,303200
1744,000000	24,211500
1743,000000	24,102400
1742,000000	23,959300
1741,000000	23,806500
1740,000000	23,621700
1739,000000	23,419400
1738,000000	23,234600
1737,000000	23,032400
1736,000000	22,846400
1735,000000	22,719500
1734,000000	22,616300
1733,000000	22,539000
1732,000000	22,533200
1731,000000	22,566100
1730,000000	22,596300
1729,000000	22,671800
1728,000000	22,759800
1727,000000	22,873000
1726,000000	22,979200
1725,000000	23,067000
1724,000000	23,168900
1723,000000	23,241800
1722,000000	23,297500
1721,000000	23,354300
1720,000000	23,385300
1719,000000	23,431900
1718,000000	23,478600
1717,000000	23,529300
1716,000000	23,593500
1715,000000	23,677000
1714,000000	23,753300
1713,000000	23,838100
1712,000000	23,923100
1711,000000	23,997900
1710,000000	24,045800
1709,000000	24,073600
1708,000000	24,089600
1707,000000	24,092600
1706,000000	24,076300
1705,000000	24,027800
1704,000000	24,004100
1703,000000	23,941700
1702,000000	23,852700
1701,000000	23,780900
1700,000000	23,649400
1699,000000	23,518800
1698,000000	23,363600
1697,000000	23,222300
1696,000000	23,099800
1695,000000	23,023200
1694,000000	22,980400
1693,000000	23,019800
1692,000000	23,084600
1691,000000	23,197500
1690,000000	23,330100
1689,000000	23,465400
1688,000000	23,584600
1687,000000	23,675300
1686,000000	23,748700
1685,000000	23,757800
1684,000000	23,815100
1683,000000	23,927200
1682,000000	24,069600
1681,000000	24,337700
1680,000000	24,674500
1679,000000	25,097900
1678,000000	25,552000
1677,000000	26,043700
1676,000000	26,505500
1675,000000	26,911100
1674,000000	27,267500
1673,000000	27,585600
1672,000000	27,859700
1671,000000	28,105000
1670,000000	28,309200
1669,000000	28,495200
1668,000000	28,651100
1667,000000	28,756500
1666,000000	28,892000
1665,000000	29,010400
1664,000000	29,078700
1663,000000	29,178600
1662,000000	29,240300
1661,000000	29,287600
1660,000000	29,366600
1659,000000	29,400000
1658,000000	29,425300
1657,000000	29,460800
1656,000000	29,487500
1655,000000	29,516800
1654,000000	29,500100
1653,000000	29,496700
1652,000000	29,494000
1651,000000	29,478800
1650,000000	29,428000
1649,000000	29,417600
1648,000000	29,380900
1647,000000	29,339100
1646,000000	29,312900
1645,000000	29,276600
1644,000000	29,219600
1643,000000	29,162400
1642,000000	29,104200
1641,000000	29,037800
1640,000000	28,992300
1639,000000	28,919500
1638,000000	28,869400
1637,000000	28,804600
1636,000000	28,754000
1635,000000	28,677300
1634,000000	28,611500
1633,000000	28,533800
1632,000000	28,459500
1631,000000	28,404800
1630,000000	28,314500
1629,000000	28,242900
1628,000000	28,157900
1627,000000	28,085500
1626,000000	28,014900
1625,000000	27,913400
1624,000000	27,843800
1623,000000	27,741900
1622,000000	27,692300
1621,000000	27,621600
1620,000000	27,539300
1619,000000	27,444400
1618,000000	27,397600
1617,000000	27,330200
1616,000000	27,249500
1615,000000	27,184000
1614,000000	27,130200
1613,000000	27,066600
1612,000000	26,987700
1611,000000	26,906000
1610,000000	26,857700
1609,000000	26,821800
1608,000000	26,735200
1607,000000	26,676800
1606,000000	26,611900
1605,000000	26,543000
1604,000000	26,460800
1603,000000	26,398800
1602,000000	26,341400
1601,000000	26,273200
1600,000000	26,214600
1599,000000	26,152000
1598,000000	26,079500
1597,000000	26,024800
1596,000000	25,946800
1595,000000	25,888700
1594,000000	25,824000
1593,000000	25,772000
1592,000000	25,727600
1591,000000	25,668900
1590,000000	25,629000
1589,000000	25,574300
1588,000000	25,534100
1587,000000	25,486500
1586,000000	25,433000
1585,000000	25,384400
1584,000000	25,341600
1583,000000	25,294900
1582,000000	25,251900
1581,000000	25,196200
1580,000000	25,174000
1579,000000	25,145200
1578,000000	25,108400
1577,000000	25,087400
1576,000000	25,062300
1575,000000	25,045500
1574,000000	25,026100
1573,000000	25,006700
1572,000000	24,975000
1571,000000	24,967600
1570,000000	24,954300
1569,000000	24,952300
1568,000000	24,953100
1567,000000	24,951100
1566,000000	24,939500
1565,000000	24,928200
1564,000000	24,927800
1563,000000	24,925500
1562,000000	24,924300
1561,000000	24,916200
1560,000000	24,910500
1559,000000	24,892500
1558,000000	24,872700
1557,000000	24,862000
1556,000000	24,837500
1555,000000	24,807300
1554,000000	24,777600
1553,000000	24,746000
1552,000000	24,719300
1551,000000	24,693600
1550,000000	24,662400
1549,000000	24,622000
1548,000000	24,588500
1547,000000	24,551900
1546,000000	24,503900
1545,000000	24,458700
1544,000000	24,417200
1543,000000	24,401400
1542,000000	24,367600
1541,000000	24,327400
1540,000000	24,292300
1539,000000	24,268400
1538,000000	24,247200
1537,000000	24,203100
1536,000000	24,171100
1535,000000	24,143100
1534,000000	24,105200
1533,000000	24,070900
1532,000000	24,039600
1531,000000	23,985400
1530,000000	23,936200
1529,000000	23,904700
1528,000000	23,857300
1527,000000	23,807500
1526,000000	23,747200
1525,000000	23,686300
1524,000000	23,640200
1523,000000	23,589700
1522,000000	23,539400
1521,000000	23,489700
1520,000000	23,438200
1519,000000	23,382500
1518,000000	23,318200
1517,000000	23,262500
1516,000000	23,211600
1515,000000	23,152800
1514,000000	23,102800
1513,000000	23,040700
1512,000000	22,968600
1511,000000	22,904600
1510,000000	22,850300
1509,000000	22,794900
1508,000000	22,726200
1507,000000	22,654700
1506,000000	22,597600
1505,000000	22,544900
1504,000000	22,476500
1503,000000	22,407800
1502,000000	22,355700
1501,000000	22,309200
1500,000000	22,249900
1499,000000	22,192100
1498,000000	22,153700
1497,000000	22,113100
1496,000000	22,061600
1495,000000	22,020900
1494,000000	21,982500
1493,000000	21,933600
1492,000000	21,894500
1491,000000	21,868700
1490,000000	21,829800
1489,000000	21,798600
1488,000000	21,769000
1487,000000	21,728700
1486,000000	21,699300
1485,000000	21,681800
1484,000000	21,646600
1483,000000	21,614400
1482,000000	21,604600
1481,000000	21,589500
1480,000000	21,577700
1479,000000	21,565400
1478,000000	21,554900
1477,000000	21,535500
1476,000000	21,523600
1475,000000	21,519900
1474,000000	21,520100
1473,000000	21,524100
1472,000000	21,529500
1471,000000	21,540400
1470,000000	21,538700
1469,000000	21,541900
1468,000000	21,538200
1467,000000	21,549900
1466,000000	21,550400
1465,000000	21,554400
1464,000000	21,576700
1463,000000	21,591100
1462,000000	21,606700
1461,000000	21,639200
1460,000000	21,669100
1459,000000	21,707300
1458,000000	21,750200
1457,000000	21,781700
1456,000000	21,837100
1455,000000	21,896000
1454,000000	21,950100
1453,000000	22,005400
1452,000000	22,080700
1451,000000	22,149000
1450,000000	22,224700
1449,000000	22,295300
1448,000000	22,343400
1447,000000	22,411300
1446,000000	22,493800
1445,000000	22,593700
1444,000000	22,689000
1443,000000	22,765900
1442,000000	22,860400
1441,000000	22,966100
1440,000000	23,040600
1439,000000	23,142400
1438,000000	23,230400
1437,000000	23,336600
1436,000000	23,432800
1435,000000	23,532800
1434,000000	23,656100
1433,000000	23,773900
1432,000000	23,917400
1431,000000	24,031800
1430,000000	24,150900
1429,000000	24,278600
1428,000000	24,426600
1427,000000	24,605900
1426,000000	24,765200
1425,000000	24,940300
1424,000000	25,134400
1423,000000	25,341800
1422,000000	25,543000
1421,000000	25,733900
1420,000000	25,975900
1419,000000	26,212900
1418,000000	26,467900
1417,000000	26,689400
1416,000000	26,902400
1415,000000	27,170600
1414,000000	27,465100
1413,000000	27,752600
1412,000000	28,028700
1411,000000	28,287500
1410,000000	28,593300
1409,000000	28,963800
1408,000000	29,343100
1407,000000	29,728100
1406,000000	30,080600
1405,000000	30,483500
1404,000000	30,900800
1403,000000	31,310100
1402,000000	31,696600
1401,000000	32,095800
1400,000000	32,569300
1399,000000	32,965400
1398,000000	33,312300
1397,000000	33,571300
1396,000000	33,922500
1395,000000	34,312600
1394,000000	34,691000
1393,000000	34,966100
1392,000000	35,252500
1391,000000	35,597200
1390,000000	35,943500
1389,000000	36,274900
1388,000000	36,664200
1387,000000	37,113900
1386,000000	37,547500
1385,000000	38,008500
1384,000000	38,522000
1383,000000	39,033500
1382,000000	39,577200
1381,000000	40,062400
1380,000000	40,455700
1379,000000	40,729600
1378,000000	40,981300
1377,000000	41,155700
1376,000000	41,342600
1375,000000	41,529100
1374,000000	41,751200
1373,000000	41,962300
1372,000000	42,230300
1371,000000	42,565700
1370,000000	42,875200
1369,000000	43,145700
1368,000000	43,410300
1367,000000	43,696600
1366,000000	43,897600
1365,000000	44,095800
1364,000000	44,290700
1363,000000	44,447300
1362,000000	44,623500
1361,000000	44,787800
1360,000000	44,904600
1359,000000	44,982700
1358,000000	45,038400
1357,000000	45,135500
1356,000000	45,248500
1355,000000	45,469200
1354,000000	45,744700
1353,000000	46,066300
1352,000000	46,341100
1351,000000	46,773000
1350,000000	47,161800
1349,000000	47,555900
1348,000000	47,897900
1347,000000	48,244100
1346,000000	48,542700
1345,000000	48,825400
1344,000000	49,119100
1343,000000	49,403200
1342,000000	49,693700
1341,000000	49,949500
1340,000000	50,234500
1339,000000	50,485800
1338,000000	50,736100
1337,000000	50,984100
1336,000000	51,231600
1335,000000	51,486800
1334,000000	51,687900
1333,000000	51,913100
1332,000000	52,137000
1331,000000	52,364400
1330,000000	52,582100
1329,000000	52,768500
1328,000000	52,951300
1327,000000	53,145000
1326,000000	53,315700
1325,000000	53,486600
1324,000000	53,665500
1323,000000	53,797300
1322,000000	53,955800
1321,000000	54,110000
1320,000000	54,243800
1319,000000	54,372900
1318,000000	54,518800
1317,000000	54,645700
1316,000000	54,772200
1315,000000	54,883100
1314,000000	54,994100
1313,000000	55,096100
1312,000000	55,207200
1311,000000	55,302500
1310,000000	55,388700
1309,000000	55,480200
1308,000000	55,563700
1307,000000	55,639100
1306,000000	55,710700
1305,000000	55,768700
1304,000000	55,811900
1303,000000	55,880400
1302,000000	55,929400
1301,000000	55,962600
1300,000000	55,988400
1299,000000	56,025800
1298,000000	56,064100
1297,000000	56,078300
1296,000000	56,084800
1295,000000	56,084200
1294,000000	56,109900
1293,000000	56,134800
1292,000000	56,129100
1291,000000	56,110500
1290,000000	56,116200
1289,000000	56,091100
1288,000000	56,072400
1287,000000	56,035900
1286,000000	56,009900
1285,000000	55,989600
1284,000000	55,952300
1283,000000	55,893500
1282,000000	55,859100
1281,000000	55,815100
1280,000000	55,765600
1279,000000	55,709300
1278,000000	55,656500
1277,000000	55,606300
1276,000000	55,567600
1275,000000	55,528100
1274,000000	55,492300
1273,000000	55,468100
1272,000000	55,428300
1271,000000	55,391900
1270,000000	55,359200
1269,000000	55,329000
1268,000000	55,305000
1267,000000	55,263900
1266,000000	55,228900
1265,000000	55,200000
1264,000000	55,156100
1263,000000	55,118700
1262,000000	55,092200
1261,000000	55,051800
1260,000000	55,017300
1259,000000	54,969800
1258,000000	54,929900
1257,000000	54,887900
1256,000000	54,840400
1255,000000	54,797000
1254,000000	54,760200
1253,000000	54,716200
1252,000000	54,658200
1251,000000	54,590500
1250,000000	54,537800
1249,000000	54,487100
1248,000000	54,421300
1247,000000	54,340700
1246,000000	54,266500
1245,000000	54,171400
1244,000000	54,080800
1243,000000	53,999800
1242,000000	53,897500
1241,000000	53,785000
1240,000000	53,673100
1239,000000	53,572200
1238,000000	53,463000
1237,000000	53,348900
1236,000000	53,240700
1235,000000	53,126200
1234,000000	53,001800
1233,000000	52,881000
1232,000000	52,751500
1231,000000	52,616100
1230,000000	52,487300
1229,000000	52,353000
1228,000000	52,207300
1227,000000	52,062700
1226,000000	51,912600
1225,000000	51,762000
1224,000000	51,615600
1223,000000	51,469700
1222,000000	51,329900
1221,000000	51,177600
1220,000000	51,028300
1219,000000	50,888200
1218,000000	50,741700
1217,000000	50,609400
1216,000000	50,481100
1215,000000	50,348400
1214,000000	50,216100
1213,000000	50,095800
1212,000000	49,978600
1211,000000	49,845500
1210,000000	49,735600
1209,000000	49,623300
1208,000000	49,517500
1207,000000	49,419000
1206,000000	49,315900
1205,000000	49,234900
1204,000000	49,164400
1203,000000	49,109900
1202,000000	49,062100
1201,000000	49,012700
1200,000000	48,946400
1199,000000	48,888300
1198,000000	48,817100
1197,000000	48,722800
1196,000000	48,602500
1195,000000	48,460600
1194,000000	48,279400
1193,000000	48,037200
1192,000000	47,760400
1191,000000	47,448200
1190,000000	47,104900
1189,000000	46,766900
1188,000000	46,448500
1187,000000	46,195400
1186,000000	46,030700
1185,000000	45,944700
1184,000000	45,955000
1183,000000	46,077000
1182,000000	46,291300
1181,000000	46,610600
1180,000000	46,971100
1179,000000	47,342000
1178,000000	47,715300
1177,000000	48,070000
1176,000000	48,379900
1175,000000	48,645000
1174,000000	48,898800
1173,000000	49,145600
1172,000000	49,367600
1171,000000	49,609500
1170,000000	49,860100
1169,000000	50,123900
1168,000000	50,380200
1167,000000	50,641000
1166,000000	50,923500
1165,000000	51,200000
1164,000000	51,467700
1163,000000	51,757800
1162,000000	52,043100
1161,000000	52,340800
1160,000000	52,624300
1159,000000	52,889000
1158,000000	53,163300
1157,000000	53,419900
1156,000000	53,668000
1155,000000	53,902600
1154,000000	54,095100
1153,000000	54,248400
1152,000000	54,391500
1151,000000	54,477400
1150,000000	54,538100
1149,000000	54,607100
1148,000000	54,669300
1147,000000	54,748200
1146,000000	54,833200
1145,000000	54,950100
1144,000000	55,106600
1143,000000	55,303200
1142,000000	55,524300
1141,000000	55,778100
1140,000000	56,038500
1139,000000	56,320500
1138,000000	56,614400
1137,000000	56,885600
1136,000000	57,210400
1135,000000	57,558900
1134,000000	57,879000
1133,000000	58,178100
1132,000000	58,448900
1131,000000	58,709700
1130,000000	58,947600
1129,000000	59,187000
1128,000000	59,371800
1127,000000	59,515900
1126,000000	59,649300
1125,000000	59,749100
1124,000000	59,817400
1123,000000	59,891600
1122,000000	59,954800
1121,000000	59,991000
1120,000000	60,014500
1119,000000	60,032900
1118,000000	60,038500
1117,000000	60,060700
1116,000000	60,062000
1115,000000	60,054400
1114,000000	60,027700
1113,000000	60,027300
1112,000000	60,020900
1111,000000	60,005000
1110,000000	59,984100
1109,000000	59,965600
1108,000000	59,953700
1107,000000	59,940300
1106,000000	59,915300
1105,000000	59,891900
1104,000000	59,880400
1103,000000	59,877100
1102,000000	59,848900
1101,000000	59,837400
1100,000000	59,808400
1099,000000	59,783600
1098,000000	59,755000
1097,000000	59,720000
1096,000000	59,691500
1095,000000	59,689700
1094,000000	59,643100
1093,000000	59,602800
1092,000000	59,561900
1091,000000	59,537500
1090,000000	59,489000
1089,000000	59,448600
1088,000000	59,401200
1087,000000	59,342700
1086,000000	59,307000
1085,000000	59,247000
1084,000000	59,219400
1083,000000	59,158600
1082,000000	59,105100
1081,000000	59,046900
1080,000000	59,005300
1079,000000	58,952700
1078,000000	58,908300
1077,000000	58,848300
1076,000000	58,797200
1075,000000	58,753300
1074,000000	58,677800
1073,000000	58,605800
1072,000000	58,562500
1071,000000	58,503700
1070,000000	58,445100
1069,000000	58,378800
1068,000000	58,325000
1067,000000	58,255900
1066,000000	58,192200
1065,000000	58,137700
1064,000000	58,091800
1063,000000	58,024300
1062,000000	57,934800
1061,000000	57,897600
1060,000000	57,828000
1059,000000	57,746500
1058,000000	57,682300
1057,000000	57,616700
1056,000000	57,543200
1055,000000	57,484500
1054,000000	57,405100
1053,000000	57,342100
1052,000000	57,271400
1051,000000	57,187700
1050,000000	57,151100
1049,000000	57,076700
1048,000000	57,021400
1047,000000	56,964300
1046,000000	56,909200
1045,000000	56,849700
1044,000000	56,792500
1043,000000	56,745600
1042,000000	56,705500
1041,000000	56,646100
1040,000000	56,577400
1039,000000	56,513400
1038,000000	56,447700
1037,000000	56,417500
1036,000000	56,352500
1035,000000	56,289000
1034,000000	56,221900
1033,000000	56,166800
1032,000000	56,088700
1031,000000	56,014600
1030,000000	55,946300
1029,000000	55,871800
1028,000000	55,811600
1027,000000	55,732400
1026,000000	55,653400
1025,000000	55,571200
1024,000000	55,484300
1023,000000	55,416700
1022,000000	55,324300
1021,000000	55,236400
1020,000000	55,139800
1019,000000	55,066000
1018,000000	54,991900
1017,000000	54,910000
1016,000000	54,845700
1015,000000	54,752200
1014,000000	54,667300
1013,000000	54,624300
1012,000000	54,559100
1011,000000	54,500000
1010,000000	54,456600
1009,000000	54,412000
1008,000000	54,377100
1007,000000	54,317600
1006,000000	54,280800
1005,000000	54,259100
1004,000000	54,220500
1003,000000	54,179600
1002,000000	54,163700
1001,000000	54,135400
1000,000000	54,106300
999,000000	54,075100
998,000000	54,038800
997,000000	54,025100
996,000000	54,004700
995,000000	53,977100
994,000000	53,960500
993,000000	53,963300
992,000000	53,950400
991,000000	53,918000
990,000000	53,917900
989,000000	53,925900
988,000000	53,919800
987,000000	53,914700
986,000000	53,924300
985,000000	53,923000
984,000000	53,930400
983,000000	53,942400
982,000000	53,946800
981,000000	53,939400
980,000000	53,945700
979,000000	53,963100
978,000000	53,965400
977,000000	53,965800
976,000000	53,974200
975,000000	53,993200
974,000000	53,999300
973,000000	54,004200
972,000000	54,019100
971,000000	54,028200
970,000000	54,029700
969,000000	54,030100
968,000000	54,029200
967,000000	54,043500
966,000000	54,043800
965,000000	54,071500
964,000000	54,100800
963,000000	54,115300
962,000000	54,139800
961,000000	54,165100
960,000000	54,203300
959,000000	54,241000
958,000000	54,278300
957,000000	54,318900
956,000000	54,356100
955,000000	54,415000
954,000000	54,464500
953,000000	54,507800
952,000000	54,579100
951,000000	54,633800
950,000000	54,686600
949,000000	54,759700
948,000000	54,818500
947,000000	54,876300
946,000000	54,955300
945,000000	55,029200
944,000000	55,086800
943,000000	55,158700
942,000000	55,257600
941,000000	55,336900
940,000000	55,396500
939,000000	55,476800
938,000000	55,572300
937,000000	55,667800
936,000000	55,762600
935,000000	55,856500
934,000000	55,958000
933,000000	56,059900
932,000000	56,146900
931,000000	56,236300
930,000000	56,323400
929,000000	56,414900
928,000000	56,526900
927,000000	56,627400
926,000000	56,713800
925,000000	56,816200
924,000000	56,924900
923,000000	57,018200
922,000000	57,110700
921,000000	57,218200
920,000000	57,336700
919,000000	57,447600
918,000000	57,546900
917,000000	57,649300
916,000000	57,781000
915,000000	57,907400
914,000000	58,023300
913,000000	58,131700
912,000000	58,245300
911,000000	58,386600
910,000000	58,507700
909,000000	58,619400
908,000000	58,762400
907,000000	58,909700
906,000000	59,061400
905,000000	59,221200
904,000000	59,404200
903,000000	59,577100
902,000000	59,767500
901,000000	59,956800
900,000000	60,152500
899,000000	60,339500
898,000000	60,541900
897,000000	60,752000
896,000000	60,947200
895,000000	61,155200
894,000000	61,372600
893,000000	61,575700
892,000000	61,793800
891,000000	62,001000
890,000000	62,217700
889,000000	62,437800
888,000000	62,650000
887,000000	62,854900
886,000000	63,067500
885,000000	63,289400
884,000000	63,519000
883,000000	63,720200
882,000000	63,935800
881,000000	64,164100
880,000000	64,395700
879,000000	64,603300
878,000000	64,814400
877,000000	65,026800
876,000000	65,237700
875,000000	65,414200
874,000000	65,598100
873,000000	65,753700
872,000000	65,880200
871,000000	65,979500
870,000000	66,110100
869,000000	66,289900
868,000000	66,489500
867,000000	66,691100
866,000000	66,909200
865,000000	67,123700
864,000000	67,355800
863,000000	67,571700
862,000000	67,801500
861,000000	68,026000
860,000000	68,238400
859,000000	68,475800
858,000000	68,702400
857,000000	70,360100
856,000000	70,434200
855,000000	70,832000
854,000000	70,293300
853,000000	70,851600
852,000000	71,494300
851,000000	71,870400
850,000000	71,756100
849,000000	71,676100
848,000000	71,882700
847,000000	71,895500
846,000000	72,283800
845,000000	72,285000
844,000000	72,600500
843,000000	72,538400
842,000000	72,887400
841,000000	73,222200
840,000000	73,411500
839,000000	73,569200
838,000000	73,511200
837,000000	73,971800
836,000000	74,176100
835,000000	74,459400
834,000000	74,618000
833,000000	74,795300
832,000000	74,879200
831,000000	75,133100
830,000000	75,360300
829,000000	75,531800
828,000000	75,787900
827,000000	75,848300
826,000000	75,930800
825,000000	76,456300
824,000000	76,422900
823,000000	76,495800
822,000000	76,707400
821,000000	76,968700
820,000000	77,201100
819,000000	77,525600
818,000000	77,583400
817,000000	77,868500
816,000000	78,113200
815,000000	78,483400
814,000000	78,739200
813,000000	79,063400
812,000000	79,495900
811,000000	79,823400
810,000000	80,155100
809,000000	80,451300
808,000000	80,930700
807,000000	80,999000
806,000000	81,669400
805,000000	81,745700
804,000000	82,149900
803,000000	82,367500
802,000000	82,644900
801,000000	82,778700
800,000000	83,079400
799,000000	82,845300
798,000000	83,185700
797,000000	83,248300
796,000000	83,199500
795,000000	83,328500
794,000000	83,295900
793,000000	83,160500
792,000000	83,032300
791,000000	82,918900
790,000000	82,787000
789,000000	82,887200
788,000000	82,500500
787,000000	82,879400
786,000000	82,774400
785,000000	82,758900
784,000000	82,926400
783,000000	83,009400
782,000000	83,041100
781,000000	83,294200
780,000000	83,542500
779,000000	83,677000
778,000000	83,955700
777,000000	84,463900
776,000000	84,752700
775,000000	85,030600
774,000000	85,422500
773,000000	85,964200
772,000000	86,109600
771,000000	86,592800
770,000000	86,904200
769,000000	87,380900
768,000000	87,766200
767,000000	88,036900
766,000000	88,302200
765,000000	88,591900
764,000000	88,616400
763,000000	88,724000
762,000000	89,052300
761,000000	89,010200
760,000000	89,120400
759,000000	89,060400
758,000000	88,892000
757,000000	88,812800
756,000000	88,718200
755,000000	88,469400
754,000000	88,163500
753,000000	88,022100
752,000000	87,881900
751,000000	87,582000
750,000000	87,209800
749,000000	87,072600
748,000000	86,886900
747,000000	86,671300
746,000000	86,514500
745,000000	86,306800
744,000000	86,176900
743,000000	85,930800
742,000000	85,876400
741,000000	85,693300
740,000000	85,714500
739,000000	85,658900
738,000000	85,566800
737,000000	85,440300
736,000000	85,572500
735,000000	85,652900
734,000000	85,686800
733,000000	85,595400
732,000000	85,754400
731,000000	85,772800
730,000000	85,996000
729,000000	85,975800
728,000000	85,982700
727,000000	86,012500
726,000000	86,015500
725,000000	85,873500
724,000000	85,766700
723,000000	85,548900
722,000000	85,489700
721,000000	85,234600
720,000000	84,939400
719,000000	84,709500
718,000000	84,281600
717,000000	83,864300
716,000000	83,586700
715,000000	83,198500
714,000000	82,825700
713,000000	82,485000
712,000000	82,114900
711,000000	81,787700
710,000000	81,467100
709,000000	81,293900
708,000000	80,963800
707,000000	80,686700
706,000000	80,499400
705,000000	80,345700
704,000000	80,242200
703,000000	80,143400
702,000000	80,047900
701,000000	80,050600
700,000000	80,052500
699,000000	80,046900
698,000000	80,131400
697,000000	80,207200
696,000000	80,334300
695,000000	80,336400
694,000000	80,426800
693,000000	80,486300
692,000000	80,528000
691,000000	80,558900
690,000000	80,574900
689,000000	80,674100
688,000000	80,614500
687,000000	80,547500
686,000000	80,480900
685,000000	80,347100
684,000000	80,279200
683,000000	80,194500
682,000000	80,112600
681,000000	79,936200
680,000000	79,714500
679,000000	79,549300
678,000000	79,377700
677,000000	79,115900
676,000000	78,847800
675,000000	78,590300
674,000000	78,309800
673,000000	77,989300
672,000000	77,712700
671,000000	77,403600
670,000000	77,110700
669,000000	76,777700
668,000000	76,420300
667,000000	76,067700
666,000000	75,742500
665,000000	75,388900
664,000000	74,987100
663,000000	74,550000
662,000000	74,039800
661,000000	73,487400
660,000000	72,912500
659,000000	72,309900
658,000000	71,636400
657,000000	70,956200
656,000000	70,216400
655,000000	69,456100
654,000000	68,707400
653,000000	67,873200
652,000000	67,039100
651,000000	66,200800
650,000000	65,353700
649,000000	64,491800
648,000000	63,664700
647,000000	62,889800
646,000000	62,089000
645,000000	61,322300
644,000000	60,546400
643,000000	59,801300
642,000000	59,092500
641,000000	58,384300
640,000000	57,756300
639,000000	57,219000
638,000000	56,741600
637,000000	56,398100
636,000000	56,167200
635,000000	55,998500
634,000000	55,985900
633,000000	56,123500
632,000000	56,323500
631,000000	56,669500
630,000000	57,149400
629,000000	57,698500
628,000000	58,306100
627,000000	58,992800
626,000000	59,791400
625,000000	60,591900
624,000000	61,437200
623,000000	62,364300
622,000000	63,285800
621,000000	64,224100
620,000000	65,178900
619,000000	66,173000
618,000000	67,144000
617,000000	68,146200
616,000000	69,113900
615,000000	70,090200
614,000000	71,060700
613,000000	71,985800
612,000000	72,918000
611,000000	73,830200
610,000000	74,736200
609,000000	75,589700
608,000000	76,384100
607,000000	77,166600
606,000000	77,904700
605,000000	78,641000
604,000000	79,330200
603,000000	80,011100
602,000000	80,644700
601,000000	81,271100
600,000000	81,848900
599,000000	82,365800
598,000000	82,890100
597,000000	83,349000
596,000000	83,786800
595,000000	84,225800
594,000000	84,616400
593,000000	84,963000
592,000000	85,287100
591,000000	85,595600
590,000000	85,850400
589,000000	86,103200
588,000000	86,333700
587,000000	86,537000
586,000000	86,753900
585,000000	86,949400
584,000000	87,118600
583,000000	87,330300
582,000000	87,504500
581,000000	87,692500
580,000000	87,871900
579,000000	88,017900
578,000000	88,131400
577,000000	88,240200
576,000000	88,360800
575,000000	88,452700
574,000000	88,513000
573,000000	88,563100
572,000000	88,611300
571,000000	88,594500
570,000000	88,605400
569,000000	88,563900
568,000000	88,537500
567,000000	88,487400
566,000000	88,381700
565,000000	88,248200
564,000000	88,161100
563,000000	88,083600
562,000000	87,907000
561,000000	87,772400
560,000000	87,612100
559,000000	87,414200
558,000000	87,242100
557,000000	87,024000
556,000000	86,844800
555,000000	86,607400
554,000000	86,408900
553,000000	86,145300
552,000000	85,864600
551,000000	85,549900
550,000000	85,254300
549,000000	84,943700
548,000000	84,642100
547,000000	84,274100
546,000000	83,942400
545,000000	83,499100
544,000000	83,036600
543,000000	82,588000
542,000000	82,119400
541,000000	81,613800
540,000000	81,055100
539,000000	80,530700
538,000000	79,906500
537,000000	79,320900
536,000000	78,703500
535,000000	78,044300
534,000000	77,332800
533,000000	76,606000
532,000000	75,844400
531,000000	75,000100
530,000000	74,168700
529,000000	73,316000
528,000000	72,434400
527,000000	71,563900
526,000000	70,644400
525,000000	69,714700
524,000000	68,768100
523,000000	67,805800
522,000000	66,785200
521,000000	65,755000
520,000000	64,691200
519,000000	63,620900
518,000000	62,483200
517,000000	61,384400
516,000000	60,170000
515,000000	58,998700
514,000000	57,771600
513,000000	56,486400
512,000000	55,167600
511,000000	53,886900
510,000000	52,548300
509,000000	51,212200
508,000000	49,882500
507,000000	48,567800
506,000000	47,242600
505,000000	45,895900
504,000000	44,584300
503,000000	43,298800
502,000000	42,038300
501,000000	40,787600
500,000000	39,677300
499,000000	38,602100
498,000000	37,582800
497,000000	36,654900
496,000000	35,840000
495,000000	35,087800
494,000000	34,423000
493,000000	33,884100
492,000000	33,354600
491,000000	32,884700
490,000000	32,496600
489,000000	32,214300
488,000000	31,930600
487,000000	31,654900
486,000000	31,448500
485,000000	31,308300
484,000000	31,159400
483,000000	30,964200
482,000000	30,824800
481,000000	30,661400
480,000000	30,480800
479,000000	30,313800
478,000000	30,129300
477,000000	29,914100
476,000000	29,613800
475,000000	29,367800
474,000000	29,070100
473,000000	28,753600
472,000000	28,469800
471,000000	28,091900
470,000000	27,769200
469,000000	27,427100
468,000000	27,120100
467,000000	26,752500
466,000000	26,447700
465,000000	26,128800
464,000000	25,831400
463,000000	25,558400
462,000000	25,289500
461,000000	25,034100
460,000000	24,802200
459,000000	24,659700
458,000000	24,492900
457,000000	24,394900
456,000000	24,316900
455,000000	24,289600
454,000000	24,251200
453,000000	24,245400
452,000000	24,263800
451,000000	24,326400
450,000000	24,357800
449,000000	24,420800
448,000000	24,519600
447,000000	24,613300
446,000000	24,684000
445,000000	24,762400
444,000000	24,832900
443,000000	24,875900
442,000000	24,944600
441,000000	24,935900
440,000000	25,000600
439,000000	25,016900
438,000000	24,991900
437,000000	24,949500
436,000000	24,942200
435,000000	24,892100
434,000000	24,849800
433,000000	24,753900
432,000000	24,681200
431,000000	24,574400
430,000000	24,470200
429,000000	24,334700
428,000000	24,199800
427,000000	24,044200
426,000000	23,872100
425,000000	23,702000
424,000000	23,502100
423,000000	23,310100
422,000000	23,045800
421,000000	22,797500
420,000000	22,544600
419,000000	22,275700
418,000000	21,971300
417,000000	21,682500
416,000000	21,357900
415,000000	21,053800
414,000000	20,651300
413,000000	20,300300
412,000000	19,914700
411,000000	19,495700
410,000000	19,111900
409,000000	18,693800
408,000000	18,258700
407,000000	17,815200
406,000000	17,354500
405,000000	16,918900
404,000000	16,438600
403,000000	15,925200
402,000000	15,460000
401,000000	14,982600
400,000000	14,499400
399,000000	14,035700
398,000000	13,600900
397,000000	13,175000
396,000000	12,715300
395,000000	12,293700
394,000000	11,859700
393,000000	11,459000
392,000000	11,105200
391,000000	10,736400
390,000000	10,391300
389,000000	10,074100
388,000000	9,765100
387,000000	9,474800
386,000000	9,201300
385,000000	8,963400
384,000000	8,752700
383,000000	8,492700
382,000000	8,268200
381,000000	8,080300
380,000000	7,922900
379,000000	7,762300
378,000000	7,629800
377,000000	7,518100
376,000000	7,384100
375,000000	7,097400
374,000000	6,857400
373,000000	6,824800
372,000000	6,690300
371,000000	6,560600
370,000000	6,674300
369,000000	6,685300
368,000000	6,528200
367,000000	6,621700
366,000000	6,752500
365,000000	6,719600
364,000000	6,545900
363,000000	6,495300
362,000000	6,477500
361,000000	6,292900
360,000000	6,381300
359,000000	6,368300
358,000000	6,166800
357,000000	6,115200
356,000000	6,218600
355,000000	6,159900
354,000000	6,105200
353,000000	6,143700
352,000000	6,108900
351,000000	6,031900
350,000000	5,922400
349,000000	5,882800
348,000000	5,962000
347,000000	5,982900
346,000000	5,890500
345,000000	5,876700
344,000000	6,070500
343,000000	6,306900
342,000000	6,217200
341,000000	6,138300
340,000000	6,122200
339,000000	5,921300
338,000000	5,954300
337,000000	6,084000
336,000000	6,105600
335,000000	6,084100
334,000000	6,125100
333,000000	6,432100
332,000000	6,283500
331,000000	5,953900
330,000000	6,052400
329,000000	6,185200
328,000000	6,232200
327,000000	6,165700
326,000000	6,406400
325,000000	6,560900
324,000000	6,340900
323,000000	6,376600
322,000000	6,352700
321,000000	6,354600
320,000000	6,424100
319,000000	6,865200
318,000000	6,847900
317,000000	6,246800
316,000000	5,931900
315,000000	5,874200
314,000000	5,892200
313,000000	5,868800
312,000000	5,891600
311,000000	5,919700
310,000000	5,937500
309,000000	5,936800
308,000000	5,957400
307,000000	5,959800
306,000000	5,960300
305,000000	5,922500
304,000000	5,914500
303,000000	5,995800
302,000000	6,006300
301,000000	5,968300
300,000000	5,954300
299,000000	5,939500
298,000000	5,949800
297,000000	5,984800
296,000000	5,995800
295,000000	6,022800
294,000000	6,023700
293,000000	6,004500
292,000000	6,014700
291,000000	6,054100
290,000000	6,010300
289,000000	6,032000
288,000000	6,008100
287,000000	6,000100
286,000000	6,031600
285,000000	6,027200
284,000000	6,072500
283,000000	6,100600
282,000000	6,120200
281,000000	6,086800
280,000000	6,072600
279,000000	6,102100
278,000000	6,112500
277,000000	6,081200
276,000000	6,100300
275,000000	6,133400
274,000000	6,148900
273,000000	6,148600
272,000000	6,172400
271,000000	6,187800
270,000000	6,198700
269,000000	6,164900
268,000000	6,247100
267,000000	6,277500
266,000000	6,286700
265,000000	6,312100
264,000000	6,301200
263,000000	6,359500
262,000000	6,369400
261,000000	6,413100
260,000000	6,440800
259,000000	6,467300
258,000000	6,493800
257,000000	6,510100
256,000000	6,511300
255,000000	6,515900
254,000000	6,566600
253,000000	6,589300
252,000000	6,586000
251,000000	6,555700
250,000000	6,606700
