PE UV       SUBTECH     SPECTRUM    ASCII       PEDS        4.00        
   -1
CICIMAUCR0257-3.Sample.ASC
24/07/01
10:08:09.00
24/07/01
10:08:09.00
Vinicio Soto Monge
C. resplendens. Sex F. Dorsal.
250,000000
1
Lambda 1050
1050L1511233
PerkinElmer UV WinLab 6.3.2.0749 / 2.02.05 Lambda 900 UV/VIS/NIR, Aug  7 2015 09:38:08

0
0
3350/servo 860,8/2
0
0
UV/VIS
1
1
1
DoubleDePol,CommonBeamDepol,RBeamAtt,SBeamAtt,60mm sphere, WB InGaAs Detector
0
0
0
0
Program
Program
3350/servo 860,8/2
3350/0,2 860,8/0,2
3350/0,2 860,8/0,2
0
15.00
 
 
 
0
 
860,8
319,2
860,8
Front
100
on
S:100 R:100
0
0
0
0
 
0
 
 
 
0
 
 
0
0
0
0
0
 
 
 
 
0
0


0
0
#HDR
-1
-1
#GR
nm
%R
1.0
0.0
2500,000000
-1,000000
2251
8
90,810900
5,926100
#DATA
2500,000000	8,916700
2499,000000	8,875400
2498,000000	8,997000
2497,000000	8,926900
2496,000000	8,847300
2495,000000	8,788500
2494,000000	8,795100
2493,000000	8,776400
2492,000000	8,788900
2491,000000	8,734800
2490,000000	8,689600
2489,000000	8,681800
2488,000000	8,701800
2487,000000	8,674600
2486,000000	8,684800
2485,000000	8,592600
2484,000000	8,627300
2483,000000	8,677200
2482,000000	8,688300
2481,000000	8,657200
2480,000000	8,647400
2479,000000	8,656900
2478,000000	8,562800
2477,000000	8,644500
2476,000000	8,630700
2475,000000	8,646200
2474,000000	8,682400
2473,000000	8,649900
2472,000000	8,682100
2471,000000	8,670600
2470,000000	8,632500
2469,000000	8,683000
2468,000000	8,700500
2467,000000	8,690100
2466,000000	8,720700
2465,000000	8,707600
2464,000000	8,766200
2463,000000	8,805000
2462,000000	8,820900
2461,000000	8,866200
2460,000000	8,909700
2459,000000	8,939000
2458,000000	8,990600
2457,000000	9,032300
2456,000000	9,085000
2455,000000	9,156200
2454,000000	9,217000
2453,000000	9,293000
2452,000000	9,346800
2451,000000	9,420000
2450,000000	9,477000
2449,000000	9,550100
2448,000000	9,613600
2447,000000	9,696700
2446,000000	9,772800
2445,000000	9,842400
2444,000000	9,911400
2443,000000	9,997200
2442,000000	10,075500
2441,000000	10,118600
2440,000000	10,192000
2439,000000	10,272300
2438,000000	10,326100
2437,000000	10,395900
2436,000000	10,482300
2435,000000	10,532500
2434,000000	10,580600
2433,000000	10,632500
2432,000000	10,688400
2431,000000	10,765100
2430,000000	10,804900
2429,000000	10,850000
2428,000000	10,907400
2427,000000	10,966700
2426,000000	10,996900
2425,000000	11,041100
2424,000000	11,076400
2423,000000	11,109600
2422,000000	11,138800
2421,000000	11,174700
2420,000000	11,215000
2419,000000	11,251100
2418,000000	11,291000
2417,000000	11,318900
2416,000000	11,351200
2415,000000	11,363000
2414,000000	11,397600
2413,000000	11,432300
2412,000000	11,457300
2411,000000	11,491200
2410,000000	11,519800
2409,000000	11,532200
2408,000000	11,549600
2407,000000	11,583100
2406,000000	11,610400
2405,000000	11,630800
2404,000000	11,650500
2403,000000	11,675500
2402,000000	11,692800
2401,000000	11,715000
2400,000000	11,736600
2399,000000	11,772100
2398,000000	11,812900
2397,000000	11,837300
2396,000000	11,849100
2395,000000	11,865700
2394,000000	11,875000
2393,000000	11,887800
2392,000000	11,912800
2391,000000	11,931400
2390,000000	11,945800
2389,000000	11,964400
2388,000000	11,978100
2387,000000	11,984700
2386,000000	11,988400
2385,000000	11,979800
2384,000000	11,982300
2383,000000	11,970600
2382,000000	11,963400
2381,000000	11,954700
2380,000000	11,945800
2379,000000	11,944200
2378,000000	11,936600
2377,000000	11,924800
2376,000000	11,894800
2375,000000	11,872100
2374,000000	11,865600
2373,000000	11,832000
2372,000000	11,790400
2371,000000	11,772300
2370,000000	11,739300
2369,000000	11,703900
2368,000000	11,665400
2367,000000	11,624600
2366,000000	11,583300
2365,000000	11,533600
2364,000000	11,475300
2363,000000	11,416100
2362,000000	11,356700
2361,000000	11,305800
2360,000000	11,252300
2359,000000	11,198400
2358,000000	11,139900
2357,000000	11,092700
2356,000000	11,060500
2355,000000	11,008400
2354,000000	10,976800
2353,000000	10,967000
2352,000000	10,955700
2351,000000	10,945300
2350,000000	10,960400
2349,000000	10,990300
2348,000000	11,010500
2347,000000	11,037500
2346,000000	11,080700
2345,000000	11,126700
2344,000000	11,162800
2343,000000	11,194800
2342,000000	11,244400
2341,000000	11,283600
2340,000000	11,305100
2339,000000	11,341300
2338,000000	11,358000
2337,000000	11,364500
2336,000000	11,372400
2335,000000	11,377900
2334,000000	11,366900
2333,000000	11,342900
2332,000000	11,323100
2331,000000	11,292500
2330,000000	11,266000
2329,000000	11,214600
2328,000000	11,163600
2327,000000	11,115600
2326,000000	11,050300
2325,000000	10,994600
2324,000000	10,930300
2323,000000	10,842700
2322,000000	10,756000
2321,000000	10,650200
2320,000000	10,545900
2319,000000	10,437400
2318,000000	10,343400
2317,000000	10,233300
2316,000000	10,121500
2315,000000	10,002500
2314,000000	9,900800
2313,000000	9,814500
2312,000000	9,713900
2311,000000	9,632300
2310,000000	9,560400
2309,000000	9,509600
2308,000000	9,465200
2307,000000	9,435400
2306,000000	9,445800
2305,000000	9,450000
2304,000000	9,476400
2303,000000	9,517700
2302,000000	9,584000
2301,000000	9,639500
2300,000000	9,715300
2299,000000	9,797300
2298,000000	9,892900
2297,000000	9,982100
2296,000000	10,067000
2295,000000	10,171600
2294,000000	10,252000
2293,000000	10,307200
2292,000000	10,373600
2291,000000	10,413700
2290,000000	10,438800
2289,000000	10,465900
2288,000000	10,503400
2287,000000	10,510500
2286,000000	10,515300
2285,000000	10,515300
2284,000000	10,484800
2283,000000	10,472200
2282,000000	10,465500
2281,000000	10,419400
2280,000000	10,387600
2279,000000	10,368200
2278,000000	10,324600
2277,000000	10,297000
2276,000000	10,282400
2275,000000	10,247900
2274,000000	10,241400
2273,000000	10,261100
2272,000000	10,279400
2271,000000	10,270200
2270,000000	10,297900
2269,000000	10,352900
2268,000000	10,420800
2267,000000	10,488200
2266,000000	10,597800
2265,000000	10,713800
2264,000000	10,858400
2263,000000	11,000100
2262,000000	11,153600
2261,000000	11,336500
2260,000000	11,525700
2259,000000	11,774200
2258,000000	11,974500
2257,000000	12,202500
2256,000000	12,430500
2255,000000	12,683900
2254,000000	12,915200
2253,000000	13,130000
2252,000000	13,354100
2251,000000	13,550500
2250,000000	13,775500
2249,000000	13,951700
2248,000000	14,129500
2247,000000	14,311300
2246,000000	14,473700
2245,000000	14,628900
2244,000000	14,763900
2243,000000	14,887800
2242,000000	15,004800
2241,000000	15,113700
2240,000000	15,219600
2239,000000	15,307500
2238,000000	15,394900
2237,000000	15,470500
2236,000000	15,570400
2235,000000	15,623900
2234,000000	15,667600
2233,000000	15,742000
2232,000000	15,781400
2231,000000	15,814300
2230,000000	15,857900
2229,000000	15,880800
2228,000000	15,877400
2227,000000	15,886800
2226,000000	15,887000
2225,000000	15,859400
2224,000000	15,860200
2223,000000	15,886800
2222,000000	15,846900
2221,000000	15,814600
2220,000000	15,787100
2219,000000	15,755800
2218,000000	15,745600
2217,000000	15,708600
2216,000000	15,654500
2215,000000	15,624100
2214,000000	15,584200
2213,000000	15,555200
2212,000000	15,524900
2211,000000	15,493100
2210,000000	15,458200
2209,000000	15,437200
2208,000000	15,413400
2207,000000	15,375300
2206,000000	15,373500
2205,000000	15,366400
2204,000000	15,355500
2203,000000	15,326200
2202,000000	15,322200
2201,000000	15,311000
2200,000000	15,251700
2199,000000	15,255100
2198,000000	15,256800
2197,000000	15,259600
2196,000000	15,247900
2195,000000	15,230500
2194,000000	15,202100
2193,000000	15,187300
2192,000000	15,181900
2191,000000	15,174600
2190,000000	15,153800
2189,000000	15,139700
2188,000000	15,131400
2187,000000	15,124700
2186,000000	15,127700
2185,000000	15,102000
2184,000000	15,079000
2183,000000	15,064700
2182,000000	15,038300
2181,000000	15,048000
2180,000000	15,030400
2179,000000	14,995200
2178,000000	14,991900
2177,000000	14,999900
2176,000000	14,971300
2175,000000	14,975400
2174,000000	14,982700
2173,000000	14,988900
2172,000000	14,982400
2171,000000	14,998300
2170,000000	15,026900
2169,000000	15,018200
2168,000000	15,045500
2167,000000	15,060100
2166,000000	15,065600
2165,000000	15,105700
2164,000000	15,134700
2163,000000	15,174800
2162,000000	15,171500
2161,000000	15,222900
2160,000000	15,250900
2159,000000	15,297400
2158,000000	15,322500
2157,000000	15,361700
2156,000000	15,415000
2155,000000	15,471000
2154,000000	15,528100
2153,000000	15,571500
2152,000000	15,606000
2151,000000	15,640500
2150,000000	15,710900
2149,000000	15,780800
2148,000000	15,830400
2147,000000	15,881200
2146,000000	15,927800
2145,000000	15,971000
2144,000000	16,036400
2143,000000	16,084500
2142,000000	16,137300
2141,000000	16,194100
2140,000000	16,252200
2139,000000	16,291500
2138,000000	16,329900
2137,000000	16,376800
2136,000000	16,424700
2135,000000	16,458800
2134,000000	16,493700
2133,000000	16,536800
2132,000000	16,573600
2131,000000	16,606400
2130,000000	16,625900
2129,000000	16,651500
2128,000000	16,686000
2127,000000	16,700300
2126,000000	16,733100
2125,000000	16,754300
2124,000000	16,763800
2123,000000	16,768400
2122,000000	16,776600
2121,000000	16,777200
2120,000000	16,790800
2119,000000	16,791000
2118,000000	16,791200
2117,000000	16,790900
2116,000000	16,773200
2115,000000	16,764600
2114,000000	16,768300
2113,000000	16,763000
2112,000000	16,747100
2111,000000	16,736300
2110,000000	16,719700
2109,000000	16,722600
2108,000000	16,721200
2107,000000	16,708100
2106,000000	16,682700
2105,000000	16,661400
2104,000000	16,652800
2103,000000	16,646600
2102,000000	16,643000
2101,000000	16,625400
2100,000000	16,584500
2099,000000	16,585500
2098,000000	16,584200
2097,000000	16,566000
2096,000000	16,560800
2095,000000	16,557400
2094,000000	16,543000
2093,000000	16,536600
2092,000000	16,540400
2091,000000	16,521800
2090,000000	16,513200
2089,000000	16,519700
2088,000000	16,513300
2087,000000	16,521400
2086,000000	16,519100
2085,000000	16,493000
2084,000000	16,476700
2083,000000	16,476400
2082,000000	16,456700
2081,000000	16,441300
2080,000000	16,434600
2079,000000	16,407800
2078,000000	16,382300
2077,000000	16,356700
2076,000000	16,318200
2075,000000	16,288100
2074,000000	16,255700
2073,000000	16,206000
2072,000000	16,173900
2071,000000	16,146200
2070,000000	16,113100
2069,000000	16,074500
2068,000000	16,014600
2067,000000	15,955200
2066,000000	15,914200
2065,000000	15,876000
2064,000000	15,833200
2063,000000	15,785600
2062,000000	15,742900
2061,000000	15,703300
2060,000000	15,678700
2059,000000	15,656300
2058,000000	15,627900
2057,000000	15,607000
2056,000000	15,617100
2055,000000	15,622400
2054,000000	15,624100
2053,000000	15,654900
2052,000000	15,702500
2051,000000	15,758800
2050,000000	15,825100
2049,000000	15,916000
2048,000000	16,017500
2047,000000	16,093000
2046,000000	16,194700
2045,000000	16,327500
2044,000000	16,441300
2043,000000	16,557500
2042,000000	16,687000
2041,000000	16,826000
2040,000000	16,943300
2039,000000	17,076200
2038,000000	17,193300
2037,000000	17,304900
2036,000000	17,425100
2035,000000	17,524500
2034,000000	17,623600
2033,000000	17,725700
2032,000000	17,820300
2031,000000	17,914000
2030,000000	18,001100
2029,000000	18,067700
2028,000000	18,128700
2027,000000	18,207200
2026,000000	18,284600
2025,000000	18,336200
2024,000000	18,388600
2023,000000	18,439500
2022,000000	18,479100
2021,000000	18,554400
2020,000000	18,594000
2019,000000	18,638300
2018,000000	18,691000
2017,000000	18,707000
2016,000000	18,754100
2015,000000	18,779900
2014,000000	18,796500
2013,000000	18,811800
2012,000000	18,823900
2011,000000	18,837200
2010,000000	18,859600
2009,000000	18,862900
2008,000000	18,859700
2007,000000	18,859500
2006,000000	18,851000
2005,000000	18,837400
2004,000000	18,833100
2003,000000	18,819300
2002,000000	18,790900
2001,000000	18,769800
2000,000000	18,742400
1999,000000	18,698800
1998,000000	18,668700
1997,000000	18,632800
1996,000000	18,591200
1995,000000	18,553700
1994,000000	18,489600
1993,000000	18,442800
1992,000000	18,374600
1991,000000	18,318800
1990,000000	18,268300
1989,000000	18,209300
1988,000000	18,131900
1987,000000	18,065100
1986,000000	18,005600
1985,000000	17,935400
1984,000000	17,860300
1983,000000	17,802900
1982,000000	17,709500
1981,000000	17,630200
1980,000000	17,554400
1979,000000	17,495500
1978,000000	17,408200
1977,000000	17,338900
1976,000000	17,272800
1975,000000	17,192600
1974,000000	17,113000
1973,000000	17,054200
1972,000000	16,992700
1971,000000	16,937000
1970,000000	16,862500
1969,000000	16,777000
1968,000000	16,715300
1967,000000	16,641300
1966,000000	16,579100
1965,000000	16,507400
1964,000000	16,443400
1963,000000	16,399100
1962,000000	16,345200
1961,000000	16,271100
1960,000000	16,203500
1959,000000	16,139600
1958,000000	16,081100
1957,000000	16,005500
1956,000000	15,929900
1955,000000	15,886000
1954,000000	15,816800
1953,000000	15,755800
1952,000000	15,701000
1951,000000	15,660400
1950,000000	15,601600
1949,000000	15,547600
1948,000000	15,503600
1947,000000	15,440200
1946,000000	15,422900
1945,000000	15,379700
1944,000000	15,363700
1943,000000	15,317900
1942,000000	15,293600
1941,000000	15,262400
1940,000000	15,272300
1939,000000	15,253500
1938,000000	15,266200
1937,000000	15,289900
1936,000000	15,311100
1935,000000	15,342600
1934,000000	15,371700
1933,000000	15,403100
1932,000000	15,458900
1931,000000	15,490600
1930,000000	15,576300
1929,000000	15,637200
1928,000000	15,742800
1927,000000	15,836500
1926,000000	15,936000
1925,000000	16,049400
1924,000000	16,159700
1923,000000	16,257200
1922,000000	16,416200
1921,000000	16,585000
1920,000000	16,743700
1919,000000	16,902700
1918,000000	17,067000
1917,000000	17,252400
1916,000000	17,409600
1915,000000	17,550000
1914,000000	17,788700
1913,000000	18,032100
1912,000000	18,273300
1911,000000	18,506600
1910,000000	18,735600
1909,000000	18,921300
1908,000000	19,098100
1907,000000	19,337800
1906,000000	19,625000
1905,000000	19,947500
1904,000000	20,246200
1903,000000	20,524100
1902,000000	20,801200
1901,000000	21,051400
1900,000000	21,356100
1899,000000	21,703200
1898,000000	22,013300
1897,000000	22,339200
1896,000000	22,607400
1895,000000	22,853400
1894,000000	23,137400
1893,000000	23,434000
1892,000000	23,742700
1891,000000	24,108600
1890,000000	24,444300
1889,000000	24,741600
1888,000000	25,085800
1887,000000	25,394900
1886,000000	25,744200
1885,000000	26,103100
1884,000000	26,529800
1883,000000	26,945300
1882,000000	27,367400
1881,000000	27,795400
1880,000000	28,209900
1879,000000	28,583200
1878,000000	29,001500
1877,000000	29,374300
1876,000000	29,719500
1875,000000	30,058200
1874,000000	30,374700
1873,000000	30,690900
1872,000000	30,989900
1871,000000	31,244700
1870,000000	31,485700
1869,000000	31,686700
1868,000000	31,884500
1867,000000	32,005300
1866,000000	32,093300
1865,000000	32,187800
1864,000000	32,258700
1863,000000	32,327900
1862,000000	32,399700
1861,000000	32,484200
1860,000000	32,558600
1859,000000	32,611300
1858,000000	32,640800
1857,000000	32,656500
1856,000000	32,670200
1855,000000	32,667400
1854,000000	32,665100
1853,000000	32,654900
1852,000000	32,613000
1851,000000	32,582900
1850,000000	32,556100
1849,000000	32,538800
1848,000000	32,519700
1847,000000	32,487600
1846,000000	32,429600
1845,000000	32,332300
1844,000000	32,279200
1843,000000	32,249500
1842,000000	32,263100
1841,000000	32,274900
1840,000000	32,231300
1839,000000	32,184600
1838,000000	32,134000
1837,000000	32,092200
1836,000000	32,055000
1835,000000	31,990600
1834,000000	31,906300
1833,000000	31,824800
1832,000000	31,758400
1831,000000	31,701500
1830,000000	31,653700
1829,000000	31,591300
1828,000000	31,511900
1827,000000	31,427000
1826,000000	31,355200
1825,000000	31,303600
1824,000000	31,245300
1823,000000	31,199700
1822,000000	31,195700
1821,000000	31,216600
1820,000000	31,195500
1819,000000	31,152800
1818,000000	31,109200
1817,000000	31,076700
1816,000000	31,070800
1815,000000	31,080800
1814,000000	31,058900
1813,000000	31,051800
1812,000000	31,048000
1811,000000	31,019500
1810,000000	30,978400
1809,000000	30,937400
1808,000000	30,898500
1807,000000	30,866600
1806,000000	30,828700
1805,000000	30,775800
1804,000000	30,719200
1803,000000	30,682800
1802,000000	30,661100
1801,000000	30,622500
1800,000000	30,565100
1799,000000	30,504900
1798,000000	30,454100
1797,000000	30,408800
1796,000000	30,377000
1795,000000	30,345100
1794,000000	30,307000
1793,000000	30,254400
1792,000000	30,209800
1791,000000	30,177700
1790,000000	30,132700
1789,000000	30,079600
1788,000000	30,031900
1787,000000	29,977200
1786,000000	29,909000
1785,000000	29,846600
1784,000000	29,788100
1783,000000	29,725700
1782,000000	29,656100
1781,000000	29,585500
1780,000000	29,518000
1779,000000	29,447700
1778,000000	29,376500
1777,000000	29,284300
1776,000000	29,193300
1775,000000	29,087200
1774,000000	28,970300
1773,000000	28,867700
1772,000000	28,754200
1771,000000	28,636200
1770,000000	28,514900
1769,000000	28,385400
1768,000000	28,261000
1767,000000	28,141800
1766,000000	28,051900
1765,000000	27,977800
1764,000000	27,911200
1763,000000	27,884000
1762,000000	27,872700
1761,000000	27,901400
1760,000000	27,940000
1759,000000	27,985700
1758,000000	28,045500
1757,000000	28,104400
1756,000000	28,150000
1755,000000	28,195700
1754,000000	28,232700
1753,000000	28,256500
1752,000000	28,254700
1751,000000	28,241300
1750,000000	28,220900
1749,000000	28,190900
1748,000000	28,139900
1747,000000	28,064400
1746,000000	27,975600
1745,000000	27,864500
1744,000000	27,746400
1743,000000	27,584000
1742,000000	27,408400
1741,000000	27,216900
1740,000000	27,007100
1739,000000	26,792800
1738,000000	26,574400
1737,000000	26,396700
1736,000000	26,218300
1735,000000	26,078500
1734,000000	25,970000
1733,000000	25,920400
1732,000000	25,904000
1731,000000	25,925200
1730,000000	25,989200
1729,000000	26,083000
1728,000000	26,164100
1727,000000	26,250000
1726,000000	26,330300
1725,000000	26,395800
1724,000000	26,455200
1723,000000	26,505500
1722,000000	26,546700
1721,000000	26,589500
1720,000000	26,617900
1719,000000	26,651600
1718,000000	26,722700
1717,000000	26,801900
1716,000000	26,870100
1715,000000	26,971100
1714,000000	27,057000
1713,000000	27,155200
1712,000000	27,217500
1711,000000	27,265700
1710,000000	27,320100
1709,000000	27,345200
1708,000000	27,375000
1707,000000	27,369300
1706,000000	27,380200
1705,000000	27,359600
1704,000000	27,327400
1703,000000	27,287900
1702,000000	27,218400
1701,000000	27,151600
1700,000000	27,064000
1699,000000	26,946000
1698,000000	26,813300
1697,000000	26,734300
1696,000000	26,675300
1695,000000	26,636400
1694,000000	26,642300
1693,000000	26,737600
1692,000000	26,839800
1691,000000	26,964600
1690,000000	27,082600
1689,000000	27,186400
1688,000000	27,292000
1687,000000	27,363400
1686,000000	27,373700
1685,000000	27,421600
1684,000000	27,511600
1683,000000	27,667000
1682,000000	27,899200
1681,000000	28,227600
1680,000000	28,650800
1679,000000	29,110800
1678,000000	29,603000
1677,000000	30,033800
1676,000000	30,448700
1675,000000	30,808400
1674,000000	31,136400
1673,000000	31,420400
1672,000000	31,672800
1671,000000	31,865000
1670,000000	32,071000
1669,000000	32,255800
1668,000000	32,386600
1667,000000	32,510300
1666,000000	32,631200
1665,000000	32,728000
1664,000000	32,826800
1663,000000	32,914400
1662,000000	32,983100
1661,000000	33,047200
1660,000000	33,112600
1659,000000	33,168200
1658,000000	33,209600
1657,000000	33,248600
1656,000000	33,261300
1655,000000	33,285600
1654,000000	33,299600
1653,000000	33,300800
1652,000000	33,298400
1651,000000	33,279600
1650,000000	33,264900
1649,000000	33,246100
1648,000000	33,226500
1647,000000	33,182300
1646,000000	33,135300
1645,000000	33,127200
1644,000000	33,078600
1643,000000	33,032600
1642,000000	32,983600
1641,000000	32,953400
1640,000000	32,916400
1639,000000	32,852500
1638,000000	32,804900
1637,000000	32,756500
1636,000000	32,696600
1635,000000	32,645900
1634,000000	32,582000
1633,000000	32,524000
1632,000000	32,464500
1631,000000	32,405900
1630,000000	32,325000
1629,000000	32,263700
1628,000000	32,193700
1627,000000	32,118500
1626,000000	32,047100
1625,000000	31,976800
1624,000000	31,904600
1623,000000	31,841300
1622,000000	31,772800
1621,000000	31,697600
1620,000000	31,644100
1619,000000	31,575900
1618,000000	31,499100
1617,000000	31,445000
1616,000000	31,369600
1615,000000	31,304200
1614,000000	31,245600
1613,000000	31,179000
1612,000000	31,134200
1611,000000	31,068300
1610,000000	31,019100
1609,000000	30,958000
1608,000000	30,898800
1607,000000	30,824200
1606,000000	30,779200
1605,000000	30,706400
1604,000000	30,660500
1603,000000	30,590300
1602,000000	30,520300
1601,000000	30,443700
1600,000000	30,394100
1599,000000	30,337100
1598,000000	30,277000
1597,000000	30,211300
1596,000000	30,163000
1595,000000	30,121900
1594,000000	30,069300
1593,000000	30,017500
1592,000000	29,959600
1591,000000	29,909600
1590,000000	29,877000
1589,000000	29,828800
1588,000000	29,794400
1587,000000	29,769900
1586,000000	29,730000
1585,000000	29,693700
1584,000000	29,655700
1583,000000	29,634800
1582,000000	29,610000
1581,000000	29,583100
1580,000000	29,565100
1579,000000	29,536000
1578,000000	29,519900
1577,000000	29,513500
1576,000000	29,496100
1575,000000	29,481500
1574,000000	29,492900
1573,000000	29,496700
1572,000000	29,511400
1571,000000	29,526100
1570,000000	29,532600
1569,000000	29,536600
1568,000000	29,559300
1567,000000	29,585700
1566,000000	29,602300
1565,000000	29,613600
1564,000000	29,635600
1563,000000	29,653700
1562,000000	29,670400
1561,000000	29,692800
1560,000000	29,706000
1559,000000	29,710700
1558,000000	29,717900
1557,000000	29,710000
1556,000000	29,712000
1555,000000	29,718600
1554,000000	29,718600
1553,000000	29,695000
1552,000000	29,677200
1551,000000	29,659800
1550,000000	29,647000
1549,000000	29,619600
1548,000000	29,593600
1547,000000	29,568700
1546,000000	29,531700
1545,000000	29,519500
1544,000000	29,506900
1543,000000	29,483800
1542,000000	29,472300
1541,000000	29,465900
1540,000000	29,456900
1539,000000	29,433400
1538,000000	29,433900
1537,000000	29,438200
1536,000000	29,422000
1535,000000	29,414100
1534,000000	29,421100
1533,000000	29,405400
1532,000000	29,388800
1531,000000	29,393300
1530,000000	29,376700
1529,000000	29,348900
1528,000000	29,322200
1527,000000	29,301300
1526,000000	29,284000
1525,000000	29,266300
1524,000000	29,238200
1523,000000	29,217700
1522,000000	29,199300
1521,000000	29,180100
1520,000000	29,141100
1519,000000	29,101800
1518,000000	29,083300
1517,000000	29,058200
1516,000000	29,029600
1515,000000	28,997500
1514,000000	28,962700
1513,000000	28,921800
1512,000000	28,885500
1511,000000	28,852300
1510,000000	28,813000
1509,000000	28,786100
1508,000000	28,753000
1507,000000	28,710600
1506,000000	28,680500
1505,000000	28,652500
1504,000000	28,625800
1503,000000	28,592200
1502,000000	28,556500
1501,000000	28,526200
1500,000000	28,499000
1499,000000	28,481000
1498,000000	28,469900
1497,000000	28,441700
1496,000000	28,425200
1495,000000	28,420000
1494,000000	28,411300
1493,000000	28,407600
1492,000000	28,406300
1491,000000	28,407000
1490,000000	28,407600
1489,000000	28,397800
1488,000000	28,391100
1487,000000	28,390600
1486,000000	28,389200
1485,000000	28,395600
1484,000000	28,404100
1483,000000	28,409800
1482,000000	28,415100
1481,000000	28,433900
1480,000000	28,446100
1479,000000	28,468300
1478,000000	28,489000
1477,000000	28,511400
1476,000000	28,535000
1475,000000	28,562900
1474,000000	28,592600
1473,000000	28,624800
1472,000000	28,680700
1471,000000	28,714700
1470,000000	28,752200
1469,000000	28,795800
1468,000000	28,818100
1467,000000	28,846500
1466,000000	28,888700
1465,000000	28,938400
1464,000000	28,986000
1463,000000	29,036300
1462,000000	29,081800
1461,000000	29,148700
1460,000000	29,202100
1459,000000	29,268700
1458,000000	29,348400
1457,000000	29,421300
1456,000000	29,496300
1455,000000	29,587000
1454,000000	29,663800
1453,000000	29,746900
1452,000000	29,852400
1451,000000	29,948900
1450,000000	30,047500
1449,000000	30,138600
1448,000000	30,219500
1447,000000	30,326400
1446,000000	30,452400
1445,000000	30,558200
1444,000000	30,648400
1443,000000	30,744800
1442,000000	30,869300
1441,000000	30,992300
1440,000000	31,107100
1439,000000	31,228300
1438,000000	31,341600
1437,000000	31,453800
1436,000000	31,577700
1435,000000	31,700900
1434,000000	31,826800
1433,000000	31,950000
1432,000000	32,091600
1431,000000	32,217200
1430,000000	32,370900
1429,000000	32,520400
1428,000000	32,686800
1427,000000	32,861400
1426,000000	33,037700
1425,000000	33,218500
1424,000000	33,443100
1423,000000	33,656300
1422,000000	33,835200
1421,000000	34,038500
1420,000000	34,272700
1419,000000	34,535500
1418,000000	34,769900
1417,000000	34,958200
1416,000000	35,187700
1415,000000	35,425300
1414,000000	35,727400
1413,000000	35,942100
1412,000000	36,171300
1411,000000	36,400500
1410,000000	36,698800
1409,000000	37,061100
1408,000000	37,359000
1407,000000	37,739400
1406,000000	38,080000
1405,000000	38,440200
1404,000000	38,777500
1403,000000	39,165200
1402,000000	39,478000
1401,000000	39,848400
1400,000000	40,258000
1399,000000	40,547600
1398,000000	40,716400
1397,000000	40,963300
1396,000000	41,238100
1395,000000	41,515500
1394,000000	41,693900
1393,000000	41,832000
1392,000000	42,054500
1391,000000	42,240200
1390,000000	42,448400
1389,000000	42,642600
1388,000000	43,018000
1387,000000	43,298400
1386,000000	43,640300
1385,000000	43,982100
1384,000000	44,459500
1383,000000	44,874000
1382,000000	45,275100
1381,000000	45,597100
1380,000000	45,787100
1379,000000	45,953200
1378,000000	46,100400
1377,000000	46,198800
1376,000000	46,326400
1375,000000	46,478700
1374,000000	46,688400
1373,000000	46,953900
1372,000000	47,273000
1371,000000	47,598200
1370,000000	47,914400
1369,000000	48,177600
1368,000000	48,511300
1367,000000	48,762600
1366,000000	48,950300
1365,000000	49,157100
1364,000000	49,357400
1363,000000	49,472000
1362,000000	49,658400
1361,000000	49,789200
1360,000000	49,859700
1359,000000	49,880800
1358,000000	49,998000
1357,000000	50,101800
1356,000000	50,297800
1355,000000	50,584900
1354,000000	50,961900
1353,000000	51,330400
1352,000000	51,837600
1351,000000	52,292400
1350,000000	52,753300
1349,000000	53,175600
1348,000000	53,563000
1347,000000	53,916300
1346,000000	54,228700
1345,000000	54,552700
1344,000000	54,897900
1343,000000	55,171700
1342,000000	55,456900
1341,000000	55,738000
1340,000000	56,017100
1339,000000	56,266600
1338,000000	56,516700
1337,000000	56,761700
1336,000000	56,980900
1335,000000	57,214000
1334,000000	57,422000
1333,000000	57,645400
1332,000000	57,837000
1331,000000	58,031700
1330,000000	58,211400
1329,000000	58,383200
1328,000000	58,552200
1327,000000	58,706800
1326,000000	58,862500
1325,000000	59,003400
1324,000000	59,137900
1323,000000	59,263400
1322,000000	59,389200
1321,000000	59,504600
1320,000000	59,603200
1319,000000	59,718300
1318,000000	59,820200
1317,000000	59,904600
1316,000000	60,008100
1315,000000	60,123700
1314,000000	60,182200
1313,000000	60,264700
1312,000000	60,333900
1311,000000	60,407000
1310,000000	60,483700
1309,000000	60,536900
1308,000000	60,595300
1307,000000	60,655500
1306,000000	60,692100
1305,000000	60,729200
1304,000000	60,755500
1303,000000	60,782900
1302,000000	60,797300
1301,000000	60,820400
1300,000000	60,827400
1299,000000	60,829100
1298,000000	60,841900
1297,000000	60,850700
1296,000000	60,845400
1295,000000	60,849500
1294,000000	60,834700
1293,000000	60,817300
1292,000000	60,806000
1291,000000	60,789000
1290,000000	60,760600
1289,000000	60,730200
1288,000000	60,697000
1287,000000	60,629800
1286,000000	60,583300
1285,000000	60,536300
1284,000000	60,480400
1283,000000	60,418600
1282,000000	60,352100
1281,000000	60,298500
1280,000000	60,237300
1279,000000	60,174700
1278,000000	60,109100
1277,000000	60,049900
1276,000000	59,995500
1275,000000	59,955500
1274,000000	59,917900
1273,000000	59,858400
1272,000000	59,823500
1271,000000	59,785200
1270,000000	59,758400
1269,000000	59,712000
1268,000000	59,669100
1267,000000	59,633900
1266,000000	59,597800
1265,000000	59,560700
1264,000000	59,528800
1263,000000	59,486600
1262,000000	59,434700
1261,000000	59,394200
1260,000000	59,369000
1259,000000	59,323000
1258,000000	59,268400
1257,000000	59,211800
1256,000000	59,162400
1255,000000	59,122000
1254,000000	59,072100
1253,000000	59,008200
1252,000000	58,944000
1251,000000	58,881300
1250,000000	58,804300
1249,000000	58,723100
1248,000000	58,637500
1247,000000	58,542700
1246,000000	58,451200
1245,000000	58,347600
1244,000000	58,230800
1243,000000	58,102600
1242,000000	57,987100
1241,000000	57,848100
1240,000000	57,707900
1239,000000	57,574900
1238,000000	57,437100
1237,000000	57,295800
1236,000000	57,144200
1235,000000	56,993400
1234,000000	56,840100
1233,000000	56,688800
1232,000000	56,537600
1231,000000	56,375400
1230,000000	56,198600
1229,000000	56,025800
1228,000000	55,867600
1227,000000	55,689500
1226,000000	55,507900
1225,000000	55,330500
1224,000000	55,158500
1223,000000	54,990600
1222,000000	54,807700
1221,000000	54,634500
1220,000000	54,472200
1219,000000	54,310000
1218,000000	54,152200
1217,000000	54,001100
1216,000000	53,869700
1215,000000	53,744700
1214,000000	53,610900
1213,000000	53,477400
1212,000000	53,365800
1211,000000	53,261000
1210,000000	53,149700
1209,000000	53,054100
1208,000000	52,950900
1207,000000	52,864500
1206,000000	52,798900
1205,000000	52,741400
1204,000000	52,708900
1203,000000	52,664300
1202,000000	52,624100
1201,000000	52,594100
1200,000000	52,544200
1199,000000	52,494400
1198,000000	52,411300
1197,000000	52,286300
1196,000000	52,138700
1195,000000	51,963700
1194,000000	51,722400
1193,000000	51,417500
1192,000000	51,079700
1191,000000	50,688400
1190,000000	50,290000
1189,000000	49,939100
1188,000000	49,643700
1187,000000	49,425000
1186,000000	49,313600
1185,000000	49,318300
1184,000000	49,429800
1183,000000	49,658400
1182,000000	49,993800
1181,000000	50,408000
1180,000000	50,854300
1179,000000	51,290400
1178,000000	51,689100
1177,000000	52,056700
1176,000000	52,388100
1175,000000	52,690500
1174,000000	52,961400
1173,000000	53,223400
1172,000000	53,496400
1171,000000	53,802100
1170,000000	54,123200
1169,000000	54,436100
1168,000000	54,741100
1167,000000	55,064200
1166,000000	55,382000
1165,000000	55,720900
1164,000000	56,065600
1163,000000	56,394800
1162,000000	56,748200
1161,000000	57,085400
1160,000000	57,415000
1159,000000	57,732400
1158,000000	58,038500
1157,000000	58,328700
1156,000000	58,593900
1155,000000	58,814000
1154,000000	58,989200
1153,000000	59,127500
1152,000000	59,216600
1151,000000	59,260500
1150,000000	59,291100
1149,000000	59,313500
1148,000000	59,337000
1147,000000	59,376800
1146,000000	59,465800
1145,000000	59,591000
1144,000000	59,765200
1143,000000	59,996300
1142,000000	60,257200
1141,000000	60,545900
1140,000000	60,831100
1139,000000	61,153600
1138,000000	61,457100
1137,000000	61,789900
1136,000000	62,135800
1135,000000	62,476800
1134,000000	62,813800
1133,000000	63,103200
1132,000000	63,380200
1131,000000	63,609100
1130,000000	63,868400
1129,000000	64,099800
1128,000000	64,265300
1127,000000	64,401700
1126,000000	64,521400
1125,000000	64,618900
1124,000000	64,693600
1123,000000	64,774300
1122,000000	64,829800
1121,000000	64,862100
1120,000000	64,885200
1119,000000	64,918700
1118,000000	64,940900
1117,000000	64,948700
1116,000000	64,946100
1115,000000	64,952600
1114,000000	64,913000
1113,000000	64,928500
1112,000000	64,913000
1111,000000	64,904900
1110,000000	64,895500
1109,000000	64,883400
1108,000000	64,878100
1107,000000	64,855000
1106,000000	64,856900
1105,000000	64,838500
1104,000000	64,838200
1103,000000	64,812900
1102,000000	64,813100
1101,000000	64,784800
1100,000000	64,751000
1099,000000	64,732700
1098,000000	64,709000
1097,000000	64,698400
1096,000000	64,655400
1095,000000	64,611200
1094,000000	64,560000
1093,000000	64,528100
1092,000000	64,495200
1091,000000	64,438100
1090,000000	64,384400
1089,000000	64,322700
1088,000000	64,288900
1087,000000	64,226400
1086,000000	64,155600
1085,000000	64,089200
1084,000000	64,042400
1083,000000	63,968000
1082,000000	63,922800
1081,000000	63,835000
1080,000000	63,786100
1079,000000	63,690400
1078,000000	63,640400
1077,000000	63,572600
1076,000000	63,513200
1075,000000	63,464700
1074,000000	63,391900
1073,000000	63,331000
1072,000000	63,253100
1071,000000	63,186600
1070,000000	63,130400
1069,000000	63,067600
1068,000000	62,991900
1067,000000	62,929400
1066,000000	62,843000
1065,000000	62,788000
1064,000000	62,734000
1063,000000	62,678500
1062,000000	62,615900
1061,000000	62,550700
1060,000000	62,488700
1059,000000	62,403800
1058,000000	62,368900
1057,000000	62,301700
1056,000000	62,242700
1055,000000	62,154000
1054,000000	62,103900
1053,000000	62,061800
1052,000000	61,982600
1051,000000	61,936800
1050,000000	61,896300
1049,000000	61,834700
1048,000000	61,786400
1047,000000	61,735500
1046,000000	61,700800
1045,000000	61,639000
1044,000000	61,601300
1043,000000	61,559800
1042,000000	61,516600
1041,000000	61,470800
1040,000000	61,418900
1039,000000	61,383200
1038,000000	61,335400
1037,000000	61,266400
1036,000000	61,222300
1035,000000	61,167900
1034,000000	61,126100
1033,000000	61,067600
1032,000000	60,993000
1031,000000	60,926500
1030,000000	60,852000
1029,000000	60,779900
1028,000000	60,703000
1027,000000	60,629100
1026,000000	60,554400
1025,000000	60,472900
1024,000000	60,376300
1023,000000	60,288200
1022,000000	60,213700
1021,000000	60,135400
1020,000000	60,046100
1019,000000	59,964900
1018,000000	59,887300
1017,000000	59,799600
1016,000000	59,736100
1015,000000	59,662400
1014,000000	59,582000
1013,000000	59,524500
1012,000000	59,481300
1011,000000	59,450300
1010,000000	59,414600
1009,000000	59,373900
1008,000000	59,361300
1007,000000	59,332400
1006,000000	59,298300
1005,000000	59,271500
1004,000000	59,264700
1003,000000	59,239700
1002,000000	59,206600
1001,000000	59,176200
1000,000000	59,160700
999,000000	59,155000
998,000000	59,138100
997,000000	59,114300
996,000000	59,095100
995,000000	59,089800
994,000000	59,089000
993,000000	59,071500
992,000000	59,056800
991,000000	59,063200
990,000000	59,072300
989,000000	59,077700
988,000000	59,073200
987,000000	59,073700
986,000000	59,077900
985,000000	59,100200
984,000000	59,107200
983,000000	59,110900
982,000000	59,133100
981,000000	59,150000
980,000000	59,156700
979,000000	59,171300
978,000000	59,175500
977,000000	59,192800
976,000000	59,204300
975,000000	59,222000
974,000000	59,227000
973,000000	59,252900
972,000000	59,266500
971,000000	59,277300
970,000000	59,285300
969,000000	59,305200
968,000000	59,331500
967,000000	59,344500
966,000000	59,356000
965,000000	59,363300
964,000000	59,404500
963,000000	59,447100
962,000000	59,457900
961,000000	59,482300
960,000000	59,509600
959,000000	59,540600
958,000000	59,591500
957,000000	59,629100
956,000000	59,641800
955,000000	59,671500
954,000000	59,702000
953,000000	59,731700
952,000000	59,775500
951,000000	59,811400
950,000000	59,837000
949,000000	59,866300
948,000000	59,907700
947,000000	59,954100
946,000000	60,004500
945,000000	60,035800
944,000000	60,070700
943,000000	60,135700
942,000000	60,189500
941,000000	60,234700
940,000000	60,294800
939,000000	60,368200
938,000000	60,446600
937,000000	60,510800
936,000000	60,580900
935,000000	60,666800
934,000000	60,764200
933,000000	60,846000
932,000000	60,928300
931,000000	61,028800
930,000000	61,128600
929,000000	61,241600
928,000000	61,347000
927,000000	61,450800
926,000000	61,566500
925,000000	61,695800
924,000000	61,823900
923,000000	61,953100
922,000000	62,083100
921,000000	62,218000
920,000000	62,347900
919,000000	62,482800
918,000000	62,618600
917,000000	62,759600
916,000000	62,906000
915,000000	63,056100
914,000000	63,187400
913,000000	63,300700
912,000000	63,433600
911,000000	63,575500
910,000000	63,722800
909,000000	63,867600
908,000000	64,023000
907,000000	64,181300
906,000000	64,337000
905,000000	64,512900
904,000000	64,683300
903,000000	64,851700
902,000000	65,032800
901,000000	65,205400
900,000000	65,373100
899,000000	65,555600
898,000000	65,751600
897,000000	65,944100
896,000000	66,128900
895,000000	66,304900
894,000000	66,486800
893,000000	66,659300
892,000000	66,833200
891,000000	66,989600
890,000000	67,168800
889,000000	67,342300
888,000000	67,527100
887,000000	67,702100
886,000000	67,888700
885,000000	68,050000
884,000000	68,222700
883,000000	68,389600
882,000000	68,573400
881,000000	68,717200
880,000000	68,878100
879,000000	69,043200
878,000000	69,183600
877,000000	69,294500
876,000000	69,434600
875,000000	69,526000
874,000000	69,598900
873,000000	69,632300
872,000000	69,645900
871,000000	69,745900
870,000000	69,961400
869,000000	70,197300
868,000000	70,475400
867,000000	70,751000
866,000000	70,991200
865,000000	71,240800
864,000000	71,500300
863,000000	71,760500
862,000000	72,010300
861,000000	72,252000
860,000000	72,500200
859,000000	72,775700
858,000000	73,028700
857,000000	75,674100
856,000000	76,275600
855,000000	76,319000
854,000000	76,663200
853,000000	77,319800
852,000000	77,017000
851,000000	77,456300
850,000000	77,798000
849,000000	77,620200
848,000000	78,081800
847,000000	78,895400
846,000000	79,014500
845,000000	79,483600
844,000000	79,354400
843,000000	80,152600
842,000000	80,194300
841,000000	80,423400
840,000000	81,004000
839,000000	81,007600
838,000000	81,272800
837,000000	81,521900
836,000000	81,800800
835,000000	82,192100
834,000000	82,912500
833,000000	82,859800
832,000000	82,946600
831,000000	83,319700
830,000000	83,520000
829,000000	83,620200
828,000000	83,935900
827,000000	84,053300
826,000000	84,163400
825,000000	84,240200
824,000000	84,403100
823,000000	84,324500
822,000000	84,637300
821,000000	84,454800
820,000000	84,895200
819,000000	84,635000
818,000000	84,523600
817,000000	84,910700
816,000000	84,883200
815,000000	85,071000
814,000000	84,990500
813,000000	85,302800
812,000000	85,436700
811,000000	85,608500
810,000000	85,687600
809,000000	86,002900
808,000000	85,952500
807,000000	86,121700
806,000000	86,357500
805,000000	86,552000
804,000000	86,805100
803,000000	87,134300
802,000000	87,370200
801,000000	87,415700
800,000000	87,826600
799,000000	88,146600
798,000000	88,294900
797,000000	88,584400
796,000000	88,840800
795,000000	88,951400
794,000000	89,120100
793,000000	89,349400
792,000000	89,642800
791,000000	89,396600
790,000000	89,525900
789,000000	89,778900
788,000000	89,910400
787,000000	89,740100
786,000000	89,871300
785,000000	89,809200
784,000000	89,754500
783,000000	89,830800
782,000000	89,734600
781,000000	89,488400
780,000000	89,631400
779,000000	89,356600
778,000000	89,389600
777,000000	89,324400
776,000000	89,117200
775,000000	88,865300
774,000000	88,800400
773,000000	88,661500
772,000000	88,558800
771,000000	88,352300
770,000000	88,112100
769,000000	88,094800
768,000000	87,978600
767,000000	87,814500
766,000000	87,738000
765,000000	87,577900
764,000000	87,677600
763,000000	87,777800
762,000000	87,622100
761,000000	87,513400
760,000000	87,511300
759,000000	87,309800
758,000000	87,469000
757,000000	87,407000
756,000000	87,393000
755,000000	87,409000
754,000000	87,294300
753,000000	87,270600
752,000000	87,182800
751,000000	86,927300
750,000000	86,932100
749,000000	86,949700
748,000000	86,735200
747,000000	86,598500
746,000000	86,422900
745,000000	86,320400
744,000000	86,080400
743,000000	85,807900
742,000000	85,633700
741,000000	85,346100
740,000000	85,142500
739,000000	84,899700
738,000000	84,649700
737,000000	84,343500
736,000000	84,108200
735,000000	83,895200
734,000000	83,643300
733,000000	83,428200
732,000000	83,197300
731,000000	83,038200
730,000000	82,895400
729,000000	82,628400
728,000000	82,497000
727,000000	82,400400
726,000000	82,292800
725,000000	82,157800
724,000000	82,194000
723,000000	82,127400
722,000000	82,065000
721,000000	82,021400
720,000000	81,976900
719,000000	81,975400
718,000000	81,906500
717,000000	81,887300
716,000000	81,805800
715,000000	81,733700
714,000000	81,679300
713,000000	81,689900
712,000000	81,607500
711,000000	81,541800
710,000000	81,482500
709,000000	81,354800
708,000000	81,191300
707,000000	81,027000
706,000000	80,854400
705,000000	80,672600
704,000000	80,562100
703,000000	80,406900
702,000000	80,222000
701,000000	80,025100
700,000000	79,829900
699,000000	79,696800
698,000000	79,451200
697,000000	79,235300
696,000000	79,049200
695,000000	78,857500
694,000000	78,553500
693,000000	78,309300
692,000000	78,046200
691,000000	77,794200
690,000000	77,422600
689,000000	77,041900
688,000000	76,633000
687,000000	76,272700
686,000000	75,867000
685,000000	75,401000
684,000000	74,929300
683,000000	74,443400
682,000000	73,922900
681,000000	73,375800
680,000000	72,903800
679,000000	72,387900
678,000000	71,835100
677,000000	71,317700
676,000000	70,716000
675,000000	70,106200
674,000000	69,441300
673,000000	68,713700
672,000000	68,043200
671,000000	67,324900
670,000000	66,530400
669,000000	65,760100
668,000000	64,928900
667,000000	64,144000
666,000000	63,328100
665,000000	62,477300
664,000000	61,684300
663,000000	60,872100
662,000000	60,088100
661,000000	59,403700
660,000000	58,776000
659,000000	58,204000
658,000000	57,699800
657,000000	57,278800
656,000000	56,927600
655,000000	56,640800
654,000000	56,447100
653,000000	56,332500
652,000000	56,316700
651,000000	56,350000
650,000000	56,468200
649,000000	56,696100
648,000000	57,002100
647,000000	57,352400
646,000000	57,792100
645,000000	58,313200
644,000000	58,933900
643,000000	59,614700
642,000000	60,338200
641,000000	61,129400
640,000000	61,949700
639,000000	62,829600
638,000000	63,745800
637,000000	64,695000
636,000000	65,662900
635,000000	66,641400
634,000000	67,614100
633,000000	68,561700
632,000000	69,496300
631,000000	70,424200
630,000000	71,303400
629,000000	72,152300
628,000000	72,984600
627,000000	73,749300
626,000000	74,514400
625,000000	75,281900
624,000000	76,059800
623,000000	76,833200
622,000000	77,554400
621,000000	78,253800
620,000000	78,941200
619,000000	79,578700
618,000000	80,225500
617,000000	80,864500
616,000000	81,409900
615,000000	81,978700
614,000000	82,504600
613,000000	82,959300
612,000000	83,434000
611,000000	83,924300
610,000000	84,353600
609,000000	84,811400
608,000000	85,228500
607,000000	85,604900
606,000000	86,004100
605,000000	86,384600
604,000000	86,749200
603,000000	87,090600
602,000000	87,459700
601,000000	87,788200
600,000000	88,094200
599,000000	88,413700
598,000000	88,672300
597,000000	88,953800
596,000000	89,201500
595,000000	89,386200
594,000000	89,617000
593,000000	89,759000
592,000000	89,944400
591,000000	90,128800
590,000000	90,287600
589,000000	90,384400
588,000000	90,505100
587,000000	90,616300
586,000000	90,647500
585,000000	90,702200
584,000000	90,778900
583,000000	90,810900
582,000000	90,753700
581,000000	90,740000
580,000000	90,753300
579,000000	90,684900
578,000000	90,649000
577,000000	90,541200
576,000000	90,469900
575,000000	90,409400
574,000000	90,292700
573,000000	90,209600
572,000000	90,063300
571,000000	89,921200
570,000000	89,768000
569,000000	89,595200
568,000000	89,410600
567,000000	89,221400
566,000000	88,966800
565,000000	88,698600
564,000000	88,464500
563,000000	88,176700
562,000000	87,849900
561,000000	87,483300
560,000000	87,133200
559,000000	86,726000
558,000000	86,328800
557,000000	85,957400
556,000000	85,524800
555,000000	85,130000
554,000000	84,696500
553,000000	84,182600
552,000000	83,736200
551,000000	83,233500
550,000000	82,738100
549,000000	82,218600
548,000000	81,680400
547,000000	81,093300
546,000000	80,487600
545,000000	79,888800
544,000000	79,176500
543,000000	78,491700
542,000000	77,712300
541,000000	76,842500
540,000000	75,978600
539,000000	75,025600
538,000000	74,035800
537,000000	73,060000
536,000000	71,972600
535,000000	70,794700
534,000000	69,618200
533,000000	68,362700
532,000000	67,038800
531,000000	65,662600
530,000000	64,278400
529,000000	62,858600
528,000000	61,426100
527,000000	60,004400
526,000000	58,540000
525,000000	57,091200
524,000000	55,637700
523,000000	54,218000
522,000000	52,812200
521,000000	51,485700
520,000000	50,205000
519,000000	48,994100
518,000000	47,839200
517,000000	46,793100
516,000000	45,842000
515,000000	44,928600
514,000000	44,142400
513,000000	43,407000
512,000000	42,744200
511,000000	42,182800
510,000000	41,611500
509,000000	41,156600
508,000000	40,703900
507,000000	40,286300
506,000000	39,890500
505,000000	39,534100
504,000000	39,135400
503,000000	38,751600
502,000000	38,348300
501,000000	37,895700
500,000000	37,465300
499,000000	36,970800
498,000000	36,471800
497,000000	35,927500
496,000000	35,349300
495,000000	34,762500
494,000000	34,140600
493,000000	33,540500
492,000000	32,808200
491,000000	32,159300
490,000000	31,543900
489,000000	30,927600
488,000000	30,375200
487,000000	29,860900
486,000000	29,412500
485,000000	29,013900
484,000000	28,715000
483,000000	28,485800
482,000000	28,264600
481,000000	28,171200
480,000000	28,112500
479,000000	28,131200
478,000000	28,160400
477,000000	28,237600
476,000000	28,380000
475,000000	28,510500
474,000000	28,673500
473,000000	28,892100
472,000000	29,062700
471,000000	29,235700
470,000000	29,416400
469,000000	29,609300
468,000000	29,756000
467,000000	29,863700
466,000000	30,006800
465,000000	30,054400
464,000000	30,145000
463,000000	30,221200
462,000000	30,256500
461,000000	30,278700
460,000000	30,269700
459,000000	30,170900
458,000000	30,154700
457,000000	30,119900
456,000000	30,013800
455,000000	29,934000
454,000000	29,844400
453,000000	29,711200
452,000000	29,549000
451,000000	29,418400
450,000000	29,284700
449,000000	29,110300
448,000000	28,953500
447,000000	28,711500
446,000000	28,492100
445,000000	28,309300
444,000000	28,055600
443,000000	27,800700
442,000000	27,545500
441,000000	27,287800
440,000000	26,971900
439,000000	26,688700
438,000000	26,358000
437,000000	26,055600
436,000000	25,745700
435,000000	25,386000
434,000000	25,037800
433,000000	24,659500
432,000000	24,249600
431,000000	23,836900
430,000000	23,428600
429,000000	23,030700
428,000000	22,585200
427,000000	22,108800
426,000000	21,636900
425,000000	21,213000
424,000000	20,708200
423,000000	20,188600
422,000000	19,645700
421,000000	19,128500
420,000000	18,577000
419,000000	18,020000
418,000000	17,486700
417,000000	16,939300
416,000000	16,422000
415,000000	15,881300
414,000000	15,355900
413,000000	14,839000
412,000000	14,327400
411,000000	13,841900
410,000000	13,364800
409,000000	12,906400
408,000000	12,497800
407,000000	12,092100
406,000000	11,724300
405,000000	11,369900
404,000000	11,008400
403,000000	10,683700
402,000000	10,384900
401,000000	10,118600
400,000000	9,843400
399,000000	9,632400
398,000000	9,414200
397,000000	9,197700
396,000000	9,013700
395,000000	8,844000
394,000000	8,705000
393,000000	8,558000
392,000000	8,425000
391,000000	8,307300
390,000000	8,181100
389,000000	8,064600
388,000000	7,972000
387,000000	7,875900
386,000000	7,789900
385,000000	7,718700
384,000000	7,627500
383,000000	7,557000
382,000000	7,512700
381,000000	7,441200
380,000000	7,367700
379,000000	7,310100
378,000000	7,293400
377,000000	7,224800
376,000000	7,147400
375,000000	7,116900
374,000000	7,096800
373,000000	7,023300
372,000000	6,942700
371,000000	6,980100
370,000000	6,798900
369,000000	6,683800
368,000000	6,874700
367,000000	6,910600
366,000000	6,817100
365,000000	6,749900
364,000000	6,799100
363,000000	6,771900
362,000000	6,735500
361,000000	6,746300
360,000000	6,731700
359,000000	6,631900
358,000000	6,599900
357,000000	6,529900
356,000000	6,533400
355,000000	6,475700
354,000000	6,413900
353,000000	6,447800
352,000000	6,429800
351,000000	6,293400
350,000000	6,237500
349,000000	6,293200
348,000000	6,242000
347,000000	6,263500
346,000000	6,346700
345,000000	6,289500
344,000000	6,276800
343,000000	6,425000
342,000000	6,301900
341,000000	6,066700
340,000000	6,155000
339,000000	6,256300
338,000000	6,239300
337,000000	6,098700
336,000000	6,035200
335,000000	6,234900
334,000000	6,215100
333,000000	5,980100
332,000000	6,034200
331,000000	5,992000
330,000000	6,073800
329,000000	6,212900
328,000000	6,128900
327,000000	6,053400
326,000000	5,930700
325,000000	5,982000
324,000000	6,156100
323,000000	6,197200
322,000000	6,229000
321,000000	5,942300
320,000000	5,926100
319,000000	6,164000
318,000000	6,386400
317,000000	6,346400
316,000000	6,063000
315,000000	5,953300
314,000000	5,978100
313,000000	5,960200
312,000000	5,976000
311,000000	5,969600
310,000000	5,944700
309,000000	5,974100
308,000000	5,973400
307,000000	5,957900
306,000000	6,016800
305,000000	6,009800
304,000000	5,961800
303,000000	5,971000
302,000000	6,030500
301,000000	6,012500
300,000000	5,985400
299,000000	5,965500
298,000000	5,968900
297,000000	5,996300
296,000000	6,020800
295,000000	6,053200
294,000000	6,028500
293,000000	5,974500
292,000000	5,968000
291,000000	6,028800
290,000000	6,044700
289,000000	6,032900
288,000000	6,012000
287,000000	6,000900
286,000000	6,067600
285,000000	6,054000
284,000000	6,027900
283,000000	6,059600
282,000000	6,067000
281,000000	6,047400
280,000000	6,065900
279,000000	6,078300
278,000000	6,071800
277,000000	6,048800
276,000000	6,084500
275,000000	6,118200
274,000000	6,127000
273,000000	6,142300
272,000000	6,125600
271,000000	6,139500
270,000000	6,188300
269,000000	6,194600
268,000000	6,208800
267,000000	6,253100
266,000000	6,247500
265,000000	6,238400
264,000000	6,280000
263,000000	6,297000
262,000000	6,362600
261,000000	6,368700
260,000000	6,371800
259,000000	6,420200
258,000000	6,418400
257,000000	6,419000
256,000000	6,476000
255,000000	6,474700
254,000000	6,446600
253,000000	6,487600
252,000000	6,513800
251,000000	6,525900
250,000000	6,556800
