PE UV       SUBTECH     SPECTRUM    ASCII       PEDS        4.00        
   -1
CICIMAUCR0252-3.ASC
24/06/26
10:58:31.00
24/06/26
10:58:31.00
Vinicio Soto Monge
C. resplendens. Sex F.Dorsal.
250,000000
1
Lambda 1050
1050L1511233
PerkinElmer UV WinLab 6.3.2.0749 / 2.02.05 Lambda 900 UV/VIS/NIR, Aug  7 2015 09:38:08

0
0
3350/servo 860,8/2
0
0
UV/VIS
1
1
1
DoubleDePol,CommonBeamDepol,RBeamAtt,SBeamAtt,60mm sphere, WB InGaAs Detector
0
0
0
0
Program
Program
3350/servo 860,8/2
3350/0,2 860,8/0,2
3350/0,2 860,8/0,2
0
15.00
 
 
 
0
 
860,8
319,2
860,8
Front
100
on
S:100 R:100
0
0
0
0
 
0
 
 
 
0
 
 
0
0
0
0
0
 
 
 
 
0
0


0
0
#HDR
-1
-1
#GR
nm
%R
1.0
0.0
2500,000000
-1,000000
2251
8
89,717500
5,501300
#DATA
2500,000000	8,058200
2499,000000	7,815800
2498,000000	7,907200
2497,000000	7,994100
2496,000000	8,017000
2495,000000	7,891900
2494,000000	7,862600
2493,000000	7,814300
2492,000000	7,836500
2491,000000	7,830800
2490,000000	7,836300
2489,000000	7,846900
2488,000000	7,719700
2487,000000	7,789100
2486,000000	7,766200
2485,000000	7,831500
2484,000000	7,771700
2483,000000	7,747700
2482,000000	7,793500
2481,000000	7,837300
2480,000000	7,772500
2479,000000	7,779000
2478,000000	7,798300
2477,000000	7,812800
2476,000000	7,804700
2475,000000	7,770000
2474,000000	7,781600
2473,000000	7,806300
2472,000000	7,867100
2471,000000	7,863400
2470,000000	7,801700
2469,000000	7,863500
2468,000000	7,859400
2467,000000	7,895900
2466,000000	7,910500
2465,000000	7,947500
2464,000000	7,968600
2463,000000	7,993900
2462,000000	8,005600
2461,000000	8,053400
2460,000000	8,068100
2459,000000	8,111600
2458,000000	8,144400
2457,000000	8,163700
2456,000000	8,268000
2455,000000	8,279700
2454,000000	8,330100
2453,000000	8,357600
2452,000000	8,404600
2451,000000	8,484300
2450,000000	8,552900
2449,000000	8,596300
2448,000000	8,650400
2447,000000	8,713500
2446,000000	8,766700
2445,000000	8,839200
2444,000000	8,877400
2443,000000	8,936800
2442,000000	9,018900
2441,000000	9,060800
2440,000000	9,136200
2439,000000	9,190900
2438,000000	9,244400
2437,000000	9,302600
2436,000000	9,384100
2435,000000	9,436200
2434,000000	9,493800
2433,000000	9,521400
2432,000000	9,580200
2431,000000	9,641000
2430,000000	9,684700
2429,000000	9,740900
2428,000000	9,794000
2427,000000	9,834400
2426,000000	9,890600
2425,000000	9,940400
2424,000000	9,979600
2423,000000	10,026600
2422,000000	10,085800
2421,000000	10,121200
2420,000000	10,171000
2419,000000	10,203100
2418,000000	10,236600
2417,000000	10,277800
2416,000000	10,317900
2415,000000	10,366700
2414,000000	10,384700
2413,000000	10,416400
2412,000000	10,462200
2411,000000	10,490700
2410,000000	10,514900
2409,000000	10,541400
2408,000000	10,570900
2407,000000	10,619800
2406,000000	10,650500
2405,000000	10,675100
2404,000000	10,711900
2403,000000	10,731900
2402,000000	10,758100
2401,000000	10,788700
2400,000000	10,801200
2399,000000	10,810400
2398,000000	10,828100
2397,000000	10,851100
2396,000000	10,872800
2395,000000	10,884700
2394,000000	10,910100
2393,000000	10,942900
2392,000000	10,958400
2391,000000	10,981500
2390,000000	10,998400
2389,000000	11,012500
2388,000000	11,014300
2387,000000	11,038300
2386,000000	11,061000
2385,000000	11,070600
2384,000000	11,076300
2383,000000	11,094300
2382,000000	11,102200
2381,000000	11,103600
2380,000000	11,104900
2379,000000	11,088300
2378,000000	11,074900
2377,000000	11,085100
2376,000000	11,084000
2375,000000	11,077200
2374,000000	11,082000
2373,000000	11,071900
2372,000000	11,050800
2371,000000	11,042500
2370,000000	11,048300
2369,000000	11,032000
2368,000000	11,023500
2367,000000	11,021600
2366,000000	11,001600
2365,000000	10,979600
2364,000000	10,952600
2363,000000	10,937000
2362,000000	10,915600
2361,000000	10,882500
2360,000000	10,853700
2359,000000	10,830800
2358,000000	10,808800
2357,000000	10,784600
2356,000000	10,759400
2355,000000	10,754700
2354,000000	10,737100
2353,000000	10,706100
2352,000000	10,703800
2351,000000	10,700900
2350,000000	10,700400
2349,000000	10,716300
2348,000000	10,725200
2347,000000	10,734700
2346,000000	10,750900
2345,000000	10,772100
2344,000000	10,799200
2343,000000	10,816800
2342,000000	10,851300
2341,000000	10,864100
2340,000000	10,880500
2339,000000	10,919000
2338,000000	10,956700
2337,000000	10,967600
2336,000000	10,972400
2335,000000	10,995700
2334,000000	11,007000
2333,000000	11,000100
2332,000000	10,996600
2331,000000	10,985500
2330,000000	10,978000
2329,000000	10,966100
2328,000000	10,945800
2327,000000	10,935200
2326,000000	10,927300
2325,000000	10,901900
2324,000000	10,854200
2323,000000	10,815100
2322,000000	10,783600
2321,000000	10,720700
2320,000000	10,668800
2319,000000	10,616700
2318,000000	10,550400
2317,000000	10,481400
2316,000000	10,406600
2315,000000	10,353100
2314,000000	10,273700
2313,000000	10,201300
2312,000000	10,138500
2311,000000	10,076600
2310,000000	10,026100
2309,000000	9,980100
2308,000000	9,956400
2307,000000	9,911100
2306,000000	9,892200
2305,000000	9,894300
2304,000000	9,883200
2303,000000	9,884700
2302,000000	9,916900
2301,000000	9,931800
2300,000000	9,972300
2299,000000	10,007300
2298,000000	10,075700
2297,000000	10,112700
2296,000000	10,184200
2295,000000	10,240400
2294,000000	10,299400
2293,000000	10,354300
2292,000000	10,392000
2291,000000	10,447200
2290,000000	10,495300
2289,000000	10,533400
2288,000000	10,567900
2287,000000	10,592000
2286,000000	10,606500
2285,000000	10,624500
2284,000000	10,635500
2283,000000	10,636700
2282,000000	10,635600
2281,000000	10,617000
2280,000000	10,593300
2279,000000	10,595800
2278,000000	10,579500
2277,000000	10,538100
2276,000000	10,528300
2275,000000	10,540900
2274,000000	10,509400
2273,000000	10,495100
2272,000000	10,477500
2271,000000	10,477600
2270,000000	10,498000
2269,000000	10,512100
2268,000000	10,537400
2267,000000	10,605900
2266,000000	10,657700
2265,000000	10,712300
2264,000000	10,791100
2263,000000	10,901900
2262,000000	11,021600
2261,000000	11,139600
2260,000000	11,281900
2259,000000	11,410400
2258,000000	11,548100
2257,000000	11,746500
2256,000000	11,892900
2255,000000	12,072400
2254,000000	12,207700
2253,000000	12,425900
2252,000000	12,560400
2251,000000	12,717800
2250,000000	12,884600
2249,000000	13,044400
2248,000000	13,184700
2247,000000	13,320000
2246,000000	13,430700
2245,000000	13,561000
2244,000000	13,662800
2243,000000	13,790100
2242,000000	13,870500
2241,000000	13,945500
2240,000000	14,023100
2239,000000	14,104600
2238,000000	14,184300
2237,000000	14,243200
2236,000000	14,269100
2235,000000	14,324600
2234,000000	14,369200
2233,000000	14,418500
2232,000000	14,443000
2231,000000	14,431500
2230,000000	14,456400
2229,000000	14,484900
2228,000000	14,496000
2227,000000	14,495300
2226,000000	14,474200
2225,000000	14,481600
2224,000000	14,446100
2223,000000	14,428200
2222,000000	14,392100
2221,000000	14,362700
2220,000000	14,331800
2219,000000	14,276200
2218,000000	14,254300
2217,000000	14,238900
2216,000000	14,181800
2215,000000	14,129400
2214,000000	14,098100
2213,000000	14,061200
2212,000000	14,021400
2211,000000	13,985900
2210,000000	13,956200
2209,000000	13,939200
2208,000000	13,889400
2207,000000	13,874000
2206,000000	13,865400
2205,000000	13,833000
2204,000000	13,795200
2203,000000	13,789500
2202,000000	13,764600
2201,000000	13,745600
2200,000000	13,717900
2199,000000	13,704300
2198,000000	13,686200
2197,000000	13,670400
2196,000000	13,646500
2195,000000	13,631800
2194,000000	13,612800
2193,000000	13,616200
2192,000000	13,603400
2191,000000	13,569800
2190,000000	13,572700
2189,000000	13,535800
2188,000000	13,528900
2187,000000	13,501600
2186,000000	13,487600
2185,000000	13,465200
2184,000000	13,448600
2183,000000	13,444200
2182,000000	13,411700
2181,000000	13,397900
2180,000000	13,391900
2179,000000	13,376400
2178,000000	13,358100
2177,000000	13,345800
2176,000000	13,336700
2175,000000	13,320800
2174,000000	13,326200
2173,000000	13,312100
2172,000000	13,311400
2171,000000	13,328700
2170,000000	13,338900
2169,000000	13,329800
2168,000000	13,334100
2167,000000	13,361600
2166,000000	13,368500
2165,000000	13,393600
2164,000000	13,391300
2163,000000	13,417100
2162,000000	13,443000
2161,000000	13,474400
2160,000000	13,509000
2159,000000	13,535800
2158,000000	13,562000
2157,000000	13,607200
2156,000000	13,641600
2155,000000	13,661900
2154,000000	13,722200
2153,000000	13,784300
2152,000000	13,838100
2151,000000	13,869400
2150,000000	13,924300
2149,000000	13,988300
2148,000000	14,017500
2147,000000	14,071900
2146,000000	14,123900
2145,000000	14,157300
2144,000000	14,215100
2143,000000	14,269700
2142,000000	14,308800
2141,000000	14,339000
2140,000000	14,385000
2139,000000	14,442800
2138,000000	14,496100
2137,000000	14,529300
2136,000000	14,548400
2135,000000	14,587500
2134,000000	14,618200
2133,000000	14,670300
2132,000000	14,680800
2131,000000	14,704300
2130,000000	14,744500
2129,000000	14,787200
2128,000000	14,800200
2127,000000	14,814100
2126,000000	14,838900
2125,000000	14,849800
2124,000000	14,863600
2123,000000	14,875400
2122,000000	14,884100
2121,000000	14,894600
2120,000000	14,908800
2119,000000	14,899000
2118,000000	14,892700
2117,000000	14,883600
2116,000000	14,893700
2115,000000	14,889100
2114,000000	14,882700
2113,000000	14,877300
2112,000000	14,878400
2111,000000	14,870700
2110,000000	14,864600
2109,000000	14,840400
2108,000000	14,830000
2107,000000	14,826700
2106,000000	14,820300
2105,000000	14,792000
2104,000000	14,769300
2103,000000	14,756600
2102,000000	14,749100
2101,000000	14,721500
2100,000000	14,702600
2099,000000	14,698100
2098,000000	14,674400
2097,000000	14,660800
2096,000000	14,653700
2095,000000	14,651300
2094,000000	14,632400
2093,000000	14,613100
2092,000000	14,607400
2091,000000	14,604300
2090,000000	14,583900
2089,000000	14,573400
2088,000000	14,563500
2087,000000	14,561400
2086,000000	14,553400
2085,000000	14,535200
2084,000000	14,514000
2083,000000	14,475000
2082,000000	14,445400
2081,000000	14,438500
2080,000000	14,418800
2079,000000	14,378500
2078,000000	14,328500
2077,000000	14,288200
2076,000000	14,256700
2075,000000	14,206700
2074,000000	14,151000
2073,000000	14,103600
2072,000000	14,037000
2071,000000	13,976700
2070,000000	13,933400
2069,000000	13,874100
2068,000000	13,815700
2067,000000	13,753000
2066,000000	13,679200
2065,000000	13,610300
2064,000000	13,549800
2063,000000	13,492800
2062,000000	13,425100
2061,000000	13,361000
2060,000000	13,307100
2059,000000	13,251400
2058,000000	13,212100
2057,000000	13,174800
2056,000000	13,129200
2055,000000	13,112800
2054,000000	13,096400
2053,000000	13,082200
2052,000000	13,095100
2051,000000	13,111700
2050,000000	13,138200
2049,000000	13,165300
2048,000000	13,206700
2047,000000	13,243500
2046,000000	13,300300
2045,000000	13,363300
2044,000000	13,413500
2043,000000	13,490000
2042,000000	13,560400
2041,000000	13,625500
2040,000000	13,695000
2039,000000	13,760100
2038,000000	13,826600
2037,000000	13,879800
2036,000000	13,938500
2035,000000	13,985600
2034,000000	14,028800
2033,000000	14,067100
2032,000000	14,093700
2031,000000	14,131300
2030,000000	14,166600
2029,000000	14,204600
2028,000000	14,240400
2027,000000	14,259500
2026,000000	14,256600
2025,000000	14,262600
2024,000000	14,285500
2023,000000	14,296500
2022,000000	14,287800
2021,000000	14,275100
2020,000000	14,289600
2019,000000	14,287900
2018,000000	14,288300
2017,000000	14,273700
2016,000000	14,278100
2015,000000	14,248700
2014,000000	14,226500
2013,000000	14,209100
2012,000000	14,197200
2011,000000	14,183100
2010,000000	14,163300
2009,000000	14,140000
2008,000000	14,105200
2007,000000	14,082200
2006,000000	14,040300
2005,000000	14,013500
2004,000000	13,958300
2003,000000	13,941700
2002,000000	13,900700
2001,000000	13,831900
2000,000000	13,788800
1999,000000	13,748700
1998,000000	13,689700
1997,000000	13,627100
1996,000000	13,572700
1995,000000	13,495400
1994,000000	13,465900
1993,000000	13,400400
1992,000000	13,318600
1991,000000	13,275200
1990,000000	13,206800
1989,000000	13,129000
1988,000000	13,052400
1987,000000	12,992100
1986,000000	12,909500
1985,000000	12,834100
1984,000000	12,769200
1983,000000	12,684200
1982,000000	12,596400
1981,000000	12,533000
1980,000000	12,475100
1979,000000	12,384900
1978,000000	12,315300
1977,000000	12,238800
1976,000000	12,157200
1975,000000	12,070800
1974,000000	12,008600
1973,000000	11,943100
1972,000000	11,884600
1971,000000	11,828200
1970,000000	11,748100
1969,000000	11,691900
1968,000000	11,603800
1967,000000	11,542200
1966,000000	11,466900
1965,000000	11,416500
1964,000000	11,362700
1963,000000	11,279000
1962,000000	11,233000
1961,000000	11,169700
1960,000000	11,114300
1959,000000	11,050100
1958,000000	10,989000
1957,000000	10,914500
1956,000000	10,847300
1955,000000	10,782700
1954,000000	10,736800
1953,000000	10,698600
1952,000000	10,641600
1951,000000	10,594600
1950,000000	10,554700
1949,000000	10,515700
1948,000000	10,480500
1947,000000	10,427300
1946,000000	10,405200
1945,000000	10,342600
1944,000000	10,351000
1943,000000	10,293700
1942,000000	10,297900
1941,000000	10,241600
1940,000000	10,266300
1939,000000	10,239000
1938,000000	10,255800
1937,000000	10,278100
1936,000000	10,289800
1935,000000	10,282300
1934,000000	10,288000
1933,000000	10,337400
1932,000000	10,361900
1931,000000	10,396400
1930,000000	10,436600
1929,000000	10,487600
1928,000000	10,570200
1927,000000	10,652300
1926,000000	10,744400
1925,000000	10,821500
1924,000000	10,903600
1923,000000	10,981300
1922,000000	11,060100
1921,000000	11,199500
1920,000000	11,375800
1919,000000	11,544700
1918,000000	11,691200
1917,000000	11,810300
1916,000000	11,950500
1915,000000	12,061900
1914,000000	12,212100
1913,000000	12,446500
1912,000000	12,702400
1911,000000	12,889900
1910,000000	13,084800
1909,000000	13,253300
1908,000000	13,439800
1907,000000	13,635200
1906,000000	13,902500
1905,000000	14,215300
1904,000000	14,525900
1903,000000	14,800400
1902,000000	15,092600
1901,000000	15,373800
1900,000000	15,699300
1899,000000	16,121500
1898,000000	16,506900
1897,000000	16,883300
1896,000000	17,237400
1895,000000	17,524600
1894,000000	17,850600
1893,000000	18,235400
1892,000000	18,635400
1891,000000	19,098700
1890,000000	19,561800
1889,000000	19,981800
1888,000000	20,423200
1887,000000	20,826400
1886,000000	21,254400
1885,000000	21,676000
1884,000000	22,160400
1883,000000	22,618600
1882,000000	23,054200
1881,000000	23,481400
1880,000000	23,893400
1879,000000	24,225300
1878,000000	24,618800
1877,000000	24,997900
1876,000000	25,345000
1875,000000	25,682000
1874,000000	26,004700
1873,000000	26,341500
1872,000000	26,647500
1871,000000	26,929100
1870,000000	27,230300
1869,000000	27,484000
1868,000000	27,737100
1867,000000	27,927100
1866,000000	28,093500
1865,000000	28,249400
1864,000000	28,385800
1863,000000	28,529500
1862,000000	28,672200
1861,000000	28,800100
1860,000000	28,949800
1859,000000	29,056500
1858,000000	29,144400
1857,000000	29,231500
1856,000000	29,312800
1855,000000	29,362500
1854,000000	29,423100
1853,000000	29,480400
1852,000000	29,501200
1851,000000	29,556400
1850,000000	29,602700
1849,000000	29,627000
1848,000000	29,637600
1847,000000	29,648000
1846,000000	29,640200
1845,000000	29,602700
1844,000000	29,608400
1843,000000	29,638200
1842,000000	29,677100
1841,000000	29,705100
1840,000000	29,664500
1839,000000	29,642300
1838,000000	29,611400
1837,000000	29,601800
1836,000000	29,574300
1835,000000	29,552700
1834,000000	29,531600
1833,000000	29,495100
1832,000000	29,468300
1831,000000	29,448700
1830,000000	29,424000
1829,000000	29,392000
1828,000000	29,351700
1827,000000	29,290700
1826,000000	29,261400
1825,000000	29,243900
1824,000000	29,217900
1823,000000	29,215000
1822,000000	29,213100
1821,000000	29,228800
1820,000000	29,193700
1819,000000	29,153200
1818,000000	29,129400
1817,000000	29,102900
1816,000000	29,088100
1815,000000	29,095500
1814,000000	29,091000
1813,000000	29,080300
1812,000000	29,068100
1811,000000	29,048900
1810,000000	29,023500
1809,000000	28,987700
1808,000000	28,961700
1807,000000	28,949700
1806,000000	28,939700
1805,000000	28,917400
1804,000000	28,883200
1803,000000	28,850800
1802,000000	28,817400
1801,000000	28,789400
1800,000000	28,764400
1799,000000	28,721700
1798,000000	28,689100
1797,000000	28,664800
1796,000000	28,631600
1795,000000	28,607800
1794,000000	28,601900
1793,000000	28,579500
1792,000000	28,550900
1791,000000	28,517400
1790,000000	28,492200
1789,000000	28,467700
1788,000000	28,431300
1787,000000	28,414300
1786,000000	28,392900
1785,000000	28,363000
1784,000000	28,323800
1783,000000	28,288200
1782,000000	28,258200
1781,000000	28,221700
1780,000000	28,192500
1779,000000	28,155800
1778,000000	28,111400
1777,000000	28,059800
1776,000000	27,999300
1775,000000	27,953000
1774,000000	27,914800
1773,000000	27,864800
1772,000000	27,797800
1771,000000	27,732100
1770,000000	27,675600
1769,000000	27,615300
1768,000000	27,552300
1767,000000	27,483100
1766,000000	27,426800
1765,000000	27,378700
1764,000000	27,340200
1763,000000	27,324800
1762,000000	27,314200
1761,000000	27,322300
1760,000000	27,343900
1759,000000	27,374800
1758,000000	27,424200
1757,000000	27,464800
1756,000000	27,505900
1755,000000	27,549300
1754,000000	27,584300
1753,000000	27,615500
1752,000000	27,642700
1751,000000	27,655300
1750,000000	27,672300
1749,000000	27,674600
1748,000000	27,654000
1747,000000	27,639200
1746,000000	27,624300
1745,000000	27,562800
1744,000000	27,500200
1743,000000	27,433400
1742,000000	27,362700
1741,000000	27,279300
1740,000000	27,174200
1739,000000	27,046700
1738,000000	26,920400
1737,000000	26,800500
1736,000000	26,685000
1735,000000	26,575900
1734,000000	26,492100
1733,000000	26,436400
1732,000000	26,380200
1731,000000	26,350900
1730,000000	26,365900
1729,000000	26,386800
1728,000000	26,417000
1727,000000	26,466400
1726,000000	26,507400
1725,000000	26,559500
1724,000000	26,588400
1723,000000	26,656100
1722,000000	26,697700
1721,000000	26,760500
1720,000000	26,823700
1719,000000	26,916500
1718,000000	26,993900
1717,000000	27,082400
1716,000000	27,154700
1715,000000	27,253000
1714,000000	27,350800
1713,000000	27,473700
1712,000000	27,547000
1711,000000	27,616600
1710,000000	27,694000
1709,000000	27,759700
1708,000000	27,799000
1707,000000	27,827800
1706,000000	27,850400
1705,000000	27,873000
1704,000000	27,873100
1703,000000	27,871100
1702,000000	27,822400
1701,000000	27,800600
1700,000000	27,763500
1699,000000	27,716300
1698,000000	27,657400
1697,000000	27,615300
1696,000000	27,579200
1695,000000	27,541700
1694,000000	27,525300
1693,000000	27,537600
1692,000000	27,569400
1691,000000	27,639200
1690,000000	27,682600
1689,000000	27,753900
1688,000000	27,802200
1687,000000	27,864500
1686,000000	27,916400
1685,000000	27,981700
1684,000000	28,071900
1683,000000	28,178500
1682,000000	28,328000
1681,000000	28,473100
1680,000000	28,711600
1679,000000	28,974200
1678,000000	29,205700
1677,000000	29,455300
1676,000000	29,701000
1675,000000	29,958500
1674,000000	30,152300
1673,000000	30,345500
1672,000000	30,523200
1671,000000	30,664700
1670,000000	30,819200
1669,000000	30,934700
1668,000000	31,057000
1667,000000	31,157000
1666,000000	31,232500
1665,000000	31,324900
1664,000000	31,384800
1663,000000	31,445900
1662,000000	31,509500
1661,000000	31,570400
1660,000000	31,616500
1659,000000	31,663300
1658,000000	31,695500
1657,000000	31,739700
1656,000000	31,752200
1655,000000	31,767800
1654,000000	31,790400
1653,000000	31,771300
1652,000000	31,794900
1651,000000	31,790700
1650,000000	31,782700
1649,000000	31,758400
1648,000000	31,737700
1647,000000	31,728700
1646,000000	31,689200
1645,000000	31,678700
1644,000000	31,650800
1643,000000	31,600800
1642,000000	31,584300
1641,000000	31,537100
1640,000000	31,519600
1639,000000	31,471700
1638,000000	31,440500
1637,000000	31,409400
1636,000000	31,370700
1635,000000	31,314200
1634,000000	31,283700
1633,000000	31,229700
1632,000000	31,157600
1631,000000	31,104800
1630,000000	31,085400
1629,000000	31,026300
1628,000000	30,995800
1627,000000	30,912200
1626,000000	30,863200
1625,000000	30,804900
1624,000000	30,743000
1623,000000	30,672300
1622,000000	30,628900
1621,000000	30,571900
1620,000000	30,544000
1619,000000	30,499200
1618,000000	30,434000
1617,000000	30,381500
1616,000000	30,315400
1615,000000	30,283700
1614,000000	30,247900
1613,000000	30,188800
1612,000000	30,126200
1611,000000	30,062600
1610,000000	30,026400
1609,000000	29,995600
1608,000000	29,932300
1607,000000	29,881400
1606,000000	29,824800
1605,000000	29,763900
1604,000000	29,706700
1603,000000	29,657700
1602,000000	29,603700
1601,000000	29,555300
1600,000000	29,492200
1599,000000	29,439900
1598,000000	29,374400
1597,000000	29,334000
1596,000000	29,277500
1595,000000	29,231000
1594,000000	29,192000
1593,000000	29,132000
1592,000000	29,090000
1591,000000	29,043600
1590,000000	29,003300
1589,000000	28,949300
1588,000000	28,914100
1587,000000	28,863600
1586,000000	28,826900
1585,000000	28,787300
1584,000000	28,748100
1583,000000	28,692200
1582,000000	28,653400
1581,000000	28,631300
1580,000000	28,587700
1579,000000	28,553100
1578,000000	28,513900
1577,000000	28,488500
1576,000000	28,463000
1575,000000	28,442800
1574,000000	28,412300
1573,000000	28,380100
1572,000000	28,387300
1571,000000	28,365700
1570,000000	28,347700
1569,000000	28,348600
1568,000000	28,327800
1567,000000	28,303500
1566,000000	28,300800
1565,000000	28,315400
1564,000000	28,291900
1563,000000	28,274400
1562,000000	28,271100
1561,000000	28,260500
1560,000000	28,235700
1559,000000	28,215800
1558,000000	28,192300
1557,000000	28,168100
1556,000000	28,134200
1555,000000	28,104900
1554,000000	28,083300
1553,000000	28,041800
1552,000000	27,995600
1551,000000	27,958200
1550,000000	27,900000
1549,000000	27,852400
1548,000000	27,816700
1547,000000	27,767900
1546,000000	27,729400
1545,000000	27,678900
1544,000000	27,628600
1543,000000	27,582900
1542,000000	27,550900
1541,000000	27,521000
1540,000000	27,485100
1539,000000	27,455800
1538,000000	27,418400
1537,000000	27,385800
1536,000000	27,336100
1535,000000	27,301500
1534,000000	27,264600
1533,000000	27,222000
1532,000000	27,186500
1531,000000	27,136500
1530,000000	27,104600
1529,000000	27,072200
1528,000000	27,013800
1527,000000	26,964500
1526,000000	26,906500
1525,000000	26,857500
1524,000000	26,828800
1523,000000	26,777900
1522,000000	26,710900
1521,000000	26,657000
1520,000000	26,596000
1519,000000	26,532400
1518,000000	26,480900
1517,000000	26,424400
1516,000000	26,369200
1515,000000	26,319700
1514,000000	26,256900
1513,000000	26,188900
1512,000000	26,129000
1511,000000	26,082800
1510,000000	26,021200
1509,000000	25,940500
1508,000000	25,880100
1507,000000	25,816100
1506,000000	25,741400
1505,000000	25,673000
1504,000000	25,612600
1503,000000	25,551600
1502,000000	25,498700
1501,000000	25,433800
1500,000000	25,374200
1499,000000	25,329900
1498,000000	25,280500
1497,000000	25,217900
1496,000000	25,161100
1495,000000	25,122700
1494,000000	25,076100
1493,000000	25,030400
1492,000000	24,984500
1491,000000	24,952800
1490,000000	24,919200
1489,000000	24,876200
1488,000000	24,831600
1487,000000	24,797500
1486,000000	24,770700
1485,000000	24,743400
1484,000000	24,715400
1483,000000	24,678200
1482,000000	24,649300
1481,000000	24,630700
1480,000000	24,609100
1479,000000	24,584900
1478,000000	24,564700
1477,000000	24,554700
1476,000000	24,559600
1475,000000	24,555800
1474,000000	24,543000
1473,000000	24,542500
1472,000000	24,571900
1471,000000	24,586600
1470,000000	24,588400
1469,000000	24,591200
1468,000000	24,589100
1467,000000	24,614100
1466,000000	24,633600
1465,000000	24,653200
1464,000000	24,669400
1463,000000	24,696700
1462,000000	24,712200
1461,000000	24,742800
1460,000000	24,769300
1459,000000	24,809100
1458,000000	24,864200
1457,000000	24,905000
1456,000000	24,965200
1455,000000	25,022100
1454,000000	25,065700
1453,000000	25,127400
1452,000000	25,201800
1451,000000	25,275200
1450,000000	25,339200
1449,000000	25,386100
1448,000000	25,434800
1447,000000	25,511800
1446,000000	25,584700
1445,000000	25,668100
1444,000000	25,762500
1443,000000	25,805700
1442,000000	25,885300
1441,000000	25,974600
1440,000000	26,066200
1439,000000	26,149700
1438,000000	26,238700
1437,000000	26,342400
1436,000000	26,442500
1435,000000	26,532300
1434,000000	26,646300
1433,000000	26,778600
1432,000000	26,911700
1431,000000	27,019400
1430,000000	27,119900
1429,000000	27,248600
1428,000000	27,395000
1427,000000	27,547200
1426,000000	27,687100
1425,000000	27,842100
1424,000000	28,008600
1423,000000	28,193100
1422,000000	28,380200
1421,000000	28,545400
1420,000000	28,745900
1419,000000	28,987000
1418,000000	29,182700
1417,000000	29,349200
1416,000000	29,553900
1415,000000	29,805600
1414,000000	30,080000
1413,000000	30,323300
1412,000000	30,525000
1411,000000	30,792200
1410,000000	31,080900
1409,000000	31,426900
1408,000000	31,724400
1407,000000	32,046300
1406,000000	32,328200
1405,000000	32,648100
1404,000000	32,951200
1403,000000	33,293600
1402,000000	33,630200
1401,000000	33,995700
1400,000000	34,361400
1399,000000	34,686100
1398,000000	34,927600
1397,000000	35,233300
1396,000000	35,582300
1395,000000	35,922200
1394,000000	36,236000
1393,000000	36,491300
1392,000000	36,841400
1391,000000	37,151600
1390,000000	37,492100
1389,000000	37,836800
1388,000000	38,261500
1387,000000	38,616000
1386,000000	39,026000
1385,000000	39,400500
1384,000000	39,883000
1383,000000	40,272300
1382,000000	40,671700
1381,000000	41,011300
1380,000000	41,231000
1379,000000	41,484900
1378,000000	41,718600
1377,000000	41,884300
1376,000000	42,082100
1375,000000	42,271400
1374,000000	42,456600
1373,000000	42,633200
1372,000000	42,879000
1371,000000	43,110500
1370,000000	43,335500
1369,000000	43,532500
1368,000000	43,774500
1367,000000	43,970000
1366,000000	44,123300
1365,000000	44,296500
1364,000000	44,478000
1363,000000	44,594500
1362,000000	44,795100
1361,000000	44,882800
1360,000000	44,965800
1359,000000	44,965100
1358,000000	45,092300
1357,000000	45,192800
1356,000000	45,343000
1355,000000	45,501000
1354,000000	45,684200
1353,000000	45,896200
1352,000000	46,106300
1351,000000	46,422800
1350,000000	46,716200
1349,000000	47,001100
1348,000000	47,249000
1347,000000	47,510600
1346,000000	47,733000
1345,000000	47,978700
1344,000000	48,214600
1343,000000	48,472900
1342,000000	48,666900
1341,000000	48,901800
1340,000000	49,145700
1339,000000	49,345200
1338,000000	49,573100
1337,000000	49,810100
1336,000000	50,013800
1335,000000	50,226300
1334,000000	50,425500
1333,000000	50,621500
1332,000000	50,840100
1331,000000	51,026800
1330,000000	51,218100
1329,000000	51,406600
1328,000000	51,581000
1327,000000	51,748900
1326,000000	51,923300
1325,000000	52,108800
1324,000000	52,260800
1323,000000	52,417800
1322,000000	52,562800
1321,000000	52,706800
1320,000000	52,861400
1319,000000	52,994500
1318,000000	53,137600
1317,000000	53,274800
1316,000000	53,410200
1315,000000	53,524300
1314,000000	53,635100
1313,000000	53,760800
1312,000000	53,868200
1311,000000	53,980300
1310,000000	54,065300
1309,000000	54,169300
1308,000000	54,259900
1307,000000	54,340700
1306,000000	54,418600
1305,000000	54,496700
1304,000000	54,560200
1303,000000	54,620000
1302,000000	54,679200
1301,000000	54,741000
1300,000000	54,789400
1299,000000	54,835100
1298,000000	54,872400
1297,000000	54,920200
1296,000000	54,950000
1295,000000	54,990100
1294,000000	55,012100
1293,000000	55,043800
1292,000000	55,068600
1291,000000	55,084100
1290,000000	55,095400
1289,000000	55,111600
1288,000000	55,120900
1287,000000	55,119200
1286,000000	55,109000
1285,000000	55,108900
1284,000000	55,091500
1283,000000	55,083800
1282,000000	55,066900
1281,000000	55,042600
1280,000000	55,025100
1279,000000	55,017800
1278,000000	54,991100
1277,000000	54,961500
1276,000000	54,936400
1275,000000	54,925200
1274,000000	54,899900
1273,000000	54,894500
1272,000000	54,879200
1271,000000	54,861300
1270,000000	54,863000
1269,000000	54,846200
1268,000000	54,828400
1267,000000	54,810300
1266,000000	54,791000
1265,000000	54,783400
1264,000000	54,767400
1263,000000	54,749800
1262,000000	54,731200
1261,000000	54,702300
1260,000000	54,668100
1259,000000	54,635300
1258,000000	54,610000
1257,000000	54,590900
1256,000000	54,568800
1255,000000	54,543700
1254,000000	54,506100
1253,000000	54,462300
1252,000000	54,417000
1251,000000	54,360200
1250,000000	54,304900
1249,000000	54,253700
1248,000000	54,201800
1247,000000	54,148400
1246,000000	54,081800
1245,000000	53,995800
1244,000000	53,909300
1243,000000	53,840100
1242,000000	53,765700
1241,000000	53,666500
1240,000000	53,572100
1239,000000	53,478200
1238,000000	53,402900
1237,000000	53,317000
1236,000000	53,226900
1235,000000	53,129200
1234,000000	53,034400
1233,000000	52,933500
1232,000000	52,815700
1231,000000	52,715600
1230,000000	52,605800
1229,000000	52,491600
1228,000000	52,389900
1227,000000	52,278100
1226,000000	52,156700
1225,000000	52,025200
1224,000000	51,910400
1223,000000	51,793400
1222,000000	51,668000
1221,000000	51,545100
1220,000000	51,424300
1219,000000	51,311700
1218,000000	51,198100
1217,000000	51,086300
1216,000000	50,981300
1215,000000	50,887200
1214,000000	50,786600
1213,000000	50,695800
1212,000000	50,604600
1211,000000	50,508100
1210,000000	50,425100
1209,000000	50,348000
1208,000000	50,270800
1207,000000	50,186400
1206,000000	50,114700
1205,000000	50,064900
1204,000000	50,004600
1203,000000	49,959500
1202,000000	49,923500
1201,000000	49,885200
1200,000000	49,845800
1199,000000	49,808800
1198,000000	49,767300
1197,000000	49,703800
1196,000000	49,634200
1195,000000	49,545300
1194,000000	49,409500
1193,000000	49,255400
1192,000000	49,068400
1191,000000	48,879900
1190,000000	48,668100
1189,000000	48,458800
1188,000000	48,267300
1187,000000	48,135000
1186,000000	48,037500
1185,000000	48,023700
1184,000000	48,064700
1183,000000	48,175600
1182,000000	48,350400
1181,000000	48,592100
1180,000000	48,853200
1179,000000	49,146100
1178,000000	49,439300
1177,000000	49,694000
1176,000000	49,942300
1175,000000	50,163600
1174,000000	50,366400
1173,000000	50,571100
1172,000000	50,757900
1171,000000	50,971600
1170,000000	51,185600
1169,000000	51,397900
1168,000000	51,601700
1167,000000	51,834200
1166,000000	52,087000
1165,000000	52,318300
1164,000000	52,565300
1163,000000	52,816400
1162,000000	53,075400
1161,000000	53,338200
1160,000000	53,589000
1159,000000	53,857500
1158,000000	54,119800
1157,000000	54,378200
1156,000000	54,611100
1155,000000	54,842700
1154,000000	55,042500
1153,000000	55,239600
1152,000000	55,383600
1151,000000	55,512200
1150,000000	55,630800
1149,000000	55,750500
1148,000000	55,857400
1147,000000	55,978200
1146,000000	56,109800
1145,000000	56,257700
1144,000000	56,460400
1143,000000	56,672100
1142,000000	56,910900
1141,000000	57,196200
1140,000000	57,491200
1139,000000	57,786400
1138,000000	58,084300
1137,000000	58,414200
1136,000000	58,780600
1135,000000	59,136800
1134,000000	59,469200
1133,000000	59,769000
1132,000000	60,070100
1131,000000	60,363500
1130,000000	60,625800
1129,000000	60,863600
1128,000000	61,051800
1127,000000	61,234000
1126,000000	61,364900
1125,000000	61,492800
1124,000000	61,585300
1123,000000	61,667300
1122,000000	61,734800
1121,000000	61,801000
1120,000000	61,869900
1119,000000	61,916900
1118,000000	61,962700
1117,000000	61,994400
1116,000000	62,013000
1115,000000	62,019900
1114,000000	62,044100
1113,000000	62,058200
1112,000000	62,078200
1111,000000	62,087000
1110,000000	62,090800
1109,000000	62,120900
1108,000000	62,126400
1107,000000	62,137800
1106,000000	62,159100
1105,000000	62,167300
1104,000000	62,170100
1103,000000	62,190400
1102,000000	62,195800
1101,000000	62,223900
1100,000000	62,220900
1099,000000	62,236500
1098,000000	62,235200
1097,000000	62,225600
1096,000000	62,213600
1095,000000	62,234500
1094,000000	62,230900
1093,000000	62,252000
1092,000000	62,217800
1091,000000	62,202800
1090,000000	62,205100
1089,000000	62,208400
1088,000000	62,168000
1087,000000	62,165400
1086,000000	62,154200
1085,000000	62,121300
1084,000000	62,112500
1083,000000	62,061800
1082,000000	62,042200
1081,000000	62,018000
1080,000000	62,038500
1079,000000	61,982800
1078,000000	61,981100
1077,000000	61,944700
1076,000000	61,920000
1075,000000	61,903700
1074,000000	61,874000
1073,000000	61,852200
1072,000000	61,829400
1071,000000	61,832300
1070,000000	61,789500
1069,000000	61,767100
1068,000000	61,769700
1067,000000	61,730500
1066,000000	61,723100
1065,000000	61,713100
1064,000000	61,697900
1063,000000	61,669500
1062,000000	61,635800
1061,000000	61,613800
1060,000000	61,625700
1059,000000	61,583200
1058,000000	61,557700
1057,000000	61,531300
1056,000000	61,519900
1055,000000	61,501800
1054,000000	61,482500
1053,000000	61,449600
1052,000000	61,458800
1051,000000	61,439200
1050,000000	61,394200
1049,000000	61,405100
1048,000000	61,386900
1047,000000	61,374800
1046,000000	61,403300
1045,000000	61,384300
1044,000000	61,392900
1043,000000	61,393000
1042,000000	61,389500
1041,000000	61,383900
1040,000000	61,400700
1039,000000	61,402700
1038,000000	61,414100
1037,000000	61,418600
1036,000000	61,426800
1035,000000	61,448600
1034,000000	61,457800
1033,000000	61,477000
1032,000000	61,488600
1031,000000	61,482000
1030,000000	61,518400
1029,000000	61,543500
1028,000000	61,563000
1027,000000	61,579900
1026,000000	61,615700
1025,000000	61,656700
1024,000000	61,692300
1023,000000	61,744200
1022,000000	61,782800
1021,000000	61,835700
1020,000000	61,868900
1019,000000	61,922400
1018,000000	61,977900
1017,000000	62,023800
1016,000000	62,088500
1015,000000	62,158800
1014,000000	62,214400
1013,000000	62,296100
1012,000000	62,380700
1011,000000	62,472000
1010,000000	62,557400
1009,000000	62,634100
1008,000000	62,731200
1007,000000	62,844500
1006,000000	62,931300
1005,000000	63,041400
1004,000000	63,138700
1003,000000	63,243300
1002,000000	63,347600
1001,000000	63,430300
1000,000000	63,507400
999,000000	63,598600
998,000000	63,711000
997,000000	63,805500
996,000000	63,885900
995,000000	63,966900
994,000000	64,071400
993,000000	64,166300
992,000000	64,261500
991,000000	64,370000
990,000000	64,481300
989,000000	64,574300
988,000000	64,660500
987,000000	64,762000
986,000000	64,883700
985,000000	64,999100
984,000000	65,103700
983,000000	65,216300
982,000000	65,332900
981,000000	65,449800
980,000000	65,556200
979,000000	65,686600
978,000000	65,820900
977,000000	65,938600
976,000000	66,046100
975,000000	66,176500
974,000000	66,318500
973,000000	66,440700
972,000000	66,582800
971,000000	66,727100
970,000000	66,857100
969,000000	67,009000
968,000000	67,151200
967,000000	67,274300
966,000000	67,430700
965,000000	67,586400
964,000000	67,723200
963,000000	67,866800
962,000000	68,003800
961,000000	68,143900
960,000000	68,287800
959,000000	68,437500
958,000000	68,585800
957,000000	68,706600
956,000000	68,847400
955,000000	68,984600
954,000000	69,091400
953,000000	69,230400
952,000000	69,366500
951,000000	69,473700
950,000000	69,605000
949,000000	69,734200
948,000000	69,832700
947,000000	69,931200
946,000000	70,047100
945,000000	70,152600
944,000000	70,225700
943,000000	70,330500
942,000000	70,423000
941,000000	70,481900
940,000000	70,551700
939,000000	70,649200
938,000000	70,723800
937,000000	70,771200
936,000000	70,834800
935,000000	70,893800
934,000000	70,958300
933,000000	71,038500
932,000000	71,095600
931,000000	71,153800
930,000000	71,209100
929,000000	71,278700
928,000000	71,340100
927,000000	71,375300
926,000000	71,432200
925,000000	71,524800
924,000000	71,582800
923,000000	71,614700
922,000000	71,682200
921,000000	71,742000
920,000000	71,800300
919,000000	71,861700
918,000000	71,925300
917,000000	71,984500
916,000000	72,046000
915,000000	72,129800
914,000000	72,193100
913,000000	72,249900
912,000000	72,307000
911,000000	72,368100
910,000000	72,443100
909,000000	72,513800
908,000000	72,591700
907,000000	72,682700
906,000000	72,755500
905,000000	72,823200
904,000000	72,899600
903,000000	72,990200
902,000000	73,074000
901,000000	73,155400
900,000000	73,238000
899,000000	73,305800
898,000000	73,383600
897,000000	73,462000
896,000000	73,549500
895,000000	73,626300
894,000000	73,692800
893,000000	73,759900
892,000000	73,835600
891,000000	73,899000
890,000000	73,974700
889,000000	74,048900
888,000000	74,119000
887,000000	74,193800
886,000000	74,269100
885,000000	74,351400
884,000000	74,425600
883,000000	74,533400
882,000000	74,630200
881,000000	74,721200
880,000000	74,838700
879,000000	74,933700
878,000000	75,039400
877,000000	75,121400
876,000000	75,198900
875,000000	75,255500
874,000000	75,296300
873,000000	75,331300
872,000000	75,369700
871,000000	75,475600
870,000000	75,608900
869,000000	75,735200
868,000000	75,890000
867,000000	76,040800
866,000000	76,172300
865,000000	76,281400
864,000000	76,448700
863,000000	76,582200
862,000000	76,724000
861,000000	76,862800
860,000000	77,017300
859,000000	77,159400
858,000000	77,330700
857,000000	77,987500
856,000000	77,854000
855,000000	77,749900
854,000000	78,151400
853,000000	78,655500
852,000000	79,049700
851,000000	78,943700
850,000000	78,518600
849,000000	78,886200
848,000000	79,232900
847,000000	78,901500
846,000000	78,926600
845,000000	79,306700
844,000000	79,703800
843,000000	79,588400
842,000000	79,573000
841,000000	79,983800
840,000000	80,066100
839,000000	80,106200
838,000000	80,524700
837,000000	80,333400
836,000000	80,301500
835,000000	80,597500
834,000000	80,397700
833,000000	80,690700
832,000000	80,686200
831,000000	80,951700
830,000000	80,886700
829,000000	80,937400
828,000000	81,277500
827,000000	81,365900
826,000000	81,397200
825,000000	81,400400
824,000000	81,783400
823,000000	81,856500
822,000000	82,081300
821,000000	82,332900
820,000000	82,624700
819,000000	82,570000
818,000000	83,069700
817,000000	83,107600
816,000000	83,134100
815,000000	83,485800
814,000000	83,655900
813,000000	83,842500
812,000000	83,903900
811,000000	83,940200
810,000000	84,275400
809,000000	84,197300
808,000000	84,172800
807,000000	84,409800
806,000000	84,439200
805,000000	84,335600
804,000000	84,518800
803,000000	84,441000
802,000000	84,384600
801,000000	84,390400
800,000000	84,225000
799,000000	84,187400
798,000000	84,011000
797,000000	83,855600
796,000000	83,815600
795,000000	83,658800
794,000000	83,718900
793,000000	83,554000
792,000000	83,516400
791,000000	83,712500
790,000000	83,616800
789,000000	83,688600
788,000000	83,662700
787,000000	83,631000
786,000000	83,832700
785,000000	84,036200
784,000000	84,019300
783,000000	84,145900
782,000000	84,410000
781,000000	84,600500
780,000000	84,696800
779,000000	85,080200
778,000000	85,106300
777,000000	85,221900
776,000000	85,441800
775,000000	85,740100
774,000000	85,720000
773,000000	85,971000
772,000000	86,215400
771,000000	86,231200
770,000000	86,321700
769,000000	86,327600
768,000000	86,331000
767,000000	86,482100
766,000000	86,305700
765,000000	86,358200
764,000000	86,411100
763,000000	86,231400
762,000000	85,993600
761,000000	85,936200
760,000000	85,756800
759,000000	85,468000
758,000000	85,305900
757,000000	85,057900
756,000000	84,864300
755,000000	84,685000
754,000000	84,428400
753,000000	84,170000
752,000000	83,950900
751,000000	83,773300
750,000000	83,444600
749,000000	83,044800
748,000000	82,923000
747,000000	82,652600
746,000000	82,452200
745,000000	82,181100
744,000000	81,809800
743,000000	81,596600
742,000000	81,339100
741,000000	81,070100
740,000000	80,624500
739,000000	80,454000
738,000000	80,124800
737,000000	79,807200
736,000000	79,616300
735,000000	79,267400
734,000000	78,874800
733,000000	78,657400
732,000000	78,335400
731,000000	77,995900
730,000000	77,588700
729,000000	77,266800
728,000000	76,812500
727,000000	76,428800
726,000000	75,983200
725,000000	75,575200
724,000000	75,198800
723,000000	74,675700
722,000000	74,243500
721,000000	73,875100
720,000000	73,532600
719,000000	73,254800
718,000000	72,948400
717,000000	72,735600
716,000000	72,501700
715,000000	72,405700
714,000000	72,244100
713,000000	72,186900
712,000000	72,016800
711,000000	71,960200
710,000000	71,966100
709,000000	71,968500
708,000000	71,874300
707,000000	71,761300
706,000000	71,739600
705,000000	71,779100
704,000000	71,667200
703,000000	71,630900
702,000000	71,643000
701,000000	71,690600
700,000000	71,710100
699,000000	71,756400
698,000000	71,803300
697,000000	71,927500
696,000000	71,890800
695,000000	71,933600
694,000000	71,917500
693,000000	71,933000
692,000000	71,951100
691,000000	71,905600
690,000000	71,809900
689,000000	71,658200
688,000000	71,521800
687,000000	71,349600
686,000000	71,217500
685,000000	71,037900
684,000000	70,865300
683,000000	70,778800
682,000000	70,598600
681,000000	70,485700
680,000000	70,399300
679,000000	70,250700
678,000000	70,140300
677,000000	70,000700
676,000000	69,882100
675,000000	69,764100
674,000000	69,515700
673,000000	69,210300
672,000000	68,870400
671,000000	68,485000
670,000000	68,090600
669,000000	67,632100
668,000000	67,089800
667,000000	66,577100
666,000000	66,103500
665,000000	65,485000
664,000000	64,904400
663,000000	64,348100
662,000000	63,810200
661,000000	63,243600
660,000000	62,630500
659,000000	62,104500
658,000000	61,552000
657,000000	60,909600
656,000000	60,245100
655,000000	59,540300
654,000000	58,802700
653,000000	58,093900
652,000000	57,339400
651,000000	56,585000
650,000000	55,925900
649,000000	55,327900
648,000000	54,829500
647,000000	54,428600
646,000000	54,194600
645,000000	54,080400
644,000000	54,078100
643,000000	54,216000
642,000000	54,469300
641,000000	54,837800
640,000000	55,316400
639,000000	55,884300
638,000000	56,511400
637,000000	57,205000
636,000000	57,979700
635,000000	58,805400
634,000000	59,693800
633,000000	60,675900
632,000000	61,681100
631,000000	62,722400
630,000000	63,827100
629,000000	64,936800
628,000000	66,070300
627,000000	67,163900
626,000000	68,280700
625,000000	69,395900
624,000000	70,471800
623,000000	71,491900
622,000000	72,458200
621,000000	73,387300
620,000000	74,248500
619,000000	75,057500
618,000000	75,821200
617,000000	76,568600
616,000000	77,243200
615,000000	77,955400
614,000000	78,641300
613,000000	79,313800
612,000000	79,999700
611,000000	80,667200
610,000000	81,312400
609,000000	81,961800
608,000000	82,586000
607,000000	83,150100
606,000000	83,682500
605,000000	84,149100
604,000000	84,622300
603,000000	85,074600
602,000000	85,452900
601,000000	85,831900
600,000000	86,182800
599,000000	86,506300
598,000000	86,853200
597,000000	87,158100
596,000000	87,468800
595,000000	87,784500
594,000000	88,071000
593,000000	88,338500
592,000000	88,587900
591,000000	88,819500
590,000000	89,033400
589,000000	89,235200
588,000000	89,356400
587,000000	89,486500
586,000000	89,571000
585,000000	89,667000
584,000000	89,706100
583,000000	89,717500
582,000000	89,696500
581,000000	89,674900
580,000000	89,640900
579,000000	89,616600
578,000000	89,549800
577,000000	89,481600
576,000000	89,437400
575,000000	89,378500
574,000000	89,304400
573,000000	89,244100
572,000000	89,156400
571,000000	89,072000
570,000000	88,980300
569,000000	88,823800
568,000000	88,708200
567,000000	88,594300
566,000000	88,438100
565,000000	88,261000
564,000000	88,043700
563,000000	87,820000
562,000000	87,575600
561,000000	87,292500
560,000000	86,983400
559,000000	86,659100
558,000000	86,336500
557,000000	85,997500
556,000000	85,650600
555,000000	85,286500
554,000000	84,900200
553,000000	84,484000
552,000000	84,072100
551,000000	83,603400
550,000000	83,118100
549,000000	82,619400
548,000000	82,041200
547,000000	81,500200
546,000000	80,901000
545,000000	80,313300
544,000000	79,619100
543,000000	78,914600
542,000000	78,202900
541,000000	77,434500
540,000000	76,605700
539,000000	75,777800
538,000000	74,881200
537,000000	73,952700
536,000000	72,923500
535,000000	71,917400
534,000000	70,748400
533,000000	69,559400
532,000000	68,289900
531,000000	66,943700
530,000000	65,568100
529,000000	64,140000
528,000000	62,640500
527,000000	61,068200
526,000000	59,546100
525,000000	57,971200
524,000000	56,385800
523,000000	54,782100
522,000000	53,247000
521,000000	51,685800
520,000000	50,256500
519,000000	48,866800
518,000000	47,558000
517,000000	46,321200
516,000000	45,173100
515,000000	44,133300
514,000000	43,163400
513,000000	42,283000
512,000000	41,494400
511,000000	40,789200
510,000000	40,144200
509,000000	39,603200
508,000000	39,043100
507,000000	38,590300
506,000000	38,129200
505,000000	37,715100
504,000000	37,312900
503,000000	36,884400
502,000000	36,448200
501,000000	35,983100
500,000000	35,509700
499,000000	35,014900
498,000000	34,530300
497,000000	34,021000
496,000000	33,485300
495,000000	32,897400
494,000000	32,341300
493,000000	31,785600
492,000000	31,209100
491,000000	30,640600
490,000000	30,100900
489,000000	29,580100
488,000000	29,156700
487,000000	28,744500
486,000000	28,449000
485,000000	28,159400
484,000000	27,941400
483,000000	27,759600
482,000000	27,609300
481,000000	27,540300
480,000000	27,474600
479,000000	27,484700
478,000000	27,478100
477,000000	27,447800
476,000000	27,462900
475,000000	27,490700
474,000000	27,537900
473,000000	27,556100
472,000000	27,571400
471,000000	27,563500
470,000000	27,570300
469,000000	27,507100
468,000000	27,475500
467,000000	27,433800
466,000000	27,392200
465,000000	27,309600
464,000000	27,229100
463,000000	27,139500
462,000000	27,062800
461,000000	26,972900
460,000000	26,885000
459,000000	26,757500
458,000000	26,610700
457,000000	26,505600
456,000000	26,345300
455,000000	26,224000
454,000000	26,055600
453,000000	25,888300
452,000000	25,708700
451,000000	25,508200
450,000000	25,312900
449,000000	25,110300
448,000000	24,888500
447,000000	24,635800
446,000000	24,406700
445,000000	24,156200
444,000000	23,854100
443,000000	23,556100
442,000000	23,234200
441,000000	22,911300
440,000000	22,574700
439,000000	22,223500
438,000000	21,872100
437,000000	21,513500
436,000000	21,097200
435,000000	20,694100
434,000000	20,254900
433,000000	19,797000
432,000000	19,334400
431,000000	18,888400
430,000000	18,408200
429,000000	17,911200
428,000000	17,388300
427,000000	16,902100
426,000000	16,411300
425,000000	15,919600
424,000000	15,376800
423,000000	14,873900
422,000000	14,384600
421,000000	13,886200
420,000000	13,392800
419,000000	12,962400
418,000000	12,508600
417,000000	12,080100
416,000000	11,675100
415,000000	11,330300
414,000000	10,972700
413,000000	10,598700
412,000000	10,264900
411,000000	9,950000
410,000000	9,701700
409,000000	9,475500
408,000000	9,221300
407,000000	9,009000
406,000000	8,805100
405,000000	8,641400
404,000000	8,468400
403,000000	8,308500
402,000000	8,170100
401,000000	8,058200
400,000000	7,893100
399,000000	7,784200
398,000000	7,707600
397,000000	7,607500
396,000000	7,521400
395,000000	7,441100
394,000000	7,352400
393,000000	7,274800
392,000000	7,212800
391,000000	7,175200
390,000000	7,113600
389,000000	7,039900
388,000000	6,972400
387,000000	6,925200
386,000000	6,889400
385,000000	6,843400
384,000000	6,798300
383,000000	6,789300
382,000000	6,714900
381,000000	6,667000
380,000000	6,636800
379,000000	6,583200
378,000000	6,539200
377,000000	6,482400
376,000000	6,493500
375,000000	6,404600
374,000000	6,148200
373,000000	6,067200
372,000000	6,152400
371,000000	6,189600
370,000000	6,211400
369,000000	6,250100
368,000000	6,387800
367,000000	6,340400
366,000000	6,280800
365,000000	6,155200
364,000000	5,976400
363,000000	6,061700
362,000000	6,112600
361,000000	6,034700
360,000000	6,055800
359,000000	6,007300
358,000000	6,031800
357,000000	6,045600
356,000000	5,973300
355,000000	6,041100
354,000000	6,021000
353,000000	6,053800
352,000000	6,067400
351,000000	5,975100
350,000000	5,947000
349,000000	5,790900
348,000000	5,818000
347,000000	5,852500
346,000000	5,805200
345,000000	5,830100
344,000000	5,808700
343,000000	5,971200
342,000000	5,800900
341,000000	5,659900
340,000000	5,836500
339,000000	5,831500
338,000000	5,963400
337,000000	5,843200
336,000000	5,900200
335,000000	6,011400
334,000000	5,656600
333,000000	5,604100
332,000000	5,779100
331,000000	5,905500
330,000000	5,794700
329,000000	5,994300
328,000000	6,342000
327,000000	6,075600
326,000000	6,093700
325,000000	6,190600
324,000000	6,083100
323,000000	5,887200
322,000000	5,900100
321,000000	6,273000
320,000000	5,944600
319,000000	6,650200
318,000000	6,904900
317,000000	6,325900
316,000000	5,876300
315,000000	5,525500
314,000000	5,546600
313,000000	5,554000
312,000000	5,530600
311,000000	5,538800
310,000000	5,562000
309,000000	5,546500
308,000000	5,534500
307,000000	5,517700
306,000000	5,534500
305,000000	5,534600
304,000000	5,573200
303,000000	5,571400
302,000000	5,581300
301,000000	5,557700
300,000000	5,501300
299,000000	5,513600
298,000000	5,543000
297,000000	5,548900
296,000000	5,512100
295,000000	5,557100
294,000000	5,551300
293,000000	5,545700
292,000000	5,578600
291,000000	5,594200
290,000000	5,590400
289,000000	5,561600
288,000000	5,591400
287,000000	5,595200
286,000000	5,620000
285,000000	5,623200
284,000000	5,642500
283,000000	5,647300
282,000000	5,602700
281,000000	5,590600
280,000000	5,607000
279,000000	5,608500
278,000000	5,639900
277,000000	5,630300
276,000000	5,676000
275,000000	5,669800
274,000000	5,674500
273,000000	5,708900
272,000000	5,750700
271,000000	5,707700
270,000000	5,713400
269,000000	5,742500
268,000000	5,743300
267,000000	5,766800
266,000000	5,807400
265,000000	5,802600
264,000000	5,818800
263,000000	5,842600
262,000000	5,896700
261,000000	5,884700
260,000000	5,965000
259,000000	5,971500
258,000000	5,960600
257,000000	5,963000
256,000000	5,998200
255,000000	6,032600
254,000000	5,997700
253,000000	6,044300
252,000000	6,032400
251,000000	6,053000
250,000000	6,077300
