PE UV       SUBTECH     SPECTRUM    ASCII       PEDS        4.00        
   -1
CICIMAUCR0205-3.Sample.ASC
24/05/31
16:47:51.00
24/05/31
16:47:51.00
Vinicio Soto Monge
C. cupreomarginata. Sex F. Dorsal
250,000000
1
Lambda 1050
1050L1511233
PerkinElmer UV WinLab 6.3.2.0749 / 2.02.05 Lambda 900 UV/VIS/NIR, Aug  7 2015 09:38:08

0
0
3350/servo 860,8/2
0
0
UV/VIS
1
1
1
DoubleDePol,CommonBeamDepol,RBeamAtt,SBeamAtt,60mm sphere, WB InGaAs Detector
0
0
0
0
Program
Program
3350/servo 860,8/2
3350/0,2 860,8/0,2
3350/0,2 860,8/0,2
0
15.00
 
 
 
0
 
860,8
319,2
860,8
Front
100
on
S:100 R:100
0
0
0
0
 
0
 
 
 
0
 
 
0
0
0
0
0
 
 
 
 
0
0


0
0
#HDR
-1
-1
#GR
nm
%R
1.0
0.0
2500,000000
-1,000000
2251
8
69,495500
5,503700
#DATA
2500,000000	9,174200
2499,000000	9,232600
2498,000000	9,030400
2497,000000	9,035300
2496,000000	9,105800
2495,000000	9,011600
2494,000000	9,103800
2493,000000	8,970300
2492,000000	8,974100
2491,000000	8,919700
2490,000000	8,980800
2489,000000	8,967700
2488,000000	8,939500
2487,000000	9,004200
2486,000000	9,005000
2485,000000	9,015800
2484,000000	8,905300
2483,000000	8,962700
2482,000000	8,956000
2481,000000	8,939100
2480,000000	8,939500
2479,000000	8,991700
2478,000000	8,970700
2477,000000	8,980200
2476,000000	8,975200
2475,000000	9,033800
2474,000000	8,987700
2473,000000	9,001800
2472,000000	9,029600
2471,000000	9,091900
2470,000000	9,031500
2469,000000	9,040800
2468,000000	9,017700
2467,000000	9,078000
2466,000000	9,129100
2465,000000	9,148100
2464,000000	9,151000
2463,000000	9,180100
2462,000000	9,185200
2461,000000	9,242500
2460,000000	9,298500
2459,000000	9,354500
2458,000000	9,395600
2457,000000	9,450300
2456,000000	9,510700
2455,000000	9,591600
2454,000000	9,638500
2453,000000	9,695500
2452,000000	9,812200
2451,000000	9,857000
2450,000000	9,946400
2449,000000	9,998900
2448,000000	10,081900
2447,000000	10,157000
2446,000000	10,238900
2445,000000	10,326900
2444,000000	10,408500
2443,000000	10,465800
2442,000000	10,520600
2441,000000	10,615400
2440,000000	10,698400
2439,000000	10,774200
2438,000000	10,852700
2437,000000	10,935100
2436,000000	11,016000
2435,000000	11,078900
2434,000000	11,155300
2433,000000	11,190700
2432,000000	11,260200
2431,000000	11,330900
2430,000000	11,382100
2429,000000	11,459800
2428,000000	11,524400
2427,000000	11,565500
2426,000000	11,606700
2425,000000	11,676500
2424,000000	11,717400
2423,000000	11,766900
2422,000000	11,807600
2421,000000	11,860300
2420,000000	11,898800
2419,000000	11,923600
2418,000000	11,978700
2417,000000	12,024100
2416,000000	12,051800
2415,000000	12,101600
2414,000000	12,140000
2413,000000	12,176400
2412,000000	12,202000
2411,000000	12,240900
2410,000000	12,273000
2409,000000	12,314400
2408,000000	12,340000
2407,000000	12,367900
2406,000000	12,391200
2405,000000	12,414300
2404,000000	12,447200
2403,000000	12,473800
2402,000000	12,502800
2401,000000	12,537200
2400,000000	12,573400
2399,000000	12,622000
2398,000000	12,654900
2397,000000	12,680200
2396,000000	12,720100
2395,000000	12,738400
2394,000000	12,760900
2393,000000	12,788100
2392,000000	12,815100
2391,000000	12,832700
2390,000000	12,851600
2389,000000	12,882200
2388,000000	12,896400
2387,000000	12,905800
2386,000000	12,922400
2385,000000	12,944800
2384,000000	12,954100
2383,000000	12,948300
2382,000000	12,939200
2381,000000	12,937700
2380,000000	12,934900
2379,000000	12,939200
2378,000000	12,929000
2377,000000	12,920900
2376,000000	12,915600
2375,000000	12,909400
2374,000000	12,901600
2373,000000	12,890500
2372,000000	12,865600
2371,000000	12,837300
2370,000000	12,808200
2369,000000	12,771700
2368,000000	12,755000
2367,000000	12,737300
2366,000000	12,702000
2365,000000	12,650800
2364,000000	12,608900
2363,000000	12,569200
2362,000000	12,523000
2361,000000	12,475500
2360,000000	12,417000
2359,000000	12,369000
2358,000000	12,328900
2357,000000	12,303600
2356,000000	12,268600
2355,000000	12,223200
2354,000000	12,195100
2353,000000	12,178800
2352,000000	12,168700
2351,000000	12,159300
2350,000000	12,166700
2349,000000	12,175600
2348,000000	12,159800
2347,000000	12,182200
2346,000000	12,220600
2345,000000	12,250600
2344,000000	12,296200
2343,000000	12,325600
2342,000000	12,357400
2341,000000	12,379500
2340,000000	12,403100
2339,000000	12,430900
2338,000000	12,451400
2337,000000	12,473300
2336,000000	12,476500
2335,000000	12,476400
2334,000000	12,460600
2333,000000	12,444000
2332,000000	12,428700
2331,000000	12,407100
2330,000000	12,378800
2329,000000	12,339800
2328,000000	12,284600
2327,000000	12,245200
2326,000000	12,187500
2325,000000	12,124900
2324,000000	12,059600
2323,000000	11,983900
2322,000000	11,905000
2321,000000	11,828900
2320,000000	11,750400
2319,000000	11,645800
2318,000000	11,547400
2317,000000	11,440500
2316,000000	11,330200
2315,000000	11,224200
2314,000000	11,113300
2313,000000	11,007800
2312,000000	10,916900
2311,000000	10,806800
2310,000000	10,736900
2309,000000	10,667400
2308,000000	10,612700
2307,000000	10,540900
2306,000000	10,501900
2305,000000	10,500700
2304,000000	10,515200
2303,000000	10,537000
2302,000000	10,556100
2301,000000	10,596300
2300,000000	10,672700
2299,000000	10,746900
2298,000000	10,829100
2297,000000	10,897200
2296,000000	10,983600
2295,000000	11,056600
2294,000000	11,136600
2293,000000	11,223000
2292,000000	11,262300
2291,000000	11,325800
2290,000000	11,367400
2289,000000	11,422700
2288,000000	11,444800
2287,000000	11,438300
2286,000000	11,436500
2285,000000	11,411200
2284,000000	11,405800
2283,000000	11,375500
2282,000000	11,343200
2281,000000	11,303300
2280,000000	11,242900
2279,000000	11,185300
2278,000000	11,155800
2277,000000	11,113500
2276,000000	11,053400
2275,000000	11,010400
2274,000000	10,975600
2273,000000	10,956200
2272,000000	10,919200
2271,000000	10,931100
2270,000000	10,923700
2269,000000	10,953000
2268,000000	10,988800
2267,000000	11,034600
2266,000000	11,100300
2265,000000	11,208700
2264,000000	11,320800
2263,000000	11,443300
2262,000000	11,614600
2261,000000	11,793700
2260,000000	11,984200
2259,000000	12,177000
2258,000000	12,402900
2257,000000	12,623400
2256,000000	12,847900
2255,000000	13,075000
2254,000000	13,314900
2253,000000	13,541900
2252,000000	13,775400
2251,000000	13,979700
2250,000000	14,193900
2249,000000	14,388600
2248,000000	14,550200
2247,000000	14,749400
2246,000000	14,926100
2245,000000	15,088000
2244,000000	15,191400
2243,000000	15,337700
2242,000000	15,472900
2241,000000	15,574100
2240,000000	15,666800
2239,000000	15,764800
2238,000000	15,863400
2237,000000	15,954400
2236,000000	16,011200
2235,000000	16,073000
2234,000000	16,119000
2233,000000	16,164400
2232,000000	16,229900
2231,000000	16,262700
2230,000000	16,274300
2229,000000	16,318700
2228,000000	16,341400
2227,000000	16,315300
2226,000000	16,324700
2225,000000	16,324400
2224,000000	16,327800
2223,000000	16,290100
2222,000000	16,275400
2221,000000	16,253300
2220,000000	16,223400
2219,000000	16,180200
2218,000000	16,162200
2217,000000	16,104900
2216,000000	16,072500
2215,000000	16,050800
2214,000000	16,021900
2213,000000	15,981800
2212,000000	15,937300
2211,000000	15,921200
2210,000000	15,885800
2209,000000	15,862900
2208,000000	15,841800
2207,000000	15,803800
2206,000000	15,768500
2205,000000	15,736800
2204,000000	15,740600
2203,000000	15,715000
2202,000000	15,698400
2201,000000	15,672900
2200,000000	15,677400
2199,000000	15,653700
2198,000000	15,630100
2197,000000	15,609100
2196,000000	15,594800
2195,000000	15,594300
2194,000000	15,582100
2193,000000	15,538100
2192,000000	15,527000
2191,000000	15,543800
2190,000000	15,505200
2189,000000	15,498900
2188,000000	15,496900
2187,000000	15,454800
2186,000000	15,447600
2185,000000	15,458900
2184,000000	15,437000
2183,000000	15,414200
2182,000000	15,411100
2181,000000	15,406400
2180,000000	15,406200
2179,000000	15,376900
2178,000000	15,374300
2177,000000	15,351400
2176,000000	15,332000
2175,000000	15,330400
2174,000000	15,355300
2173,000000	15,334600
2172,000000	15,350100
2171,000000	15,358500
2170,000000	15,361500
2169,000000	15,367200
2168,000000	15,392900
2167,000000	15,410400
2166,000000	15,423900
2165,000000	15,439300
2164,000000	15,476600
2163,000000	15,500500
2162,000000	15,527200
2161,000000	15,547500
2160,000000	15,590100
2159,000000	15,627500
2158,000000	15,666500
2157,000000	15,720200
2156,000000	15,758100
2155,000000	15,794900
2154,000000	15,850200
2153,000000	15,902700
2152,000000	15,959600
2151,000000	16,006300
2150,000000	16,055900
2149,000000	16,112400
2148,000000	16,160100
2147,000000	16,212300
2146,000000	16,255700
2145,000000	16,304000
2144,000000	16,356300
2143,000000	16,410300
2142,000000	16,458800
2141,000000	16,502900
2140,000000	16,530200
2139,000000	16,576500
2138,000000	16,611000
2137,000000	16,649800
2136,000000	16,689700
2135,000000	16,731000
2134,000000	16,752500
2133,000000	16,763300
2132,000000	16,779600
2131,000000	16,818000
2130,000000	16,827100
2129,000000	16,830700
2128,000000	16,840500
2127,000000	16,851000
2126,000000	16,865500
2125,000000	16,864800
2124,000000	16,852500
2123,000000	16,854500
2122,000000	16,844800
2121,000000	16,837500
2120,000000	16,827400
2119,000000	16,807000
2118,000000	16,786600
2117,000000	16,771200
2116,000000	16,743000
2115,000000	16,717500
2114,000000	16,693000
2113,000000	16,662800
2112,000000	16,630200
2111,000000	16,617000
2110,000000	16,589400
2109,000000	16,561000
2108,000000	16,518000
2107,000000	16,483500
2106,000000	16,454500
2105,000000	16,430700
2104,000000	16,390200
2103,000000	16,358100
2102,000000	16,324200
2101,000000	16,282100
2100,000000	16,254100
2099,000000	16,219700
2098,000000	16,187000
2097,000000	16,157300
2096,000000	16,120500
2095,000000	16,092100
2094,000000	16,063000
2093,000000	16,036900
2092,000000	16,020100
2091,000000	16,007400
2090,000000	15,971300
2089,000000	15,944100
2088,000000	15,939000
2087,000000	15,904300
2086,000000	15,877600
2085,000000	15,852100
2084,000000	15,814700
2083,000000	15,779900
2082,000000	15,748500
2081,000000	15,711800
2080,000000	15,675600
2079,000000	15,642600
2078,000000	15,593400
2077,000000	15,537100
2076,000000	15,490000
2075,000000	15,435300
2074,000000	15,380100
2073,000000	15,337300
2072,000000	15,286700
2071,000000	15,218300
2070,000000	15,156900
2069,000000	15,096000
2068,000000	15,027000
2067,000000	14,966700
2066,000000	14,902300
2065,000000	14,841900
2064,000000	14,781500
2063,000000	14,732800
2062,000000	14,675700
2061,000000	14,622300
2060,000000	14,569900
2059,000000	14,518600
2058,000000	14,475200
2057,000000	14,440100
2056,000000	14,424400
2055,000000	14,415800
2054,000000	14,401700
2053,000000	14,406000
2052,000000	14,409200
2051,000000	14,436800
2050,000000	14,476200
2049,000000	14,528000
2048,000000	14,585500
2047,000000	14,645900
2046,000000	14,716900
2045,000000	14,780200
2044,000000	14,853200
2043,000000	14,939900
2042,000000	15,017700
2041,000000	15,095700
2040,000000	15,171300
2039,000000	15,259000
2038,000000	15,343800
2037,000000	15,414000
2036,000000	15,471000
2035,000000	15,532800
2034,000000	15,598600
2033,000000	15,663800
2032,000000	15,705800
2031,000000	15,759100
2030,000000	15,799700
2029,000000	15,851800
2028,000000	15,873000
2027,000000	15,893500
2026,000000	15,938100
2025,000000	15,958100
2024,000000	15,971400
2023,000000	15,994400
2022,000000	16,016000
2021,000000	16,043300
2020,000000	16,048100
2019,000000	16,067700
2018,000000	16,045800
2017,000000	16,038900
2016,000000	16,042000
2015,000000	16,047800
2014,000000	16,050700
2013,000000	16,041500
2012,000000	16,012100
2011,000000	15,987100
2010,000000	15,972600
2009,000000	15,963400
2008,000000	15,908400
2007,000000	15,872200
2006,000000	15,834300
2005,000000	15,790100
2004,000000	15,743500
2003,000000	15,716900
2002,000000	15,670700
2001,000000	15,602800
2000,000000	15,561800
1999,000000	15,478100
1998,000000	15,409500
1997,000000	15,348500
1996,000000	15,291500
1995,000000	15,215600
1994,000000	15,138900
1993,000000	15,073400
1992,000000	15,004400
1991,000000	14,908100
1990,000000	14,826400
1989,000000	14,737900
1988,000000	14,673300
1987,000000	14,577800
1986,000000	14,497800
1985,000000	14,429200
1984,000000	14,324900
1983,000000	14,248300
1982,000000	14,140800
1981,000000	14,051000
1980,000000	13,970700
1979,000000	13,890300
1978,000000	13,799800
1977,000000	13,710900
1976,000000	13,619300
1975,000000	13,532000
1974,000000	13,443700
1973,000000	13,360900
1972,000000	13,286600
1971,000000	13,206800
1970,000000	13,109600
1969,000000	13,040900
1968,000000	12,954100
1967,000000	12,884400
1966,000000	12,802000
1965,000000	12,739900
1964,000000	12,643100
1963,000000	12,589700
1962,000000	12,488500
1961,000000	12,420300
1960,000000	12,346400
1959,000000	12,279700
1958,000000	12,204600
1957,000000	12,148100
1956,000000	12,090600
1955,000000	12,028800
1954,000000	11,955600
1953,000000	11,875100
1952,000000	11,807800
1951,000000	11,758300
1950,000000	11,689600
1949,000000	11,634600
1948,000000	11,611700
1947,000000	11,531100
1946,000000	11,494500
1945,000000	11,448800
1944,000000	11,423300
1943,000000	11,388400
1942,000000	11,352700
1941,000000	11,332100
1940,000000	11,333300
1939,000000	11,288900
1938,000000	11,332400
1937,000000	11,313600
1936,000000	11,344900
1935,000000	11,324800
1934,000000	11,338700
1933,000000	11,406700
1932,000000	11,421600
1931,000000	11,430500
1930,000000	11,480400
1929,000000	11,582700
1928,000000	11,658200
1927,000000	11,738600
1926,000000	11,832600
1925,000000	11,918300
1924,000000	12,018000
1923,000000	12,090100
1922,000000	12,213600
1921,000000	12,388300
1920,000000	12,560700
1919,000000	12,708200
1918,000000	12,876200
1917,000000	13,032400
1916,000000	13,166800
1915,000000	13,297400
1914,000000	13,461300
1913,000000	13,716800
1912,000000	13,968400
1911,000000	14,194600
1910,000000	14,402300
1909,000000	14,580400
1908,000000	14,784400
1907,000000	14,993800
1906,000000	15,256200
1905,000000	15,572300
1904,000000	15,902600
1903,000000	16,209700
1902,000000	16,487200
1901,000000	16,774800
1900,000000	17,101100
1899,000000	17,463600
1898,000000	17,829500
1897,000000	18,183300
1896,000000	18,544300
1895,000000	18,827400
1894,000000	19,139800
1893,000000	19,489700
1892,000000	19,871900
1891,000000	20,332900
1890,000000	20,784700
1889,000000	21,183400
1888,000000	21,604200
1887,000000	22,027700
1886,000000	22,442700
1885,000000	22,898900
1884,000000	23,387600
1883,000000	23,919400
1882,000000	24,406800
1881,000000	24,904200
1880,000000	25,371500
1879,000000	25,790800
1878,000000	26,259300
1877,000000	26,704600
1876,000000	27,124000
1875,000000	27,519200
1874,000000	27,939300
1873,000000	28,318400
1872,000000	28,705700
1871,000000	29,047900
1870,000000	29,380200
1869,000000	29,691900
1868,000000	29,969300
1867,000000	30,164400
1866,000000	30,340600
1865,000000	30,470700
1864,000000	30,627500
1863,000000	30,734900
1862,000000	30,845100
1861,000000	30,983000
1860,000000	31,116900
1859,000000	31,225700
1858,000000	31,329800
1857,000000	31,429700
1856,000000	31,498200
1855,000000	31,532500
1854,000000	31,586700
1853,000000	31,625800
1852,000000	31,630800
1851,000000	31,630500
1850,000000	31,649900
1849,000000	31,655300
1848,000000	31,678100
1847,000000	31,705100
1846,000000	31,711400
1845,000000	31,665400
1844,000000	31,605500
1843,000000	31,544400
1842,000000	31,550000
1841,000000	31,583300
1840,000000	31,591000
1839,000000	31,593600
1838,000000	31,554500
1837,000000	31,525200
1836,000000	31,494000
1835,000000	31,481800
1834,000000	31,443700
1833,000000	31,361800
1832,000000	31,289100
1831,000000	31,239500
1830,000000	31,204500
1829,000000	31,174700
1828,000000	31,121200
1827,000000	31,062700
1826,000000	31,004600
1825,000000	30,958900
1824,000000	30,896200
1823,000000	30,850900
1822,000000	30,842800
1821,000000	30,847800
1820,000000	30,838900
1819,000000	30,830200
1818,000000	30,787900
1817,000000	30,746400
1816,000000	30,714100
1815,000000	30,709900
1814,000000	30,706800
1813,000000	30,689600
1812,000000	30,671600
1811,000000	30,655500
1810,000000	30,628700
1809,000000	30,588600
1808,000000	30,542600
1807,000000	30,501800
1806,000000	30,470800
1805,000000	30,418100
1804,000000	30,373600
1803,000000	30,334300
1802,000000	30,282000
1801,000000	30,255400
1800,000000	30,214300
1799,000000	30,146600
1798,000000	30,103600
1797,000000	30,058200
1796,000000	30,010900
1795,000000	29,974000
1794,000000	29,931600
1793,000000	29,887500
1792,000000	29,848300
1791,000000	29,799100
1790,000000	29,738600
1789,000000	29,679000
1788,000000	29,640000
1787,000000	29,607800
1786,000000	29,562600
1785,000000	29,509300
1784,000000	29,438300
1783,000000	29,385200
1782,000000	29,336400
1781,000000	29,276600
1780,000000	29,232300
1779,000000	29,153900
1778,000000	29,083000
1777,000000	29,023500
1776,000000	28,944300
1775,000000	28,860900
1774,000000	28,790400
1773,000000	28,702400
1772,000000	28,605700
1771,000000	28,524800
1770,000000	28,419600
1769,000000	28,323800
1768,000000	28,236400
1767,000000	28,144000
1766,000000	28,068300
1765,000000	28,012000
1764,000000	27,942100
1763,000000	27,908200
1762,000000	27,896000
1761,000000	27,904900
1760,000000	27,921500
1759,000000	27,953200
1758,000000	28,010300
1757,000000	28,068000
1756,000000	28,130400
1755,000000	28,172500
1754,000000	28,209800
1753,000000	28,244500
1752,000000	28,255200
1751,000000	28,264100
1750,000000	28,268500
1749,000000	28,245700
1748,000000	28,208300
1747,000000	28,167000
1746,000000	28,118900
1745,000000	28,047600
1744,000000	27,945900
1743,000000	27,833600
1742,000000	27,706000
1741,000000	27,565000
1740,000000	27,413600
1739,000000	27,239400
1738,000000	27,074300
1737,000000	26,903400
1736,000000	26,767300
1735,000000	26,638400
1734,000000	26,558000
1733,000000	26,507200
1732,000000	26,472100
1731,000000	26,482200
1730,000000	26,521700
1729,000000	26,565300
1728,000000	26,640000
1727,000000	26,717400
1726,000000	26,781300
1725,000000	26,845900
1724,000000	26,892800
1723,000000	26,950800
1722,000000	27,010900
1721,000000	27,059100
1720,000000	27,109300
1719,000000	27,195800
1718,000000	27,255100
1717,000000	27,331900
1716,000000	27,427100
1715,000000	27,523200
1714,000000	27,628800
1713,000000	27,725400
1712,000000	27,817200
1711,000000	27,887100
1710,000000	27,959800
1709,000000	27,996500
1708,000000	28,012900
1707,000000	28,062200
1706,000000	28,076900
1705,000000	28,034000
1704,000000	28,007000
1703,000000	27,983000
1702,000000	27,928300
1701,000000	27,851000
1700,000000	27,766700
1699,000000	27,650800
1698,000000	27,541900
1697,000000	27,431600
1696,000000	27,354800
1695,000000	27,287600
1694,000000	27,280300
1693,000000	27,294900
1692,000000	27,351200
1691,000000	27,450400
1690,000000	27,558100
1689,000000	27,666400
1688,000000	27,756100
1687,000000	27,814600
1686,000000	27,861200
1685,000000	27,910600
1684,000000	27,990800
1683,000000	28,105900
1682,000000	28,292100
1681,000000	28,554600
1680,000000	28,877100
1679,000000	29,263300
1678,000000	29,665100
1677,000000	30,082500
1676,000000	30,484700
1675,000000	30,834500
1674,000000	31,162000
1673,000000	31,421200
1672,000000	31,680100
1671,000000	31,904600
1670,000000	32,092600
1669,000000	32,283900
1668,000000	32,413400
1667,000000	32,560900
1666,000000	32,679000
1665,000000	32,783700
1664,000000	32,894600
1663,000000	32,951600
1662,000000	33,049500
1661,000000	33,132500
1660,000000	33,189100
1659,000000	33,256700
1658,000000	33,301800
1657,000000	33,338100
1656,000000	33,363700
1655,000000	33,371600
1654,000000	33,409400
1653,000000	33,390900
1652,000000	33,399900
1651,000000	33,405600
1650,000000	33,376900
1649,000000	33,367100
1648,000000	33,335700
1647,000000	33,324300
1646,000000	33,280700
1645,000000	33,254600
1644,000000	33,208800
1643,000000	33,189200
1642,000000	33,141000
1641,000000	33,096200
1640,000000	33,057200
1639,000000	33,015500
1638,000000	32,963300
1637,000000	32,928200
1636,000000	32,862100
1635,000000	32,809500
1634,000000	32,750500
1633,000000	32,693700
1632,000000	32,638400
1631,000000	32,595500
1630,000000	32,524700
1629,000000	32,435100
1628,000000	32,382100
1627,000000	32,316100
1626,000000	32,228700
1625,000000	32,161700
1624,000000	32,085200
1623,000000	32,032400
1622,000000	31,951900
1621,000000	31,883700
1620,000000	31,817000
1619,000000	31,757300
1618,000000	31,694500
1617,000000	31,621600
1616,000000	31,552600
1615,000000	31,478400
1614,000000	31,399200
1613,000000	31,349600
1612,000000	31,283200
1611,000000	31,205000
1610,000000	31,161800
1609,000000	31,077800
1608,000000	31,017400
1607,000000	30,943000
1606,000000	30,858500
1605,000000	30,795600
1604,000000	30,721100
1603,000000	30,640400
1602,000000	30,569700
1601,000000	30,481800
1600,000000	30,414500
1599,000000	30,340800
1598,000000	30,265400
1597,000000	30,183000
1596,000000	30,130100
1595,000000	30,061300
1594,000000	29,980800
1593,000000	29,911200
1592,000000	29,863700
1591,000000	29,780600
1590,000000	29,724600
1589,000000	29,662900
1588,000000	29,591400
1587,000000	29,542300
1586,000000	29,479000
1585,000000	29,410600
1584,000000	29,366500
1583,000000	29,316400
1582,000000	29,264700
1581,000000	29,203100
1580,000000	29,154100
1579,000000	29,111100
1578,000000	29,059300
1577,000000	29,019700
1576,000000	28,984000
1575,000000	28,954900
1574,000000	28,919800
1573,000000	28,895500
1572,000000	28,872300
1571,000000	28,853100
1570,000000	28,831200
1569,000000	28,828300
1568,000000	28,815800
1567,000000	28,805100
1566,000000	28,803700
1565,000000	28,790500
1564,000000	28,768800
1563,000000	28,753700
1562,000000	28,753600
1561,000000	28,731500
1560,000000	28,718200
1559,000000	28,703200
1558,000000	28,678200
1557,000000	28,660400
1556,000000	28,637800
1555,000000	28,602500
1554,000000	28,569000
1553,000000	28,529600
1552,000000	28,500000
1551,000000	28,466700
1550,000000	28,411300
1549,000000	28,369900
1548,000000	28,332000
1547,000000	28,300100
1546,000000	28,261800
1545,000000	28,221900
1544,000000	28,179400
1543,000000	28,161300
1542,000000	28,133400
1541,000000	28,097200
1540,000000	28,074800
1539,000000	28,060000
1538,000000	28,025700
1537,000000	27,996400
1536,000000	27,974700
1535,000000	27,957700
1534,000000	27,930900
1533,000000	27,901600
1532,000000	27,869200
1531,000000	27,834500
1530,000000	27,799300
1529,000000	27,752800
1528,000000	27,708900
1527,000000	27,680300
1526,000000	27,644000
1525,000000	27,596800
1524,000000	27,548500
1523,000000	27,511300
1522,000000	27,472600
1521,000000	27,412600
1520,000000	27,365200
1519,000000	27,316100
1518,000000	27,268800
1517,000000	27,226600
1516,000000	27,186500
1515,000000	27,134500
1514,000000	27,075200
1513,000000	27,028700
1512,000000	26,962700
1511,000000	26,916200
1510,000000	26,872400
1509,000000	26,807400
1508,000000	26,741000
1507,000000	26,681000
1506,000000	26,630900
1505,000000	26,578200
1504,000000	26,519700
1503,000000	26,465300
1502,000000	26,416200
1501,000000	26,372100
1500,000000	26,309900
1499,000000	26,255800
1498,000000	26,226900
1497,000000	26,193700
1496,000000	26,139800
1495,000000	26,102600
1494,000000	26,079300
1493,000000	26,043300
1492,000000	26,006200
1491,000000	25,973600
1490,000000	25,953400
1489,000000	25,944200
1488,000000	25,930800
1487,000000	25,905500
1486,000000	25,876900
1485,000000	25,847100
1484,000000	25,826100
1483,000000	25,805000
1482,000000	25,795500
1481,000000	25,783300
1480,000000	25,780600
1479,000000	25,763400
1478,000000	25,756600
1477,000000	25,757300
1476,000000	25,749400
1475,000000	25,746700
1474,000000	25,765400
1473,000000	25,775600
1472,000000	25,789700
1471,000000	25,808800
1470,000000	25,818200
1469,000000	25,837400
1468,000000	25,843000
1467,000000	25,846500
1466,000000	25,873400
1465,000000	25,894000
1464,000000	25,914200
1463,000000	25,940300
1462,000000	25,964300
1461,000000	25,989400
1460,000000	26,033600
1459,000000	26,067300
1458,000000	26,109600
1457,000000	26,154700
1456,000000	26,217300
1455,000000	26,277200
1454,000000	26,318800
1453,000000	26,390800
1452,000000	26,448000
1451,000000	26,530800
1450,000000	26,609100
1449,000000	26,655100
1448,000000	26,711100
1447,000000	26,776500
1446,000000	26,865400
1445,000000	26,956500
1444,000000	27,042400
1443,000000	27,082800
1442,000000	27,157400
1441,000000	27,273900
1440,000000	27,358100
1439,000000	27,446000
1438,000000	27,542500
1437,000000	27,630700
1436,000000	27,724100
1435,000000	27,810100
1434,000000	27,903200
1433,000000	28,025000
1432,000000	28,143300
1431,000000	28,259400
1430,000000	28,366100
1429,000000	28,495100
1428,000000	28,631000
1427,000000	28,787000
1426,000000	28,921400
1425,000000	29,088700
1424,000000	29,250900
1423,000000	29,421700
1422,000000	29,605200
1421,000000	29,797300
1420,000000	29,989200
1419,000000	30,237900
1418,000000	30,444300
1417,000000	30,618000
1416,000000	30,802100
1415,000000	31,064500
1414,000000	31,342000
1413,000000	31,582400
1412,000000	31,828000
1411,000000	32,075200
1410,000000	32,353800
1409,000000	32,685600
1408,000000	33,010100
1407,000000	33,344400
1406,000000	33,685800
1405,000000	34,039400
1404,000000	34,368600
1403,000000	34,752400
1402,000000	35,077400
1401,000000	35,440400
1400,000000	35,844700
1399,000000	36,204400
1398,000000	36,458900
1397,000000	36,719100
1396,000000	37,049200
1395,000000	37,406900
1394,000000	37,684400
1393,000000	37,929000
1392,000000	38,167300
1391,000000	38,471000
1390,000000	38,759600
1389,000000	39,016700
1388,000000	39,413200
1387,000000	39,782700
1386,000000	40,164200
1385,000000	40,575500
1384,000000	41,029000
1383,000000	41,432100
1382,000000	41,911600
1381,000000	42,295600
1380,000000	42,621400
1379,000000	42,835200
1378,000000	43,042200
1377,000000	43,185400
1376,000000	43,356300
1375,000000	43,530400
1374,000000	43,700200
1373,000000	43,942200
1372,000000	44,235300
1371,000000	44,504200
1370,000000	44,792000
1369,000000	45,040900
1368,000000	45,309700
1367,000000	45,546500
1366,000000	45,776600
1365,000000	45,929700
1364,000000	46,126100
1363,000000	46,267900
1362,000000	46,468800
1361,000000	46,617700
1360,000000	46,749100
1359,000000	46,758100
1358,000000	46,870900
1357,000000	46,979500
1356,000000	47,106900
1355,000000	47,318500
1354,000000	47,601700
1353,000000	47,892400
1352,000000	48,192600
1351,000000	48,619300
1350,000000	48,990700
1349,000000	49,371600
1348,000000	49,701600
1347,000000	50,032600
1346,000000	50,354400
1345,000000	50,584500
1344,000000	50,910800
1343,000000	51,183200
1342,000000	51,436300
1341,000000	51,691900
1340,000000	51,966500
1339,000000	52,209900
1338,000000	52,452500
1337,000000	52,694900
1336,000000	52,941200
1335,000000	53,178700
1334,000000	53,406100
1333,000000	53,615900
1332,000000	53,833600
1331,000000	54,037400
1330,000000	54,221800
1329,000000	54,414800
1328,000000	54,622600
1327,000000	54,801700
1326,000000	54,959800
1325,000000	55,109800
1324,000000	55,283000
1323,000000	55,420600
1322,000000	55,562500
1321,000000	55,702900
1320,000000	55,842900
1319,000000	55,969400
1318,000000	56,092900
1317,000000	56,210800
1316,000000	56,320200
1315,000000	56,407900
1314,000000	56,525900
1313,000000	56,633500
1312,000000	56,715300
1311,000000	56,808300
1310,000000	56,887900
1309,000000	56,973200
1308,000000	57,048600
1307,000000	57,102500
1306,000000	57,172300
1305,000000	57,219200
1304,000000	57,270500
1303,000000	57,310000
1302,000000	57,349700
1301,000000	57,373600
1300,000000	57,390900
1299,000000	57,420400
1298,000000	57,437200
1297,000000	57,461900
1296,000000	57,478100
1295,000000	57,487600
1294,000000	57,493300
1293,000000	57,502100
1292,000000	57,506900
1291,000000	57,476500
1290,000000	57,466100
1289,000000	57,460400
1288,000000	57,443300
1287,000000	57,423100
1286,000000	57,388400
1285,000000	57,343800
1284,000000	57,312300
1283,000000	57,268300
1282,000000	57,220500
1281,000000	57,180100
1280,000000	57,143000
1279,000000	57,102600
1278,000000	57,058500
1277,000000	57,029900
1276,000000	56,979500
1275,000000	56,933200
1274,000000	56,902900
1273,000000	56,865000
1272,000000	56,842000
1271,000000	56,819100
1270,000000	56,794500
1269,000000	56,763000
1268,000000	56,739800
1267,000000	56,713700
1266,000000	56,686900
1265,000000	56,657000
1264,000000	56,625200
1263,000000	56,602100
1262,000000	56,574400
1261,000000	56,561000
1260,000000	56,542800
1259,000000	56,507000
1258,000000	56,481600
1257,000000	56,454100
1256,000000	56,425600
1255,000000	56,398800
1254,000000	56,361800
1253,000000	56,328800
1252,000000	56,281600
1251,000000	56,244100
1250,000000	56,202100
1249,000000	56,148000
1248,000000	56,094700
1247,000000	56,040100
1246,000000	55,973000
1245,000000	55,894500
1244,000000	55,821200
1243,000000	55,749400
1242,000000	55,657500
1241,000000	55,573400
1240,000000	55,497100
1239,000000	55,405000
1238,000000	55,304000
1237,000000	55,207900
1236,000000	55,105400
1235,000000	55,004400
1234,000000	54,897600
1233,000000	54,788000
1232,000000	54,683800
1231,000000	54,568100
1230,000000	54,449200
1229,000000	54,336000
1228,000000	54,221000
1227,000000	54,096100
1226,000000	53,973100
1225,000000	53,849100
1224,000000	53,722000
1223,000000	53,605100
1222,000000	53,474500
1221,000000	53,339900
1220,000000	53,207300
1219,000000	53,093000
1218,000000	52,988200
1217,000000	52,866800
1216,000000	52,763400
1215,000000	52,653400
1214,000000	52,548000
1213,000000	52,450000
1212,000000	52,355800
1211,000000	52,252800
1210,000000	52,154800
1209,000000	52,078000
1208,000000	51,985800
1207,000000	51,888100
1206,000000	51,815000
1205,000000	51,770800
1204,000000	51,712400
1203,000000	51,664400
1202,000000	51,633000
1201,000000	51,578100
1200,000000	51,531600
1199,000000	51,482700
1198,000000	51,412400
1197,000000	51,327700
1196,000000	51,208600
1195,000000	51,066100
1194,000000	50,883700
1193,000000	50,650900
1192,000000	50,372800
1191,000000	50,056600
1190,000000	49,723000
1189,000000	49,408000
1188,000000	49,119300
1187,000000	48,902600
1186,000000	48,754000
1185,000000	48,682800
1184,000000	48,706500
1183,000000	48,839400
1182,000000	49,056700
1181,000000	49,329500
1180,000000	49,661900
1179,000000	50,019800
1178,000000	50,368500
1177,000000	50,672900
1176,000000	50,943500
1175,000000	51,204900
1174,000000	51,439600
1173,000000	51,639000
1172,000000	51,875200
1171,000000	52,108800
1170,000000	52,345300
1169,000000	52,594600
1168,000000	52,845100
1167,000000	53,111800
1166,000000	53,367600
1165,000000	53,636100
1164,000000	53,922300
1163,000000	54,219300
1162,000000	54,524600
1161,000000	54,813100
1160,000000	55,100600
1159,000000	55,394600
1158,000000	55,678300
1157,000000	55,959300
1156,000000	56,217300
1155,000000	56,448100
1154,000000	56,647400
1153,000000	56,818700
1152,000000	56,950200
1151,000000	57,064800
1150,000000	57,153200
1149,000000	57,238300
1148,000000	57,302500
1147,000000	57,389600
1146,000000	57,507800
1145,000000	57,663200
1144,000000	57,836900
1143,000000	58,074200
1142,000000	58,347600
1141,000000	58,639700
1140,000000	58,941400
1139,000000	59,252200
1138,000000	59,582300
1137,000000	59,930100
1136,000000	60,279700
1135,000000	60,669700
1134,000000	61,041000
1133,000000	61,367600
1132,000000	61,668200
1131,000000	61,983800
1130,000000	62,265100
1129,000000	62,511500
1128,000000	62,716600
1127,000000	62,905400
1126,000000	63,046900
1125,000000	63,177900
1124,000000	63,283100
1123,000000	63,384500
1122,000000	63,451000
1121,000000	63,522200
1120,000000	63,588000
1119,000000	63,617100
1118,000000	63,654500
1117,000000	63,671400
1116,000000	63,685400
1115,000000	63,702900
1114,000000	63,715700
1113,000000	63,704900
1112,000000	63,703900
1111,000000	63,699800
1110,000000	63,708200
1109,000000	63,699700
1108,000000	63,691100
1107,000000	63,690900
1106,000000	63,680400
1105,000000	63,687400
1104,000000	63,679400
1103,000000	63,659000
1102,000000	63,651300
1101,000000	63,654600
1100,000000	63,637600
1099,000000	63,602300
1098,000000	63,599900
1097,000000	63,573300
1096,000000	63,560100
1095,000000	63,522900
1094,000000	63,498400
1093,000000	63,458900
1092,000000	63,431500
1091,000000	63,401100
1090,000000	63,350300
1089,000000	63,318100
1088,000000	63,270300
1087,000000	63,261200
1086,000000	63,214300
1085,000000	63,154000
1084,000000	63,130800
1083,000000	63,077400
1082,000000	63,039100
1081,000000	62,999100
1080,000000	62,953600
1079,000000	62,896100
1078,000000	62,873800
1077,000000	62,812600
1076,000000	62,779800
1075,000000	62,742200
1074,000000	62,710800
1073,000000	62,675700
1072,000000	62,627000
1071,000000	62,590100
1070,000000	62,539400
1069,000000	62,512500
1068,000000	62,475900
1067,000000	62,420400
1066,000000	62,388800
1065,000000	62,361100
1064,000000	62,321100
1063,000000	62,273300
1062,000000	62,232900
1061,000000	62,193200
1060,000000	62,150000
1059,000000	62,121800
1058,000000	62,080100
1057,000000	62,025200
1056,000000	61,987400
1055,000000	61,946200
1054,000000	61,904600
1053,000000	61,867900
1052,000000	61,816000
1051,000000	61,796700
1050,000000	61,763200
1049,000000	61,724600
1048,000000	61,711600
1047,000000	61,664100
1046,000000	61,629100
1045,000000	61,595900
1044,000000	61,569800
1043,000000	61,531400
1042,000000	61,517600
1041,000000	61,480300
1040,000000	61,470900
1039,000000	61,442100
1038,000000	61,427100
1037,000000	61,378600
1036,000000	61,350600
1035,000000	61,315400
1034,000000	61,273400
1033,000000	61,237300
1032,000000	61,198400
1031,000000	61,143400
1030,000000	61,086600
1029,000000	61,058200
1028,000000	61,010300
1027,000000	60,954500
1026,000000	60,907800
1025,000000	60,854800
1024,000000	60,807000
1023,000000	60,733600
1022,000000	60,674800
1021,000000	60,616900
1020,000000	60,555000
1019,000000	60,500700
1018,000000	60,441500
1017,000000	60,377100
1016,000000	60,308500
1015,000000	60,259800
1014,000000	60,231800
1013,000000	60,168000
1012,000000	60,118500
1011,000000	60,099100
1010,000000	60,046400
1009,000000	60,016600
1008,000000	59,995800
1007,000000	59,941700
1006,000000	59,924200
1005,000000	59,892700
1004,000000	59,878400
1003,000000	59,844300
1002,000000	59,824800
1001,000000	59,802300
1000,000000	59,770300
999,000000	59,747300
998,000000	59,719400
997,000000	59,691200
996,000000	59,683300
995,000000	59,654800
994,000000	59,653300
993,000000	59,643500
992,000000	59,646200
991,000000	59,631500
990,000000	59,618600
989,000000	59,630100
988,000000	59,646000
987,000000	59,655400
986,000000	59,661000
985,000000	59,687500
984,000000	59,714800
983,000000	59,749300
982,000000	59,783500
981,000000	59,825100
980,000000	59,867500
979,000000	59,912100
978,000000	59,955900
977,000000	60,011600
976,000000	60,064400
975,000000	60,128300
974,000000	60,187500
973,000000	60,232000
972,000000	60,269300
971,000000	60,330500
970,000000	60,398800
969,000000	60,461300
968,000000	60,523900
967,000000	60,570500
966,000000	60,643500
965,000000	60,699400
964,000000	60,758300
963,000000	60,821500
962,000000	60,879900
961,000000	60,937000
960,000000	60,988300
959,000000	61,050300
958,000000	61,096700
957,000000	61,132900
956,000000	61,179600
955,000000	61,197600
954,000000	61,218300
953,000000	61,235800
952,000000	61,255100
951,000000	61,262100
950,000000	61,264600
949,000000	61,266800
948,000000	61,256500
947,000000	61,250300
946,000000	61,236600
945,000000	61,217500
944,000000	61,216900
943,000000	61,200500
942,000000	61,161200
941,000000	61,130900
940,000000	61,130000
939,000000	61,109000
938,000000	61,069300
937,000000	61,047000
936,000000	61,037100
935,000000	61,044800
934,000000	61,035000
933,000000	61,024600
932,000000	61,032300
931,000000	61,038600
930,000000	61,064500
929,000000	61,081100
928,000000	61,091400
927,000000	61,119200
926,000000	61,142000
925,000000	61,177400
924,000000	61,221100
923,000000	61,279900
922,000000	61,327700
921,000000	61,400200
920,000000	61,452800
919,000000	61,485100
918,000000	61,559500
917,000000	61,630700
916,000000	61,689700
915,000000	61,749300
914,000000	61,795100
913,000000	61,842700
912,000000	61,908500
911,000000	61,954700
910,000000	62,018200
909,000000	62,071000
908,000000	62,112900
907,000000	62,189000
906,000000	62,253400
905,000000	62,310200
904,000000	62,372200
903,000000	62,441900
902,000000	62,496200
901,000000	62,550100
900,000000	62,614000
899,000000	62,679000
898,000000	62,731800
897,000000	62,783300
896,000000	62,829700
895,000000	62,879600
894,000000	62,932100
893,000000	62,983500
892,000000	63,026500
891,000000	63,073100
890,000000	63,116300
889,000000	63,155900
888,000000	63,205200
887,000000	63,269100
886,000000	63,313200
885,000000	63,375300
884,000000	63,430200
883,000000	63,479000
882,000000	63,545600
881,000000	63,608500
880,000000	63,659700
879,000000	63,703500
878,000000	63,768200
877,000000	63,789700
876,000000	63,776900
875,000000	63,758100
874,000000	63,733500
873,000000	63,661600
872,000000	63,597700
871,000000	63,647300
870,000000	63,767400
869,000000	63,927400
868,000000	64,086100
867,000000	64,236200
866,000000	64,367200
865,000000	64,509400
864,000000	64,654200
863,000000	64,794600
862,000000	64,914100
861,000000	65,052500
860,000000	65,224800
859,000000	65,338000
858,000000	65,459800
857,000000	68,390200
856,000000	68,075100
855,000000	67,913100
854,000000	67,872700
853,000000	68,136700
852,000000	68,219800
851,000000	68,248000
850,000000	68,514400
849,000000	68,255200
848,000000	68,532700
847,000000	68,995300
846,000000	68,934400
845,000000	68,966900
844,000000	68,838400
843,000000	68,804000
842,000000	69,020500
841,000000	69,224500
840,000000	69,146400
839,000000	68,939700
838,000000	69,271800
837,000000	69,220100
836,000000	69,057100
835,000000	69,083600
834,000000	69,437800
833,000000	69,182900
832,000000	69,046400
831,000000	69,242600
830,000000	69,293600
829,000000	69,495500
828,000000	68,990400
827,000000	69,374800
826,000000	69,330300
825,000000	69,021000
824,000000	69,138100
823,000000	69,040600
822,000000	69,069700
821,000000	69,058100
820,000000	69,006200
819,000000	69,102500
818,000000	68,828800
817,000000	69,017700
816,000000	68,841500
815,000000	68,987000
814,000000	68,948100
813,000000	68,650800
812,000000	68,573800
811,000000	68,347200
810,000000	68,439300
809,000000	68,641400
808,000000	68,248200
807,000000	68,354900
806,000000	68,048400
805,000000	68,125000
804,000000	67,786900
803,000000	67,805400
802,000000	67,803200
801,000000	67,879500
800,000000	67,505900
799,000000	67,444300
798,000000	67,258600
797,000000	67,209200
796,000000	67,000400
795,000000	66,910400
794,000000	66,887200
793,000000	66,937000
792,000000	66,814400
791,000000	66,485600
790,000000	66,646600
789,000000	66,457200
788,000000	66,352000
787,000000	66,110900
786,000000	66,057300
785,000000	65,917100
784,000000	65,939500
783,000000	65,854800
782,000000	65,612000
781,000000	65,557600
780,000000	65,485300
779,000000	65,323900
778,000000	65,026500
777,000000	65,089000
776,000000	65,077500
775,000000	64,832600
774,000000	64,868200
773,000000	64,638400
772,000000	64,651200
771,000000	64,467400
770,000000	64,246200
769,000000	64,149900
768,000000	64,048800
767,000000	63,930600
766,000000	63,627300
765,000000	63,387500
764,000000	63,273900
763,000000	63,044400
762,000000	62,897000
761,000000	62,808300
760,000000	62,647400
759,000000	62,408500
758,000000	62,143500
757,000000	62,182300
756,000000	62,161300
755,000000	61,886600
754,000000	61,697800
753,000000	61,610700
752,000000	61,415500
751,000000	61,236700
750,000000	61,045500
749,000000	60,929800
748,000000	60,780700
747,000000	60,476200
746,000000	60,388700
745,000000	60,101700
744,000000	60,009600
743,000000	59,842600
742,000000	59,620200
741,000000	59,491600
740,000000	59,427900
739,000000	59,320000
738,000000	59,165700
737,000000	59,024600
736,000000	58,935300
735,000000	58,825400
734,000000	58,779800
733,000000	58,637000
732,000000	58,587100
731,000000	58,429700
730,000000	58,330300
729,000000	58,173700
728,000000	58,032100
727,000000	57,969700
726,000000	57,811000
725,000000	57,712100
724,000000	57,548000
723,000000	57,519700
722,000000	57,427200
721,000000	57,361900
720,000000	57,254500
719,000000	57,173100
718,000000	57,044100
717,000000	56,920300
716,000000	56,897800
715,000000	56,837900
714,000000	56,778600
713,000000	56,688300
712,000000	56,581900
711,000000	56,561700
710,000000	56,532600
709,000000	56,471700
708,000000	56,384400
707,000000	56,264800
706,000000	56,211100
705,000000	56,119600
704,000000	56,088700
703,000000	56,120300
702,000000	56,068800
701,000000	56,032900
700,000000	56,083000
699,000000	56,055100
698,000000	56,060800
697,000000	56,133300
696,000000	56,140600
695,000000	56,189600
694,000000	56,269500
693,000000	56,307600
692,000000	56,302400
691,000000	56,363900
690,000000	56,405100
689,000000	56,379600
688,000000	56,358900
687,000000	56,340200
686,000000	56,330000
685,000000	56,221500
684,000000	56,103700
683,000000	56,041800
682,000000	55,950100
681,000000	55,831700
680,000000	55,752600
679,000000	55,667600
678,000000	55,552700
677,000000	55,421800
676,000000	55,326900
675,000000	55,231300
674,000000	55,088700
673,000000	54,953500
672,000000	54,772800
671,000000	54,536100
670,000000	54,339700
669,000000	54,118100
668,000000	53,836500
667,000000	53,556800
666,000000	53,265800
665,000000	53,020100
664,000000	52,768700
663,000000	52,449700
662,000000	52,209700
661,000000	52,016300
660,000000	51,842000
659,000000	51,730300
658,000000	51,702000
657,000000	51,712400
656,000000	51,743800
655,000000	51,847000
654,000000	52,043600
653,000000	52,287600
652,000000	52,529900
651,000000	52,804200
650,000000	53,094600
649,000000	53,394200
648,000000	53,738200
647,000000	54,056200
646,000000	54,362400
645,000000	54,738300
644,000000	55,095800
643,000000	55,424500
642,000000	55,795400
641,000000	56,169400
640,000000	56,585600
639,000000	57,014800
638,000000	57,453700
637,000000	57,899700
636,000000	58,401300
635,000000	58,938500
634,000000	59,425200
633,000000	59,948800
632,000000	60,408800
631,000000	60,822400
630,000000	61,293300
629,000000	61,714600
628,000000	62,049900
627,000000	62,366100
626,000000	62,675400
625,000000	62,906700
624,000000	63,085500
623,000000	63,267800
622,000000	63,411300
621,000000	63,574700
620,000000	63,726100
619,000000	63,894500
618,000000	64,058200
617,000000	64,212900
616,000000	64,362100
615,000000	64,536000
614,000000	64,792700
613,000000	65,034300
612,000000	65,244900
611,000000	65,512300
610,000000	65,725100
609,000000	65,933300
608,000000	66,158700
607,000000	66,340000
606,000000	66,473700
605,000000	66,616800
604,000000	66,761000
603,000000	66,840200
602,000000	66,869200
601,000000	66,887800
600,000000	66,971400
599,000000	66,981000
598,000000	66,981700
597,000000	67,020000
596,000000	67,133900
595,000000	67,221600
594,000000	67,273500
593,000000	67,376700
592,000000	67,453300
591,000000	67,545500
590,000000	67,612500
589,000000	67,717200
588,000000	67,780400
587,000000	67,811900
586,000000	67,876900
585,000000	67,863700
584,000000	67,884800
583,000000	67,869900
582,000000	67,840400
581,000000	67,822800
580,000000	67,810500
579,000000	67,777900
578,000000	67,721800
577,000000	67,635300
576,000000	67,553700
575,000000	67,456600
574,000000	67,364400
573,000000	67,226500
572,000000	67,001600
571,000000	66,836200
570,000000	66,622300
569,000000	66,326500
568,000000	66,001500
567,000000	65,661500
566,000000	65,304200
565,000000	64,936100
564,000000	64,499300
563,000000	64,061100
562,000000	63,568300
561,000000	63,058400
560,000000	62,519700
559,000000	61,900900
558,000000	61,303800
557,000000	60,688100
556,000000	60,081700
555,000000	59,348900
554,000000	58,634600
553,000000	57,929800
552,000000	57,214500
551,000000	56,472400
550,000000	55,746700
549,000000	55,039500
548,000000	54,332300
547,000000	53,576500
546,000000	52,875600
545,000000	52,103500
544,000000	51,321600
543,000000	50,553400
542,000000	49,796900
541,000000	49,034500
540,000000	48,324600
539,000000	47,617900
538,000000	46,882600
537,000000	46,228400
536,000000	45,564100
535,000000	44,955100
534,000000	44,362100
533,000000	43,789500
532,000000	43,269700
531,000000	42,752900
530,000000	42,274400
529,000000	41,812200
528,000000	41,358200
527,000000	40,924400
526,000000	40,484800
525,000000	40,125600
524,000000	39,710100
523,000000	39,344600
522,000000	38,980100
521,000000	38,593200
520,000000	38,209200
519,000000	37,808800
518,000000	37,407800
517,000000	37,006900
516,000000	36,637400
515,000000	36,253200
514,000000	35,878500
513,000000	35,471300
512,000000	35,059100
511,000000	34,651700
510,000000	34,215100
509,000000	33,775800
508,000000	33,385200
507,000000	32,994900
506,000000	32,594000
505,000000	32,222200
504,000000	31,845300
503,000000	31,445000
502,000000	31,017000
501,000000	30,680600
500,000000	30,317000
499,000000	29,973400
498,000000	29,704000
497,000000	29,377000
496,000000	29,084100
495,000000	28,774000
494,000000	28,480300
493,000000	28,193600
492,000000	27,927700
491,000000	27,706200
490,000000	27,423300
489,000000	27,168300
488,000000	26,923600
487,000000	26,639200
486,000000	26,421000
485,000000	26,138300
484,000000	25,873000
483,000000	25,578500
482,000000	25,255100
481,000000	24,942800
480,000000	24,629900
479,000000	24,274500
478,000000	23,911200
477,000000	23,581600
476,000000	23,233100
475,000000	22,871700
474,000000	22,506000
473,000000	22,144800
472,000000	21,782600
471,000000	21,426400
470,000000	21,052500
469,000000	20,713600
468,000000	20,414700
467,000000	20,156700
466,000000	19,860400
465,000000	19,615800
464,000000	19,416000
463,000000	19,231000
462,000000	19,080200
461,000000	18,926500
460,000000	18,818900
459,000000	18,706600
458,000000	18,658800
457,000000	18,627200
456,000000	18,574100
455,000000	18,578100
454,000000	18,571600
453,000000	18,569800
452,000000	18,580900
451,000000	18,576600
450,000000	18,554000
449,000000	18,556400
448,000000	18,544200
447,000000	18,526700
446,000000	18,522600
445,000000	18,457300
444,000000	18,407900
443,000000	18,359900
442,000000	18,302300
441,000000	18,187200
440,000000	18,106100
439,000000	17,994800
438,000000	17,859700
437,000000	17,738800
436,000000	17,591400
435,000000	17,423900
434,000000	17,317800
433,000000	17,152900
432,000000	17,021800
431,000000	16,836400
430,000000	16,672200
429,000000	16,506400
428,000000	16,317400
427,000000	16,138500
426,000000	15,935800
425,000000	15,744700
424,000000	15,579200
423,000000	15,358400
422,000000	15,149000
421,000000	14,955800
420,000000	14,743800
419,000000	14,485300
418,000000	14,278800
417,000000	14,027700
416,000000	13,791200
415,000000	13,572700
414,000000	13,318800
413,000000	13,060200
412,000000	12,798400
411,000000	12,525000
410,000000	12,259600
409,000000	11,973800
408,000000	11,683600
407,000000	11,419400
406,000000	11,176100
405,000000	10,890700
404,000000	10,637700
403,000000	10,356100
402,000000	10,083300
401,000000	9,823700
400,000000	9,570900
399,000000	9,316600
398,000000	9,069700
397,000000	8,846700
396,000000	8,617800
395,000000	8,423400
394,000000	8,219200
393,000000	8,034200
392,000000	7,837800
391,000000	7,677800
390,000000	7,512300
389,000000	7,326400
388,000000	7,212400
387,000000	7,090900
386,000000	6,981800
385,000000	6,885900
384,000000	6,787800
383,000000	6,677500
382,000000	6,591100
381,000000	6,505700
380,000000	6,431600
379,000000	6,376500
378,000000	6,327600
377,000000	6,285600
376,000000	6,306100
375,000000	6,283400
374,000000	6,063500
373,000000	5,987500
372,000000	5,897000
371,000000	5,715700
370,000000	5,836800
369,000000	5,870200
368,000000	5,897500
367,000000	5,989600
366,000000	5,995900
365,000000	5,943600
364,000000	5,951200
363,000000	5,925500
362,000000	5,939700
361,000000	5,908100
360,000000	5,883900
359,000000	5,820000
358,000000	5,720300
357,000000	5,623800
356,000000	5,767300
355,000000	5,854300
354,000000	5,754300
353,000000	5,795500
352,000000	5,954100
351,000000	5,902400
350,000000	5,762400
349,000000	5,830300
348,000000	5,810000
347,000000	5,790800
346,000000	5,845900
345,000000	5,803100
344,000000	5,782900
343,000000	5,796900
342,000000	5,798900
341,000000	5,672700
340,000000	5,541000
339,000000	5,739000
338,000000	5,880800
337,000000	5,765200
336,000000	5,682400
335,000000	5,728100
334,000000	5,776500
333,000000	5,662800
332,000000	5,503700
331,000000	5,832900
330,000000	5,998200
329,000000	5,753600
328,000000	5,775800
327,000000	5,901800
326,000000	5,934500
325,000000	6,014100
324,000000	5,921300
323,000000	5,890300
322,000000	6,105100
321,000000	6,221400
320,000000	6,549600
319,000000	6,621200
318,000000	6,625700
317,000000	6,370700
316,000000	5,826900
315,000000	5,633200
314,000000	5,624500
313,000000	5,610600
312,000000	5,601400
311,000000	5,624800
310,000000	5,653700
309,000000	5,639800
308,000000	5,649600
307,000000	5,686500
306,000000	5,716800
305,000000	5,697600
304,000000	5,662400
303,000000	5,656700
302,000000	5,693000
301,000000	5,693100
300,000000	5,668300
299,000000	5,639400
298,000000	5,698400
297,000000	5,722200
296,000000	5,703800
295,000000	5,713800
294,000000	5,753300
293,000000	5,793300
292,000000	5,785300
291,000000	5,775700
290,000000	5,758400
289,000000	5,743800
288,000000	5,755700
287,000000	5,746200
286,000000	5,768800
285,000000	5,792700
284,000000	5,825900
283,000000	5,832300
282,000000	5,804000
281,000000	5,819000
280,000000	5,868200
279,000000	5,869800
278,000000	5,822800
277,000000	5,873300
276,000000	5,862500
275,000000	5,880500
274,000000	5,907800
273,000000	5,900100
272,000000	5,935300
271,000000	5,964200
270,000000	5,984900
269,000000	5,989000
268,000000	6,018100
267,000000	6,001200
266,000000	6,052400
265,000000	6,093700
264,000000	6,100300
263,000000	6,109200
262,000000	6,172600
261,000000	6,177200
260,000000	6,202400
259,000000	6,240100
258,000000	6,264900
257,000000	6,254200
256,000000	6,274200
255,000000	6,272700
254,000000	6,262700
253,000000	6,334400
252,000000	6,339600
251,000000	6,354200
250,000000	6,385900
