PE UV       SUBTECH     SPECTRUM    ASCII       PEDS        4.00        
   -1
CICIMAUCR0236-3.ASC
24/06/17
17:27:19.00
24/06/17
17:27:19.00
Vinicio Soto Monge
C. resplendens. Sex M. Dorsal.
250,000000
1
Lambda 1050
1050L1511233
PerkinElmer UV WinLab 6.3.2.0749 / 2.02.05 Lambda 900 UV/VIS/NIR, Aug  7 2015 09:38:08

0
0
3350/servo 860,8/2
0
0
UV/VIS
1
1
1
DoubleDePol,CommonBeamDepol,RBeamAtt,SBeamAtt,60mm sphere, WB InGaAs Detector
0
0
0
0
Program
Program
3350/servo 860,8/2
3350/0,2 860,8/0,2
3350/0,2 860,8/0,2
0
15.00
 
 
 
0
 
860,8
319,2
860,8
Front
100
on
S:100 R:100
0
0
0
0
 
0
 
 
 
0
 
 
0
0
0
0
0
 
 
 
 
0
0


0
0
#HDR
-1
-1
#GR
nm
%R
1.0
0.0
2500,000000
-1,000000
2251
8
91,555400
5,465400
#DATA
2500,000000	9,064700
2499,000000	9,128600
2498,000000	9,098500
2497,000000	9,025800
2496,000000	9,023100
2495,000000	9,014800
2494,000000	8,913700
2493,000000	8,974800
2492,000000	8,926500
2491,000000	8,879100
2490,000000	8,847000
2489,000000	8,968500
2488,000000	8,865000
2487,000000	8,906200
2486,000000	8,973000
2485,000000	8,977100
2484,000000	8,941900
2483,000000	8,879000
2482,000000	8,886000
2481,000000	8,928900
2480,000000	8,948400
2479,000000	8,997600
2478,000000	9,035700
2477,000000	8,990900
2476,000000	9,019200
2475,000000	8,987200
2474,000000	9,018800
2473,000000	9,020900
2472,000000	9,038700
2471,000000	9,051600
2470,000000	9,086700
2469,000000	9,070500
2468,000000	9,110500
2467,000000	9,138500
2466,000000	9,158100
2465,000000	9,129300
2464,000000	9,192700
2463,000000	9,280700
2462,000000	9,254600
2461,000000	9,266400
2460,000000	9,314600
2459,000000	9,372000
2458,000000	9,423000
2457,000000	9,474400
2456,000000	9,509500
2455,000000	9,573200
2454,000000	9,646900
2453,000000	9,730500
2452,000000	9,774500
2451,000000	9,823600
2450,000000	9,894000
2449,000000	9,976600
2448,000000	10,069900
2447,000000	10,140000
2446,000000	10,214700
2445,000000	10,297500
2444,000000	10,358700
2443,000000	10,436800
2442,000000	10,513200
2441,000000	10,589600
2440,000000	10,660700
2439,000000	10,721200
2438,000000	10,782600
2437,000000	10,852600
2436,000000	10,958300
2435,000000	11,018900
2434,000000	11,069500
2433,000000	11,149800
2432,000000	11,226500
2431,000000	11,271300
2430,000000	11,331200
2429,000000	11,412600
2428,000000	11,485800
2427,000000	11,525100
2426,000000	11,573800
2425,000000	11,622400
2424,000000	11,688600
2423,000000	11,729100
2422,000000	11,770800
2421,000000	11,842300
2420,000000	11,898200
2419,000000	11,945300
2418,000000	11,968500
2417,000000	11,989500
2416,000000	12,048000
2415,000000	12,099900
2414,000000	12,148600
2413,000000	12,192900
2412,000000	12,219500
2411,000000	12,236600
2410,000000	12,285400
2409,000000	12,332900
2408,000000	12,369500
2407,000000	12,405200
2406,000000	12,429600
2405,000000	12,461800
2404,000000	12,494700
2403,000000	12,517400
2402,000000	12,553700
2401,000000	12,591900
2400,000000	12,624400
2399,000000	12,650000
2398,000000	12,680900
2397,000000	12,716500
2396,000000	12,755500
2395,000000	12,783000
2394,000000	12,808700
2393,000000	12,850000
2392,000000	12,881700
2391,000000	12,894900
2390,000000	12,911600
2389,000000	12,948000
2388,000000	12,979800
2387,000000	12,992000
2386,000000	13,001200
2385,000000	13,028800
2384,000000	13,050100
2383,000000	13,060900
2382,000000	13,076500
2381,000000	13,093300
2380,000000	13,087100
2379,000000	13,090800
2378,000000	13,085100
2377,000000	13,087300
2376,000000	13,102400
2375,000000	13,102500
2374,000000	13,079700
2373,000000	13,077600
2372,000000	13,076100
2371,000000	13,053700
2370,000000	13,042000
2369,000000	13,046000
2368,000000	13,030900
2367,000000	12,998300
2366,000000	12,986600
2365,000000	12,968600
2364,000000	12,937700
2363,000000	12,921400
2362,000000	12,890700
2361,000000	12,841100
2360,000000	12,804300
2359,000000	12,761400
2358,000000	12,724100
2357,000000	12,699000
2356,000000	12,664500
2355,000000	12,631800
2354,000000	12,611100
2353,000000	12,591400
2352,000000	12,567000
2351,000000	12,556500
2350,000000	12,559700
2349,000000	12,575000
2348,000000	12,580500
2347,000000	12,587400
2346,000000	12,609600
2345,000000	12,643500
2344,000000	12,677700
2343,000000	12,727600
2342,000000	12,763600
2341,000000	12,799200
2340,000000	12,844200
2339,000000	12,881400
2338,000000	12,908000
2337,000000	12,939600
2336,000000	12,964700
2335,000000	12,988600
2334,000000	12,998800
2333,000000	13,003300
2332,000000	12,999900
2331,000000	12,993600
2330,000000	12,976300
2329,000000	12,954900
2328,000000	12,934800
2327,000000	12,900100
2326,000000	12,871800
2325,000000	12,841500
2324,000000	12,799200
2323,000000	12,741100
2322,000000	12,684000
2321,000000	12,622000
2320,000000	12,550900
2319,000000	12,466300
2318,000000	12,380100
2317,000000	12,300100
2316,000000	12,209600
2315,000000	12,115100
2314,000000	12,017200
2313,000000	11,915600
2312,000000	11,810200
2311,000000	11,730300
2310,000000	11,639300
2309,000000	11,575200
2308,000000	11,501800
2307,000000	11,445700
2306,000000	11,393800
2305,000000	11,364400
2304,000000	11,345700
2303,000000	11,351600
2302,000000	11,376100
2301,000000	11,398400
2300,000000	11,446300
2299,000000	11,516000
2298,000000	11,583100
2297,000000	11,656700
2296,000000	11,721700
2295,000000	11,832700
2294,000000	11,923200
2293,000000	12,009300
2292,000000	12,084800
2291,000000	12,166200
2290,000000	12,228700
2289,000000	12,281900
2288,000000	12,335700
2287,000000	12,364000
2286,000000	12,393600
2285,000000	12,403600
2284,000000	12,407000
2283,000000	12,401400
2282,000000	12,360600
2281,000000	12,323200
2280,000000	12,302400
2279,000000	12,241100
2278,000000	12,185700
2277,000000	12,127300
2276,000000	12,094100
2275,000000	12,043700
2274,000000	11,990600
2273,000000	11,951800
2272,000000	11,932200
2271,000000	11,894300
2270,000000	11,880000
2269,000000	11,883200
2268,000000	11,923000
2267,000000	11,942700
2266,000000	11,981300
2265,000000	12,089400
2264,000000	12,172700
2263,000000	12,301700
2262,000000	12,424600
2261,000000	12,613500
2260,000000	12,776800
2259,000000	12,979400
2258,000000	13,187000
2257,000000	13,405800
2256,000000	13,637300
2255,000000	13,878300
2254,000000	14,132300
2253,000000	14,363900
2252,000000	14,597600
2251,000000	14,820900
2250,000000	15,064500
2249,000000	15,263200
2248,000000	15,468500
2247,000000	15,640700
2246,000000	15,798800
2245,000000	15,986200
2244,000000	16,121600
2243,000000	16,245900
2242,000000	16,375500
2241,000000	16,489200
2240,000000	16,601400
2239,000000	16,693400
2238,000000	16,762500
2237,000000	16,827500
2236,000000	16,940200
2235,000000	16,986300
2234,000000	17,037500
2233,000000	17,087500
2232,000000	17,122500
2231,000000	17,122200
2230,000000	17,189400
2229,000000	17,203100
2228,000000	17,236100
2227,000000	17,225600
2226,000000	17,210500
2225,000000	17,206200
2224,000000	17,208300
2223,000000	17,189300
2222,000000	17,176300
2221,000000	17,136600
2220,000000	17,103100
2219,000000	17,068600
2218,000000	17,043100
2217,000000	17,003500
2216,000000	16,953500
2215,000000	16,934700
2214,000000	16,885200
2213,000000	16,848300
2212,000000	16,802200
2211,000000	16,756600
2210,000000	16,742600
2209,000000	16,702500
2208,000000	16,656600
2207,000000	16,621300
2206,000000	16,612100
2205,000000	16,592500
2204,000000	16,564400
2203,000000	16,540900
2202,000000	16,509800
2201,000000	16,496000
2200,000000	16,476200
2199,000000	16,450700
2198,000000	16,449500
2197,000000	16,424500
2196,000000	16,414000
2195,000000	16,388200
2194,000000	16,373700
2193,000000	16,355600
2192,000000	16,331200
2191,000000	16,321100
2190,000000	16,333400
2189,000000	16,300500
2188,000000	16,285700
2187,000000	16,285300
2186,000000	16,251200
2185,000000	16,239900
2184,000000	16,225000
2183,000000	16,193500
2182,000000	16,186700
2181,000000	16,157000
2180,000000	16,126900
2179,000000	16,121800
2178,000000	16,114400
2177,000000	16,095800
2176,000000	16,089500
2175,000000	16,066100
2174,000000	16,075100
2173,000000	16,053000
2172,000000	16,044300
2171,000000	16,061700
2170,000000	16,047200
2169,000000	16,051800
2168,000000	16,062900
2167,000000	16,077100
2166,000000	16,087200
2165,000000	16,087300
2164,000000	16,113200
2163,000000	16,120600
2162,000000	16,129500
2161,000000	16,159900
2160,000000	16,195500
2159,000000	16,219700
2158,000000	16,266400
2157,000000	16,303300
2156,000000	16,326300
2155,000000	16,350000
2154,000000	16,397300
2153,000000	16,439800
2152,000000	16,487400
2151,000000	16,519300
2150,000000	16,544500
2149,000000	16,590300
2148,000000	16,638800
2147,000000	16,683300
2146,000000	16,719200
2145,000000	16,781500
2144,000000	16,820600
2143,000000	16,870700
2142,000000	16,904300
2141,000000	16,943400
2140,000000	16,975700
2139,000000	16,999400
2138,000000	17,034600
2137,000000	17,062100
2136,000000	17,091600
2135,000000	17,125200
2134,000000	17,143400
2133,000000	17,169400
2132,000000	17,187300
2131,000000	17,211400
2130,000000	17,219500
2129,000000	17,240000
2128,000000	17,253800
2127,000000	17,252300
2126,000000	17,253000
2125,000000	17,248300
2124,000000	17,248300
2123,000000	17,249300
2122,000000	17,248600
2121,000000	17,237100
2120,000000	17,217200
2119,000000	17,202200
2118,000000	17,185000
2117,000000	17,184500
2116,000000	17,160500
2115,000000	17,140000
2114,000000	17,122800
2113,000000	17,102400
2112,000000	17,080700
2111,000000	17,054600
2110,000000	17,016600
2109,000000	16,995400
2108,000000	16,971100
2107,000000	16,942600
2106,000000	16,901900
2105,000000	16,866400
2104,000000	16,829100
2103,000000	16,813800
2102,000000	16,793700
2101,000000	16,754900
2100,000000	16,716400
2099,000000	16,693400
2098,000000	16,669100
2097,000000	16,644300
2096,000000	16,619700
2095,000000	16,580300
2094,000000	16,560000
2093,000000	16,536900
2092,000000	16,513400
2091,000000	16,489800
2090,000000	16,462700
2089,000000	16,432200
2088,000000	16,408900
2087,000000	16,374800
2086,000000	16,348300
2085,000000	16,322000
2084,000000	16,296400
2083,000000	16,276100
2082,000000	16,242200
2081,000000	16,203700
2080,000000	16,153300
2079,000000	16,106400
2078,000000	16,068100
2077,000000	16,015800
2076,000000	15,958400
2075,000000	15,917600
2074,000000	15,878900
2073,000000	15,818900
2072,000000	15,760000
2071,000000	15,704400
2070,000000	15,640200
2069,000000	15,589800
2068,000000	15,533900
2067,000000	15,467600
2066,000000	15,418000
2065,000000	15,357300
2064,000000	15,285500
2063,000000	15,225500
2062,000000	15,162400
2061,000000	15,117400
2060,000000	15,080500
2059,000000	15,038000
2058,000000	14,995000
2057,000000	14,953900
2056,000000	14,939400
2055,000000	14,928000
2054,000000	14,922100
2053,000000	14,912900
2052,000000	14,924700
2051,000000	14,941100
2050,000000	14,966400
2049,000000	14,994000
2048,000000	15,039000
2047,000000	15,091800
2046,000000	15,144100
2045,000000	15,197300
2044,000000	15,258600
2043,000000	15,299700
2042,000000	15,349600
2041,000000	15,414200
2040,000000	15,487100
2039,000000	15,541500
2038,000000	15,592600
2037,000000	15,641900
2036,000000	15,704500
2035,000000	15,760200
2034,000000	15,791200
2033,000000	15,828100
2032,000000	15,858700
2031,000000	15,879000
2030,000000	15,896600
2029,000000	15,916000
2028,000000	15,941700
2027,000000	15,948100
2026,000000	15,969000
2025,000000	15,978100
2024,000000	15,968900
2023,000000	15,975500
2022,000000	15,967100
2021,000000	15,980500
2020,000000	15,985300
2019,000000	15,959300
2018,000000	15,945400
2017,000000	15,931900
2016,000000	15,913500
2015,000000	15,884900
2014,000000	15,871700
2013,000000	15,845900
2012,000000	15,797300
2011,000000	15,783700
2010,000000	15,746600
2009,000000	15,700600
2008,000000	15,654900
2007,000000	15,621700
2006,000000	15,576900
2005,000000	15,514100
2004,000000	15,463400
2003,000000	15,412200
2002,000000	15,341000
2001,000000	15,268400
2000,000000	15,211300
1999,000000	15,145500
1998,000000	15,061700
1997,000000	14,983200
1996,000000	14,943800
1995,000000	14,876400
1994,000000	14,794100
1993,000000	14,708800
1992,000000	14,628600
1991,000000	14,539500
1990,000000	14,470600
1989,000000	14,370300
1988,000000	14,294800
1987,000000	14,202300
1986,000000	14,113200
1985,000000	14,028700
1984,000000	13,926800
1983,000000	13,845300
1982,000000	13,748100
1981,000000	13,639700
1980,000000	13,547600
1979,000000	13,469600
1978,000000	13,392000
1977,000000	13,283500
1976,000000	13,190900
1975,000000	13,091100
1974,000000	12,992200
1973,000000	12,920700
1972,000000	12,817400
1971,000000	12,732400
1970,000000	12,645700
1969,000000	12,568800
1968,000000	12,471200
1967,000000	12,382400
1966,000000	12,318900
1965,000000	12,222200
1964,000000	12,137800
1963,000000	12,057900
1962,000000	11,989700
1961,000000	11,889300
1960,000000	11,809800
1959,000000	11,729000
1958,000000	11,643700
1957,000000	11,585900
1956,000000	11,512100
1955,000000	11,446600
1954,000000	11,366200
1953,000000	11,275100
1952,000000	11,207800
1951,000000	11,136000
1950,000000	11,075200
1949,000000	11,035500
1948,000000	10,975100
1947,000000	10,904700
1946,000000	10,847100
1945,000000	10,804500
1944,000000	10,744000
1943,000000	10,719200
1942,000000	10,672100
1941,000000	10,664400
1940,000000	10,629800
1939,000000	10,587600
1938,000000	10,579200
1937,000000	10,568100
1936,000000	10,545700
1935,000000	10,524800
1934,000000	10,545800
1933,000000	10,564400
1932,000000	10,575100
1931,000000	10,635200
1930,000000	10,651600
1929,000000	10,718000
1928,000000	10,738900
1927,000000	10,807200
1926,000000	10,860800
1925,000000	10,945600
1924,000000	11,044000
1923,000000	11,162100
1922,000000	11,233700
1921,000000	11,337300
1920,000000	11,450600
1919,000000	11,564700
1918,000000	11,685500
1917,000000	11,848300
1916,000000	12,025000
1915,000000	12,167500
1914,000000	12,330300
1913,000000	12,522900
1912,000000	12,704600
1911,000000	12,880200
1910,000000	13,113400
1909,000000	13,322300
1908,000000	13,543500
1907,000000	13,770300
1906,000000	14,013000
1905,000000	14,278900
1904,000000	14,551000
1903,000000	14,828400
1902,000000	15,107000
1901,000000	15,450400
1900,000000	15,744000
1899,000000	16,070700
1898,000000	16,411500
1897,000000	16,802300
1896,000000	17,192700
1895,000000	17,558500
1894,000000	17,936900
1893,000000	18,346400
1892,000000	18,733600
1891,000000	19,177100
1890,000000	19,691600
1889,000000	20,161400
1888,000000	20,610800
1887,000000	21,119200
1886,000000	21,614900
1885,000000	22,140700
1884,000000	22,655300
1883,000000	23,195200
1882,000000	23,775400
1881,000000	24,286400
1880,000000	24,837900
1879,000000	25,321700
1878,000000	25,787600
1877,000000	26,260100
1876,000000	26,745500
1875,000000	27,169900
1874,000000	27,598400
1873,000000	28,021700
1872,000000	28,440200
1871,000000	28,795300
1870,000000	29,152400
1869,000000	29,459700
1868,000000	29,797200
1867,000000	30,079400
1866,000000	30,322700
1865,000000	30,517500
1864,000000	30,717000
1863,000000	30,896700
1862,000000	31,072000
1861,000000	31,251100
1860,000000	31,410800
1859,000000	31,585100
1858,000000	31,726800
1857,000000	31,839400
1856,000000	31,937300
1855,000000	32,013700
1854,000000	32,095300
1853,000000	32,192300
1852,000000	32,219300
1851,000000	32,274000
1850,000000	32,333500
1849,000000	32,404000
1848,000000	32,430100
1847,000000	32,439100
1846,000000	32,437500
1845,000000	32,426800
1844,000000	32,416400
1843,000000	32,422000
1842,000000	32,453500
1841,000000	32,486800
1840,000000	32,495800
1839,000000	32,488400
1838,000000	32,468700
1837,000000	32,445000
1836,000000	32,421600
1835,000000	32,397600
1834,000000	32,372100
1833,000000	32,338200
1832,000000	32,305300
1831,000000	32,289000
1830,000000	32,273400
1829,000000	32,230400
1828,000000	32,188500
1827,000000	32,120700
1826,000000	32,066700
1825,000000	32,042600
1824,000000	31,998700
1823,000000	31,969400
1822,000000	31,967000
1821,000000	31,965700
1820,000000	31,940100
1819,000000	31,909000
1818,000000	31,862800
1817,000000	31,829800
1816,000000	31,817400
1815,000000	31,821800
1814,000000	31,812300
1813,000000	31,773900
1812,000000	31,772700
1811,000000	31,744100
1810,000000	31,707500
1809,000000	31,673700
1808,000000	31,643300
1807,000000	31,626300
1806,000000	31,603800
1805,000000	31,557700
1804,000000	31,499100
1803,000000	31,469400
1802,000000	31,445100
1801,000000	31,407700
1800,000000	31,368800
1799,000000	31,317900
1798,000000	31,261100
1797,000000	31,229500
1796,000000	31,185600
1795,000000	31,147200
1794,000000	31,115100
1793,000000	31,068100
1792,000000	31,026300
1791,000000	30,992700
1790,000000	30,949800
1789,000000	30,901200
1788,000000	30,863500
1787,000000	30,834000
1786,000000	30,794900
1785,000000	30,750400
1784,000000	30,721000
1783,000000	30,682500
1782,000000	30,633300
1781,000000	30,598600
1780,000000	30,547000
1779,000000	30,497800
1778,000000	30,448300
1777,000000	30,400600
1776,000000	30,354300
1775,000000	30,289400
1774,000000	30,221900
1773,000000	30,170700
1772,000000	30,114800
1771,000000	30,043800
1770,000000	29,989300
1769,000000	29,924500
1768,000000	29,845800
1767,000000	29,782200
1766,000000	29,725200
1765,000000	29,665700
1764,000000	29,624100
1763,000000	29,606000
1762,000000	29,594700
1761,000000	29,600400
1760,000000	29,620300
1759,000000	29,659900
1758,000000	29,704900
1757,000000	29,766300
1756,000000	29,813000
1755,000000	29,881000
1754,000000	29,942900
1753,000000	29,985600
1752,000000	30,025200
1751,000000	30,052400
1750,000000	30,070400
1749,000000	30,074100
1748,000000	30,066300
1747,000000	30,051000
1746,000000	30,024000
1745,000000	29,980400
1744,000000	29,935800
1743,000000	29,864600
1742,000000	29,783500
1741,000000	29,685200
1740,000000	29,559800
1739,000000	29,440400
1738,000000	29,314800
1737,000000	29,175100
1736,000000	29,048600
1735,000000	28,943300
1734,000000	28,874700
1733,000000	28,812100
1732,000000	28,759300
1731,000000	28,763400
1730,000000	28,791500
1729,000000	28,821700
1728,000000	28,885700
1727,000000	28,954400
1726,000000	29,027300
1725,000000	29,101300
1724,000000	29,164900
1723,000000	29,231500
1722,000000	29,287600
1721,000000	29,357500
1720,000000	29,424600
1719,000000	29,490300
1718,000000	29,555500
1717,000000	29,632900
1716,000000	29,706900
1715,000000	29,805800
1714,000000	29,895500
1713,000000	29,981500
1712,000000	30,061900
1711,000000	30,142400
1710,000000	30,200700
1709,000000	30,238200
1708,000000	30,283900
1707,000000	30,307400
1706,000000	30,304800
1705,000000	30,307300
1704,000000	30,261900
1703,000000	30,221400
1702,000000	30,178700
1701,000000	30,107100
1700,000000	30,027400
1699,000000	29,945600
1698,000000	29,815500
1697,000000	29,708000
1696,000000	29,609400
1695,000000	29,546300
1694,000000	29,502500
1693,000000	29,507700
1692,000000	29,522700
1691,000000	29,591300
1690,000000	29,673700
1689,000000	29,767300
1688,000000	29,868800
1687,000000	29,960900
1686,000000	30,025300
1685,000000	30,100400
1684,000000	30,153000
1683,000000	30,242500
1682,000000	30,365800
1681,000000	30,558000
1680,000000	30,817700
1679,000000	31,103600
1678,000000	31,435900
1677,000000	31,810400
1676,000000	32,143600
1675,000000	32,449800
1674,000000	32,730900
1673,000000	33,035200
1672,000000	33,255100
1671,000000	33,446000
1670,000000	33,624500
1669,000000	33,796600
1668,000000	33,922800
1667,000000	34,041000
1666,000000	34,143000
1665,000000	34,246900
1664,000000	34,310600
1663,000000	34,391300
1662,000000	34,445000
1661,000000	34,519000
1660,000000	34,562600
1659,000000	34,604000
1658,000000	34,614000
1657,000000	34,660800
1656,000000	34,679700
1655,000000	34,699200
1654,000000	34,695600
1653,000000	34,709800
1652,000000	34,690700
1651,000000	34,660100
1650,000000	34,664800
1649,000000	34,658800
1648,000000	34,630300
1647,000000	34,583500
1646,000000	34,564700
1645,000000	34,527300
1644,000000	34,487600
1643,000000	34,436800
1642,000000	34,396200
1641,000000	34,356300
1640,000000	34,299500
1639,000000	34,270500
1638,000000	34,223000
1637,000000	34,186700
1636,000000	34,149400
1635,000000	34,085800
1634,000000	34,028900
1633,000000	33,965100
1632,000000	33,920500
1631,000000	33,849500
1630,000000	33,790400
1629,000000	33,731800
1628,000000	33,652900
1627,000000	33,575700
1626,000000	33,547400
1625,000000	33,469000
1624,000000	33,399000
1623,000000	33,354300
1622,000000	33,279400
1621,000000	33,219500
1620,000000	33,161500
1619,000000	33,090900
1618,000000	33,061000
1617,000000	33,000500
1616,000000	32,934100
1615,000000	32,888200
1614,000000	32,820000
1613,000000	32,782400
1612,000000	32,742600
1611,000000	32,670300
1610,000000	32,619300
1609,000000	32,553600
1608,000000	32,497900
1607,000000	32,444300
1606,000000	32,392600
1605,000000	32,342200
1604,000000	32,281700
1603,000000	32,231300
1602,000000	32,173000
1601,000000	32,101400
1600,000000	32,050700
1599,000000	32,003100
1598,000000	31,941600
1597,000000	31,882300
1596,000000	31,821600
1595,000000	31,759000
1594,000000	31,699500
1593,000000	31,641700
1592,000000	31,600300
1591,000000	31,565100
1590,000000	31,530200
1589,000000	31,460000
1588,000000	31,414100
1587,000000	31,376900
1586,000000	31,336300
1585,000000	31,285300
1584,000000	31,237800
1583,000000	31,188700
1582,000000	31,155100
1581,000000	31,101100
1580,000000	31,060700
1579,000000	31,022600
1578,000000	30,973600
1577,000000	30,953300
1576,000000	30,914600
1575,000000	30,869000
1574,000000	30,848000
1573,000000	30,834000
1572,000000	30,804600
1571,000000	30,802100
1570,000000	30,768100
1569,000000	30,747900
1568,000000	30,725700
1567,000000	30,711700
1566,000000	30,695000
1565,000000	30,685200
1564,000000	30,682500
1563,000000	30,670500
1562,000000	30,651800
1561,000000	30,629600
1560,000000	30,610800
1559,000000	30,571700
1558,000000	30,546600
1557,000000	30,511400
1556,000000	30,472100
1555,000000	30,428200
1554,000000	30,400800
1553,000000	30,354600
1552,000000	30,303100
1551,000000	30,250800
1550,000000	30,215400
1549,000000	30,183400
1548,000000	30,121400
1547,000000	30,067900
1546,000000	30,013200
1545,000000	29,974500
1544,000000	29,931400
1543,000000	29,885000
1542,000000	29,841400
1541,000000	29,788700
1540,000000	29,745600
1539,000000	29,703200
1538,000000	29,653900
1537,000000	29,621600
1536,000000	29,588500
1535,000000	29,534500
1534,000000	29,486500
1533,000000	29,446200
1532,000000	29,399400
1531,000000	29,353700
1530,000000	29,307400
1529,000000	29,242900
1528,000000	29,188000
1527,000000	29,123800
1526,000000	29,058100
1525,000000	29,000500
1524,000000	28,944800
1523,000000	28,879300
1522,000000	28,826200
1521,000000	28,759400
1520,000000	28,699600
1519,000000	28,644700
1518,000000	28,569000
1517,000000	28,502400
1516,000000	28,444700
1515,000000	28,378900
1514,000000	28,302500
1513,000000	28,218200
1512,000000	28,143300
1511,000000	28,085100
1510,000000	28,016000
1509,000000	27,929800
1508,000000	27,857600
1507,000000	27,780900
1506,000000	27,700100
1505,000000	27,637600
1504,000000	27,576200
1503,000000	27,506800
1502,000000	27,438000
1501,000000	27,361700
1500,000000	27,287600
1499,000000	27,229700
1498,000000	27,164400
1497,000000	27,093500
1496,000000	27,046300
1495,000000	26,984400
1494,000000	26,932100
1493,000000	26,879800
1492,000000	26,825000
1491,000000	26,782700
1490,000000	26,725900
1489,000000	26,678200
1488,000000	26,636200
1487,000000	26,600100
1486,000000	26,559100
1485,000000	26,512700
1484,000000	26,465100
1483,000000	26,428600
1482,000000	26,391300
1481,000000	26,351100
1480,000000	26,331000
1479,000000	26,310600
1478,000000	26,273500
1477,000000	26,245300
1476,000000	26,218200
1475,000000	26,192200
1474,000000	26,185400
1473,000000	26,176900
1472,000000	26,175600
1471,000000	26,166800
1470,000000	26,151800
1469,000000	26,141500
1468,000000	26,126200
1467,000000	26,139500
1466,000000	26,127500
1465,000000	26,117600
1464,000000	26,131700
1463,000000	26,129400
1462,000000	26,129900
1461,000000	26,147600
1460,000000	26,174400
1459,000000	26,201000
1458,000000	26,261600
1457,000000	26,282300
1456,000000	26,323200
1455,000000	26,362700
1454,000000	26,401600
1453,000000	26,458000
1452,000000	26,519200
1451,000000	26,588900
1450,000000	26,644900
1449,000000	26,697000
1448,000000	26,736700
1447,000000	26,817000
1446,000000	26,895800
1445,000000	26,968800
1444,000000	27,039000
1443,000000	27,112100
1442,000000	27,185600
1441,000000	27,275700
1440,000000	27,381200
1439,000000	27,480500
1438,000000	27,569500
1437,000000	27,674900
1436,000000	27,764300
1435,000000	27,872100
1434,000000	27,977100
1433,000000	28,096100
1432,000000	28,240600
1431,000000	28,359600
1430,000000	28,480200
1429,000000	28,630600
1428,000000	28,774400
1427,000000	28,917800
1426,000000	29,075200
1425,000000	29,272300
1424,000000	29,472400
1423,000000	29,687600
1422,000000	29,860100
1421,000000	30,052000
1420,000000	30,282400
1419,000000	30,517200
1418,000000	30,780500
1417,000000	30,995500
1416,000000	31,239600
1415,000000	31,495500
1414,000000	31,786300
1413,000000	32,063400
1412,000000	32,324900
1411,000000	32,589700
1410,000000	32,917000
1409,000000	33,278200
1408,000000	33,650400
1407,000000	34,010400
1406,000000	34,355200
1405,000000	34,719400
1404,000000	35,134200
1403,000000	35,485200
1402,000000	35,883900
1401,000000	36,255200
1400,000000	36,706400
1399,000000	37,131600
1398,000000	37,481800
1397,000000	37,772700
1396,000000	38,158000
1395,000000	38,594100
1394,000000	38,993900
1393,000000	39,318100
1392,000000	39,621800
1391,000000	40,040700
1390,000000	40,424700
1389,000000	40,779500
1388,000000	41,212100
1387,000000	41,696300
1386,000000	42,138400
1385,000000	42,596100
1384,000000	43,069400
1383,000000	43,561800
1382,000000	44,081200
1381,000000	44,531400
1380,000000	44,926500
1379,000000	45,214700
1378,000000	45,481500
1377,000000	45,671200
1376,000000	45,885900
1375,000000	46,093700
1374,000000	46,271300
1373,000000	46,492100
1372,000000	46,742100
1371,000000	46,993900
1370,000000	47,266400
1369,000000	47,496400
1368,000000	47,709100
1367,000000	47,952700
1366,000000	48,167300
1365,000000	48,338600
1364,000000	48,519500
1363,000000	48,646800
1362,000000	48,779300
1361,000000	48,948300
1360,000000	49,061300
1359,000000	49,082800
1358,000000	49,184500
1357,000000	49,267300
1356,000000	49,374500
1355,000000	49,520100
1354,000000	49,725000
1353,000000	49,994200
1352,000000	50,191500
1351,000000	50,534800
1350,000000	50,852300
1349,000000	51,197000
1348,000000	51,491600
1347,000000	51,762400
1346,000000	52,024900
1345,000000	52,282400
1344,000000	52,542700
1343,000000	52,807700
1342,000000	53,065400
1341,000000	53,301600
1340,000000	53,569600
1339,000000	53,805200
1338,000000	54,057300
1337,000000	54,302600
1336,000000	54,552100
1335,000000	54,792500
1334,000000	55,064300
1333,000000	55,276700
1332,000000	55,509200
1331,000000	55,749800
1330,000000	55,975100
1329,000000	56,195100
1328,000000	56,406400
1327,000000	56,607400
1326,000000	56,824900
1325,000000	57,025200
1324,000000	57,229300
1323,000000	57,398100
1322,000000	57,583200
1321,000000	57,772100
1320,000000	57,937100
1319,000000	58,107100
1318,000000	58,278400
1317,000000	58,430000
1316,000000	58,574900
1315,000000	58,731500
1314,000000	58,870900
1313,000000	59,015800
1312,000000	59,155900
1311,000000	59,274700
1310,000000	59,396500
1309,000000	59,502900
1308,000000	59,614300
1307,000000	59,721800
1306,000000	59,819000
1305,000000	59,904700
1304,000000	59,984500
1303,000000	60,052800
1302,000000	60,119900
1301,000000	60,200800
1300,000000	60,247100
1299,000000	60,291700
1298,000000	60,338800
1297,000000	60,383200
1296,000000	60,421900
1295,000000	60,465900
1294,000000	60,487200
1293,000000	60,514100
1292,000000	60,523600
1291,000000	60,539500
1290,000000	60,553500
1289,000000	60,551000
1288,000000	60,548700
1287,000000	60,530300
1286,000000	60,517900
1285,000000	60,503000
1284,000000	60,487700
1283,000000	60,454800
1282,000000	60,413100
1281,000000	60,369900
1280,000000	60,346200
1279,000000	60,311000
1278,000000	60,267100
1277,000000	60,223700
1276,000000	60,188400
1275,000000	60,152100
1274,000000	60,116300
1273,000000	60,081500
1272,000000	60,050400
1271,000000	60,015100
1270,000000	60,000500
1269,000000	59,970600
1268,000000	59,925700
1267,000000	59,903400
1266,000000	59,877700
1265,000000	59,840300
1264,000000	59,795800
1263,000000	59,756800
1262,000000	59,723100
1261,000000	59,688100
1260,000000	59,641800
1259,000000	59,590700
1258,000000	59,561900
1257,000000	59,521100
1256,000000	59,475100
1255,000000	59,423400
1254,000000	59,372900
1253,000000	59,304900
1252,000000	59,251100
1251,000000	59,198000
1250,000000	59,129200
1249,000000	59,058100
1248,000000	58,992800
1247,000000	58,921300
1246,000000	58,846200
1245,000000	58,775100
1244,000000	58,679300
1243,000000	58,592500
1242,000000	58,507100
1241,000000	58,407600
1240,000000	58,306000
1239,000000	58,198100
1238,000000	58,101100
1237,000000	58,012900
1236,000000	57,925000
1235,000000	57,830200
1234,000000	57,722100
1233,000000	57,610300
1232,000000	57,504800
1231,000000	57,390200
1230,000000	57,270500
1229,000000	57,157200
1228,000000	57,042000
1227,000000	56,904100
1226,000000	56,773700
1225,000000	56,651100
1224,000000	56,522000
1223,000000	56,403200
1222,000000	56,278900
1221,000000	56,149400
1220,000000	56,010800
1219,000000	55,880900
1218,000000	55,764700
1217,000000	55,648000
1216,000000	55,519300
1215,000000	55,398600
1214,000000	55,297400
1213,000000	55,196100
1212,000000	55,087300
1211,000000	54,975700
1210,000000	54,867100
1209,000000	54,782500
1208,000000	54,707100
1207,000000	54,613900
1206,000000	54,518700
1205,000000	54,442400
1204,000000	54,379300
1203,000000	54,333400
1202,000000	54,286000
1201,000000	54,234600
1200,000000	54,207200
1199,000000	54,165800
1198,000000	54,100900
1197,000000	54,028100
1196,000000	53,961900
1195,000000	53,851900
1194,000000	53,718200
1193,000000	53,561000
1192,000000	53,355400
1191,000000	53,124600
1190,000000	52,867700
1189,000000	52,603400
1188,000000	52,367400
1187,000000	52,171800
1186,000000	52,024900
1185,000000	51,958400
1184,000000	51,975200
1183,000000	52,056100
1182,000000	52,221500
1181,000000	52,465400
1180,000000	52,747600
1179,000000	53,061400
1178,000000	53,376300
1177,000000	53,683100
1176,000000	53,973000
1175,000000	54,225600
1174,000000	54,445900
1173,000000	54,664200
1172,000000	54,865000
1171,000000	55,076400
1170,000000	55,304600
1169,000000	55,539100
1168,000000	55,763000
1167,000000	56,001000
1166,000000	56,236600
1165,000000	56,480400
1164,000000	56,738300
1163,000000	56,997200
1162,000000	57,259800
1161,000000	57,533100
1160,000000	57,799400
1159,000000	58,074600
1158,000000	58,332300
1157,000000	58,586700
1156,000000	58,830900
1155,000000	59,051500
1154,000000	59,271200
1153,000000	59,454000
1152,000000	59,628100
1151,000000	59,747400
1150,000000	59,852000
1149,000000	59,966700
1148,000000	60,060800
1147,000000	60,169200
1146,000000	60,298600
1145,000000	60,448100
1144,000000	60,627900
1143,000000	60,820800
1142,000000	61,067100
1141,000000	61,341100
1140,000000	61,609100
1139,000000	61,917300
1138,000000	62,218700
1137,000000	62,542200
1136,000000	62,867900
1135,000000	63,225900
1134,000000	63,601800
1133,000000	63,945400
1132,000000	64,219500
1131,000000	64,481400
1130,000000	64,749200
1129,000000	64,992700
1128,000000	65,196900
1127,000000	65,384900
1126,000000	65,524200
1125,000000	65,622700
1124,000000	65,726500
1123,000000	65,810000
1122,000000	65,868300
1121,000000	65,929400
1120,000000	65,977600
1119,000000	66,030100
1118,000000	66,053200
1117,000000	66,096600
1116,000000	66,131500
1115,000000	66,149400
1114,000000	66,178800
1113,000000	66,169500
1112,000000	66,184400
1111,000000	66,219000
1110,000000	66,237200
1109,000000	66,282600
1108,000000	66,303800
1107,000000	66,333200
1106,000000	66,389000
1105,000000	66,380300
1104,000000	66,419300
1103,000000	66,485000
1102,000000	66,512700
1101,000000	66,542300
1100,000000	66,568500
1099,000000	66,620700
1098,000000	66,657600
1097,000000	66,679400
1096,000000	66,716300
1095,000000	66,744000
1094,000000	66,762600
1093,000000	66,781700
1092,000000	66,813200
1091,000000	66,815300
1090,000000	66,810600
1089,000000	66,802400
1088,000000	66,811100
1087,000000	66,806700
1086,000000	66,798600
1085,000000	66,775300
1084,000000	66,772500
1083,000000	66,744600
1082,000000	66,713500
1081,000000	66,650900
1080,000000	66,615100
1079,000000	66,578600
1078,000000	66,527400
1077,000000	66,491800
1076,000000	66,413400
1075,000000	66,370000
1074,000000	66,310400
1073,000000	66,230600
1072,000000	66,173800
1071,000000	66,104800
1070,000000	66,013300
1069,000000	65,954400
1068,000000	65,893500
1067,000000	65,834500
1066,000000	65,749300
1065,000000	65,672400
1064,000000	65,599800
1063,000000	65,535100
1062,000000	65,475300
1061,000000	65,398000
1060,000000	65,344100
1059,000000	65,300500
1058,000000	65,229800
1057,000000	65,206100
1056,000000	65,172200
1055,000000	65,120200
1054,000000	65,103000
1053,000000	65,102300
1052,000000	65,090500
1051,000000	65,077700
1050,000000	65,084400
1049,000000	65,094700
1048,000000	65,103500
1047,000000	65,137600
1046,000000	65,131800
1045,000000	65,176700
1044,000000	65,209000
1043,000000	65,225700
1042,000000	65,252000
1041,000000	65,291300
1040,000000	65,326400
1039,000000	65,371400
1038,000000	65,405600
1037,000000	65,442700
1036,000000	65,484100
1035,000000	65,499800
1034,000000	65,538300
1033,000000	65,579200
1032,000000	65,602000
1031,000000	65,622000
1030,000000	65,648000
1029,000000	65,660600
1028,000000	65,699600
1027,000000	65,714700
1026,000000	65,726800
1025,000000	65,755700
1024,000000	65,764700
1023,000000	65,776300
1022,000000	65,774600
1021,000000	65,782500
1020,000000	65,799000
1019,000000	65,795300
1018,000000	65,803000
1017,000000	65,825800
1016,000000	65,827600
1015,000000	65,850400
1014,000000	65,861600
1013,000000	65,893300
1012,000000	65,915300
1011,000000	65,954800
1010,000000	66,018200
1009,000000	66,060200
1008,000000	66,107500
1007,000000	66,163000
1006,000000	66,222700
1005,000000	66,288800
1004,000000	66,353200
1003,000000	66,413900
1002,000000	66,464600
1001,000000	66,545100
1000,000000	66,608300
999,000000	66,663400
998,000000	66,714500
997,000000	66,770700
996,000000	66,829900
995,000000	66,900200
994,000000	66,964400
993,000000	67,024200
992,000000	67,055500
991,000000	67,114500
990,000000	67,197400
989,000000	67,266100
988,000000	67,331000
987,000000	67,408800
986,000000	67,494300
985,000000	67,585900
984,000000	67,682300
983,000000	67,784800
982,000000	67,880100
981,000000	67,997100
980,000000	68,106100
979,000000	68,227000
978,000000	68,346500
977,000000	68,486700
976,000000	68,635100
975,000000	68,753300
974,000000	68,873300
973,000000	69,044000
972,000000	69,209700
971,000000	69,366800
970,000000	69,546600
969,000000	69,720000
968,000000	69,881900
967,000000	70,072600
966,000000	70,269000
965,000000	70,487700
964,000000	70,688500
963,000000	70,878800
962,000000	71,085800
961,000000	71,298600
960,000000	71,529400
959,000000	71,752300
958,000000	71,957000
957,000000	72,148400
956,000000	72,363000
955,000000	72,591800
954,000000	72,794200
953,000000	72,961600
952,000000	73,136100
951,000000	73,312700
950,000000	73,495800
949,000000	73,688300
948,000000	73,850200
947,000000	73,999200
946,000000	74,162800
945,000000	74,305200
944,000000	74,461400
943,000000	74,618600
942,000000	74,742500
941,000000	74,857300
940,000000	75,009700
939,000000	75,144400
938,000000	75,240400
937,000000	75,349300
936,000000	75,484200
935,000000	75,599800
934,000000	75,689900
933,000000	75,790900
932,000000	75,895600
931,000000	76,028200
930,000000	76,138700
929,000000	76,216600
928,000000	76,299700
927,000000	76,413900
926,000000	76,522100
925,000000	76,609600
924,000000	76,703700
923,000000	76,844700
922,000000	76,974500
921,000000	77,075600
920,000000	77,186400
919,000000	77,316300
918,000000	77,455900
917,000000	77,585800
916,000000	77,738900
915,000000	77,882000
914,000000	78,031800
913,000000	78,190400
912,000000	78,353300
911,000000	78,530300
910,000000	78,702000
909,000000	78,900600
908,000000	79,107200
907,000000	79,319500
906,000000	79,527400
905,000000	79,737700
904,000000	79,956700
903,000000	80,191600
902,000000	80,424100
901,000000	80,663600
900,000000	80,879300
899,000000	81,072100
898,000000	81,298100
897,000000	81,520700
896,000000	81,751700
895,000000	81,981100
894,000000	82,191100
893,000000	82,373000
892,000000	82,564700
891,000000	82,767500
890,000000	82,934500
889,000000	83,066600
888,000000	83,216800
887,000000	83,311400
886,000000	83,461900
885,000000	83,605600
884,000000	83,712900
883,000000	83,795500
882,000000	83,879000
881,000000	83,932100
880,000000	84,022800
879,000000	84,010300
878,000000	84,023100
877,000000	84,045500
876,000000	84,015700
875,000000	83,939000
874,000000	83,824500
873,000000	83,781400
872,000000	83,650700
871,000000	83,484800
870,000000	83,413900
869,000000	83,485400
868,000000	83,615900
867,000000	83,782000
866,000000	83,937200
865,000000	84,044600
864,000000	84,161900
863,000000	84,277800
862,000000	84,393100
861,000000	84,520100
860,000000	84,652200
859,000000	84,770300
858,000000	84,875600
857,000000	89,448300
856,000000	90,234800
855,000000	90,500200
854,000000	89,992100
853,000000	90,676900
852,000000	90,699800
851,000000	90,774100
850,000000	91,159900
849,000000	90,806500
848,000000	90,461800
847,000000	89,952500
846,000000	90,557800
845,000000	90,723700
844,000000	90,904800
843,000000	90,804500
842,000000	90,823700
841,000000	90,873700
840,000000	90,813100
839,000000	90,902000
838,000000	90,894900
837,000000	90,735300
836,000000	90,520100
835,000000	90,815300
834,000000	90,675200
833,000000	90,531500
832,000000	90,609000
831,000000	90,790300
830,000000	90,863300
829,000000	90,688000
828,000000	90,900100
827,000000	90,782900
826,000000	90,615000
825,000000	90,675700
824,000000	90,792500
823,000000	90,782700
822,000000	90,688500
821,000000	90,910700
820,000000	90,555100
819,000000	90,712100
818,000000	90,554200
817,000000	90,726300
816,000000	90,712700
815,000000	90,705300
814,000000	90,604500
813,000000	90,912300
812,000000	90,823300
811,000000	90,704200
810,000000	90,580600
809,000000	90,314100
808,000000	90,432100
807,000000	90,107300
806,000000	90,197200
805,000000	90,088900
804,000000	89,913500
803,000000	89,931400
802,000000	89,757800
801,000000	89,445600
800,000000	89,723200
799,000000	89,292600
798,000000	89,093400
797,000000	88,898200
796,000000	88,849500
795,000000	88,529900
794,000000	88,561200
793,000000	88,076300
792,000000	87,804600
791,000000	87,622200
790,000000	87,387100
789,000000	87,008100
788,000000	86,807300
787,000000	86,446100
786,000000	86,080600
785,000000	85,656200
784,000000	85,213500
783,000000	84,947200
782,000000	84,512000
781,000000	84,181000
780,000000	83,558100
779,000000	83,122200
778,000000	82,748100
777,000000	82,390100
776,000000	81,958700
775,000000	81,287000
774,000000	80,874500
773,000000	80,583000
772,000000	80,156400
771,000000	79,510800
770,000000	79,177700
769,000000	78,691600
768,000000	78,193000
767,000000	77,874200
766,000000	77,377200
765,000000	76,929300
764,000000	76,604500
763,000000	76,169200
762,000000	75,758400
761,000000	75,375900
760,000000	75,094900
759,000000	74,769800
758,000000	74,588700
757,000000	74,301000
756,000000	74,014700
755,000000	73,899700
754,000000	73,691400
753,000000	73,644900
752,000000	73,349300
751,000000	73,313500
750,000000	73,258500
749,000000	73,251800
748,000000	73,294900
747,000000	73,263900
746,000000	73,305400
745,000000	73,266000
744,000000	73,314300
743,000000	73,466400
742,000000	73,511300
741,000000	73,678600
740,000000	73,768900
739,000000	73,869400
738,000000	74,128700
737,000000	74,165200
736,000000	74,293800
735,000000	74,465100
734,000000	74,622200
733,000000	74,687000
732,000000	74,821800
731,000000	75,041100
730,000000	75,259300
729,000000	75,352000
728,000000	75,458200
727,000000	75,571000
726,000000	75,667100
725,000000	75,707500
724,000000	75,762000
723,000000	75,823600
722,000000	75,791400
721,000000	75,768800
720,000000	75,780300
719,000000	75,822900
718,000000	75,708000
717,000000	75,631300
716,000000	75,571800
715,000000	75,404000
714,000000	75,296600
713,000000	75,184600
712,000000	74,972700
711,000000	74,720000
710,000000	74,449500
709,000000	74,200600
708,000000	73,895100
707,000000	73,594600
706,000000	73,076100
705,000000	72,644500
704,000000	72,144600
703,000000	71,600500
702,000000	70,978800
701,000000	70,412000
700,000000	69,788100
699,000000	69,141700
698,000000	68,426700
697,000000	67,785100
696,000000	67,138800
695,000000	66,461200
694,000000	65,777800
693,000000	65,085400
692,000000	64,483100
691,000000	63,850700
690,000000	63,191800
689,000000	62,627500
688,000000	62,061100
687,000000	61,485400
686,000000	60,941000
685,000000	60,401700
684,000000	59,795000
683,000000	59,291500
682,000000	58,823000
681,000000	58,368200
680,000000	57,904300
679,000000	57,475600
678,000000	57,176300
677,000000	56,915200
676,000000	56,672600
675,000000	56,549000
674,000000	56,488800
673,000000	56,522000
672,000000	56,697400
671,000000	56,959100
670,000000	57,276000
669,000000	57,701300
668,000000	58,260500
667,000000	58,892700
666,000000	59,569900
665,000000	60,249500
664,000000	61,012700
663,000000	61,769000
662,000000	62,555100
661,000000	63,372300
660,000000	64,193300
659,000000	64,946200
658,000000	65,753000
657,000000	66,553500
656,000000	67,276900
655,000000	68,045900
654,000000	68,864700
653,000000	69,696700
652,000000	70,527800
651,000000	71,418100
650,000000	72,369900
649,000000	73,329300
648,000000	74,232800
647,000000	75,176000
646,000000	76,158100
645,000000	77,060800
644,000000	77,964600
643,000000	78,874500
642,000000	79,726900
641,000000	80,494600
640,000000	81,192300
639,000000	81,797300
638,000000	82,335500
637,000000	82,870100
636,000000	83,323700
635,000000	83,686500
634,000000	84,057900
633,000000	84,420300
632,000000	84,807100
631,000000	85,163400
630,000000	85,463500
629,000000	85,843300
628,000000	86,289400
627,000000	86,685200
626,000000	87,085600
625,000000	87,491400
624,000000	87,880800
623,000000	88,328800
622,000000	88,735000
621,000000	89,043700
620,000000	89,342500
619,000000	89,602600
618,000000	89,817100
617,000000	89,970900
616,000000	90,098100
615,000000	90,211100
614,000000	90,282800
613,000000	90,312700
612,000000	90,348400
611,000000	90,409600
610,000000	90,477100
609,000000	90,505300
608,000000	90,569000
607,000000	90,702400
606,000000	90,791700
605,000000	90,904100
604,000000	91,023100
603,000000	91,161400
602,000000	91,280100
601,000000	91,381100
600,000000	91,455000
599,000000	91,481100
598,000000	91,554600
597,000000	91,555400
596,000000	91,539600
595,000000	91,492100
594,000000	91,396100
593,000000	91,276700
592,000000	91,121600
591,000000	90,892000
590,000000	90,677400
589,000000	90,465400
588,000000	90,244700
587,000000	90,001100
586,000000	89,766800
585,000000	89,547500
584,000000	89,247400
583,000000	88,968100
582,000000	88,691400
581,000000	88,423400
580,000000	88,104700
579,000000	87,778000
578,000000	87,455600
577,000000	87,113900
576,000000	86,679200
575,000000	86,268300
574,000000	85,836700
573,000000	85,344900
572,000000	84,839400
571,000000	84,286400
570,000000	83,719700
569,000000	83,110800
568,000000	82,486600
567,000000	81,817700
566,000000	81,127800
565,000000	80,421100
564,000000	79,686200
563,000000	78,851100
562,000000	78,053200
561,000000	77,162100
560,000000	76,292400
559,000000	75,207600
558,000000	74,211600
557,000000	73,240300
556,000000	72,219600
555,000000	71,205100
554,000000	70,141700
553,000000	69,085500
552,000000	68,009200
551,000000	66,960800
550,000000	65,908300
549,000000	64,933300
548,000000	63,940400
547,000000	62,981800
546,000000	62,043900
545,000000	61,154300
544,000000	60,242800
543,000000	59,364500
542,000000	58,490200
541,000000	57,677500
540,000000	56,868300
539,000000	56,065500
538,000000	55,272200
537,000000	54,492800
536,000000	53,724400
535,000000	53,008500
534,000000	52,252100
533,000000	51,529000
532,000000	50,822800
531,000000	50,111600
530,000000	49,377400
529,000000	48,679400
528,000000	48,010300
527,000000	47,335300
526,000000	46,632000
525,000000	45,967000
524,000000	45,276100
523,000000	44,546500
522,000000	43,875600
521,000000	43,162400
520,000000	42,485800
519,000000	41,752800
518,000000	41,101800
517,000000	40,427100
516,000000	39,829000
515,000000	39,279000
514,000000	38,769400
513,000000	38,301200
512,000000	37,854300
511,000000	37,543600
510,000000	37,251700
509,000000	37,008300
508,000000	36,835500
507,000000	36,647900
506,000000	36,536200
505,000000	36,443100
504,000000	36,413700
503,000000	36,364200
502,000000	36,279400
501,000000	36,235500
500,000000	36,225700
499,000000	36,191000
498,000000	36,120800
497,000000	36,075300
496,000000	35,976800
495,000000	35,908400
494,000000	35,802700
493,000000	35,654300
492,000000	35,568000
491,000000	35,376700
490,000000	35,253900
489,000000	35,100800
488,000000	34,913500
487,000000	34,756500
486,000000	34,601500
485,000000	34,438500
484,000000	34,235200
483,000000	34,092200
482,000000	33,882800
481,000000	33,720700
480,000000	33,551300
479,000000	33,313600
478,000000	33,158500
477,000000	32,955500
476,000000	32,748700
475,000000	32,557000
474,000000	32,345900
473,000000	32,125600
472,000000	31,934600
471,000000	31,679600
470,000000	31,496000
469,000000	31,252800
468,000000	30,982900
467,000000	30,795200
466,000000	30,509400
465,000000	30,247400
464,000000	29,983800
463,000000	29,722500
462,000000	29,461200
461,000000	29,114900
460,000000	28,814400
459,000000	28,520300
458,000000	28,185500
457,000000	27,826400
456,000000	27,438500
455,000000	27,084700
454,000000	26,695800
453,000000	26,260800
452,000000	25,832900
451,000000	25,369700
450,000000	24,890200
449,000000	24,390700
448,000000	23,844300
447,000000	23,310000
446,000000	22,791300
445,000000	22,226300
444,000000	21,612800
443,000000	21,051100
442,000000	20,436400
441,000000	19,828600
440,000000	19,220400
439,000000	18,602300
438,000000	17,988500
437,000000	17,363400
436,000000	16,741900
435,000000	16,173000
434,000000	15,596200
433,000000	15,022000
432,000000	14,476500
431,000000	13,940300
430,000000	13,433200
429,000000	12,969200
428,000000	12,467600
427,000000	12,026000
426,000000	11,628900
425,000000	11,240800
424,000000	10,873100
423,000000	10,512900
422,000000	10,180400
421,000000	9,901400
420,000000	9,607300
419,000000	9,373800
418,000000	9,155000
417,000000	8,933800
416,000000	8,737700
415,000000	8,549800
414,000000	8,395700
413,000000	8,216300
412,000000	8,092500
411,000000	7,985100
410,000000	7,867300
409,000000	7,759200
408,000000	7,670700
407,000000	7,555600
406,000000	7,481200
405,000000	7,439300
404,000000	7,371700
403,000000	7,313600
402,000000	7,266800
401,000000	7,202000
400,000000	7,152900
399,000000	7,111900
398,000000	7,066800
397,000000	7,034600
396,000000	6,992500
395,000000	6,991300
394,000000	6,931500
393,000000	6,884300
392,000000	6,847500
391,000000	6,819800
390,000000	6,788900
389,000000	6,763800
388,000000	6,725600
387,000000	6,685600
386,000000	6,680100
385,000000	6,652100
384,000000	6,607800
383,000000	6,582700
382,000000	6,548500
381,000000	6,531300
380,000000	6,497400
379,000000	6,435600
378,000000	6,416700
377,000000	6,398500
376,000000	6,322100
375,000000	6,071100
374,000000	5,895600
373,000000	6,056400
372,000000	6,148700
371,000000	6,018200
370,000000	5,933400
369,000000	5,979000
368,000000	6,040700
367,000000	6,106200
366,000000	6,034900
365,000000	6,087400
364,000000	6,025000
363,000000	5,905900
362,000000	5,999400
361,000000	6,006900
360,000000	6,072800
359,000000	5,937200
358,000000	5,925000
357,000000	5,942000
356,000000	5,917300
355,000000	5,893900
354,000000	5,700100
353,000000	5,724100
352,000000	5,829900
351,000000	5,887600
350,000000	5,699700
349,000000	5,603400
348,000000	5,748600
347,000000	5,698800
346,000000	5,720300
345,000000	5,816500
344,000000	5,959900
343,000000	5,603500
342,000000	5,469400
341,000000	5,903300
340,000000	5,827300
339,000000	5,747400
338,000000	5,901900
337,000000	5,779100
336,000000	5,698600
335,000000	5,723600
334,000000	5,521300
333,000000	5,596000
332,000000	5,749300
331,000000	5,576800
330,000000	5,465400
329,000000	5,783000
328,000000	5,946800
327,000000	6,119000
326,000000	6,058500
325,000000	6,012900
324,000000	6,382100
323,000000	5,957400
322,000000	5,895500
321,000000	6,768600
320,000000	6,561600
319,000000	5,970100
318,000000	5,788100
317,000000	6,534500
316,000000	6,285200
315,000000	5,530400
314,000000	5,489100
313,000000	5,486400
312,000000	5,488900
311,000000	5,527800
310,000000	5,540300
309,000000	5,512100
308,000000	5,533000
307,000000	5,484900
306,000000	5,472100
305,000000	5,515000
304,000000	5,521500
303,000000	5,519900
302,000000	5,510800
301,000000	5,502600
300,000000	5,563100
299,000000	5,554600
298,000000	5,492100
297,000000	5,522100
296,000000	5,577600
295,000000	5,537400
294,000000	5,561000
293,000000	5,541700
292,000000	5,542200
291,000000	5,562700
290,000000	5,578000
289,000000	5,551500
288,000000	5,553800
287,000000	5,565700
286,000000	5,552100
285,000000	5,599000
284,000000	5,624700
283,000000	5,640400
282,000000	5,609700
281,000000	5,648300
280,000000	5,655400
279,000000	5,680800
278,000000	5,683500
277,000000	5,696800
276,000000	5,725100
275,000000	5,710300
274,000000	5,741400
273,000000	5,718400
272,000000	5,684000
271,000000	5,743300
270,000000	5,736600
269,000000	5,765000
268,000000	5,836800
267,000000	5,799500
266,000000	5,826100
265,000000	5,828800
264,000000	5,918000
263,000000	5,926300
262,000000	5,960100
261,000000	5,991300
260,000000	6,023400
259,000000	6,038000
258,000000	6,020300
257,000000	6,071700
256,000000	6,074800
255,000000	6,091100
254,000000	6,058800
253,000000	6,044000
252,000000	6,078700
251,000000	6,066800
250,000000	6,085800
