PE UV       SUBTECH     SPECTRUM    ASCII       PEDS        4.00        
   -1
CICIMAUCR0247-1.Sample.ASC
24/06/24
15:55:28.00
24/06/24
15:55:28.00
Vinicio Soto Monge
C. resplendens. Sex M.Dorsal.  
250,000000
1
Lambda 1050
1050L1511233
PerkinElmer UV WinLab 6.3.2.0749 / 2.02.05 Lambda 900 UV/VIS/NIR, Aug  7 2015 09:38:08

0
0
3350/servo 860,8/2
0
0
UV/VIS
1
1
1
DoubleDePol,CommonBeamDepol,RBeamAtt,SBeamAtt,60mm sphere, WB InGaAs Detector
0
0
0
0
Program
Program
3350/servo 860,8/2
3350/0,2 860,8/0,2
3350/0,2 860,8/0,2
0
15.00
 
 
 
0
 
860,8
319,2
860,8
Front
100
on
S:100 R:100
0
0
0
0
 
0
 
 
 
0
 
 
0
0
0
0
0
 
 
 
 
0
0


0
0
#HDR
-1
-1
#GR
nm
%R
1.0
0.0
2500,000000
-1,000000
2251
8
91,138500
5,778400
#DATA
2500,000000	10,557600
2499,000000	10,640100
2498,000000	10,599200
2497,000000	10,576200
2496,000000	10,617200
2495,000000	10,558300
2494,000000	10,611100
2493,000000	10,609700
2492,000000	10,497400
2491,000000	10,538700
2490,000000	10,595100
2489,000000	10,536200
2488,000000	10,535000
2487,000000	10,620300
2486,000000	10,554700
2485,000000	10,554900
2484,000000	10,552800
2483,000000	10,648400
2482,000000	10,551200
2481,000000	10,486600
2480,000000	10,562800
2479,000000	10,636100
2478,000000	10,589700
2477,000000	10,560200
2476,000000	10,595400
2475,000000	10,650500
2474,000000	10,637700
2473,000000	10,702500
2472,000000	10,659100
2471,000000	10,700100
2470,000000	10,707400
2469,000000	10,750400
2468,000000	10,747600
2467,000000	10,795100
2466,000000	10,790400
2465,000000	10,883300
2464,000000	10,956800
2463,000000	10,905500
2462,000000	10,970900
2461,000000	11,008100
2460,000000	11,040700
2459,000000	11,086600
2458,000000	11,143300
2457,000000	11,233900
2456,000000	11,243500
2455,000000	11,304100
2454,000000	11,392500
2453,000000	11,413400
2452,000000	11,509600
2451,000000	11,549000
2450,000000	11,636800
2449,000000	11,705500
2448,000000	11,792100
2447,000000	11,861100
2446,000000	11,934600
2445,000000	12,003200
2444,000000	12,075900
2443,000000	12,150800
2442,000000	12,228600
2441,000000	12,310300
2440,000000	12,372500
2439,000000	12,465300
2438,000000	12,518500
2437,000000	12,590800
2436,000000	12,675100
2435,000000	12,739000
2434,000000	12,802400
2433,000000	12,871900
2432,000000	12,937300
2431,000000	13,026500
2430,000000	13,095800
2429,000000	13,145900
2428,000000	13,218900
2427,000000	13,270100
2426,000000	13,323400
2425,000000	13,383400
2424,000000	13,452400
2423,000000	13,512900
2422,000000	13,566200
2421,000000	13,605200
2420,000000	13,654600
2419,000000	13,701700
2418,000000	13,760500
2417,000000	13,813700
2416,000000	13,859700
2415,000000	13,897400
2414,000000	13,937300
2413,000000	13,980800
2412,000000	14,032000
2411,000000	14,085600
2410,000000	14,142300
2409,000000	14,172800
2408,000000	14,211500
2407,000000	14,246500
2406,000000	14,267700
2405,000000	14,316100
2404,000000	14,349000
2403,000000	14,389600
2402,000000	14,418600
2401,000000	14,445900
2400,000000	14,489000
2399,000000	14,525500
2398,000000	14,558200
2397,000000	14,593200
2396,000000	14,614300
2395,000000	14,642200
2394,000000	14,674900
2393,000000	14,707200
2392,000000	14,730300
2391,000000	14,754000
2390,000000	14,797800
2389,000000	14,827700
2388,000000	14,827100
2387,000000	14,828100
2386,000000	14,849200
2385,000000	14,866400
2384,000000	14,883300
2383,000000	14,893100
2382,000000	14,912600
2381,000000	14,926300
2380,000000	14,928000
2379,000000	14,930600
2378,000000	14,931000
2377,000000	14,935500
2376,000000	14,933500
2375,000000	14,930300
2374,000000	14,936000
2373,000000	14,945300
2372,000000	14,934200
2371,000000	14,930700
2370,000000	14,924000
2369,000000	14,908100
2368,000000	14,908100
2367,000000	14,899600
2366,000000	14,885800
2365,000000	14,873600
2364,000000	14,857300
2363,000000	14,845600
2362,000000	14,835500
2361,000000	14,824100
2360,000000	14,789700
2359,000000	14,764700
2358,000000	14,750900
2357,000000	14,730500
2356,000000	14,704600
2355,000000	14,693300
2354,000000	14,688700
2353,000000	14,669500
2352,000000	14,645300
2351,000000	14,644800
2350,000000	14,664500
2349,000000	14,667300
2348,000000	14,671200
2347,000000	14,692000
2346,000000	14,720900
2345,000000	14,751800
2344,000000	14,769600
2343,000000	14,773900
2342,000000	14,789800
2341,000000	14,833800
2340,000000	14,873900
2339,000000	14,888700
2338,000000	14,904800
2337,000000	14,926900
2336,000000	14,941400
2335,000000	14,967100
2334,000000	14,975600
2333,000000	14,981000
2332,000000	14,992900
2331,000000	14,990000
2330,000000	14,999500
2329,000000	14,979800
2328,000000	14,966600
2327,000000	14,958700
2326,000000	14,944700
2325,000000	14,936000
2324,000000	14,909200
2323,000000	14,881200
2322,000000	14,842500
2321,000000	14,787200
2320,000000	14,744700
2319,000000	14,703000
2318,000000	14,641500
2317,000000	14,578200
2316,000000	14,519000
2315,000000	14,451000
2314,000000	14,377800
2313,000000	14,308200
2312,000000	14,242400
2311,000000	14,175200
2310,000000	14,103500
2309,000000	14,047000
2308,000000	13,999400
2307,000000	13,970800
2306,000000	13,934700
2305,000000	13,893400
2304,000000	13,891800
2303,000000	13,901900
2302,000000	13,916000
2301,000000	13,939400
2300,000000	13,975800
2299,000000	14,014700
2298,000000	14,062800
2297,000000	14,132700
2296,000000	14,189600
2295,000000	14,232200
2294,000000	14,297000
2293,000000	14,377500
2292,000000	14,427000
2291,000000	14,473400
2290,000000	14,527900
2289,000000	14,578300
2288,000000	14,612100
2287,000000	14,636700
2286,000000	14,666900
2285,000000	14,677900
2284,000000	14,685400
2283,000000	14,682300
2282,000000	14,654900
2281,000000	14,667200
2280,000000	14,643300
2279,000000	14,633600
2278,000000	14,602300
2277,000000	14,561700
2276,000000	14,530400
2275,000000	14,519200
2274,000000	14,483300
2273,000000	14,470800
2272,000000	14,451300
2271,000000	14,439300
2270,000000	14,451500
2269,000000	14,444500
2268,000000	14,456500
2267,000000	14,515800
2266,000000	14,582900
2265,000000	14,647600
2264,000000	14,725600
2263,000000	14,847900
2262,000000	14,974000
2261,000000	15,113200
2260,000000	15,258200
2259,000000	15,441200
2258,000000	15,586800
2257,000000	15,786000
2256,000000	15,960700
2255,000000	16,147400
2254,000000	16,339600
2253,000000	16,548800
2252,000000	16,729300
2251,000000	16,908800
2250,000000	17,084500
2249,000000	17,261000
2248,000000	17,424700
2247,000000	17,593400
2246,000000	17,734600
2245,000000	17,853700
2244,000000	17,992600
2243,000000	18,111400
2242,000000	18,201700
2241,000000	18,329000
2240,000000	18,398800
2239,000000	18,480000
2238,000000	18,542900
2237,000000	18,624800
2236,000000	18,648500
2235,000000	18,703100
2234,000000	18,733200
2233,000000	18,785300
2232,000000	18,806600
2231,000000	18,837500
2230,000000	18,839500
2229,000000	18,831300
2228,000000	18,843500
2227,000000	18,842400
2226,000000	18,813600
2225,000000	18,798500
2224,000000	18,779900
2223,000000	18,732400
2222,000000	18,710500
2221,000000	18,664500
2220,000000	18,629300
2219,000000	18,586200
2218,000000	18,533800
2217,000000	18,479600
2216,000000	18,426600
2215,000000	18,399500
2214,000000	18,331600
2213,000000	18,300500
2212,000000	18,234100
2211,000000	18,192900
2210,000000	18,175000
2209,000000	18,116000
2208,000000	18,097400
2207,000000	18,059600
2206,000000	18,031300
2205,000000	17,997000
2204,000000	17,972600
2203,000000	17,938500
2202,000000	17,900400
2201,000000	17,905400
2200,000000	17,874800
2199,000000	17,853000
2198,000000	17,834300
2197,000000	17,809300
2196,000000	17,785000
2195,000000	17,771200
2194,000000	17,770600
2193,000000	17,746600
2192,000000	17,741700
2191,000000	17,704200
2190,000000	17,718400
2189,000000	17,694700
2188,000000	17,660700
2187,000000	17,665900
2186,000000	17,659200
2185,000000	17,650200
2184,000000	17,618100
2183,000000	17,604700
2182,000000	17,588700
2181,000000	17,581700
2180,000000	17,545600
2179,000000	17,527500
2178,000000	17,531000
2177,000000	17,509800
2176,000000	17,501500
2175,000000	17,486800
2174,000000	17,484600
2173,000000	17,489700
2172,000000	17,482500
2171,000000	17,485900
2170,000000	17,485000
2169,000000	17,492600
2168,000000	17,510300
2167,000000	17,518900
2166,000000	17,541200
2165,000000	17,556400
2164,000000	17,579000
2163,000000	17,595900
2162,000000	17,616400
2161,000000	17,645100
2160,000000	17,672200
2159,000000	17,720500
2158,000000	17,747500
2157,000000	17,806500
2156,000000	17,828000
2155,000000	17,883000
2154,000000	17,955800
2153,000000	17,993300
2152,000000	18,044000
2151,000000	18,093200
2150,000000	18,141700
2149,000000	18,197800
2148,000000	18,260100
2147,000000	18,312700
2146,000000	18,357800
2145,000000	18,416800
2144,000000	18,465500
2143,000000	18,496900
2142,000000	18,548100
2141,000000	18,593600
2140,000000	18,642700
2139,000000	18,685200
2138,000000	18,748900
2137,000000	18,776900
2136,000000	18,798000
2135,000000	18,847400
2134,000000	18,884900
2133,000000	18,908600
2132,000000	18,936500
2131,000000	18,954900
2130,000000	18,973400
2129,000000	18,989100
2128,000000	19,008800
2127,000000	19,009800
2126,000000	19,023400
2125,000000	19,034900
2124,000000	19,041200
2123,000000	19,032100
2122,000000	19,031600
2121,000000	19,035200
2120,000000	19,037700
2119,000000	19,025500
2118,000000	19,013600
2117,000000	18,993100
2116,000000	18,982900
2115,000000	18,970000
2114,000000	18,942700
2113,000000	18,914100
2112,000000	18,885300
2111,000000	18,866700
2110,000000	18,846700
2109,000000	18,819800
2108,000000	18,787900
2107,000000	18,763500
2106,000000	18,736700
2105,000000	18,712100
2104,000000	18,684800
2103,000000	18,656800
2102,000000	18,626900
2101,000000	18,605400
2100,000000	18,573800
2099,000000	18,540100
2098,000000	18,506200
2097,000000	18,460100
2096,000000	18,439100
2095,000000	18,436000
2094,000000	18,413000
2093,000000	18,384600
2092,000000	18,359300
2091,000000	18,349000
2090,000000	18,330000
2089,000000	18,298300
2088,000000	18,269400
2087,000000	18,255000
2086,000000	18,231400
2085,000000	18,193900
2084,000000	18,161800
2083,000000	18,125800
2082,000000	18,082200
2081,000000	18,041800
2080,000000	18,001100
2079,000000	17,962800
2078,000000	17,916900
2077,000000	17,855700
2076,000000	17,795700
2075,000000	17,724100
2074,000000	17,663500
2073,000000	17,604100
2072,000000	17,535300
2071,000000	17,468200
2070,000000	17,405000
2069,000000	17,327900
2068,000000	17,248200
2067,000000	17,176200
2066,000000	17,102800
2065,000000	17,026800
2064,000000	16,946800
2063,000000	16,876300
2062,000000	16,807600
2061,000000	16,739400
2060,000000	16,672100
2059,000000	16,612800
2058,000000	16,564900
2057,000000	16,523000
2056,000000	16,490200
2055,000000	16,461900
2054,000000	16,433800
2053,000000	16,424400
2052,000000	16,433700
2051,000000	16,457800
2050,000000	16,476100
2049,000000	16,493000
2048,000000	16,527100
2047,000000	16,570700
2046,000000	16,625100
2045,000000	16,663800
2044,000000	16,722200
2043,000000	16,782600
2042,000000	16,834000
2041,000000	16,892000
2040,000000	16,939300
2039,000000	16,985300
2038,000000	17,036300
2037,000000	17,075500
2036,000000	17,103400
2035,000000	17,142100
2034,000000	17,180300
2033,000000	17,199000
2032,000000	17,214800
2031,000000	17,231900
2030,000000	17,252200
2029,000000	17,262000
2028,000000	17,271000
2027,000000	17,275100
2026,000000	17,281100
2025,000000	17,283800
2024,000000	17,268600
2023,000000	17,259800
2022,000000	17,250700
2021,000000	17,234000
2020,000000	17,213400
2019,000000	17,195200
2018,000000	17,187700
2017,000000	17,161300
2016,000000	17,145500
2015,000000	17,105100
2014,000000	17,070800
2013,000000	17,036200
2012,000000	16,991300
2011,000000	16,962700
2010,000000	16,911900
2009,000000	16,882300
2008,000000	16,825100
2007,000000	16,784700
2006,000000	16,729000
2005,000000	16,676500
2004,000000	16,622700
2003,000000	16,544300
2002,000000	16,496500
2001,000000	16,428400
2000,000000	16,358500
1999,000000	16,288000
1998,000000	16,226600
1997,000000	16,138900
1996,000000	16,060900
1995,000000	15,988200
1994,000000	15,919100
1993,000000	15,835900
1992,000000	15,762600
1991,000000	15,666400
1990,000000	15,566500
1989,000000	15,486200
1988,000000	15,413700
1987,000000	15,341100
1986,000000	15,239300
1985,000000	15,157000
1984,000000	15,071700
1983,000000	14,979400
1982,000000	14,870400
1981,000000	14,791200
1980,000000	14,725200
1979,000000	14,642400
1978,000000	14,542700
1977,000000	14,474600
1976,000000	14,379100
1975,000000	14,293000
1974,000000	14,201300
1973,000000	14,145000
1972,000000	14,053500
1971,000000	13,953600
1970,000000	13,875300
1969,000000	13,798400
1968,000000	13,725400
1967,000000	13,646400
1966,000000	13,561800
1965,000000	13,491700
1964,000000	13,435500
1963,000000	13,358900
1962,000000	13,279100
1961,000000	13,219300
1960,000000	13,150000
1959,000000	13,054000
1958,000000	13,007400
1957,000000	12,940000
1956,000000	12,838400
1955,000000	12,799100
1954,000000	12,745200
1953,000000	12,695300
1952,000000	12,632800
1951,000000	12,563100
1950,000000	12,501600
1949,000000	12,432000
1948,000000	12,395400
1947,000000	12,368500
1946,000000	12,316300
1945,000000	12,265100
1944,000000	12,236900
1943,000000	12,204500
1942,000000	12,164000
1941,000000	12,160100
1940,000000	12,141400
1939,000000	12,121200
1938,000000	12,129200
1937,000000	12,119600
1936,000000	12,141200
1935,000000	12,134500
1934,000000	12,150000
1933,000000	12,178000
1932,000000	12,185500
1931,000000	12,232800
1930,000000	12,298000
1929,000000	12,333500
1928,000000	12,404700
1927,000000	12,472400
1926,000000	12,556500
1925,000000	12,638900
1924,000000	12,705700
1923,000000	12,793400
1922,000000	12,895600
1921,000000	13,046400
1920,000000	13,187400
1919,000000	13,336800
1918,000000	13,439100
1917,000000	13,599300
1916,000000	13,721300
1915,000000	13,850900
1914,000000	14,009200
1913,000000	14,246300
1912,000000	14,481300
1911,000000	14,681600
1910,000000	14,855400
1909,000000	15,056100
1908,000000	15,233600
1907,000000	15,463000
1906,000000	15,733900
1905,000000	16,059400
1904,000000	16,382600
1903,000000	16,669200
1902,000000	16,968000
1901,000000	17,290900
1900,000000	17,639500
1899,000000	18,045000
1898,000000	18,454500
1897,000000	18,819700
1896,000000	19,192700
1895,000000	19,547600
1894,000000	19,914600
1893,000000	20,318200
1892,000000	20,782600
1891,000000	21,366600
1890,000000	21,893300
1889,000000	22,389400
1888,000000	22,920400
1887,000000	23,390900
1886,000000	23,892900
1885,000000	24,416200
1884,000000	25,019700
1883,000000	25,571400
1882,000000	26,110300
1881,000000	26,641100
1880,000000	27,144400
1879,000000	27,599300
1878,000000	28,092400
1877,000000	28,583900
1876,000000	29,037500
1875,000000	29,515600
1874,000000	29,964800
1873,000000	30,406600
1872,000000	30,870100
1871,000000	31,268500
1870,000000	31,665800
1869,000000	32,024700
1868,000000	32,343700
1867,000000	32,603600
1866,000000	32,834400
1865,000000	33,018600
1864,000000	33,197700
1863,000000	33,355300
1862,000000	33,557100
1861,000000	33,765500
1860,000000	33,982500
1859,000000	34,150300
1858,000000	34,308800
1857,000000	34,450800
1856,000000	34,562400
1855,000000	34,654600
1854,000000	34,767200
1853,000000	34,844200
1852,000000	34,888900
1851,000000	34,965600
1850,000000	35,023500
1849,000000	35,094300
1848,000000	35,150900
1847,000000	35,220900
1846,000000	35,241200
1845,000000	35,202700
1844,000000	35,191600
1843,000000	35,186100
1842,000000	35,221000
1841,000000	35,274800
1840,000000	35,284700
1839,000000	35,293400
1838,000000	35,279200
1837,000000	35,263800
1836,000000	35,255700
1835,000000	35,240500
1834,000000	35,186000
1833,000000	35,123800
1832,000000	35,078100
1831,000000	35,053500
1830,000000	35,046400
1829,000000	35,000300
1828,000000	34,944500
1827,000000	34,919400
1826,000000	34,895700
1825,000000	34,837100
1824,000000	34,785300
1823,000000	34,745200
1822,000000	34,760600
1821,000000	34,775600
1820,000000	34,761600
1819,000000	34,744600
1818,000000	34,712200
1817,000000	34,660900
1816,000000	34,631900
1815,000000	34,617900
1814,000000	34,594100
1813,000000	34,595000
1812,000000	34,583600
1811,000000	34,550300
1810,000000	34,511500
1809,000000	34,475400
1808,000000	34,438600
1807,000000	34,402000
1806,000000	34,383700
1805,000000	34,350500
1804,000000	34,300300
1803,000000	34,265600
1802,000000	34,242300
1801,000000	34,219300
1800,000000	34,173400
1799,000000	34,118200
1798,000000	34,064900
1797,000000	34,025700
1796,000000	33,986800
1795,000000	33,956500
1794,000000	33,932400
1793,000000	33,896300
1792,000000	33,861600
1791,000000	33,821300
1790,000000	33,785300
1789,000000	33,772800
1788,000000	33,741100
1787,000000	33,698800
1786,000000	33,682300
1785,000000	33,655400
1784,000000	33,616700
1783,000000	33,589900
1782,000000	33,545500
1781,000000	33,506700
1780,000000	33,490300
1779,000000	33,460300
1778,000000	33,418100
1777,000000	33,372600
1776,000000	33,330900
1775,000000	33,270400
1774,000000	33,226800
1773,000000	33,195700
1772,000000	33,149400
1771,000000	33,096600
1770,000000	33,033400
1769,000000	32,984400
1768,000000	32,931300
1767,000000	32,880000
1766,000000	32,828000
1765,000000	32,792100
1764,000000	32,754200
1763,000000	32,737400
1762,000000	32,732600
1761,000000	32,743700
1760,000000	32,757900
1759,000000	32,789900
1758,000000	32,837100
1757,000000	32,877500
1756,000000	32,918600
1755,000000	32,964500
1754,000000	33,005400
1753,000000	33,044600
1752,000000	33,087600
1751,000000	33,105900
1750,000000	33,110800
1749,000000	33,108100
1748,000000	33,104300
1747,000000	33,085000
1746,000000	33,058300
1745,000000	33,019000
1744,000000	32,964300
1743,000000	32,902000
1742,000000	32,832100
1741,000000	32,742100
1740,000000	32,639600
1739,000000	32,543300
1738,000000	32,435400
1737,000000	32,324100
1736,000000	32,236700
1735,000000	32,159800
1734,000000	32,069900
1733,000000	32,027000
1732,000000	32,001600
1731,000000	31,978200
1730,000000	31,982300
1729,000000	31,995400
1728,000000	32,033900
1727,000000	32,067800
1726,000000	32,100800
1725,000000	32,157500
1724,000000	32,184700
1723,000000	32,231900
1722,000000	32,288700
1721,000000	32,370800
1720,000000	32,447900
1719,000000	32,538400
1718,000000	32,633100
1717,000000	32,728900
1716,000000	32,831500
1715,000000	32,944700
1714,000000	33,053100
1713,000000	33,164400
1712,000000	33,261500
1711,000000	33,347900
1710,000000	33,421000
1709,000000	33,488700
1708,000000	33,527300
1707,000000	33,568500
1706,000000	33,576700
1705,000000	33,563600
1704,000000	33,553200
1703,000000	33,521900
1702,000000	33,482200
1701,000000	33,440800
1700,000000	33,356600
1699,000000	33,291000
1698,000000	33,215500
1697,000000	33,123200
1696,000000	33,055200
1695,000000	33,018700
1694,000000	32,984700
1693,000000	32,981300
1692,000000	32,982000
1691,000000	33,044300
1690,000000	33,083500
1689,000000	33,143800
1688,000000	33,220800
1687,000000	33,312300
1686,000000	33,394200
1685,000000	33,496200
1684,000000	33,600800
1683,000000	33,723400
1682,000000	33,880100
1681,000000	34,081400
1680,000000	34,328200
1679,000000	34,604600
1678,000000	34,897800
1677,000000	35,189500
1676,000000	35,479100
1675,000000	35,762600
1674,000000	36,023400
1673,000000	36,268300
1672,000000	36,478900
1671,000000	36,671200
1670,000000	36,847200
1669,000000	37,003100
1668,000000	37,151400
1667,000000	37,234000
1666,000000	37,337000
1665,000000	37,414400
1664,000000	37,538800
1663,000000	37,607200
1662,000000	37,676100
1661,000000	37,732100
1660,000000	37,792900
1659,000000	37,852900
1658,000000	37,902100
1657,000000	37,927500
1656,000000	37,938300
1655,000000	37,940200
1654,000000	37,983300
1653,000000	37,978100
1652,000000	37,991800
1651,000000	37,964600
1650,000000	37,960400
1649,000000	37,927100
1648,000000	37,911000
1647,000000	37,895700
1646,000000	37,854900
1645,000000	37,809000
1644,000000	37,773700
1643,000000	37,733300
1642,000000	37,696500
1641,000000	37,673500
1640,000000	37,620900
1639,000000	37,558600
1638,000000	37,522900
1637,000000	37,479100
1636,000000	37,441300
1635,000000	37,384300
1634,000000	37,326700
1633,000000	37,279900
1632,000000	37,215600
1631,000000	37,164300
1630,000000	37,091900
1629,000000	37,013700
1628,000000	36,960200
1627,000000	36,889700
1626,000000	36,823000
1625,000000	36,747600
1624,000000	36,691200
1623,000000	36,608200
1622,000000	36,544300
1621,000000	36,458000
1620,000000	36,392000
1619,000000	36,335000
1618,000000	36,270000
1617,000000	36,198200
1616,000000	36,138100
1615,000000	36,078700
1614,000000	36,011900
1613,000000	35,949700
1612,000000	35,888300
1611,000000	35,815500
1610,000000	35,744800
1609,000000	35,668600
1608,000000	35,597800
1607,000000	35,520000
1606,000000	35,459600
1605,000000	35,385400
1604,000000	35,303400
1603,000000	35,241600
1602,000000	35,155300
1601,000000	35,072100
1600,000000	35,012500
1599,000000	34,930500
1598,000000	34,840700
1597,000000	34,771000
1596,000000	34,708000
1595,000000	34,631300
1594,000000	34,558300
1593,000000	34,490600
1592,000000	34,423400
1591,000000	34,353700
1590,000000	34,291800
1589,000000	34,237600
1588,000000	34,173800
1587,000000	34,114100
1586,000000	34,062500
1585,000000	33,990800
1584,000000	33,932000
1583,000000	33,880700
1582,000000	33,825100
1581,000000	33,758000
1580,000000	33,710200
1579,000000	33,670500
1578,000000	33,614200
1577,000000	33,549700
1576,000000	33,523200
1575,000000	33,488100
1574,000000	33,454000
1573,000000	33,406700
1572,000000	33,371900
1571,000000	33,350100
1570,000000	33,318700
1569,000000	33,300700
1568,000000	33,291300
1567,000000	33,266500
1566,000000	33,233900
1565,000000	33,207600
1564,000000	33,190000
1563,000000	33,175900
1562,000000	33,147100
1561,000000	33,118500
1560,000000	33,093900
1559,000000	33,058500
1558,000000	33,020500
1557,000000	32,968700
1556,000000	32,914100
1555,000000	32,867600
1554,000000	32,815500
1553,000000	32,763100
1552,000000	32,699900
1551,000000	32,638000
1550,000000	32,558300
1549,000000	32,505600
1548,000000	32,447400
1547,000000	32,376600
1546,000000	32,312500
1545,000000	32,261800
1544,000000	32,212900
1543,000000	32,169300
1542,000000	32,111600
1541,000000	32,049000
1540,000000	32,010700
1539,000000	31,972100
1538,000000	31,924000
1537,000000	31,866000
1536,000000	31,813700
1535,000000	31,764600
1534,000000	31,719400
1533,000000	31,655700
1532,000000	31,593800
1531,000000	31,528000
1530,000000	31,466000
1529,000000	31,403100
1528,000000	31,343200
1527,000000	31,282200
1526,000000	31,214800
1525,000000	31,139600
1524,000000	31,064000
1523,000000	30,998300
1522,000000	30,922800
1521,000000	30,845400
1520,000000	30,766800
1519,000000	30,680500
1518,000000	30,602200
1517,000000	30,528200
1516,000000	30,449100
1515,000000	30,369600
1514,000000	30,285600
1513,000000	30,199100
1512,000000	30,115500
1511,000000	30,040400
1510,000000	29,960000
1509,000000	29,873600
1508,000000	29,773400
1507,000000	29,683800
1506,000000	29,595700
1505,000000	29,505200
1504,000000	29,419400
1503,000000	29,332200
1502,000000	29,244600
1501,000000	29,157700
1500,000000	29,081800
1499,000000	29,004000
1498,000000	28,926000
1497,000000	28,850800
1496,000000	28,782900
1495,000000	28,718100
1494,000000	28,653300
1493,000000	28,588800
1492,000000	28,538300
1491,000000	28,472600
1490,000000	28,400700
1489,000000	28,352400
1488,000000	28,298700
1487,000000	28,247700
1486,000000	28,194200
1485,000000	28,142300
1484,000000	28,099300
1483,000000	28,055900
1482,000000	28,021200
1481,000000	27,974300
1480,000000	27,938300
1479,000000	27,910700
1478,000000	27,872600
1477,000000	27,844100
1476,000000	27,827100
1475,000000	27,804800
1474,000000	27,788700
1473,000000	27,784300
1472,000000	27,792200
1471,000000	27,795200
1470,000000	27,797000
1469,000000	27,787400
1468,000000	27,797700
1467,000000	27,805400
1466,000000	27,817800
1465,000000	27,828100
1464,000000	27,850800
1463,000000	27,883800
1462,000000	27,897900
1461,000000	27,926100
1460,000000	27,953800
1459,000000	28,002100
1458,000000	28,054200
1457,000000	28,101000
1456,000000	28,173900
1455,000000	28,229000
1454,000000	28,282200
1453,000000	28,347200
1452,000000	28,420200
1451,000000	28,499800
1450,000000	28,575700
1449,000000	28,622600
1448,000000	28,705900
1447,000000	28,786000
1446,000000	28,886600
1445,000000	28,968100
1444,000000	29,059400
1443,000000	29,126800
1442,000000	29,232500
1441,000000	29,325700
1440,000000	29,420500
1439,000000	29,534300
1438,000000	29,642800
1437,000000	29,769800
1436,000000	29,875100
1435,000000	29,979300
1434,000000	30,116600
1433,000000	30,270000
1432,000000	30,401400
1431,000000	30,531600
1430,000000	30,668900
1429,000000	30,832100
1428,000000	30,996300
1427,000000	31,165400
1426,000000	31,323300
1425,000000	31,521100
1424,000000	31,739500
1423,000000	31,966300
1422,000000	32,164400
1421,000000	32,357000
1420,000000	32,622000
1419,000000	32,887800
1418,000000	33,132000
1417,000000	33,382500
1416,000000	33,612600
1415,000000	33,902800
1414,000000	34,264000
1413,000000	34,567700
1412,000000	34,856100
1411,000000	35,162900
1410,000000	35,532400
1409,000000	35,938200
1408,000000	36,310900
1407,000000	36,713900
1406,000000	37,071600
1405,000000	37,504500
1404,000000	37,952500
1403,000000	38,341900
1402,000000	38,700700
1401,000000	39,210000
1400,000000	39,708800
1399,000000	40,162500
1398,000000	40,502800
1397,000000	40,865800
1396,000000	41,371900
1395,000000	41,923500
1394,000000	42,347200
1393,000000	42,769900
1392,000000	43,246500
1391,000000	43,706900
1390,000000	44,152700
1389,000000	44,583900
1388,000000	45,155200
1387,000000	45,694700
1386,000000	46,226000
1385,000000	46,712900
1384,000000	47,260700
1383,000000	47,780100
1382,000000	48,302600
1381,000000	48,746500
1380,000000	49,046200
1379,000000	49,373700
1378,000000	49,670300
1377,000000	49,887800
1376,000000	50,102600
1375,000000	50,347500
1374,000000	50,534500
1373,000000	50,775100
1372,000000	51,046900
1371,000000	51,334300
1370,000000	51,569700
1369,000000	51,807100
1368,000000	52,066600
1367,000000	52,286100
1366,000000	52,456700
1365,000000	52,635900
1364,000000	52,831600
1363,000000	52,962900
1362,000000	53,160800
1361,000000	53,298800
1360,000000	53,438900
1359,000000	53,459800
1358,000000	53,587200
1357,000000	53,702000
1356,000000	53,826000
1355,000000	54,000700
1354,000000	54,189500
1353,000000	54,387000
1352,000000	54,574100
1351,000000	54,861400
1350,000000	55,150500
1349,000000	55,419900
1348,000000	55,689400
1347,000000	55,958800
1346,000000	56,216400
1345,000000	56,414700
1344,000000	56,693100
1343,000000	56,951600
1342,000000	57,154500
1341,000000	57,403200
1340,000000	57,627400
1339,000000	57,856600
1338,000000	58,093800
1337,000000	58,309800
1336,000000	58,547900
1335,000000	58,750400
1334,000000	58,966200
1333,000000	59,180900
1332,000000	59,399700
1331,000000	59,596600
1330,000000	59,799500
1329,000000	59,996400
1328,000000	60,186800
1327,000000	60,384100
1326,000000	60,556000
1325,000000	60,714800
1324,000000	60,896300
1323,000000	61,066800
1322,000000	61,217600
1321,000000	61,380000
1320,000000	61,532200
1319,000000	61,669400
1318,000000	61,821100
1317,000000	61,972900
1316,000000	62,081400
1315,000000	62,208400
1314,000000	62,346500
1313,000000	62,469900
1312,000000	62,595000
1311,000000	62,705200
1310,000000	62,798200
1309,000000	62,899100
1308,000000	63,006100
1307,000000	63,113300
1306,000000	63,187800
1305,000000	63,272400
1304,000000	63,352400
1303,000000	63,418900
1302,000000	63,472600
1301,000000	63,545200
1300,000000	63,599400
1299,000000	63,656900
1298,000000	63,691200
1297,000000	63,745900
1296,000000	63,797900
1295,000000	63,838400
1294,000000	63,879100
1293,000000	63,915400
1292,000000	63,936300
1291,000000	63,965900
1290,000000	63,986600
1289,000000	63,991100
1288,000000	64,002300
1287,000000	63,993700
1286,000000	64,000500
1285,000000	63,999400
1284,000000	63,983600
1283,000000	63,966800
1282,000000	63,955300
1281,000000	63,942100
1280,000000	63,915600
1279,000000	63,897900
1278,000000	63,882400
1277,000000	63,858500
1276,000000	63,847400
1275,000000	63,838000
1274,000000	63,822400
1273,000000	63,807600
1272,000000	63,803300
1271,000000	63,802100
1270,000000	63,807600
1269,000000	63,779400
1268,000000	63,751900
1267,000000	63,748200
1266,000000	63,752000
1265,000000	63,720200
1264,000000	63,691300
1263,000000	63,679400
1262,000000	63,657500
1261,000000	63,629800
1260,000000	63,615000
1259,000000	63,596000
1258,000000	63,557300
1257,000000	63,515100
1256,000000	63,489300
1255,000000	63,460500
1254,000000	63,409100
1253,000000	63,354100
1252,000000	63,320000
1251,000000	63,267100
1250,000000	63,204400
1249,000000	63,147100
1248,000000	63,072000
1247,000000	63,010200
1246,000000	62,945000
1245,000000	62,875100
1244,000000	62,782100
1243,000000	62,699800
1242,000000	62,641800
1241,000000	62,564700
1240,000000	62,481900
1239,000000	62,400800
1238,000000	62,324200
1237,000000	62,254200
1236,000000	62,169400
1235,000000	62,084100
1234,000000	62,008200
1233,000000	61,935100
1232,000000	61,851000
1231,000000	61,766200
1230,000000	61,680300
1229,000000	61,586700
1228,000000	61,492200
1227,000000	61,397200
1226,000000	61,309600
1225,000000	61,218700
1224,000000	61,125100
1223,000000	61,030900
1222,000000	60,933800
1221,000000	60,837100
1220,000000	60,739000
1219,000000	60,644700
1218,000000	60,546000
1217,000000	60,454600
1216,000000	60,366700
1215,000000	60,266800
1214,000000	60,169000
1213,000000	60,087400
1212,000000	60,007800
1211,000000	59,916900
1210,000000	59,821500
1209,000000	59,731600
1208,000000	59,653500
1207,000000	59,577300
1206,000000	59,480900
1205,000000	59,401300
1204,000000	59,329400
1203,000000	59,263300
1202,000000	59,205300
1201,000000	59,152600
1200,000000	59,092300
1199,000000	59,029000
1198,000000	58,965200
1197,000000	58,884800
1196,000000	58,791900
1195,000000	58,693200
1194,000000	58,571700
1193,000000	58,428100
1192,000000	58,262200
1191,000000	58,077700
1190,000000	57,887000
1189,000000	57,693600
1188,000000	57,532100
1187,000000	57,398600
1186,000000	57,301000
1185,000000	57,261700
1184,000000	57,275700
1183,000000	57,338700
1182,000000	57,468000
1181,000000	57,643300
1180,000000	57,856700
1179,000000	58,104900
1178,000000	58,343400
1177,000000	58,565600
1176,000000	58,775800
1175,000000	58,970300
1174,000000	59,155200
1173,000000	59,314800
1172,000000	59,483000
1171,000000	59,670000
1170,000000	59,856900
1169,000000	60,043800
1168,000000	60,240800
1167,000000	60,441400
1166,000000	60,660100
1165,000000	60,878700
1164,000000	61,101900
1163,000000	61,336900
1162,000000	61,570900
1161,000000	61,814500
1160,000000	62,049400
1159,000000	62,297700
1158,000000	62,552800
1157,000000	62,785900
1156,000000	63,003100
1155,000000	63,232500
1154,000000	63,444300
1153,000000	63,628300
1152,000000	63,807400
1151,000000	63,967900
1150,000000	64,108600
1149,000000	64,262800
1148,000000	64,404900
1147,000000	64,567600
1146,000000	64,728900
1145,000000	64,925500
1144,000000	65,129600
1143,000000	65,344200
1142,000000	65,597900
1141,000000	65,852200
1140,000000	66,121700
1139,000000	66,422000
1138,000000	66,721000
1137,000000	67,043200
1136,000000	67,351100
1135,000000	67,697500
1134,000000	68,035800
1133,000000	68,304400
1132,000000	68,571300
1131,000000	68,814200
1130,000000	69,040100
1129,000000	69,246200
1128,000000	69,415400
1127,000000	69,565900
1126,000000	69,680100
1125,000000	69,793800
1124,000000	69,878100
1123,000000	69,969100
1122,000000	70,011400
1121,000000	70,054600
1120,000000	70,072300
1119,000000	70,096400
1118,000000	70,115300
1117,000000	70,116900
1116,000000	70,144700
1115,000000	70,142600
1114,000000	70,133100
1113,000000	70,121300
1112,000000	70,114900
1111,000000	70,112100
1110,000000	70,112400
1109,000000	70,100600
1108,000000	70,088400
1107,000000	70,068000
1106,000000	70,073300
1105,000000	70,078700
1104,000000	70,079400
1103,000000	70,059100
1102,000000	70,045400
1101,000000	70,049000
1100,000000	70,032300
1099,000000	70,045200
1098,000000	70,019300
1097,000000	70,012500
1096,000000	69,977300
1095,000000	69,986900
1094,000000	69,976600
1093,000000	69,953300
1092,000000	69,925400
1091,000000	69,926000
1090,000000	69,893600
1089,000000	69,872400
1088,000000	69,868300
1087,000000	69,846200
1086,000000	69,811600
1085,000000	69,787500
1084,000000	69,771600
1083,000000	69,739000
1082,000000	69,718600
1081,000000	69,676500
1080,000000	69,652700
1079,000000	69,616000
1078,000000	69,616200
1077,000000	69,563400
1076,000000	69,542200
1075,000000	69,501500
1074,000000	69,464100
1073,000000	69,416500
1072,000000	69,405500
1071,000000	69,385700
1070,000000	69,333500
1069,000000	69,281600
1068,000000	69,256200
1067,000000	69,215800
1066,000000	69,172200
1065,000000	69,114900
1064,000000	69,072300
1063,000000	69,013500
1062,000000	68,966100
1061,000000	68,908600
1060,000000	68,876200
1059,000000	68,821700
1058,000000	68,767100
1057,000000	68,698400
1056,000000	68,662200
1055,000000	68,601600
1054,000000	68,532100
1053,000000	68,457500
1052,000000	68,387500
1051,000000	68,332600
1050,000000	68,270100
1049,000000	68,218600
1048,000000	68,166700
1047,000000	68,094700
1046,000000	68,045100
1045,000000	67,991700
1044,000000	67,939500
1043,000000	67,879700
1042,000000	67,811100
1041,000000	67,778800
1040,000000	67,733300
1039,000000	67,667500
1038,000000	67,628200
1037,000000	67,571900
1036,000000	67,521100
1035,000000	67,482100
1034,000000	67,409500
1033,000000	67,360700
1032,000000	67,340800
1031,000000	67,287800
1030,000000	67,249100
1029,000000	67,206300
1028,000000	67,158100
1027,000000	67,121100
1026,000000	67,067900
1025,000000	67,019800
1024,000000	66,999000
1023,000000	66,958600
1022,000000	66,907000
1021,000000	66,868400
1020,000000	66,824800
1019,000000	66,803600
1018,000000	66,783200
1017,000000	66,756800
1016,000000	66,709000
1015,000000	66,685600
1014,000000	66,663700
1013,000000	66,640900
1012,000000	66,623600
1011,000000	66,621200
1010,000000	66,608200
1009,000000	66,615500
1008,000000	66,588500
1007,000000	66,583400
1006,000000	66,581000
1005,000000	66,571200
1004,000000	66,565700
1003,000000	66,549800
1002,000000	66,522200
1001,000000	66,512900
1000,000000	66,507500
999,000000	66,491100
998,000000	66,471600
997,000000	66,451400
996,000000	66,454400
995,000000	66,439800
994,000000	66,422600
993,000000	66,424300
992,000000	66,425600
991,000000	66,427900
990,000000	66,432100
989,000000	66,434600
988,000000	66,447300
987,000000	66,472900
986,000000	66,502000
985,000000	66,520700
984,000000	66,537000
983,000000	66,584300
982,000000	66,627900
981,000000	66,667000
980,000000	66,704300
979,000000	66,746000
978,000000	66,800600
977,000000	66,844600
976,000000	66,879100
975,000000	66,923200
974,000000	66,982100
973,000000	67,049500
972,000000	67,089200
971,000000	67,143000
970,000000	67,200400
969,000000	67,245800
968,000000	67,307200
967,000000	67,373400
966,000000	67,432000
965,000000	67,485900
964,000000	67,547100
963,000000	67,631500
962,000000	67,704100
961,000000	67,762000
960,000000	67,841200
959,000000	67,909100
958,000000	67,986100
957,000000	68,056000
956,000000	68,120500
955,000000	68,206900
954,000000	68,276500
953,000000	68,352700
952,000000	68,431800
951,000000	68,492300
950,000000	68,568800
949,000000	68,657900
948,000000	68,728100
947,000000	68,781400
946,000000	68,859200
945,000000	68,947100
944,000000	69,020600
943,000000	69,093700
942,000000	69,178600
941,000000	69,253000
940,000000	69,327000
939,000000	69,402000
938,000000	69,480400
937,000000	69,577800
936,000000	69,654500
935,000000	69,725300
934,000000	69,808100
933,000000	69,890300
932,000000	69,987100
931,000000	70,055100
930,000000	70,105400
929,000000	70,168500
928,000000	70,265000
927,000000	70,322100
926,000000	70,374000
925,000000	70,434900
924,000000	70,492400
923,000000	70,581300
922,000000	70,642200
921,000000	70,682100
920,000000	70,735000
919,000000	70,807400
918,000000	70,854800
917,000000	70,906000
916,000000	70,970200
915,000000	71,024900
914,000000	71,079500
913,000000	71,138600
912,000000	71,192600
911,000000	71,249300
910,000000	71,302000
909,000000	71,366300
908,000000	71,426100
907,000000	71,488000
906,000000	71,554300
905,000000	71,605500
904,000000	71,676300
903,000000	71,756900
902,000000	71,813400
901,000000	71,879600
900,000000	71,970000
899,000000	72,056700
898,000000	72,131700
897,000000	72,216100
896,000000	72,285300
895,000000	72,359200
894,000000	72,439000
893,000000	72,506500
892,000000	72,570700
891,000000	72,644900
890,000000	72,720300
889,000000	72,772500
888,000000	72,832100
887,000000	72,873400
886,000000	72,935100
885,000000	72,990600
884,000000	73,042100
883,000000	73,091400
882,000000	73,131700
881,000000	73,163800
880,000000	73,176900
879,000000	73,185400
878,000000	73,209700
877,000000	73,169700
876,000000	73,104700
875,000000	73,031400
874,000000	72,935700
873,000000	72,854100
872,000000	72,868800
871,000000	72,978500
870,000000	73,142900
869,000000	73,288800
868,000000	73,424000
867,000000	73,544000
866,000000	73,681800
865,000000	73,804800
864,000000	73,939800
863,000000	74,079700
862,000000	74,234300
861,000000	74,385000
860,000000	74,539500
859,000000	74,692200
858,000000	74,859900
857,000000	77,420100
856,000000	77,712700
855,000000	78,041700
854,000000	77,504500
853,000000	78,011300
852,000000	77,751300
851,000000	78,761500
850,000000	78,804100
849,000000	78,752500
848,000000	78,926500
847,000000	79,090100
846,000000	79,799800
845,000000	80,166900
844,000000	80,406800
843,000000	80,750400
842,000000	81,544400
841,000000	81,436200
840,000000	81,578500
839,000000	81,849400
838,000000	82,483600
837,000000	82,549000
836,000000	82,737500
835,000000	83,156400
834,000000	83,494200
833,000000	83,749500
832,000000	84,091800
831,000000	84,322500
830,000000	84,692300
829,000000	85,082800
828,000000	84,825500
827,000000	84,939600
826,000000	85,400500
825,000000	85,502700
824,000000	85,991000
823,000000	86,207100
822,000000	86,078300
821,000000	86,555200
820,000000	86,327700
819,000000	86,543100
818,000000	86,648700
817,000000	86,772000
816,000000	86,866600
815,000000	87,199100
814,000000	87,276600
813,000000	87,481800
812,000000	87,640800
811,000000	87,862500
810,000000	88,087700
809,000000	88,353900
808,000000	88,674300
807,000000	88,806000
806,000000	89,319100
805,000000	89,304200
804,000000	89,487300
803,000000	89,779100
802,000000	89,961000
801,000000	90,201000
800,000000	90,265400
799,000000	90,490800
798,000000	90,632000
797,000000	90,788400
796,000000	90,879000
795,000000	90,961100
794,000000	90,994100
793,000000	91,057500
792,000000	91,060200
791,000000	90,919700
790,000000	91,088400
789,000000	90,823600
788,000000	90,882300
787,000000	91,026500
786,000000	90,872400
785,000000	90,729700
784,000000	90,676500
783,000000	90,574800
782,000000	90,358800
781,000000	90,366000
780,000000	90,241100
779,000000	90,082900
778,000000	90,034200
777,000000	90,028300
776,000000	89,894200
775,000000	89,909000
774,000000	89,833900
773,000000	89,821200
772,000000	89,735400
771,000000	89,650500
770,000000	89,721700
769,000000	89,695500
768,000000	89,682600
767,000000	89,507000
766,000000	89,672700
765,000000	89,545100
764,000000	89,375900
763,000000	89,524700
762,000000	89,458100
761,000000	89,497300
760,000000	89,180400
759,000000	89,280800
758,000000	89,168600
757,000000	88,887300
756,000000	88,824400
755,000000	88,760900
754,000000	88,528700
753,000000	88,352600
752,000000	88,160400
751,000000	87,984200
750,000000	87,696300
749,000000	87,535900
748,000000	87,437500
747,000000	87,168600
746,000000	86,979100
745,000000	86,750400
744,000000	86,566600
743,000000	86,358700
742,000000	86,018600
741,000000	85,966000
740,000000	85,941500
739,000000	85,707000
738,000000	85,588800
737,000000	85,383900
736,000000	85,226600
735,000000	85,080900
734,000000	84,961000
733,000000	84,811100
732,000000	84,645400
731,000000	84,529000
730,000000	84,456600
729,000000	84,200400
728,000000	84,040000
727,000000	83,812300
726,000000	83,620700
725,000000	83,409700
724,000000	83,161500
723,000000	82,942800
722,000000	82,639500
721,000000	82,447900
720,000000	82,199700
719,000000	81,969900
718,000000	81,795900
717,000000	81,598900
716,000000	81,431800
715,000000	81,280500
714,000000	81,113200
713,000000	80,877100
712,000000	80,799100
711,000000	80,700600
710,000000	80,539400
709,000000	80,405700
708,000000	80,336800
707,000000	80,171800
706,000000	79,993300
705,000000	79,844400
704,000000	79,685800
703,000000	79,518000
702,000000	79,365100
701,000000	79,189500
700,000000	78,999000
699,000000	78,809400
698,000000	78,724000
697,000000	78,579700
696,000000	78,504400
695,000000	78,398000
694,000000	78,312600
693,000000	78,152000
692,000000	78,103600
691,000000	77,945300
690,000000	77,759400
689,000000	77,641200
688,000000	77,587100
687,000000	77,480000
686,000000	77,236500
685,000000	77,005200
684,000000	76,705500
683,000000	76,415300
682,000000	76,105300
681,000000	75,763200
680,000000	75,385400
679,000000	75,003600
678,000000	74,571600
677,000000	74,141800
676,000000	73,661000
675,000000	73,233800
674,000000	72,734900
673,000000	72,149500
672,000000	71,572300
671,000000	70,983600
670,000000	70,394300
669,000000	69,752300
668,000000	69,094600
667,000000	68,375100
666,000000	67,657100
665,000000	66,875800
664,000000	66,033300
663,000000	65,217400
662,000000	64,358100
661,000000	63,522100
660,000000	62,742800
659,000000	61,963500
658,000000	61,199100
657,000000	60,465300
656,000000	59,833700
655,000000	59,286300
654,000000	58,740200
653,000000	58,283400
652,000000	57,927500
651,000000	57,572800
650,000000	57,303400
649,000000	57,150700
648,000000	57,071700
647,000000	57,033000
646,000000	57,095200
645,000000	57,237200
644,000000	57,471300
643,000000	57,792900
642,000000	58,212600
641,000000	58,732900
640,000000	59,345500
639,000000	60,046900
638,000000	60,812600
637,000000	61,659700
636,000000	62,571400
635,000000	63,516100
634,000000	64,539800
633,000000	65,638900
632,000000	66,812300
631,000000	67,993500
630,000000	69,165000
629,000000	70,325500
628,000000	71,451400
627,000000	72,563700
626,000000	73,643800
625,000000	74,741700
624,000000	75,856300
623,000000	76,832200
622,000000	77,808400
621,000000	78,770700
620,000000	79,653500
619,000000	80,535000
618,000000	81,355600
617,000000	82,128500
616,000000	82,860000
615,000000	83,579700
614,000000	84,321700
613,000000	84,968200
612,000000	85,595300
611,000000	86,196700
610,000000	86,737500
609,000000	87,248800
608,000000	87,680400
607,000000	88,152700
606,000000	88,545200
605,000000	88,909600
604,000000	89,238600
603,000000	89,537600
602,000000	89,790300
601,000000	90,030300
600,000000	90,201300
599,000000	90,343200
598,000000	90,511000
597,000000	90,618600
596,000000	90,688600
595,000000	90,802700
594,000000	90,890800
593,000000	90,950700
592,000000	90,979600
591,000000	90,999400
590,000000	91,009400
589,000000	91,027300
588,000000	91,062700
587,000000	91,095900
586,000000	91,138500
585,000000	91,089600
584,000000	91,048500
583,000000	91,027800
582,000000	90,999300
581,000000	90,960500
580,000000	90,869200
579,000000	90,790200
578,000000	90,681600
577,000000	90,524400
576,000000	90,446000
575,000000	90,281600
574,000000	90,067300
573,000000	89,900100
572,000000	89,680300
571,000000	89,394700
570,000000	89,122100
569,000000	88,856500
568,000000	88,548200
567,000000	88,221200
566,000000	87,874300
565,000000	87,524500
564,000000	87,122000
563,000000	86,688400
562,000000	86,243800
561,000000	85,713400
560,000000	85,209100
559,000000	84,722000
558,000000	84,184200
557,000000	83,663300
556,000000	83,089800
555,000000	82,545400
554,000000	81,967500
553,000000	81,404200
552,000000	80,853900
551,000000	80,275000
550,000000	79,723800
549,000000	79,223200
548,000000	78,671900
547,000000	78,156000
546,000000	77,646200
545,000000	77,119100
544,000000	76,597800
543,000000	76,037700
542,000000	75,462000
541,000000	74,805800
540,000000	74,196900
539,000000	73,506900
538,000000	72,780300
537,000000	72,039600
536,000000	71,148000
535,000000	70,275700
534,000000	69,320500
533,000000	68,304700
532,000000	67,170500
531,000000	65,954700
530,000000	64,706700
529,000000	63,422600
528,000000	62,061800
527,000000	60,685600
526,000000	59,204900
525,000000	57,736800
524,000000	56,225900
523,000000	54,687500
522,000000	53,133800
521,000000	51,589300
520,000000	50,087300
519,000000	48,620700
518,000000	47,188100
517,000000	45,863000
516,000000	44,587700
515,000000	43,433400
514,000000	42,309000
513,000000	41,375300
512,000000	40,518700
511,000000	39,763900
510,000000	39,177000
509,000000	38,715000
508,000000	38,382500
507,000000	38,141500
506,000000	37,992100
505,000000	37,964800
504,000000	37,945700
503,000000	38,008300
502,000000	38,048600
501,000000	38,198900
500,000000	38,340900
499,000000	38,463900
498,000000	38,591600
497,000000	38,703400
496,000000	38,781600
495,000000	38,870700
494,000000	38,977200
493,000000	39,017200
492,000000	39,038300
491,000000	38,953300
490,000000	38,902800
489,000000	38,811600
488,000000	38,746600
487,000000	38,580800
486,000000	38,483900
485,000000	38,382400
484,000000	38,153800
483,000000	37,992800
482,000000	37,810900
481,000000	37,594600
480,000000	37,398300
479,000000	37,154000
478,000000	36,945300
477,000000	36,705300
476,000000	36,417200
475,000000	36,115100
474,000000	35,825400
473,000000	35,515100
472,000000	35,186100
471,000000	34,860700
470,000000	34,534000
469,000000	34,192500
468,000000	33,894900
467,000000	33,554100
466,000000	33,207800
465,000000	32,844500
464,000000	32,506600
463,000000	32,136600
462,000000	31,768700
461,000000	31,355900
460,000000	30,937100
459,000000	30,556400
458,000000	30,099700
457,000000	29,634000
456,000000	29,187600
455,000000	28,662300
454,000000	28,191100
453,000000	27,659400
452,000000	27,098800
451,000000	26,563400
450,000000	25,918100
449,000000	25,282800
448,000000	24,659900
447,000000	23,980600
446,000000	23,308100
445,000000	22,602600
444,000000	21,889800
443,000000	21,129100
442,000000	20,393000
441,000000	19,625800
440,000000	18,878600
439,000000	18,151300
438,000000	17,421800
437,000000	16,688900
436,000000	15,967700
435,000000	15,284900
434,000000	14,633700
433,000000	14,022100
432,000000	13,430800
431,000000	12,866800
430,000000	12,342400
429,000000	11,839900
428,000000	11,389700
427,000000	10,967500
426,000000	10,584200
425,000000	10,240500
424,000000	9,930900
423,000000	9,621200
422,000000	9,357100
421,000000	9,151900
420,000000	8,955300
419,000000	8,747200
418,000000	8,561500
417,000000	8,442500
416,000000	8,316000
415,000000	8,187000
414,000000	8,086500
413,000000	7,990000
412,000000	7,936500
411,000000	7,852200
410,000000	7,787200
409,000000	7,741800
408,000000	7,684200
407,000000	7,662900
406,000000	7,636600
405,000000	7,563300
404,000000	7,521100
403,000000	7,507000
402,000000	7,493400
401,000000	7,461400
400,000000	7,412000
399,000000	7,395600
398,000000	7,374300
397,000000	7,342100
396,000000	7,303400
395,000000	7,271200
394,000000	7,255800
393,000000	7,237200
392,000000	7,219300
391,000000	7,205500
390,000000	7,159900
389,000000	7,123600
388,000000	7,116600
387,000000	7,079200
386,000000	7,054900
385,000000	7,023100
384,000000	7,013200
383,000000	6,987800
382,000000	6,945900
381,000000	6,912700
380,000000	6,894200
379,000000	6,863600
378,000000	6,859800
377,000000	6,857300
376,000000	6,863100
375,000000	6,689800
374,000000	6,444500
373,000000	6,639500
372,000000	6,640500
371,000000	6,631400
370,000000	6,537700
369,000000	6,523200
368,000000	6,516800
367,000000	6,547400
366,000000	6,749200
365,000000	6,698800
364,000000	6,631400
363,000000	6,477200
362,000000	6,375700
361,000000	6,469400
360,000000	6,613900
359,000000	6,602200
358,000000	6,442700
357,000000	6,297800
356,000000	6,223700
355,000000	6,404400
354,000000	6,537500
353,000000	6,497000
352,000000	6,392900
351,000000	6,221900
350,000000	6,137200
349,000000	6,061600
348,000000	6,245700
347,000000	6,383000
346,000000	6,372700
345,000000	6,276100
344,000000	6,195900
343,000000	6,277700
342,000000	6,446700
341,000000	6,460100
340,000000	6,651900
339,000000	6,572700
338,000000	6,077900
337,000000	5,984900
336,000000	6,017200
335,000000	6,193800
334,000000	6,337900
333,000000	6,169600
332,000000	6,107300
331,000000	6,293000
330,000000	6,437800
329,000000	6,397000
328,000000	6,387400
327,000000	6,497900
326,000000	6,286200
325,000000	6,071300
324,000000	6,122800
323,000000	6,116000
322,000000	6,347400
321,000000	6,800000
320,000000	7,088400
319,000000	6,584200
318,000000	6,249100
317,000000	6,210900
316,000000	5,971700
315,000000	5,852000
314,000000	5,810600
313,000000	5,790700
312,000000	5,814500
311,000000	5,854600
310,000000	5,851700
309,000000	5,873100
308,000000	5,873500
307,000000	5,855800
306,000000	5,851800
305,000000	5,846500
304,000000	5,796200
303,000000	5,778400
302,000000	5,798400
301,000000	5,832400
300,000000	5,880100
299,000000	5,915800
298,000000	5,910600
297,000000	5,843300
296,000000	5,852700
295,000000	5,866500
294,000000	5,886600
293,000000	5,871400
292,000000	5,875500
291,000000	5,860800
290,000000	5,903500
289,000000	5,901500
288,000000	5,901000
287,000000	5,896300
286,000000	5,885200
285,000000	5,852400
284,000000	5,856800
283,000000	5,859000
282,000000	5,867500
281,000000	5,872100
280,000000	5,885900
279,000000	5,901600
278,000000	5,885500
277,000000	5,897700
276,000000	5,912400
275,000000	5,948300
274,000000	5,934200
273,000000	5,928500
272,000000	5,929200
271,000000	5,927300
270,000000	5,961600
269,000000	5,940500
268,000000	5,940000
267,000000	6,007000
266,000000	6,033700
265,000000	6,028100
264,000000	6,095600
263,000000	6,103700
262,000000	6,132700
261,000000	6,164500
260,000000	6,205400
259,000000	6,190600
258,000000	6,174000
257,000000	6,214100
256,000000	6,230600
255,000000	6,232000
254,000000	6,230400
253,000000	6,257200
252,000000	6,201300
251,000000	6,218800
250,000000	6,259400
