PE UV       SUBTECH     SPECTRUM    ASCII       PEDS        4.00        
   -1
CICIMAUCR0242-2.Sample.ASC
24/06/21
10:51:27.00
24/06/21
10:51:27.00
Vinicio Soto Monge
C. cupreomarginata. Sex M. Dorsal
250,000000
1
Lambda 1050
1050L1511233
PerkinElmer UV WinLab 6.3.2.0749 / 2.02.05 Lambda 900 UV/VIS/NIR, Aug  7 2015 09:38:08

0
0
3350/servo 860,8/2
0
0
UV/VIS
1
1
1
DoubleDePol,CommonBeamDepol,RBeamAtt,SBeamAtt,60mm sphere, WB InGaAs Detector
0
0
0
0
Program
Program
3350/servo 860,8/2
3350/0,2 860,8/0,2
3350/0,2 860,8/0,2
0
15.00
 
 
 
0
 
860,8
319,2
860,8
Front
100
on
S:100 R:100
0
0
0
0
 
0
 
 
 
0
 
 
0
0
0
0
0
 
 
 
 
0
0


0
0
#HDR
-1
-1
#GR
nm
%R
1.0
0.0
2500,000000
-1,000000
2251
8
72,726400
5,270100
#DATA
2500,000000	10,676500
2499,000000	10,555000
2498,000000	10,641300
2497,000000	10,574800
2496,000000	10,445400
2495,000000	10,555000
2494,000000	10,497400
2493,000000	10,408600
2492,000000	10,443300
2491,000000	10,492200
2490,000000	10,523200
2489,000000	10,455600
2488,000000	10,408300
2487,000000	10,378300
2486,000000	10,462500
2485,000000	10,397300
2484,000000	10,403700
2483,000000	10,421500
2482,000000	10,419300
2481,000000	10,408600
2480,000000	10,419500
2479,000000	10,433700
2478,000000	10,427900
2477,000000	10,420000
2476,000000	10,423500
2475,000000	10,473500
2474,000000	10,489200
2473,000000	10,511100
2472,000000	10,506600
2471,000000	10,495900
2470,000000	10,544000
2469,000000	10,520100
2468,000000	10,562200
2467,000000	10,556500
2466,000000	10,573300
2465,000000	10,624900
2464,000000	10,646500
2463,000000	10,651500
2462,000000	10,706800
2461,000000	10,702700
2460,000000	10,760600
2459,000000	10,783000
2458,000000	10,822100
2457,000000	10,928500
2456,000000	10,975400
2455,000000	11,011800
2454,000000	11,100200
2453,000000	11,148900
2452,000000	11,258100
2451,000000	11,316100
2450,000000	11,385700
2449,000000	11,471400
2448,000000	11,528900
2447,000000	11,597400
2446,000000	11,672600
2445,000000	11,775700
2444,000000	11,838900
2443,000000	11,924000
2442,000000	12,008600
2441,000000	12,067900
2440,000000	12,150800
2439,000000	12,228400
2438,000000	12,309200
2437,000000	12,377600
2436,000000	12,434800
2435,000000	12,498500
2434,000000	12,583300
2433,000000	12,652400
2432,000000	12,707400
2431,000000	12,771800
2430,000000	12,854600
2429,000000	12,911100
2428,000000	12,960800
2427,000000	13,010000
2426,000000	13,053600
2425,000000	13,113800
2424,000000	13,160200
2423,000000	13,201300
2422,000000	13,245400
2421,000000	13,311800
2420,000000	13,346700
2419,000000	13,376700
2418,000000	13,407600
2417,000000	13,454600
2416,000000	13,502500
2415,000000	13,538300
2414,000000	13,574000
2413,000000	13,609300
2412,000000	13,640400
2411,000000	13,663800
2410,000000	13,695100
2409,000000	13,736800
2408,000000	13,768400
2407,000000	13,793400
2406,000000	13,831000
2405,000000	13,864800
2404,000000	13,887800
2403,000000	13,930200
2402,000000	14,000100
2401,000000	14,051000
2400,000000	14,074700
2399,000000	14,120400
2398,000000	14,142400
2397,000000	14,170800
2396,000000	14,211100
2395,000000	14,240800
2394,000000	14,269800
2393,000000	14,297300
2392,000000	14,325600
2391,000000	14,351100
2390,000000	14,375300
2389,000000	14,398100
2388,000000	14,432900
2387,000000	14,459100
2386,000000	14,462600
2385,000000	14,471300
2384,000000	14,486200
2383,000000	14,493600
2382,000000	14,499400
2381,000000	14,508700
2380,000000	14,503100
2379,000000	14,507300
2378,000000	14,519800
2377,000000	14,506300
2376,000000	14,493500
2375,000000	14,488600
2374,000000	14,489600
2373,000000	14,495500
2372,000000	14,483300
2371,000000	14,460400
2370,000000	14,441500
2369,000000	14,426400
2368,000000	14,403400
2367,000000	14,366600
2366,000000	14,332400
2365,000000	14,303600
2364,000000	14,276300
2363,000000	14,243000
2362,000000	14,204400
2361,000000	14,178200
2360,000000	14,137600
2359,000000	14,087000
2358,000000	14,055300
2357,000000	14,023600
2356,000000	13,993300
2355,000000	13,981600
2354,000000	13,967200
2353,000000	13,934200
2352,000000	13,914500
2351,000000	13,913400
2350,000000	13,922700
2349,000000	13,943800
2348,000000	13,966900
2347,000000	13,992000
2346,000000	14,007900
2345,000000	14,045700
2344,000000	14,093900
2343,000000	14,127900
2342,000000	14,155700
2341,000000	14,180800
2340,000000	14,207400
2339,000000	14,246300
2338,000000	14,282900
2337,000000	14,293400
2336,000000	14,300000
2335,000000	14,303200
2334,000000	14,306800
2333,000000	14,307200
2332,000000	14,292500
2331,000000	14,283900
2330,000000	14,266700
2329,000000	14,235300
2328,000000	14,204300
2327,000000	14,148100
2326,000000	14,110800
2325,000000	14,076700
2324,000000	14,030300
2323,000000	13,969300
2322,000000	13,902500
2321,000000	13,822500
2320,000000	13,760500
2319,000000	13,687900
2318,000000	13,585900
2317,000000	13,492900
2316,000000	13,386700
2315,000000	13,300100
2314,000000	13,209500
2313,000000	13,124700
2312,000000	13,039800
2311,000000	12,949100
2310,000000	12,883600
2309,000000	12,820600
2308,000000	12,761200
2307,000000	12,719300
2306,000000	12,688200
2305,000000	12,682100
2304,000000	12,693200
2303,000000	12,705900
2302,000000	12,742100
2301,000000	12,779400
2300,000000	12,847000
2299,000000	12,919200
2298,000000	12,997600
2297,000000	13,070000
2296,000000	13,148200
2295,000000	13,242300
2294,000000	13,323800
2293,000000	13,410900
2292,000000	13,475400
2291,000000	13,532900
2290,000000	13,583500
2289,000000	13,608000
2288,000000	13,661500
2287,000000	13,668600
2286,000000	13,686700
2285,000000	13,692000
2284,000000	13,669300
2283,000000	13,636100
2282,000000	13,602500
2281,000000	13,590400
2280,000000	13,551300
2279,000000	13,487000
2278,000000	13,450700
2277,000000	13,424200
2276,000000	13,386800
2275,000000	13,333200
2274,000000	13,308800
2273,000000	13,278200
2272,000000	13,266900
2271,000000	13,251000
2270,000000	13,272400
2269,000000	13,299800
2268,000000	13,342700
2267,000000	13,387700
2266,000000	13,457600
2265,000000	13,562500
2264,000000	13,677800
2263,000000	13,815600
2262,000000	13,975200
2261,000000	14,141600
2260,000000	14,323900
2259,000000	14,535000
2258,000000	14,705400
2257,000000	14,924700
2256,000000	15,146100
2255,000000	15,386300
2254,000000	15,589500
2253,000000	15,808300
2252,000000	16,018500
2251,000000	16,244300
2250,000000	16,412500
2249,000000	16,589900
2248,000000	16,754500
2247,000000	16,926900
2246,000000	17,069100
2245,000000	17,213700
2244,000000	17,335100
2243,000000	17,470900
2242,000000	17,573300
2241,000000	17,677900
2240,000000	17,753300
2239,000000	17,844800
2238,000000	17,923600
2237,000000	17,974000
2236,000000	18,058200
2235,000000	18,096300
2234,000000	18,163200
2233,000000	18,213800
2232,000000	18,234600
2231,000000	18,269000
2230,000000	18,283800
2229,000000	18,282500
2228,000000	18,320700
2227,000000	18,314100
2226,000000	18,290700
2225,000000	18,302700
2224,000000	18,274000
2223,000000	18,262600
2222,000000	18,255500
2221,000000	18,235800
2220,000000	18,216700
2219,000000	18,163600
2218,000000	18,137700
2217,000000	18,076500
2216,000000	18,063300
2215,000000	18,013600
2214,000000	17,988700
2213,000000	17,953900
2212,000000	17,902200
2211,000000	17,881400
2210,000000	17,842400
2209,000000	17,827800
2208,000000	17,800000
2207,000000	17,771200
2206,000000	17,752800
2205,000000	17,722100
2204,000000	17,715700
2203,000000	17,725800
2202,000000	17,689500
2201,000000	17,657200
2200,000000	17,649700
2199,000000	17,637400
2198,000000	17,600300
2197,000000	17,607400
2196,000000	17,585000
2195,000000	17,586600
2194,000000	17,579300
2193,000000	17,559400
2192,000000	17,544700
2191,000000	17,528200
2190,000000	17,507200
2189,000000	17,508900
2188,000000	17,489500
2187,000000	17,488100
2186,000000	17,463200
2185,000000	17,449500
2184,000000	17,436200
2183,000000	17,406700
2182,000000	17,411600
2181,000000	17,397900
2180,000000	17,370000
2179,000000	17,360400
2178,000000	17,346200
2177,000000	17,345300
2176,000000	17,314700
2175,000000	17,325500
2174,000000	17,327100
2173,000000	17,322000
2172,000000	17,307500
2171,000000	17,321000
2170,000000	17,318300
2169,000000	17,317800
2168,000000	17,328200
2167,000000	17,349100
2166,000000	17,342900
2165,000000	17,358800
2164,000000	17,372000
2163,000000	17,401400
2162,000000	17,402400
2161,000000	17,432600
2160,000000	17,463400
2159,000000	17,492000
2158,000000	17,525900
2157,000000	17,557900
2156,000000	17,594100
2155,000000	17,625700
2154,000000	17,674500
2153,000000	17,733400
2152,000000	17,763500
2151,000000	17,805200
2150,000000	17,851300
2149,000000	17,901100
2148,000000	17,926500
2147,000000	17,964300
2146,000000	18,024600
2145,000000	18,057200
2144,000000	18,096200
2143,000000	18,143000
2142,000000	18,177000
2141,000000	18,210500
2140,000000	18,230800
2139,000000	18,265600
2138,000000	18,293300
2137,000000	18,318200
2136,000000	18,356500
2135,000000	18,391300
2134,000000	18,424900
2133,000000	18,445600
2132,000000	18,455300
2131,000000	18,469400
2130,000000	18,481200
2129,000000	18,496100
2128,000000	18,509100
2127,000000	18,514600
2126,000000	18,530300
2125,000000	18,529200
2124,000000	18,519000
2123,000000	18,520700
2122,000000	18,533100
2121,000000	18,520200
2120,000000	18,500500
2119,000000	18,488300
2118,000000	18,468400
2117,000000	18,449300
2116,000000	18,425700
2115,000000	18,410600
2114,000000	18,389600
2113,000000	18,364600
2112,000000	18,345700
2111,000000	18,319200
2110,000000	18,293600
2109,000000	18,265000
2108,000000	18,245100
2107,000000	18,224200
2106,000000	18,192200
2105,000000	18,149900
2104,000000	18,126000
2103,000000	18,089700
2102,000000	18,056300
2101,000000	18,024000
2100,000000	17,991900
2099,000000	17,960100
2098,000000	17,925300
2097,000000	17,906200
2096,000000	17,887800
2095,000000	17,858600
2094,000000	17,835200
2093,000000	17,801600
2092,000000	17,763600
2091,000000	17,745100
2090,000000	17,727500
2089,000000	17,700300
2088,000000	17,666900
2087,000000	17,627300
2086,000000	17,598400
2085,000000	17,576000
2084,000000	17,550100
2083,000000	17,519100
2082,000000	17,479500
2081,000000	17,442200
2080,000000	17,402700
2079,000000	17,349900
2078,000000	17,308600
2077,000000	17,260500
2076,000000	17,210900
2075,000000	17,164500
2074,000000	17,113300
2073,000000	17,051100
2072,000000	16,989300
2071,000000	16,931100
2070,000000	16,876200
2069,000000	16,818000
2068,000000	16,760200
2067,000000	16,703300
2066,000000	16,642400
2065,000000	16,581400
2064,000000	16,518700
2063,000000	16,471400
2062,000000	16,427600
2061,000000	16,369500
2060,000000	16,318000
2059,000000	16,273200
2058,000000	16,233600
2057,000000	16,203400
2056,000000	16,171200
2055,000000	16,158200
2054,000000	16,162100
2053,000000	16,178800
2052,000000	16,178900
2051,000000	16,193600
2050,000000	16,221100
2049,000000	16,261500
2048,000000	16,308000
2047,000000	16,334900
2046,000000	16,393000
2045,000000	16,459400
2044,000000	16,517400
2043,000000	16,588200
2042,000000	16,653600
2041,000000	16,708800
2040,000000	16,756600
2039,000000	16,813000
2038,000000	16,851300
2037,000000	16,900100
2036,000000	16,947600
2035,000000	16,994300
2034,000000	17,043400
2033,000000	17,057400
2032,000000	17,087500
2031,000000	17,122000
2030,000000	17,133300
2029,000000	17,165800
2028,000000	17,190800
2027,000000	17,185800
2026,000000	17,200900
2025,000000	17,217200
2024,000000	17,230000
2023,000000	17,233400
2022,000000	17,238400
2021,000000	17,222700
2020,000000	17,223900
2019,000000	17,222400
2018,000000	17,214800
2017,000000	17,199900
2016,000000	17,217500
2015,000000	17,190900
2014,000000	17,178600
2013,000000	17,156900
2012,000000	17,115800
2011,000000	17,088200
2010,000000	17,055000
2009,000000	17,039700
2008,000000	16,984300
2007,000000	16,945500
2006,000000	16,919500
2005,000000	16,857700
2004,000000	16,817700
2003,000000	16,768200
2002,000000	16,712500
2001,000000	16,649300
2000,000000	16,601300
1999,000000	16,531000
1998,000000	16,472000
1997,000000	16,434800
1996,000000	16,359100
1995,000000	16,271200
1994,000000	16,202200
1993,000000	16,140900
1992,000000	16,062900
1991,000000	15,989500
1990,000000	15,927400
1989,000000	15,839300
1988,000000	15,769300
1987,000000	15,686400
1986,000000	15,609000
1985,000000	15,518000
1984,000000	15,432600
1983,000000	15,391500
1982,000000	15,296600
1981,000000	15,215800
1980,000000	15,129600
1979,000000	15,062000
1978,000000	14,959200
1977,000000	14,878500
1976,000000	14,799900
1975,000000	14,710500
1974,000000	14,646300
1973,000000	14,569100
1972,000000	14,505000
1971,000000	14,409300
1970,000000	14,348600
1969,000000	14,276300
1968,000000	14,201300
1967,000000	14,137500
1966,000000	14,057100
1965,000000	13,981100
1964,000000	13,917400
1963,000000	13,835500
1962,000000	13,790100
1961,000000	13,729200
1960,000000	13,655500
1959,000000	13,575500
1958,000000	13,503200
1957,000000	13,447700
1956,000000	13,397400
1955,000000	13,302000
1954,000000	13,270000
1953,000000	13,210300
1952,000000	13,131000
1951,000000	13,086900
1950,000000	13,032300
1949,000000	13,007400
1948,000000	12,954800
1947,000000	12,909700
1946,000000	12,843400
1945,000000	12,824700
1944,000000	12,782400
1943,000000	12,748000
1942,000000	12,717300
1941,000000	12,738300
1940,000000	12,700200
1939,000000	12,703700
1938,000000	12,689100
1937,000000	12,706900
1936,000000	12,716800
1935,000000	12,718900
1934,000000	12,755900
1933,000000	12,792500
1932,000000	12,816300
1931,000000	12,856200
1930,000000	12,917000
1929,000000	12,986600
1928,000000	13,071600
1927,000000	13,136300
1926,000000	13,213300
1925,000000	13,313800
1924,000000	13,426500
1923,000000	13,508400
1922,000000	13,645900
1921,000000	13,777400
1920,000000	13,921700
1919,000000	14,055600
1918,000000	14,187700
1917,000000	14,342800
1916,000000	14,482800
1915,000000	14,646500
1914,000000	14,838900
1913,000000	15,031800
1912,000000	15,275300
1911,000000	15,468200
1910,000000	15,650100
1909,000000	15,842600
1908,000000	16,049900
1907,000000	16,270800
1906,000000	16,538500
1905,000000	16,811900
1904,000000	17,076400
1903,000000	17,342400
1902,000000	17,628700
1901,000000	17,890800
1900,000000	18,222500
1899,000000	18,546400
1898,000000	18,884100
1897,000000	19,198800
1896,000000	19,492100
1895,000000	19,786600
1894,000000	20,116700
1893,000000	20,454700
1892,000000	20,841000
1891,000000	21,248200
1890,000000	21,654100
1889,000000	22,030200
1888,000000	22,428500
1887,000000	22,816100
1886,000000	23,230100
1885,000000	23,658000
1884,000000	24,129600
1883,000000	24,592900
1882,000000	25,061700
1881,000000	25,478500
1880,000000	25,912100
1879,000000	26,324100
1878,000000	26,719200
1877,000000	27,137200
1876,000000	27,527300
1875,000000	27,913700
1874,000000	28,278400
1873,000000	28,643600
1872,000000	29,001100
1871,000000	29,293800
1870,000000	29,577800
1869,000000	29,832400
1868,000000	30,068200
1867,000000	30,246000
1866,000000	30,403600
1865,000000	30,517400
1864,000000	30,646200
1863,000000	30,768800
1862,000000	30,909400
1861,000000	31,058300
1860,000000	31,198100
1859,000000	31,293400
1858,000000	31,378000
1857,000000	31,462900
1856,000000	31,532400
1855,000000	31,567800
1854,000000	31,623900
1853,000000	31,647600
1852,000000	31,649300
1851,000000	31,687000
1850,000000	31,701000
1849,000000	31,736300
1848,000000	31,760000
1847,000000	31,756600
1846,000000	31,712800
1845,000000	31,663500
1844,000000	31,653100
1843,000000	31,651700
1842,000000	31,676000
1841,000000	31,697300
1840,000000	31,680800
1839,000000	31,674700
1838,000000	31,641600
1837,000000	31,612600
1836,000000	31,588700
1835,000000	31,546600
1834,000000	31,484300
1833,000000	31,416600
1832,000000	31,372300
1831,000000	31,350100
1830,000000	31,315100
1829,000000	31,261000
1828,000000	31,198100
1827,000000	31,133300
1826,000000	31,081700
1825,000000	31,038600
1824,000000	30,989400
1823,000000	30,969200
1822,000000	30,971300
1821,000000	30,969000
1820,000000	30,947000
1819,000000	30,887100
1818,000000	30,849400
1817,000000	30,844600
1816,000000	30,824300
1815,000000	30,799500
1814,000000	30,785600
1813,000000	30,778000
1812,000000	30,752200
1811,000000	30,728700
1810,000000	30,701300
1809,000000	30,659600
1808,000000	30,630500
1807,000000	30,610400
1806,000000	30,577000
1805,000000	30,532400
1804,000000	30,484200
1803,000000	30,447500
1802,000000	30,424500
1801,000000	30,394100
1800,000000	30,345800
1799,000000	30,289900
1798,000000	30,245700
1797,000000	30,210000
1796,000000	30,185500
1795,000000	30,144000
1794,000000	30,095400
1793,000000	30,081000
1792,000000	30,042800
1791,000000	29,987100
1790,000000	29,958200
1789,000000	29,933500
1788,000000	29,901600
1787,000000	29,849500
1786,000000	29,811400
1785,000000	29,779800
1784,000000	29,727800
1783,000000	29,680100
1782,000000	29,643300
1781,000000	29,594800
1780,000000	29,551100
1779,000000	29,508000
1778,000000	29,463100
1777,000000	29,400300
1776,000000	29,351700
1775,000000	29,293600
1774,000000	29,220900
1773,000000	29,154900
1772,000000	29,089200
1771,000000	29,024200
1770,000000	28,963200
1769,000000	28,889900
1768,000000	28,818500
1767,000000	28,766300
1766,000000	28,715000
1765,000000	28,666500
1764,000000	28,635700
1763,000000	28,610800
1762,000000	28,612100
1761,000000	28,635900
1760,000000	28,664600
1759,000000	28,702600
1758,000000	28,758000
1757,000000	28,807900
1756,000000	28,862800
1755,000000	28,906900
1754,000000	28,931800
1753,000000	28,975300
1752,000000	29,013100
1751,000000	29,031400
1750,000000	29,037600
1749,000000	29,025700
1748,000000	29,014900
1747,000000	28,983000
1746,000000	28,932200
1745,000000	28,879700
1744,000000	28,809400
1743,000000	28,740500
1742,000000	28,642400
1741,000000	28,534700
1740,000000	28,427200
1739,000000	28,296100
1738,000000	28,164900
1737,000000	28,052900
1736,000000	27,952800
1735,000000	27,857100
1734,000000	27,818600
1733,000000	27,786800
1732,000000	27,784000
1731,000000	27,830900
1730,000000	27,862200
1729,000000	27,918000
1728,000000	27,972500
1727,000000	28,048200
1726,000000	28,115900
1725,000000	28,192700
1724,000000	28,270700
1723,000000	28,319400
1722,000000	28,371300
1721,000000	28,423200
1720,000000	28,484100
1719,000000	28,541600
1718,000000	28,604800
1717,000000	28,673500
1716,000000	28,750400
1715,000000	28,830900
1714,000000	28,903700
1713,000000	28,992700
1712,000000	29,068200
1711,000000	29,121200
1710,000000	29,165300
1709,000000	29,217600
1708,000000	29,227600
1707,000000	29,255100
1706,000000	29,263200
1705,000000	29,241200
1704,000000	29,208300
1703,000000	29,173000
1702,000000	29,127600
1701,000000	29,048100
1700,000000	28,981900
1699,000000	28,888200
1698,000000	28,794200
1697,000000	28,728600
1696,000000	28,658900
1695,000000	28,626700
1694,000000	28,633000
1693,000000	28,678300
1692,000000	28,738200
1691,000000	28,816000
1690,000000	28,915000
1689,000000	29,018100
1688,000000	29,093000
1687,000000	29,176300
1686,000000	29,232600
1685,000000	29,290100
1684,000000	29,354100
1683,000000	29,485400
1682,000000	29,640400
1681,000000	29,865900
1680,000000	30,155700
1679,000000	30,484900
1678,000000	30,833700
1677,000000	31,178300
1676,000000	31,505500
1675,000000	31,783400
1674,000000	32,034700
1673,000000	32,268700
1672,000000	32,486600
1671,000000	32,655300
1670,000000	32,816600
1669,000000	32,974200
1668,000000	33,095200
1667,000000	33,207700
1666,000000	33,282300
1665,000000	33,379900
1664,000000	33,470400
1663,000000	33,524800
1662,000000	33,601900
1661,000000	33,648400
1660,000000	33,683400
1659,000000	33,723100
1658,000000	33,772400
1657,000000	33,807400
1656,000000	33,799900
1655,000000	33,830700
1654,000000	33,828800
1653,000000	33,834900
1652,000000	33,828700
1651,000000	33,826300
1650,000000	33,806500
1649,000000	33,773700
1648,000000	33,755800
1647,000000	33,717700
1646,000000	33,695900
1645,000000	33,656400
1644,000000	33,618100
1643,000000	33,589500
1642,000000	33,538100
1641,000000	33,498600
1640,000000	33,480000
1639,000000	33,446600
1638,000000	33,364100
1637,000000	33,327700
1636,000000	33,252900
1635,000000	33,205700
1634,000000	33,158300
1633,000000	33,102400
1632,000000	33,056500
1631,000000	32,984400
1630,000000	32,928900
1629,000000	32,878300
1628,000000	32,794600
1627,000000	32,733400
1626,000000	32,657000
1625,000000	32,604500
1624,000000	32,546800
1623,000000	32,470900
1622,000000	32,401200
1621,000000	32,351800
1620,000000	32,285600
1619,000000	32,223000
1618,000000	32,160100
1617,000000	32,097600
1616,000000	32,037400
1615,000000	31,969100
1614,000000	31,914700
1613,000000	31,872900
1612,000000	31,805400
1611,000000	31,732600
1610,000000	31,679600
1609,000000	31,618500
1608,000000	31,548900
1607,000000	31,511200
1606,000000	31,444200
1605,000000	31,372200
1604,000000	31,324200
1603,000000	31,253300
1602,000000	31,177500
1601,000000	31,116500
1600,000000	31,068500
1599,000000	31,001600
1598,000000	30,942900
1597,000000	30,872700
1596,000000	30,806900
1595,000000	30,738200
1594,000000	30,674500
1593,000000	30,653600
1592,000000	30,608800
1591,000000	30,554300
1590,000000	30,483700
1589,000000	30,443400
1588,000000	30,393000
1587,000000	30,339400
1586,000000	30,300700
1585,000000	30,246100
1584,000000	30,200300
1583,000000	30,166900
1582,000000	30,128600
1581,000000	30,078700
1580,000000	30,037100
1579,000000	29,993600
1578,000000	29,965500
1577,000000	29,946200
1576,000000	29,911200
1575,000000	29,884900
1574,000000	29,865400
1573,000000	29,846700
1572,000000	29,826600
1571,000000	29,817000
1570,000000	29,812700
1569,000000	29,800000
1568,000000	29,786000
1567,000000	29,781500
1566,000000	29,789000
1565,000000	29,776900
1564,000000	29,765200
1563,000000	29,757000
1562,000000	29,757600
1561,000000	29,748200
1560,000000	29,730700
1559,000000	29,712400
1558,000000	29,701500
1557,000000	29,690300
1556,000000	29,664200
1555,000000	29,632400
1554,000000	29,610200
1553,000000	29,595700
1552,000000	29,567400
1551,000000	29,527700
1550,000000	29,502700
1549,000000	29,476500
1548,000000	29,441500
1547,000000	29,415000
1546,000000	29,386400
1545,000000	29,353000
1544,000000	29,325500
1543,000000	29,305600
1542,000000	29,288900
1541,000000	29,263400
1540,000000	29,243600
1539,000000	29,223400
1538,000000	29,197800
1537,000000	29,180500
1536,000000	29,159500
1535,000000	29,145500
1534,000000	29,125700
1533,000000	29,102900
1532,000000	29,072100
1531,000000	29,042500
1530,000000	29,008000
1529,000000	28,977000
1528,000000	28,944500
1527,000000	28,911100
1526,000000	28,889200
1525,000000	28,833500
1524,000000	28,790800
1523,000000	28,763000
1522,000000	28,729500
1521,000000	28,690100
1520,000000	28,649800
1519,000000	28,612100
1518,000000	28,555800
1517,000000	28,513600
1516,000000	28,472200
1515,000000	28,419000
1514,000000	28,381800
1513,000000	28,345200
1512,000000	28,288200
1511,000000	28,236900
1510,000000	28,186700
1509,000000	28,130300
1508,000000	28,077700
1507,000000	28,012400
1506,000000	27,956500
1505,000000	27,910400
1504,000000	27,860500
1503,000000	27,813400
1502,000000	27,759900
1501,000000	27,697800
1500,000000	27,638900
1499,000000	27,586100
1498,000000	27,545100
1497,000000	27,505700
1496,000000	27,459900
1495,000000	27,421200
1494,000000	27,378200
1493,000000	27,329100
1492,000000	27,298800
1491,000000	27,258200
1490,000000	27,217200
1489,000000	27,186300
1488,000000	27,145100
1487,000000	27,113700
1486,000000	27,072100
1485,000000	27,036500
1484,000000	27,007300
1483,000000	26,969300
1482,000000	26,927500
1481,000000	26,896800
1480,000000	26,869200
1479,000000	26,854200
1478,000000	26,821600
1477,000000	26,794300
1476,000000	26,784100
1475,000000	26,769200
1474,000000	26,755900
1473,000000	26,740900
1472,000000	26,734100
1471,000000	26,736700
1470,000000	26,722800
1469,000000	26,697600
1468,000000	26,675100
1467,000000	26,663100
1466,000000	26,674700
1465,000000	26,669300
1464,000000	26,673900
1463,000000	26,671400
1462,000000	26,669800
1461,000000	26,680800
1460,000000	26,699100
1459,000000	26,726700
1458,000000	26,735900
1457,000000	26,750800
1456,000000	26,796800
1455,000000	26,835200
1454,000000	26,859500
1453,000000	26,896600
1452,000000	26,951000
1451,000000	27,016800
1450,000000	27,060800
1449,000000	27,080600
1448,000000	27,128100
1447,000000	27,192600
1446,000000	27,276600
1445,000000	27,332600
1444,000000	27,374700
1443,000000	27,431900
1442,000000	27,512800
1441,000000	27,588800
1440,000000	27,658600
1439,000000	27,736900
1438,000000	27,824100
1437,000000	27,877200
1436,000000	27,960200
1435,000000	28,025000
1434,000000	28,127000
1433,000000	28,244800
1432,000000	28,350400
1431,000000	28,457400
1430,000000	28,555200
1429,000000	28,657100
1428,000000	28,796700
1427,000000	28,940200
1426,000000	29,066500
1425,000000	29,215500
1424,000000	29,382600
1423,000000	29,555100
1422,000000	29,707600
1421,000000	29,894800
1420,000000	30,109900
1419,000000	30,326500
1418,000000	30,534600
1417,000000	30,719800
1416,000000	30,925200
1415,000000	31,167700
1414,000000	31,425100
1413,000000	31,652600
1412,000000	31,857900
1411,000000	32,136100
1410,000000	32,421000
1409,000000	32,749800
1408,000000	33,055900
1407,000000	33,387600
1406,000000	33,691100
1405,000000	34,068100
1404,000000	34,370600
1403,000000	34,738900
1402,000000	35,038700
1401,000000	35,477900
1400,000000	35,844800
1399,000000	36,149300
1398,000000	36,358500
1397,000000	36,686600
1396,000000	37,042100
1395,000000	37,399100
1394,000000	37,676800
1393,000000	37,943900
1392,000000	38,245800
1391,000000	38,557300
1390,000000	38,850800
1389,000000	39,171400
1388,000000	39,598600
1387,000000	39,975600
1386,000000	40,386000
1385,000000	40,788100
1384,000000	41,264800
1383,000000	41,732500
1382,000000	42,168900
1381,000000	42,570400
1380,000000	42,790800
1379,000000	43,041200
1378,000000	43,260700
1377,000000	43,432900
1376,000000	43,612800
1375,000000	43,790600
1374,000000	43,975600
1373,000000	44,218700
1372,000000	44,521600
1371,000000	44,786900
1370,000000	45,055900
1369,000000	45,303000
1368,000000	45,547600
1367,000000	45,765600
1366,000000	45,964300
1365,000000	46,145700
1364,000000	46,336500
1363,000000	46,467700
1362,000000	46,630300
1361,000000	46,790900
1360,000000	46,834600
1359,000000	46,950700
1358,000000	47,022300
1357,000000	47,127000
1356,000000	47,254600
1355,000000	47,495400
1354,000000	47,750600
1353,000000	48,017600
1352,000000	48,356400
1351,000000	48,711800
1350,000000	49,071800
1349,000000	49,374100
1348,000000	49,682500
1347,000000	49,967400
1346,000000	50,236600
1345,000000	50,496200
1344,000000	50,788900
1343,000000	51,019300
1342,000000	51,275300
1341,000000	51,518200
1340,000000	51,771000
1339,000000	52,006800
1338,000000	52,232000
1337,000000	52,471200
1336,000000	52,720500
1335,000000	52,922500
1334,000000	53,149900
1333,000000	53,357700
1332,000000	53,579000
1331,000000	53,774700
1330,000000	53,955500
1329,000000	54,151300
1328,000000	54,334500
1327,000000	54,500500
1326,000000	54,668600
1325,000000	54,828600
1324,000000	55,000300
1323,000000	55,143700
1322,000000	55,280500
1321,000000	55,434200
1320,000000	55,561000
1319,000000	55,693000
1318,000000	55,804700
1317,000000	55,912300
1316,000000	56,030700
1315,000000	56,148900
1314,000000	56,268800
1313,000000	56,362200
1312,000000	56,453700
1311,000000	56,546300
1310,000000	56,648800
1309,000000	56,739300
1308,000000	56,793500
1307,000000	56,858600
1306,000000	56,940200
1305,000000	56,984500
1304,000000	57,037400
1303,000000	57,088800
1302,000000	57,138100
1301,000000	57,183400
1300,000000	57,226300
1299,000000	57,238700
1298,000000	57,266100
1297,000000	57,297600
1296,000000	57,324000
1295,000000	57,332800
1294,000000	57,353700
1293,000000	57,388300
1292,000000	57,395700
1291,000000	57,395700
1290,000000	57,397200
1289,000000	57,401200
1288,000000	57,386100
1287,000000	57,375400
1286,000000	57,359400
1285,000000	57,338100
1284,000000	57,313300
1283,000000	57,276800
1282,000000	57,259000
1281,000000	57,228900
1280,000000	57,190500
1279,000000	57,164200
1278,000000	57,135900
1277,000000	57,106100
1276,000000	57,083000
1275,000000	57,066300
1274,000000	57,047000
1273,000000	57,046100
1272,000000	57,037000
1271,000000	57,014100
1270,000000	57,001100
1269,000000	56,994000
1268,000000	56,987400
1267,000000	56,983500
1266,000000	56,961800
1265,000000	56,947400
1264,000000	56,937700
1263,000000	56,921600
1262,000000	56,904400
1261,000000	56,891100
1260,000000	56,881200
1259,000000	56,859800
1258,000000	56,832200
1257,000000	56,808800
1256,000000	56,792500
1255,000000	56,773300
1254,000000	56,734600
1253,000000	56,693800
1252,000000	56,662700
1251,000000	56,616300
1250,000000	56,571600
1249,000000	56,531500
1248,000000	56,476600
1247,000000	56,413000
1246,000000	56,344300
1245,000000	56,278200
1244,000000	56,197600
1243,000000	56,106900
1242,000000	56,034900
1241,000000	55,952900
1240,000000	55,857900
1239,000000	55,769400
1238,000000	55,678900
1237,000000	55,578000
1236,000000	55,476300
1235,000000	55,371400
1234,000000	55,260100
1233,000000	55,149500
1232,000000	55,036300
1231,000000	54,915000
1230,000000	54,795800
1229,000000	54,667000
1228,000000	54,540600
1227,000000	54,407900
1226,000000	54,274900
1225,000000	54,135800
1224,000000	54,002700
1223,000000	53,871300
1222,000000	53,730600
1221,000000	53,597500
1220,000000	53,456000
1219,000000	53,313700
1218,000000	53,193100
1217,000000	53,071100
1216,000000	52,936900
1215,000000	52,813400
1214,000000	52,703900
1213,000000	52,596700
1212,000000	52,489900
1211,000000	52,371000
1210,000000	52,261500
1209,000000	52,172700
1208,000000	52,088500
1207,000000	51,990200
1206,000000	51,908700
1205,000000	51,849600
1204,000000	51,792000
1203,000000	51,731400
1202,000000	51,681400
1201,000000	51,640000
1200,000000	51,603800
1199,000000	51,556200
1198,000000	51,475900
1197,000000	51,368300
1196,000000	51,252600
1195,000000	51,121100
1194,000000	50,934000
1193,000000	50,705300
1192,000000	50,454700
1191,000000	50,172600
1190,000000	49,869300
1189,000000	49,571700
1188,000000	49,313900
1187,000000	49,127400
1186,000000	49,026700
1185,000000	49,018200
1184,000000	49,102400
1183,000000	49,270000
1182,000000	49,508600
1181,000000	49,822900
1180,000000	50,184800
1179,000000	50,548100
1178,000000	50,898800
1177,000000	51,227700
1176,000000	51,514500
1175,000000	51,781200
1174,000000	52,030500
1173,000000	52,264000
1172,000000	52,524800
1171,000000	52,782300
1170,000000	53,053600
1169,000000	53,305500
1168,000000	53,569200
1167,000000	53,858200
1166,000000	54,149200
1165,000000	54,459200
1164,000000	54,758900
1163,000000	55,061200
1162,000000	55,361500
1161,000000	55,675200
1160,000000	55,980200
1159,000000	56,279600
1158,000000	56,568200
1157,000000	56,850400
1156,000000	57,130200
1155,000000	57,375200
1154,000000	57,586400
1153,000000	57,758500
1152,000000	57,913700
1151,000000	58,025000
1150,000000	58,132500
1149,000000	58,223100
1148,000000	58,331000
1147,000000	58,433900
1146,000000	58,569700
1145,000000	58,746900
1144,000000	58,971800
1143,000000	59,232700
1142,000000	59,519600
1141,000000	59,825300
1140,000000	60,140200
1139,000000	60,476000
1138,000000	60,811400
1137,000000	61,178400
1136,000000	61,567900
1135,000000	61,965400
1134,000000	62,336200
1133,000000	62,694300
1132,000000	62,991900
1131,000000	63,287500
1130,000000	63,558700
1129,000000	63,815800
1128,000000	64,024300
1127,000000	64,208600
1126,000000	64,334900
1125,000000	64,452800
1124,000000	64,555900
1123,000000	64,641000
1122,000000	64,717900
1121,000000	64,771200
1120,000000	64,819000
1119,000000	64,844100
1118,000000	64,870700
1117,000000	64,910600
1116,000000	64,928500
1115,000000	64,931900
1114,000000	64,937500
1113,000000	64,915300
1112,000000	64,921400
1111,000000	64,912200
1110,000000	64,916700
1109,000000	64,924300
1108,000000	64,923100
1107,000000	64,902100
1106,000000	64,916800
1105,000000	64,906500
1104,000000	64,903800
1103,000000	64,904700
1102,000000	64,892300
1101,000000	64,903700
1100,000000	64,883000
1099,000000	64,876800
1098,000000	64,859000
1097,000000	64,861400
1096,000000	64,852500
1095,000000	64,821100
1094,000000	64,820700
1093,000000	64,815100
1092,000000	64,781300
1091,000000	64,769700
1090,000000	64,745900
1089,000000	64,706000
1088,000000	64,695400
1087,000000	64,675700
1086,000000	64,614000
1085,000000	64,614000
1084,000000	64,579100
1083,000000	64,546300
1082,000000	64,544200
1081,000000	64,510400
1080,000000	64,475300
1079,000000	64,461700
1078,000000	64,430300
1077,000000	64,403500
1076,000000	64,404100
1075,000000	64,384900
1074,000000	64,350400
1073,000000	64,324500
1072,000000	64,294000
1071,000000	64,283100
1070,000000	64,277100
1069,000000	64,258800
1068,000000	64,222200
1067,000000	64,201300
1066,000000	64,167300
1065,000000	64,162500
1064,000000	64,135100
1063,000000	64,124000
1062,000000	64,088900
1061,000000	64,066000
1060,000000	64,049900
1059,000000	64,015300
1058,000000	63,987300
1057,000000	63,970400
1056,000000	63,935300
1055,000000	63,917200
1054,000000	63,868700
1053,000000	63,850200
1052,000000	63,817300
1051,000000	63,787800
1050,000000	63,762700
1049,000000	63,733200
1048,000000	63,710800
1047,000000	63,674200
1046,000000	63,655300
1045,000000	63,624800
1044,000000	63,574300
1043,000000	63,543700
1042,000000	63,498000
1041,000000	63,464300
1040,000000	63,424100
1039,000000	63,385400
1038,000000	63,349200
1037,000000	63,287200
1036,000000	63,228600
1035,000000	63,178800
1034,000000	63,105600
1033,000000	63,049800
1032,000000	62,989000
1031,000000	62,912600
1030,000000	62,835900
1029,000000	62,752800
1028,000000	62,687700
1027,000000	62,612800
1026,000000	62,530400
1025,000000	62,432600
1024,000000	62,352700
1023,000000	62,283500
1022,000000	62,193800
1021,000000	62,112100
1020,000000	62,022800
1019,000000	61,961500
1018,000000	61,877000
1017,000000	61,830300
1016,000000	61,785200
1015,000000	61,710700
1014,000000	61,663800
1013,000000	61,645800
1012,000000	61,621200
1011,000000	61,616100
1010,000000	61,613400
1009,000000	61,601900
1008,000000	61,621600
1007,000000	61,631600
1006,000000	61,659800
1005,000000	61,692000
1004,000000	61,731100
1003,000000	61,775000
1002,000000	61,806600
1001,000000	61,854200
1000,000000	61,899600
999,000000	61,955000
998,000000	62,017100
997,000000	62,087200
996,000000	62,150900
995,000000	62,207000
994,000000	62,287300
993,000000	62,361100
992,000000	62,433500
991,000000	62,511000
990,000000	62,593500
989,000000	62,681000
988,000000	62,781800
987,000000	62,845900
986,000000	62,925400
985,000000	63,016700
984,000000	63,098200
983,000000	63,179400
982,000000	63,251400
981,000000	63,328200
980,000000	63,394700
979,000000	63,473700
978,000000	63,541900
977,000000	63,600200
976,000000	63,658700
975,000000	63,699600
974,000000	63,741900
973,000000	63,799200
972,000000	63,842500
971,000000	63,867200
970,000000	63,901100
969,000000	63,936100
968,000000	63,960000
967,000000	63,980600
966,000000	64,015000
965,000000	64,043600
964,000000	64,066400
963,000000	64,096600
962,000000	64,117300
961,000000	64,145400
960,000000	64,169100
959,000000	64,209700
958,000000	64,246200
957,000000	64,264200
956,000000	64,305400
955,000000	64,350700
954,000000	64,407800
953,000000	64,441700
952,000000	64,481200
951,000000	64,552500
950,000000	64,614900
949,000000	64,685600
948,000000	64,747700
947,000000	64,807400
946,000000	64,899600
945,000000	64,979400
944,000000	65,057200
943,000000	65,147800
942,000000	65,247200
941,000000	65,339800
940,000000	65,420000
939,000000	65,498900
938,000000	65,605700
937,000000	65,705600
936,000000	65,796300
935,000000	65,894600
934,000000	65,995800
933,000000	66,085000
932,000000	66,192000
931,000000	66,288800
930,000000	66,358800
929,000000	66,432400
928,000000	66,529900
927,000000	66,612800
926,000000	66,661600
925,000000	66,715800
924,000000	66,787700
923,000000	66,865500
922,000000	66,903400
921,000000	66,939200
920,000000	66,983100
919,000000	67,007200
918,000000	67,023300
917,000000	67,044400
916,000000	67,064300
915,000000	67,070000
914,000000	67,078600
913,000000	67,076800
912,000000	67,072000
911,000000	67,080600
910,000000	67,076600
909,000000	67,073400
908,000000	67,064800
907,000000	67,069700
906,000000	67,073900
905,000000	67,083000
904,000000	67,099200
903,000000	67,126000
902,000000	67,149000
901,000000	67,181000
900,000000	67,203900
899,000000	67,238000
898,000000	67,270900
897,000000	67,302400
896,000000	67,344000
895,000000	67,373000
894,000000	67,416600
893,000000	67,457700
892,000000	67,508100
891,000000	67,544300
890,000000	67,577100
889,000000	67,614000
888,000000	67,653000
887,000000	67,675200
886,000000	67,713200
885,000000	67,752500
884,000000	67,770800
883,000000	67,796100
882,000000	67,819300
881,000000	67,811300
880,000000	67,824900
879,000000	67,811500
878,000000	67,779500
877,000000	67,715600
876,000000	67,655500
875,000000	67,526400
874,000000	67,400100
873,000000	67,290600
872,000000	67,271500
871,000000	67,286900
870,000000	67,343300
869,000000	67,392700
868,000000	67,418200
867,000000	67,439700
866,000000	67,476000
865,000000	67,486000
864,000000	67,499000
863,000000	67,501400
862,000000	67,512300
861,000000	67,529300
860,000000	67,555800
859,000000	67,559000
858,000000	67,554700
857,000000	68,534900
856,000000	68,253400
855,000000	68,408100
854,000000	68,054900
853,000000	68,390500
852,000000	68,150300
851,000000	68,207900
850,000000	67,858000
849,000000	67,969600
848,000000	68,471000
847,000000	68,554200
846,000000	68,341900
845,000000	68,088400
844,000000	68,022000
843,000000	68,262300
842,000000	68,083700
841,000000	68,332800
840,000000	68,164300
839,000000	68,144000
838,000000	68,146500
837,000000	68,188200
836,000000	68,260700
835,000000	68,106900
834,000000	67,934800
833,000000	67,878500
832,000000	67,932900
831,000000	67,970000
830,000000	67,843900
829,000000	67,687200
828,000000	67,905400
827,000000	67,629700
826,000000	67,513700
825,000000	67,424100
824,000000	67,347100
823,000000	67,275100
822,000000	67,295400
821,000000	67,184100
820,000000	67,053100
819,000000	66,988500
818,000000	66,863200
817,000000	66,731500
816,000000	66,636600
815,000000	66,591200
814,000000	66,725900
813,000000	66,562700
812,000000	66,502800
811,000000	66,106800
810,000000	66,083500
809,000000	65,891900
808,000000	65,971000
807,000000	65,891000
806,000000	65,532200
805,000000	65,463600
804,000000	65,374100
803,000000	65,205100
802,000000	65,180700
801,000000	64,900500
800,000000	65,086900
799,000000	64,928100
798,000000	64,913600
797,000000	64,850000
796,000000	64,513300
795,000000	64,452900
794,000000	64,368600
793,000000	64,047200
792,000000	64,136000
791,000000	63,955800
790,000000	63,865100
789,000000	63,615200
788,000000	63,420100
787,000000	63,266100
786,000000	63,277300
785,000000	63,268100
784,000000	63,095800
783,000000	62,785500
782,000000	62,785000
781,000000	62,720400
780,000000	62,580600
779,000000	62,662000
778,000000	62,593600
777,000000	62,398900
776,000000	62,346800
775,000000	62,184500
774,000000	62,174400
773,000000	62,123600
772,000000	62,128900
771,000000	61,959400
770,000000	61,970300
769,000000	61,866900
768,000000	61,781700
767,000000	61,701700
766,000000	61,724300
765,000000	61,629300
764,000000	61,654800
763,000000	61,721800
762,000000	61,596400
761,000000	61,488000
760,000000	61,570900
759,000000	61,576400
758,000000	61,417800
757,000000	61,416400
756,000000	61,328800
755,000000	61,247900
754,000000	61,261200
753,000000	61,183200
752,000000	61,120800
751,000000	61,052700
750,000000	60,981200
749,000000	60,879300
748,000000	60,857500
747,000000	60,810500
746,000000	60,728600
745,000000	60,575500
744,000000	60,576900
743,000000	60,506500
742,000000	60,456000
741,000000	60,366400
740,000000	60,222700
739,000000	60,132000
738,000000	60,062500
737,000000	59,914200
736,000000	59,833700
735,000000	59,687300
734,000000	59,524000
733,000000	59,403200
732,000000	59,291600
731,000000	59,057800
730,000000	58,981900
729,000000	58,855500
728,000000	58,716900
727,000000	58,639800
726,000000	58,526400
725,000000	58,395600
724,000000	58,254800
723,000000	58,151400
722,000000	57,991600
721,000000	57,861900
720,000000	57,739300
719,000000	57,589100
718,000000	57,467200
717,000000	57,413500
716,000000	57,332300
715,000000	57,209000
714,000000	57,057900
713,000000	56,924600
712,000000	56,795900
711,000000	56,795300
710,000000	56,713800
709,000000	56,579000
708,000000	56,533300
707,000000	56,378200
706,000000	56,227400
705,000000	56,170300
704,000000	56,142700
703,000000	56,078500
702,000000	55,946000
701,000000	55,879100
700,000000	55,854300
699,000000	55,791600
698,000000	55,705200
697,000000	55,695900
696,000000	55,658100
695,000000	55,575600
694,000000	55,534900
693,000000	55,535800
692,000000	55,442000
691,000000	55,332200
690,000000	55,332900
689,000000	55,267400
688,000000	55,172300
687,000000	55,132600
686,000000	55,084800
685,000000	55,013800
684,000000	54,931300
683,000000	54,807500
682,000000	54,716900
681,000000	54,595000
680,000000	54,451500
679,000000	54,357100
678,000000	54,259100
677,000000	54,144600
676,000000	54,004500
675,000000	53,882300
674,000000	53,754500
673,000000	53,613800
672,000000	53,478100
671,000000	53,332900
670,000000	53,175700
669,000000	52,996400
668,000000	52,802100
667,000000	52,531200
666,000000	52,279500
665,000000	52,031600
664,000000	51,729200
663,000000	51,447000
662,000000	51,140500
661,000000	50,762900
660,000000	50,408100
659,000000	50,082300
658,000000	49,714800
657,000000	49,358100
656,000000	49,028100
655,000000	48,694000
654,000000	48,380600
653,000000	48,116300
652,000000	47,876700
651,000000	47,653000
650,000000	47,462200
649,000000	47,369500
648,000000	47,313200
647,000000	47,247700
646,000000	47,247800
645,000000	47,319500
644,000000	47,446800
643,000000	47,602900
642,000000	47,841500
641,000000	48,167500
640,000000	48,528600
639,000000	48,961600
638,000000	49,479200
637,000000	50,043900
636,000000	50,671000
635,000000	51,349800
634,000000	52,050200
633,000000	52,781500
632,000000	53,546800
631,000000	54,324600
630,000000	55,131100
629,000000	55,936500
628,000000	56,703600
627,000000	57,467500
626,000000	58,231200
625,000000	58,964700
624,000000	59,676500
623,000000	60,383000
622,000000	61,067600
621,000000	61,711200
620,000000	62,309800
619,000000	62,877400
618,000000	63,424400
617,000000	63,917600
616,000000	64,371100
615,000000	64,802400
614,000000	65,183300
613,000000	65,580100
612,000000	65,962900
611,000000	66,292000
610,000000	66,605600
609,000000	66,919700
608,000000	67,206600
607,000000	67,499500
606,000000	67,812600
605,000000	68,097500
604,000000	68,378800
603,000000	68,657900
602,000000	68,965300
601,000000	69,237100
600,000000	69,545500
599,000000	69,855200
598,000000	70,095700
597,000000	70,320900
596,000000	70,555500
595,000000	70,786800
594,000000	71,012500
593,000000	71,191400
592,000000	71,323900
591,000000	71,435900
590,000000	71,504400
589,000000	71,584500
588,000000	71,653700
587,000000	71,724700
586,000000	71,789700
585,000000	71,837300
584,000000	71,900200
583,000000	71,937100
582,000000	72,005500
581,000000	72,067500
580,000000	72,158500
579,000000	72,221700
578,000000	72,339500
577,000000	72,431900
576,000000	72,532500
575,000000	72,596500
574,000000	72,670300
573,000000	72,694900
572,000000	72,726400
571,000000	72,656700
570,000000	72,598200
569,000000	72,519900
568,000000	72,391700
567,000000	72,201600
566,000000	72,056000
565,000000	71,804600
564,000000	71,550300
563,000000	71,279300
562,000000	70,925900
561,000000	70,576700
560,000000	70,122700
559,000000	69,704900
558,000000	69,280100
557,000000	68,797700
556,000000	68,228300
555,000000	67,679600
554,000000	67,053000
553,000000	66,421300
552,000000	65,709400
551,000000	64,943100
550,000000	64,150800
549,000000	63,294400
548,000000	62,427800
547,000000	61,514700
546,000000	60,551700
545,000000	59,517400
544,000000	58,470100
543,000000	57,362800
542,000000	56,218000
541,000000	55,053000
540,000000	53,840700
539,000000	52,672100
538,000000	51,461200
537,000000	50,282900
536,000000	49,118500
535,000000	47,958300
534,000000	46,804400
533,000000	45,699800
532,000000	44,624400
531,000000	43,580500
530,000000	42,590300
529,000000	41,629700
528,000000	40,732300
527,000000	39,918900
526,000000	39,076000
525,000000	38,282900
524,000000	37,550800
523,000000	36,829100
522,000000	36,137800
521,000000	35,466700
520,000000	34,818400
519,000000	34,192200
518,000000	33,622400
517,000000	33,062800
516,000000	32,526000
515,000000	31,987200
514,000000	31,495100
513,000000	30,995100
512,000000	30,568600
511,000000	30,120200
510,000000	29,691100
509,000000	29,278200
508,000000	28,916900
507,000000	28,532900
506,000000	28,197400
505,000000	27,847300
504,000000	27,498200
503,000000	27,181700
502,000000	26,856100
501,000000	26,568100
500,000000	26,242600
499,000000	25,937500
498,000000	25,617000
497,000000	25,344800
496,000000	25,009600
495,000000	24,729500
494,000000	24,420200
493,000000	24,049900
492,000000	23,725500
491,000000	23,388400
490,000000	23,018500
489,000000	22,663100
488,000000	22,316900
487,000000	21,934700
486,000000	21,572900
485,000000	21,217900
484,000000	20,858800
483,000000	20,484400
482,000000	20,115300
481,000000	19,778300
480,000000	19,460200
479,000000	19,151400
478,000000	18,820100
477,000000	18,529900
476,000000	18,251600
475,000000	18,044700
474,000000	17,796100
473,000000	17,622700
472,000000	17,466200
471,000000	17,306200
470,000000	17,195600
469,000000	17,086500
468,000000	17,034600
467,000000	16,998200
466,000000	16,964700
465,000000	16,951500
464,000000	16,977700
463,000000	17,019000
462,000000	17,049300
461,000000	17,063100
460,000000	17,109700
459,000000	17,165800
458,000000	17,206500
457,000000	17,258000
456,000000	17,296900
455,000000	17,331300
454,000000	17,345400
453,000000	17,362500
452,000000	17,346400
451,000000	17,359200
450,000000	17,376200
449,000000	17,346000
448,000000	17,266700
447,000000	17,199400
446,000000	17,136200
445,000000	17,119300
444,000000	16,992000
443,000000	16,871600
442,000000	16,748400
441,000000	16,603600
440,000000	16,476800
439,000000	16,346100
438,000000	16,162500
437,000000	16,009600
436,000000	15,880600
435,000000	15,725200
434,000000	15,521800
433,000000	15,357000
432,000000	15,132700
431,000000	14,943000
430,000000	14,748600
429,000000	14,570900
428,000000	14,357200
427,000000	14,115300
426,000000	13,942800
425,000000	13,745300
424,000000	13,514400
423,000000	13,286400
422,000000	13,040100
421,000000	12,820700
420,000000	12,590300
419,000000	12,357900
418,000000	12,119800
417,000000	11,873700
416,000000	11,610300
415,000000	11,381600
414,000000	11,120200
413,000000	10,888100
412,000000	10,652500
411,000000	10,414000
410,000000	10,162300
409,000000	9,911900
408,000000	9,674900
407,000000	9,447700
406,000000	9,257700
405,000000	9,003300
404,000000	8,793700
403,000000	8,589900
402,000000	8,394000
401,000000	8,206500
400,000000	8,001200
399,000000	7,854900
398,000000	7,718100
397,000000	7,552500
396,000000	7,396400
395,000000	7,255600
394,000000	7,110900
393,000000	6,984000
392,000000	6,880000
391,000000	6,771300
390,000000	6,675900
389,000000	6,591800
388,000000	6,498200
387,000000	6,395400
386,000000	6,345000
385,000000	6,288900
384,000000	6,224100
383,000000	6,178300
382,000000	6,110800
381,000000	6,072800
380,000000	6,028700
379,000000	5,988700
378,000000	5,975100
377,000000	5,930400
376,000000	5,809600
375,000000	5,505600
374,000000	5,270100
373,000000	5,359100
372,000000	5,512500
371,000000	5,507400
370,000000	5,480700
369,000000	5,650200
368,000000	5,786100
367,000000	5,799500
366,000000	5,654900
365,000000	5,733200
364,000000	5,664800
363,000000	5,580900
362,000000	5,719800
361,000000	5,786700
360,000000	5,702600
359,000000	5,585900
358,000000	5,607900
357,000000	5,519400
356,000000	5,524800
355,000000	5,557500
354,000000	5,583000
353,000000	5,571200
352,000000	5,528100
351,000000	5,509300
350,000000	5,486000
349,000000	5,497100
348,000000	5,485800
347,000000	5,499100
346,000000	5,526500
345,000000	5,693200
344,000000	5,734300
343,000000	5,610800
342,000000	5,575300
341,000000	5,558300
340,000000	5,717800
339,000000	5,624200
338,000000	5,430200
337,000000	5,528800
336,000000	5,746800
335,000000	5,674800
334,000000	5,355600
333,000000	5,369700
332,000000	5,863100
331,000000	5,892500
330,000000	5,731400
329,000000	5,682900
328,000000	5,525100
327,000000	5,864300
326,000000	6,358200
325,000000	6,123200
324,000000	5,860900
323,000000	5,891400
322,000000	6,300300
321,000000	6,145700
320,000000	5,958100
319,000000	6,117600
318,000000	6,183800
317,000000	6,244800
316,000000	5,767000
315,000000	5,406700
314,000000	5,374100
313,000000	5,345500
312,000000	5,373200
311,000000	5,384900
310,000000	5,406200
309,000000	5,406500
308,000000	5,416000
307,000000	5,411400
306,000000	5,395400
305,000000	5,416200
304,000000	5,426400
303,000000	5,414400
302,000000	5,418900
301,000000	5,428000
300,000000	5,437800
299,000000	5,410900
298,000000	5,421500
297,000000	5,428700
296,000000	5,408600
295,000000	5,415700
294,000000	5,396700
293,000000	5,431200
292,000000	5,444500
291,000000	5,428400
290,000000	5,447400
289,000000	5,446200
288,000000	5,425900
287,000000	5,431100
286,000000	5,479500
285,000000	5,502200
284,000000	5,488900
283,000000	5,500900
282,000000	5,495200
281,000000	5,452700
280,000000	5,469700
279,000000	5,515500
278,000000	5,492000
277,000000	5,537900
276,000000	5,533600
275,000000	5,583100
274,000000	5,591400
273,000000	5,590600
272,000000	5,584500
271,000000	5,584000
270,000000	5,646000
269,000000	5,648900
268,000000	5,626100
267,000000	5,650300
266,000000	5,671100
265,000000	5,728800
264,000000	5,764200
263,000000	5,786500
262,000000	5,810600
261,000000	5,810700
260,000000	5,814700
259,000000	5,855500
258,000000	5,887500
257,000000	5,857000
256,000000	5,862100
255,000000	5,960500
254,000000	5,943200
253,000000	5,985600
252,000000	5,953000
251,000000	5,944900
250,000000	5,984500
