PE UV       SUBTECH     SPECTRUM    ASCII       PEDS        4.00        
   -1
CICIMAUCR0260-1.Sample.ASC
24/07/01
10:53:39.00
24/07/01
10:53:39.00
Vinicio Soto Monge
C. resplendens. Sex F. Dorsal.
250,000000
1
Lambda 1050
1050L1511233
PerkinElmer UV WinLab 6.3.2.0749 / 2.02.05 Lambda 900 UV/VIS/NIR, Aug  7 2015 09:38:08

0
0
3350/servo 860,8/2
0
0
UV/VIS
1
1
1
DoubleDePol,CommonBeamDepol,RBeamAtt,SBeamAtt,60mm sphere, WB InGaAs Detector
0
0
0
0
Program
Program
3350/servo 860,8/2
3350/0,2 860,8/0,2
3350/0,2 860,8/0,2
0
15.00
 
 
 
0
 
860,8
319,2
860,8
Front
100
on
S:100 R:100
0
0
0
0
 
0
 
 
 
0
 
 
0
0
0
0
0
 
 
 
 
0
0


0
0
#HDR
-1
-1
#GR
nm
%R
1.0
0.0
2500,000000
-1,000000
2251
8
92,306800
5,246900
#DATA
2482.000000	8.007072
2481.000000	8.047195
2480.000000	7.996990
2479.000000	8.034027
2478.000000	8.036393
2477.000000	8.030220
2476.000000	8.069417
2475.000000	8.028677
2474.000000	8.048430
2473.000000	8.079808
2472.000000	8.059438
2471.000000	8.071269
2470.000000	8.129705
2469.000000	8.120446
2468.000000	8.149664
2467.000000	8.134335
2466.000000	8.129397
2465.000000	8.200178
2464.000000	8.237935
2463.000000	8.249046
2462.000000	8.220240
2461.000000	8.275795
2460.000000	8.317050
2459.000000	8.364581
2458.000000	8.364993
2457.000000	8.391536
2456.000000	8.468182
2455.000000	8.527543
2454.000000	8.565712
2453.000000	8.609128
2452.000000	8.677852
2451.000000	8.733098
2450.000000	8.794724
2449.000000	8.833510
2448.000000	8.885155
2447.000000	8.965608
2446.000000	9.008715
2445.000000	9.065093
2444.000000	9.111801
2443.000000	9.163961
2442.000000	9.261286
2441.000000	9.322397
2440.000000	9.389166
2439.000000	9.454186
2438.000000	9.513240
2437.000000	9.563960
2436.000000	9.627231
2435.000000	9.652437
2434.000000	9.714782
2433.000000	9.772292
2432.000000	9.824041
2431.000000	9.876304
2430.000000	9.946880
2429.000000	10.001304
2428.000000	10.059740
2427.000000	10.087621
2426.000000	10.123629
2425.000000	10.184637
2424.000000	10.234842
2423.000000	10.291632
2422.000000	10.333505
2421.000000	10.365603
2420.000000	10.402743
2419.000000	10.453463
2418.000000	10.492352
2417.000000	10.526508
2416.000000	10.582681
2415.000000	10.611796
2414.000000	10.642351
2413.000000	10.666528
2412.000000	10.707886
2411.000000	10.730623
2410.000000	10.766734
2409.000000	10.792659
2408.000000	10.823009
2407.000000	10.869202
2406.000000	10.890087
2405.000000	10.917556
2404.000000	10.954387
2403.000000	10.971465
2402.000000	10.979490
2401.000000	11.022082
2400.000000	11.057679
2399.000000	11.073317
2398.000000	11.096774
2397.000000	11.118276
2396.000000	11.158296
2395.000000	11.182473
2394.000000	11.203563
2393.000000	11.222493
2392.000000	11.241732
2391.000000	11.267966
2390.000000	11.294098
2389.000000	11.302020
2388.000000	11.314263
2387.000000	11.341011
2386.000000	11.356649
2385.000000	11.366732
2384.000000	11.390600
2383.000000	11.391011
2382.000000	11.387410
2381.000000	11.392452
2380.000000	11.401196
2379.000000	11.410147
2378.000000	11.402122
2377.000000	11.391731
2376.000000	11.407678
2375.000000	11.401917
2374.000000	11.391011
2373.000000	11.393583
2372.000000	11.387410
2371.000000	11.381855
2370.000000	11.376196
2369.000000	11.362513
2368.000000	11.344406
2367.000000	11.336279
2366.000000	11.317760
2365.000000	11.298728
2364.000000	11.270127
2363.000000	11.242246
2362.000000	11.240806
2361.000000	11.224037
2360.000000	11.191115
2359.000000	11.159633
2358.000000	11.125786
2357.000000	11.108811
2356.000000	11.087206
2355.000000	11.067864
2354.000000	11.052329
2353.000000	11.044922
2352.000000	11.042659
2351.000000	11.029387
2350.000000	11.027124
2349.000000	11.047700
2348.000000	11.061280
2347.000000	11.073831
2346.000000	11.096259
2345.000000	11.115806
2344.000000	11.148008
2343.000000	11.168378
2342.000000	11.191526
2341.000000	11.218172
2340.000000	11.247493
2339.000000	11.265703
2338.000000	11.290703
2337.000000	11.303975
2336.000000	11.306032
2335.000000	11.336279
2334.000000	11.343275
2333.000000	11.338851
2332.000000	11.322699
2331.000000	11.319407
2330.000000	11.321258
2329.000000	11.290497
2328.000000	11.280518
2327.000000	11.271156
2326.000000	11.233399
2325.000000	11.204695
2324.000000	11.175374
2323.000000	11.128769
2322.000000	11.095333
2321.000000	11.047082
2320.000000	10.990190
2319.000000	10.922494
2318.000000	10.866836
2317.000000	10.807268
2316.000000	10.742351
2315.000000	10.671158
2314.000000	10.586076
2313.000000	10.527022
2312.000000	10.446364
2311.000000	10.375480
2310.000000	10.319410
2309.000000	10.262414
2308.000000	10.209122
2307.000000	10.171880
2306.000000	10.151201
2305.000000	10.130830
2304.000000	10.134122
2303.000000	10.135974
2302.000000	10.153155
2301.000000	10.191735
2300.000000	10.221674
2299.000000	10.275068
2298.000000	10.330624
2297.000000	10.382681
2296.000000	10.451920
2295.000000	10.510253
2294.000000	10.579491
2293.000000	10.654080
2292.000000	10.706343
2291.000000	10.756343
2290.000000	10.795849
2289.000000	10.823626
2288.000000	10.854182
2287.000000	10.871671
2286.000000	10.893173
2285.000000	10.888852
2284.000000	10.877536
2283.000000	10.875684
2282.000000	10.876198
2281.000000	10.836486
2280.000000	10.820128
2279.000000	10.769408
2278.000000	10.739882
2277.000000	10.727022
2276.000000	10.677536
2275.000000	10.635767
2274.000000	10.594923
2273.000000	10.568072
2272.000000	10.535870
2271.000000	10.521673
2270.000000	10.509121
2269.000000	10.518998
2268.000000	10.543380
2267.000000	10.590397
2266.000000	10.627742
2265.000000	10.702330
2264.000000	10.755108
2263.000000	10.871569
2262.000000	10.988132
2261.000000	11.124037
2260.000000	11.252946
2259.000000	11.417040
2258.000000	11.594714
2257.000000	11.771771
2256.000000	11.927018
2255.000000	12.110659
2254.000000	12.295741
2253.000000	12.497695
2252.000000	12.669299
2251.000000	12.838229
2250.000000	13.010553
2249.000000	13.165285
2248.000000	13.314667
2247.000000	13.460655
2246.000000	13.594810
2245.000000	13.742752
2244.000000	13.837814
2243.000000	13.955509
2242.000000	14.044089
2241.000000	14.118368
2240.000000	14.199541
2239.000000	14.295734
2238.000000	14.365693
2237.000000	14.416001
2236.000000	14.446248
2235.000000	14.526906
2234.000000	14.553449
2233.000000	14.575671
2232.000000	14.611165
2231.000000	14.639354
2230.000000	14.638223
2229.000000	14.657667
2228.000000	14.670836
2227.000000	14.652935
2226.000000	14.643264
2225.000000	14.648716
2224.000000	14.624128
2223.000000	14.588429
2222.000000	14.578552
2221.000000	14.577935
2220.000000	14.524643
2219.000000	14.493264
2218.000000	14.463840
2217.000000	14.436680
2216.000000	14.396660
2215.000000	14.362092
2214.000000	14.320220
2213.000000	14.274129
2212.000000	14.261886
2211.000000	14.201393
2210.000000	14.179274
2209.000000	14.167751
2208.000000	14.158492
2207.000000	14.120014
2206.000000	14.077834
2205.000000	14.069192
2204.000000	14.037813
2203.000000	14.005920
2202.000000	13.981949
2201.000000	13.987196
2200.000000	13.961270
2199.000000	13.933698
2198.000000	13.932875
2197.000000	13.901188
2196.000000	13.907361
2195.000000	13.914768
2194.000000	13.882978
2193.000000	13.878040
2192.000000	13.868061
2191.000000	13.857361
2190.000000	13.847279
2189.000000	13.818267
2188.000000	13.817546
2187.000000	13.821662
2186.000000	13.790695
2185.000000	13.782567
2184.000000	13.784625
2183.000000	13.774645
2182.000000	13.740077
2181.000000	13.736580
2180.000000	13.710242
2179.000000	13.710962
2178.000000	13.685345
2177.000000	13.688946
2176.000000	13.712917
2175.000000	13.696353
2174.000000	13.669296
2173.000000	13.678246
2172.000000	13.696662
2171.000000	13.695325
2170.000000	13.692135
2169.000000	13.710962
2168.000000	13.712506
2167.000000	13.739769
2166.000000	13.754584
2165.000000	13.767752
2164.000000	13.776600
2163.000000	13.814254
2162.000000	13.830921
2161.000000	13.860550
2160.000000	13.878760
2159.000000	13.913945
2158.000000	13.951085
2157.000000	13.996764
2156.000000	14.014048
2155.000000	14.053965
2154.000000	14.097175
2153.000000	14.130303
2152.000000	14.174850
2151.000000	14.233183
2150.000000	14.277113
2149.000000	14.324643
2148.000000	14.362503
2147.000000	14.417030
2146.000000	14.457668
2145.000000	14.510651
2144.000000	14.552215
2143.000000	14.576803
2142.000000	14.621762
2141.000000	14.659930
2140.000000	14.679581
2139.000000	14.732358
2138.000000	14.762708
2137.000000	14.791309
2136.000000	14.828243
2135.000000	14.857975
2134.000000	14.873716
2133.000000	14.911370
2132.000000	14.939559
2131.000000	14.942234
2130.000000	14.962398
2129.000000	14.973201
2128.000000	14.981740
2127.000000	14.988839
2126.000000	15.006534
2125.000000	15.020217
2124.000000	15.019703
2123.000000	15.011472
2122.000000	14.988839
2121.000000	14.984724
2120.000000	14.985238
2119.000000	14.981946
2118.000000	14.980197
2117.000000	14.966308
2116.000000	14.933180
2115.000000	14.926596
2114.000000	14.925773
2113.000000	14.906637
2112.000000	14.881226
2111.000000	14.855300
2110.000000	14.828963
2109.000000	14.810650
2108.000000	14.775671
2107.000000	14.750259
2106.000000	14.746350
2105.000000	14.716206
2104.000000	14.679683
2103.000000	14.663325
2102.000000	14.649745
2101.000000	14.625260
2100.000000	14.584210
2099.000000	14.560034
2098.000000	14.535034
2097.000000	14.517853
2096.000000	14.500672
2095.000000	14.472482
2094.000000	14.450980
2093.000000	14.432565
2092.000000	14.412503
2091.000000	14.379273
2090.000000	14.364252
2089.000000	14.354582
2088.000000	14.338018
2087.000000	14.312401
2086.000000	14.283594
2085.000000	14.266825
2084.000000	14.246043
2083.000000	14.209932
2082.000000	14.190590
2081.000000	14.162504
2080.000000	14.109932
2079.000000	14.074233
2078.000000	14.044912
2077.000000	14.005097
2076.000000	13.954686
2075.000000	13.905921
2074.000000	13.859110
2073.000000	13.797382
2072.000000	13.753555
2071.000000	13.714357
2070.000000	13.648617
2069.000000	13.585963
2068.000000	13.536272
2067.000000	13.478453
2066.000000	13.403865
2065.000000	13.341210
2064.000000	13.298824
2063.000000	13.242548
2062.000000	13.175059
2061.000000	13.120635
2060.000000	13.083701
2059.000000	13.040800
2058.000000	12.990183
2057.000000	12.957261
2056.000000	12.933907
2055.000000	12.914772
2054.000000	12.892241
2053.000000	12.879278
2052.000000	12.884525
2051.000000	12.885862
2050.000000	12.904278
2049.000000	12.935039
2048.000000	12.967446
2047.000000	12.993166
2046.000000	13.041212
2045.000000	13.097384
2044.000000	13.139565
2043.000000	13.186684
2042.000000	13.234935
2041.000000	13.291416
2040.000000	13.329379
2039.000000	13.367136
2038.000000	13.407774
2037.000000	13.445222
2036.000000	13.482568
2035.000000	13.514564
2034.000000	13.548514
2033.000000	13.582773
2032.000000	13.594090
2031.000000	13.605613
2030.000000	13.622382
2029.000000	13.618987
2028.000000	13.645119
2027.000000	13.644810
2026.000000	13.644605
2025.000000	13.658288
2024.000000	13.657567
2023.000000	13.634317
2022.000000	13.637609
2021.000000	13.630819
2020.000000	13.616210
2019.000000	13.602526
2018.000000	13.593679
2017.000000	13.573720
2016.000000	13.549543
2015.000000	13.546971
2014.000000	13.524132
2013.000000	13.488947
2012.000000	13.465284
2011.000000	13.430202
2010.000000	13.405922
2009.000000	13.368680
2008.000000	13.335449
2007.000000	13.293371
2006.000000	13.249750
2005.000000	13.198618
2004.000000	13.165182
2003.000000	13.113536
2002.000000	13.063845
2001.000000	13.019915
2000.000000	12.945533
1999.000000	12.890698
1998.000000	12.837200
1997.000000	12.793887
1996.000000	12.731439
1995.000000	12.670637
1994.000000	12.590801
1993.000000	12.522798
1992.000000	12.466419
1991.000000	12.409321
1990.000000	12.327325
1989.000000	12.251296
1988.000000	12.200371
1987.000000	12.109939
1986.000000	12.036174
1985.000000	11.983396
1984.000000	11.893993
1983.000000	11.829899
1982.000000	11.762306
1981.000000	11.679076
1980.000000	11.596463
1979.000000	11.536896
1978.000000	11.469715
1977.000000	11.386793
1976.000000	11.319715
1975.000000	11.244407
1974.000000	11.176300
1973.000000	11.112103
1972.000000	11.042350
1971.000000	10.960972
1970.000000	10.892556
1969.000000	10.839984
1968.000000	10.758503
1967.000000	10.687516
1966.000000	10.641837
1965.000000	10.590705
1964.000000	10.519821
1963.000000	10.450788
1962.000000	10.380829
1961.000000	10.337723
1960.000000	10.271262
1959.000000	10.209122
1958.000000	10.134946
1957.000000	10.082682
1956.000000	10.039370
1955.000000	9.986078
1954.000000	9.889679
1953.000000	9.873012
1952.000000	9.788239
1951.000000	9.776408
1950.000000	9.716120
1949.000000	9.643280
1948.000000	9.608713
1947.000000	9.563137
1946.000000	9.561285
1945.000000	9.516326
1944.000000	9.477746
1943.000000	9.436697
1942.000000	9.404701
1941.000000	9.389372
1940.000000	9.383713
1939.000000	9.357993
1938.000000	9.366841
1937.000000	9.379084
1936.000000	9.364269
1935.000000	9.355524
1934.000000	9.366430
1933.000000	9.383816
1932.000000	9.412829
1931.000000	9.444824
1930.000000	9.477129
1929.000000	9.518384
1928.000000	9.575997
1927.000000	9.636285
1926.000000	9.680215
1925.000000	9.770852
1924.000000	9.852025
1923.000000	9.913238
1922.000000	9.997806
1921.000000	10.125995
1920.000000	10.221879
1919.000000	10.354389
1918.000000	10.451508
1917.000000	10.571158
1916.000000	10.678874
1915.000000	10.794203
1914.000000	10.928050
1913.000000	11.131033
1912.000000	11.310662
1911.000000	11.463233
1910.000000	11.626813
1909.000000	11.778561
1908.000000	11.928664
1907.000000	12.093890
1906.000000	12.300988
1905.000000	12.576398
1904.000000	12.826912
1903.000000	13.042755
1902.000000	13.269812
1901.000000	13.531539
1900.000000	13.788637
1899.000000	14.081434
1898.000000	14.406536
1897.000000	14.703243
1896.000000	15.009826
1895.000000	15.271862
1894.000000	15.544084
1893.000000	15.855194
1892.000000	16.188629
1891.000000	16.613422
1890.000000	17.028132
1889.000000	17.379366
1888.000000	17.768150
1887.000000	18.159610
1886.000000	18.551275
1885.000000	18.976583
1884.000000	19.405491
1883.000000	19.857650
1882.000000	20.320508
1881.000000	20.715569
1880.000000	21.135423
1879.000000	21.512685
1878.000000	21.907334
1877.000000	22.312374
1876.000000	22.670912
1875.000000	23.039120
1874.000000	23.422761
1873.000000	23.780270
1872.000000	24.149919
1871.000000	24.460823
1870.000000	24.761131
1869.000000	25.041892
1868.000000	25.317611
1867.000000	25.516581
1866.000000	25.690655
1865.000000	25.816477
1864.000000	25.956600
1863.000000	26.089625
1862.000000	26.228616
1861.000000	26.390035
1860.000000	26.534376
1859.000000	26.672030
1858.000000	26.821927
1857.000000	26.923881
1856.000000	26.997852
1855.000000	27.054951
1854.000000	27.132317
1853.000000	27.172028
1852.000000	27.218016
1851.000000	27.258962
1850.000000	27.282522
1849.000000	27.319147
1848.000000	27.363694
1847.000000	27.422542
1846.000000	27.427995
1845.000000	27.400834
1844.000000	27.378406
1843.000000	27.339209
1842.000000	27.356904
1841.000000	27.387974
1840.000000	27.412974
1839.000000	27.414929
1838.000000	27.402172
1837.000000	27.385814
1836.000000	27.363900
1835.000000	27.333345
1834.000000	27.298880
1833.000000	27.249292
1832.000000	27.192399
1831.000000	27.164827
1830.000000	27.149601
1829.000000	27.120074
1828.000000	27.077173
1827.000000	27.029848
1826.000000	26.992708
1825.000000	26.949704
1824.000000	26.907112
1823.000000	26.871824
1822.000000	26.859890
1821.000000	26.877585
1820.000000	26.865959
1819.000000	26.855157
1818.000000	26.815857
1817.000000	26.771001
1816.000000	26.753923
1815.000000	26.739005
1814.000000	26.713285
1813.000000	26.707832
1812.000000	26.689520
1811.000000	26.670178
1810.000000	26.652689
1809.000000	26.615755
1808.000000	26.583656
1807.000000	26.557524
1806.000000	26.535508
1805.000000	26.511640
1804.000000	26.475117
1803.000000	26.446002
1802.000000	26.427175
1801.000000	26.399706
1800.000000	26.350529
1799.000000	26.304233
1798.000000	26.269871
1797.000000	26.232320
1796.000000	26.207628
1795.000000	26.180262
1794.000000	26.147032
1793.000000	26.124090
1792.000000	26.093843
1791.000000	26.080263
1790.000000	26.052691
1789.000000	26.004028
1788.000000	25.978617
1787.000000	25.953308
1786.000000	25.930983
1785.000000	25.905263
1784.000000	25.867403
1783.000000	25.826251
1782.000000	25.802074
1781.000000	25.765860
1780.000000	25.720902
1779.000000	25.691684
1778.000000	25.661848
1777.000000	25.627178
1776.000000	25.584277
1775.000000	25.529338
1774.000000	25.481396
1773.000000	25.437775
1772.000000	25.391067
1771.000000	25.339318
1770.000000	25.288701
1769.000000	25.226767
1768.000000	25.170903
1767.000000	25.127282
1766.000000	25.071624
1765.000000	25.027180
1764.000000	25.003517
1763.000000	24.982838
1762.000000	24.980266
1761.000000	24.986748
1760.000000	25.002900
1759.000000	25.037673
1758.000000	25.076871
1757.000000	25.115039
1756.000000	25.170801
1755.000000	25.225739
1754.000000	25.258043
1753.000000	25.304545
1752.000000	25.329956
1751.000000	25.342508
1750.000000	25.348166
1749.000000	25.357631
1748.000000	25.368228
1747.000000	25.351150
1746.000000	25.313804
1745.000000	25.285821
1744.000000	25.223475
1743.000000	25.142714
1742.000000	25.072344
1741.000000	24.993538
1740.000000	24.882839
1739.000000	24.781090
1738.000000	24.669053
1737.000000	24.561852
1736.000000	24.442202
1735.000000	24.370392
1734.000000	24.303519
1733.000000	24.237779
1732.000000	24.213705
1731.000000	24.209487
1730.000000	24.223581
1729.000000	24.257326
1728.000000	24.307017
1727.000000	24.348787
1726.000000	24.392305
1725.000000	24.444671
1724.000000	24.472140
1723.000000	24.520597
1722.000000	24.572346
1721.000000	24.607634
1720.000000	24.664629
1719.000000	24.724506
1718.000000	24.778312
1717.000000	24.849197
1716.000000	24.938703
1715.000000	25.012365
1714.000000	25.095184
1713.000000	25.172344
1712.000000	25.241068
1711.000000	25.305368
1710.000000	25.357323
1709.000000	25.405676
1708.000000	25.433042
1707.000000	25.445491
1706.000000	25.445182
1705.000000	25.410615
1704.000000	25.392610
1703.000000	25.371623
1702.000000	25.333969
1701.000000	25.263599
1700.000000	25.189113
1699.000000	25.105677
1698.000000	25.047653
1697.000000	24.961439
1696.000000	24.867818
1695.000000	24.839217
1694.000000	24.815555
1693.000000	24.814526
1692.000000	24.835308
1691.000000	24.878003
1690.000000	24.949608
1689.000000	25.045595
1688.000000	25.128825
1687.000000	25.200430
1686.000000	25.269154
1685.000000	25.323578
1684.000000	25.419874
1683.000000	25.528515
1682.000000	25.654750
1681.000000	25.834584
1680.000000	26.050839
1679.000000	26.310303
1678.000000	26.609890
1677.000000	26.905157
1676.000000	27.180979
1675.000000	27.479743
1674.000000	27.710504
1673.000000	27.911429
1672.000000	28.121202
1671.000000	28.279741
1670.000000	28.439514
1669.000000	28.593320
1668.000000	28.717085
1667.000000	28.801241
1666.000000	28.868731
1665.000000	28.985500
1664.000000	29.056281
1663.000000	29.113791
1662.000000	29.170170
1661.000000	29.228400
1660.000000	29.241157
1659.000000	29.320169
1658.000000	29.353811
1657.000000	29.373256
1656.000000	29.384367
1655.000000	29.369449
1654.000000	29.392288
1653.000000	29.413996
1652.000000	29.409984
1651.000000	29.399387
1650.000000	29.389408
1649.000000	29.379017
1648.000000	29.341671
1647.000000	29.332927
1646.000000	29.313997
1645.000000	29.268729
1644.000000	29.241363
1643.000000	29.211631
1642.000000	29.177783
1641.000000	29.153298
1640.000000	29.116261
1639.000000	29.084471
1638.000000	29.048874
1637.000000	29.005870
1636.000000	28.978298
1635.000000	28.918730
1634.000000	28.867805
1633.000000	28.844862
1632.000000	28.789307
1631.000000	28.732517
1630.000000	28.695274
1629.000000	28.633958
1628.000000	28.573464
1627.000000	28.524493
1626.000000	28.470789
1625.000000	28.394555
1624.000000	28.346716
1623.000000	28.296510
1622.000000	28.246613
1621.000000	28.191161
1620.000000	28.154021
1619.000000	28.082828
1618.000000	28.028096
1617.000000	27.987355
1616.000000	27.943219
1615.000000	27.885812
1614.000000	27.830257
1613.000000	27.774290
1612.000000	27.728302
1611.000000	27.678302
1610.000000	27.620998
1609.000000	27.573570
1608.000000	27.512048
1607.000000	27.456287
1606.000000	27.399908
1605.000000	27.345793
1604.000000	27.304538
1603.000000	27.237666
1602.000000	27.178819
1601.000000	27.120485
1600.000000	27.065033
1599.000000	27.009375
1598.000000	26.953305
1597.000000	26.887564
1596.000000	26.827379
1595.000000	26.786330
1594.000000	26.727174
1593.000000	26.678512
1592.000000	26.638903
1591.000000	26.586434
1590.000000	26.542401
1589.000000	26.496619
1588.000000	26.448574
1587.000000	26.403512
1586.000000	26.342093
1585.000000	26.297237
1584.000000	26.260406
1583.000000	26.213184
1582.000000	26.173369
1581.000000	26.132011
1580.000000	26.082937
1579.000000	26.065345
1578.000000	26.029131
1577.000000	25.994460
1576.000000	25.971827
1575.000000	25.950736
1574.000000	25.918432
1573.000000	25.907938
1572.000000	25.882629
1571.000000	25.866683
1570.000000	25.837568
1569.000000	25.817815
1568.000000	25.815140
1567.000000	25.806807
1566.000000	25.790243
1565.000000	25.770387
1564.000000	25.760922
1563.000000	25.745284
1562.000000	25.730984
1561.000000	25.709688
1560.000000	25.696828
1559.000000	25.676766
1558.000000	25.651972
1557.000000	25.618330
1556.000000	25.598474
1555.000000	25.578001
1554.000000	25.538598
1553.000000	25.508248
1552.000000	25.464627
1551.000000	25.427075
1550.000000	25.380676
1549.000000	25.333454
1548.000000	25.302076
1547.000000	25.247138
1546.000000	25.212467
1545.000000	25.184484
1544.000000	25.142714
1543.000000	25.101871
1542.000000	25.069052
1541.000000	25.043332
1540.000000	25.018332
1539.000000	24.988600
1538.000000	24.962159
1537.000000	24.934793
1536.000000	24.902386
1535.000000	24.862468
1534.000000	24.816481
1533.000000	24.782427
1532.000000	24.745082
1531.000000	24.700123
1530.000000	24.653724
1529.000000	24.633662
1528.000000	24.599095
1527.000000	24.543642
1526.000000	24.480885
1525.000000	24.435926
1524.000000	24.391276
1523.000000	24.335207
1522.000000	24.292306
1521.000000	24.243849
1520.000000	24.187985
1519.000000	24.132018
1518.000000	24.060310
1517.000000	24.007841
1516.000000	23.962883
1515.000000	23.893130
1514.000000	23.840352
1513.000000	23.785003
1512.000000	23.709797
1511.000000	23.654550
1510.000000	23.601773
1509.000000	23.537987
1508.000000	23.472452
1507.000000	23.399304
1506.000000	23.328831
1505.000000	23.270395
1504.000000	23.214634
1503.000000	23.149202
1502.000000	23.075952
1501.000000	23.014532
1500.000000	22.955273
1499.000000	22.898483
1498.000000	22.835932
1497.000000	22.780068
1496.000000	22.731611
1495.000000	22.686447
1494.000000	22.636550
1493.000000	22.589019
1492.000000	22.534904
1491.000000	22.487270
1490.000000	22.451057
1489.000000	22.399102
1488.000000	22.344987
1487.000000	22.313917
1486.000000	22.272353
1485.000000	22.236140
1484.000000	22.197868
1483.000000	22.158053
1482.000000	22.117107
1481.000000	22.090050
1480.000000	22.062992
1479.000000	22.030790
1478.000000	22.012375
1477.000000	21.985214
1476.000000	21.955276
1475.000000	21.946737
1474.000000	21.941799
1473.000000	21.936141
1472.000000	21.942313
1471.000000	21.936038
1470.000000	21.925338
1469.000000	21.911655
1468.000000	21.898486
1467.000000	21.911244
1466.000000	21.916593
1465.000000	21.921737
1464.000000	21.925955
1463.000000	21.934700
1462.000000	21.946737
1461.000000	21.970605
1460.000000	22.004453
1459.000000	22.030173
1458.000000	22.063301
1457.000000	22.091490
1456.000000	22.131305
1455.000000	22.182745
1454.000000	22.234288
1453.000000	22.272353
1452.000000	22.319576
1451.000000	22.391077
1450.000000	22.461859
1449.000000	22.496221
1448.000000	22.538608
1447.000000	22.599924
1446.000000	22.687887
1445.000000	22.768957
1444.000000	22.809594
1443.000000	22.867310
1442.000000	22.948174
1441.000000	23.034182
1440.000000	23.097351
1439.000000	23.166383
1438.000000	23.258256
1437.000000	23.347761
1436.000000	23.443029
1435.000000	23.518440
1434.000000	23.620086
1433.000000	23.733665
1432.000000	23.828110
1431.000000	23.942204
1430.000000	24.036648
1429.000000	24.163499
1428.000000	24.294569
1427.000000	24.416276
1426.000000	24.535206
1425.000000	24.683354
1424.000000	24.841378
1423.000000	25.004443
1422.000000	25.161850
1421.000000	25.320697
1420.000000	25.518536
1419.000000	25.718227
1418.000000	25.898576
1417.000000	26.068431
1416.000000	26.251558
1415.000000	26.477586
1414.000000	26.732729
1413.000000	26.980671
1412.000000	27.199292
1411.000000	27.420176
1410.000000	27.688796
1409.000000	27.999083
1408.000000	28.271099
1407.000000	28.601653
1406.000000	28.864512
1405.000000	29.186219
1404.000000	29.493008
1403.000000	29.853089
1402.000000	30.147430
1401.000000	30.483951
1400.000000	30.880658
1399.000000	31.234052
1398.000000	31.484565
1397.000000	31.754626
1396.000000	32.092485
1395.000000	32.527978
1394.000000	32.883738
1393.000000	33.140836
1392.000000	33.492172
1391.000000	33.833837
1390.000000	34.196902
1389.000000	34.519535
1388.000000	34.984348
1387.000000	35.407186
1386.000000	35.804818
1385.000000	36.254611
1384.000000	36.716544
1383.000000	37.161398
1382.000000	37.606459
1381.000000	38.027342
1380.000000	38.387011
1379.000000	38.619212
1378.000000	38.853985
1377.000000	39.026310
1376.000000	39.233511
1375.000000	39.424354
1374.000000	39.589785
1373.000000	39.819928
1372.000000	40.047294
1371.000000	40.307993
1370.000000	40.547601
1369.000000	40.768794
1368.000000	41.027640
1367.000000	41.212825
1366.000000	41.389471
1365.000000	41.551404
1364.000000	41.734428
1363.000000	41.861383
1362.000000	42.049859
1361.000000	42.175168
1360.000000	42.305311
1359.000000	42.305002
1358.000000	42.415290
1357.000000	42.506133
1356.000000	42.614981
1355.000000	42.787202
1354.000000	42.974445
1353.000000	43.223209
1352.000000	43.442653
1351.000000	43.708701
1350.000000	43.990388
1349.000000	44.288638
1348.000000	44.560550
1347.000000	44.823615
1346.000000	45.065899
1345.000000	45.286165
1344.000000	45.551699
1343.000000	45.799538
1342.000000	46.018673
1341.000000	46.234619
1340.000000	46.492334
1339.000000	46.727519
1338.000000	46.940584
1337.000000	47.187599
1336.000000	47.399121
1335.000000	47.607660
1334.000000	47.833276
1333.000000	48.044078
1332.000000	48.251999
1331.000000	48.463418
1330.000000	48.678747
1329.000000	48.870207
1328.000000	49.064239
1327.000000	49.251584
1326.000000	49.424526
1325.000000	49.605595
1324.000000	49.778846
1323.000000	49.944174
1322.000000	50.098289
1321.000000	50.254770
1320.000000	50.420716
1319.000000	50.583576
1318.000000	50.721229
1317.000000	50.877916
1316.000000	50.994068
1315.000000	51.125549
1314.000000	51.270302
1313.000000	51.397462
1312.000000	51.509704
1311.000000	51.618757
1310.000000	51.728839
1309.000000	51.836452
1308.000000	51.935732
1307.000000	52.031513
1306.000000	52.112377
1305.000000	52.192624
1304.000000	52.274414
1303.000000	52.350751
1302.000000	52.416388
1301.000000	52.480894
1300.000000	52.537376
1299.000000	52.607643
1298.000000	52.660935
1297.000000	52.701778
1296.000000	52.742725
1295.000000	52.785420
1294.000000	52.828630
1293.000000	52.853012
1292.000000	52.876778
1291.000000	52.905893
1290.000000	52.925852
1289.000000	52.933156
1288.000000	52.942415
1287.000000	52.935728
1286.000000	52.934391
1285.000000	52.939123
1284.000000	52.924823
1283.000000	52.898588
1282.000000	52.881819
1281.000000	52.865461
1280.000000	52.842930
1279.000000	52.822148
1278.000000	52.802601
1277.000000	52.784083
1276.000000	52.773589
1275.000000	52.748692
1274.000000	52.722046
1273.000000	52.712889
1272.000000	52.700235
1271.000000	52.682231
1270.000000	52.675750
1269.000000	52.670503
1268.000000	52.652190
1267.000000	52.624309
1266.000000	52.605688
1265.000000	52.579351
1264.000000	52.567314
1263.000000	52.545503
1262.000000	52.523590
1261.000000	52.503116
1260.000000	52.465051
1259.000000	52.442211
1258.000000	52.412273
1257.000000	52.376162
1256.000000	52.342829
1255.000000	52.302500
1254.000000	52.269475
1253.000000	52.243961
1252.000000	52.199414
1251.000000	52.158467
1250.000000	52.115875
1249.000000	52.054558
1248.000000	51.996328
1247.000000	51.938406
1246.000000	51.879147
1245.000000	51.823695
1244.000000	51.740773
1243.000000	51.655897
1242.000000	51.595506
1241.000000	51.526679
1240.000000	51.442420
1239.000000	51.360219
1238.000000	51.297256
1237.000000	51.215158
1236.000000	51.137689
1235.000000	51.061249
1234.000000	50.973595
1233.000000	50.904048
1232.000000	50.810735
1231.000000	50.719069
1230.000000	50.635633
1229.000000	50.537588
1228.000000	50.445819
1227.000000	50.349832
1226.000000	50.248906
1225.000000	50.147672
1224.000000	50.044483
1223.000000	49.927508
1222.000000	49.825142
1221.000000	49.730183
1220.000000	49.626068
1219.000000	49.526583
1218.000000	49.428230
1217.000000	49.331316
1216.000000	49.226173
1215.000000	49.120618
1214.000000	49.033272
1213.000000	48.949116
1212.000000	48.859507
1211.000000	48.778232
1210.000000	48.699117
1209.000000	48.613726
1208.000000	48.527718
1207.000000	48.456731
1206.000000	48.379365
1205.000000	48.312698
1204.000000	48.256423
1203.000000	48.188522
1202.000000	48.146547
1201.000000	48.110539
1200.000000	48.077102
1199.000000	48.027411
1198.000000	47.964963
1197.000000	47.888008
1196.000000	47.800252
1195.000000	47.698194
1194.000000	47.567228
1193.000000	47.400150
1192.000000	47.221241
1191.000000	47.015892
1190.000000	46.775152
1189.000000	46.533795
1188.000000	46.322684
1187.000000	46.151389
1186.000000	46.048817
1185.000000	46.005916
1184.000000	46.006842
1183.000000	46.097274
1182.000000	46.258899
1181.000000	46.496346
1180.000000	46.758588
1179.000000	47.046550
1178.000000	47.334409
1177.000000	47.586261
1176.000000	47.847577
1175.000000	48.079983
1174.000000	48.284509
1173.000000	48.480908
1172.000000	48.675866
1171.000000	48.881627
1170.000000	49.085535
1169.000000	49.304876
1168.000000	49.523497
1167.000000	49.750657
1166.000000	49.981006
1165.000000	50.227610
1164.000000	50.480695
1163.000000	50.739028
1162.000000	50.988512
1161.000000	51.250446
1160.000000	51.529046
1159.000000	51.792214
1158.000000	52.044270
1157.000000	52.309393
1156.000000	52.571943
1155.000000	52.804453
1154.000000	53.014843
1153.000000	53.211036
1152.000000	53.403422
1151.000000	53.562269
1150.000000	53.691281
1149.000000	53.831096
1148.000000	53.964428
1147.000000	54.103523
1146.000000	54.264942
1145.000000	54.448892
1144.000000	54.655784
1143.000000	54.881298
1142.000000	55.144054
1141.000000	55.429753
1140.000000	55.739937
1139.000000	56.049195
1138.000000	56.367610
1137.000000	56.695078
1136.000000	57.060612
1135.000000	57.438182
1134.000000	57.819662
1133.000000	58.163488
1132.000000	58.440854
1131.000000	58.725421
1130.000000	58.982004
1129.000000	59.219658
1128.000000	59.413587
1127.000000	59.593010
1126.000000	59.745582
1125.000000	59.874594
1124.000000	59.963791
1123.000000	60.061116
1122.000000	60.120581
1121.000000	60.185498
1120.000000	60.225313
1119.000000	60.255354
1118.000000	60.293008
1117.000000	60.306074
1116.000000	60.333954
1115.000000	60.334263
1114.000000	60.328913
1113.000000	60.346609
1112.000000	60.352679
1111.000000	60.338584
1110.000000	60.341876
1109.000000	60.325930
1108.000000	60.341362
1107.000000	60.344140
1106.000000	60.346403
1105.000000	60.347020
1104.000000	60.352370
1103.000000	60.342391
1102.000000	60.342802
1101.000000	60.340642
1100.000000	60.332308
1099.000000	60.335601
1098.000000	60.344654
1097.000000	60.326753
1096.000000	60.320786
1095.000000	60.327885
1094.000000	60.318317
1093.000000	60.311629
1092.000000	60.295169
1091.000000	60.287967
1090.000000	60.280354
1089.000000	60.278090
1088.000000	60.249695
1087.000000	60.221609
1086.000000	60.233852
1085.000000	60.225416
1084.000000	60.207720
1083.000000	60.188379
1082.000000	60.180869
1081.000000	60.176959
1080.000000	60.152474
1079.000000	60.142700
1078.000000	60.116568
1077.000000	60.109264
1076.000000	60.095889
1075.000000	60.090128
1074.000000	60.046507
1073.000000	60.037351
1072.000000	60.034779
1071.000000	60.027474
1070.000000	60.007824
1069.000000	59.969450
1068.000000	59.950211
1067.000000	59.936219
1066.000000	59.927886
1065.000000	59.894141
1064.000000	59.860294
1063.000000	59.851754
1062.000000	59.813792
1061.000000	59.784882
1060.000000	59.757310
1059.000000	59.738380
1058.000000	59.730459
1057.000000	59.668216
1056.000000	59.642805
1055.000000	59.603916
1054.000000	59.573978
1053.000000	59.533957
1052.000000	59.494657
1051.000000	59.483546
1050.000000	59.447949
1049.000000	59.417394
1048.000000	59.381694
1047.000000	59.369657
1046.000000	59.318629
1045.000000	59.302785
1044.000000	59.281077
1043.000000	59.249493
1042.000000	59.214514
1041.000000	59.186427
1040.000000	59.168938
1039.000000	59.152991
1038.000000	59.122024
1037.000000	59.081798
1036.000000	59.078403
1035.000000	59.047951
1034.000000	59.023979
1033.000000	59.018012
1032.000000	58.988280
1031.000000	58.966778
1030.000000	58.949494
1029.000000	58.920276
1028.000000	58.911634
1027.000000	58.904124
1026.000000	58.873260
1025.000000	58.867807
1024.000000	58.841573
1023.000000	58.819762
1022.000000	58.816676
1021.000000	58.799186
1020.000000	58.779639
1019.000000	58.781696
1018.000000	58.770791
1017.000000	58.779227
1016.000000	58.781285
1015.000000	58.789618
1014.000000	58.818733
1013.000000	58.842499
1012.000000	58.855359
1011.000000	58.903507
1010.000000	58.949597
1009.000000	58.992292
1008.000000	59.054329
1007.000000	59.108033
1006.000000	59.173465
1005.000000	59.240954
1004.000000	59.308238
1003.000000	59.385501
1002.000000	59.466673
1001.000000	59.527579
1000.000000	59.600829
999.000000	59.691261
998.000000	59.776137
997.000000	59.848154
996.000000	59.912865
995.000000	60.005766
994.000000	60.098359
993.000000	60.174593
992.000000	60.273872
991.000000	60.350107
990.000000	60.443316
989.000000	60.535909
988.000000	60.620888
987.000000	60.722533
986.000000	60.809776
985.000000	60.897739
984.000000	60.986936
983.000000	61.090331
982.000000	61.180557
981.000000	61.291153
980.000000	61.372017
979.000000	61.473971
978.000000	61.570576
977.000000	61.651440
976.000000	61.743518
975.000000	61.829937
974.000000	61.907200
973.000000	61.993620
972.000000	62.091459
971.000000	62.173866
970.000000	62.260388
969.000000	62.359771
968.000000	62.440326
967.000000	62.559256
966.000000	62.683226
965.000000	62.785695
964.000000	62.917176
963.000000	63.054316
962.000000	63.184048
961.000000	63.342586
960.000000	63.506886
959.000000	63.672626
958.000000	63.843099
957.000000	64.015012
956.000000	64.195258
955.000000	64.388056
954.000000	64.562850
953.000000	64.744022
952.000000	64.952252
951.000000	65.159967
950.000000	65.355131
949.000000	65.548649
948.000000	65.749574
947.000000	65.949265
946.000000	66.134244
945.000000	66.336404
944.000000	66.547720
943.000000	66.730744
942.000000	66.913562
941.000000	67.108006
940.000000	67.301215
939.000000	67.494527
938.000000	67.679095
937.000000	67.854300
936.000000	68.031768
935.000000	68.221377
934.000000	68.390409
933.000000	68.543495
932.000000	68.713453
931.000000	68.871169
930.000000	69.021065
929.000000	69.143287
928.000000	69.265509
927.000000	69.388965
926.000000	69.516331
925.000000	69.642257
924.000000	69.742051
923.000000	69.855733
922.000000	69.980527
921.000000	70.088654
920.000000	70.193695
919.000000	70.326822
918.000000	70.449147
917.000000	70.555525
916.000000	70.667150
915.000000	70.802849
914.000000	70.939372
913.000000	71.066943
912.000000	71.215914
911.000000	71.353876
910.000000	71.491942
909.000000	71.645748
908.000000	71.814163
907.000000	71.978360
906.000000	72.170026
905.000000	72.359120
904.000000	72.564778
903.000000	72.782678
902.000000	73.003562
901.000000	73.245743
900.000000	73.498005
899.000000	73.745947
898.000000	74.002633
897.000000	74.266727
896.000000	74.523619
895.000000	74.808700
894.000000	75.078350
893.000000	75.355406
892.000000	75.605611
891.000000	75.879273
890.000000	76.118778
889.000000	76.341514
888.000000	76.569085
887.000000	76.800566
886.000000	77.021656
885.000000	77.217849
884.000000	77.415173
883.000000	77.597168
882.000000	77.771859
881.000000	77.942435
880.000000	78.115376
879.000000	78.266611
878.000000	78.399635
877.000000	78.534922
876.000000	78.649840
875.000000	78.748605
874.000000	78.825971
873.000000	78.918769
872.000000	78.944283
871.000000	78.965065
870.000000	79.044900
869.000000	79.211978
868.000000	79.392841
867.000000	79.626688
866.000000	79.837387
865.000000	80.028436
864.000000	80.244896
863.000000	80.461048
862.000000	80.675759
861.000000	80.879668
860.000000	81.114852
859.000000	81.307650
858.000000	81.530900
857.000000	81.276500
856.000000	81.601700
855.000000	81.714500
854.000000	82.196400
853.000000	82.633400
852.000000	82.890500
851.000000	82.945400
850.000000	83.782000
849.000000	83.582500
848.000000	83.892300
847.000000	84.399200
846.000000	84.913400
845.000000	84.831400
844.000000	85.480400
843.000000	85.592700
842.000000	85.962000
841.000000	86.386700
840.000000	86.884400
839.000000	87.149500
838.000000	87.346700
837.000000	87.663800
836.000000	88.111300
835.000000	88.523900
834.000000	88.794500
833.000000	89.135000
832.000000	89.514300
831.000000	89.535500
830.000000	90.046300
829.000000	90.169800
828.000000	90.082700
827.000000	90.460700
826.000000	90.788000
825.000000	91.059100
824.000000	91.183000
823.000000	91.497100
822.000000	91.381600
821.000000	91.756200
820.000000	91.722400
819.000000	91.856100
818.000000	91.889300
817.000000	92.091500
816.000000	91.833300
815.000000	92.110300
814.000000	92.161200
813.000000	92.306800
812.000000	92.303200
811.000000	92.193300
810.000000	92.075500
809.000000	92.108400
808.000000	91.938900
807.000000	91.842100
806.000000	91.863700
805.000000	91.792100
804.000000	91.848700
803.000000	91.573200
802.000000	91.644700
801.000000	91.500900
800.000000	91.286900
799.000000	91.212400
798.000000	91.146300
797.000000	91.014700
796.000000	91.002500
795.000000	90.808500
794.000000	90.745100
793.000000	90.836200
792.000000	90.857500
791.000000	90.646000
790.000000	90.640800
789.000000	90.492900
788.000000	90.217000
787.000000	90.534400
786.000000	90.334200
785.000000	90.444100
784.000000	90.383600
783.000000	90.260800
782.000000	90.288800
781.000000	90.166700
780.000000	90.201700
779.000000	90.233700
778.000000	90.105900
777.000000	90.097100
776.000000	90.149200
775.000000	90.040800
774.000000	90.103500
773.000000	89.963100
772.000000	90.037000
771.000000	90.111600
770.000000	89.940600
769.000000	90.045200
768.000000	89.998700
767.000000	89.840100
766.000000	89.859600
765.000000	89.928700
764.000000	89.752100
763.000000	89.666200
762.000000	89.637800
761.000000	89.504600
760.000000	89.420900
759.000000	89.361500
758.000000	89.129300
757.000000	89.018400
756.000000	88.822000
755.000000	88.676200
754.000000	88.476000
753.000000	88.215500
752.000000	87.923900
751.000000	87.640300
750.000000	87.450000
749.000000	87.212100
748.000000	86.928000
747.000000	86.665500
746.000000	86.246500
745.000000	86.024100
744.000000	85.491000
743.000000	85.174100
742.000000	84.781900
741.000000	84.344900
740.000000	83.859400
739.000000	83.366700
738.000000	82.860500
737.000000	82.328500
736.000000	81.804800
735.000000	81.270100
734.000000	80.802400
733.000000	80.226300
732.000000	79.577600
731.000000	79.127500
730.000000	78.458100
729.000000	77.875300
728.000000	77.319700
727.000000	76.659100
726.000000	76.048000
725.000000	75.453400
724.000000	74.792600
723.000000	74.230000
722.000000	73.688400
721.000000	73.108800
720.000000	72.603700
719.000000	72.079500
718.000000	71.568800
717.000000	71.177500
716.000000	70.778100
715.000000	70.426200
714.000000	70.056400
713.000000	69.727000
712.000000	69.573700
711.000000	69.339900
710.000000	69.247900
709.000000	69.186900
708.000000	69.193700
707.000000	69.234900
706.000000	69.343900
705.000000	69.381300
704.000000	69.550600
703.000000	69.632500
702.000000	69.830400
701.000000	70.034400
700.000000	70.247000
699.000000	70.464800
698.000000	70.698000
697.000000	70.892700
696.000000	71.115600
695.000000	71.336200
694.000000	71.574700
693.000000	71.727200
692.000000	71.880600
691.000000	72.082900
690.000000	72.307700
689.000000	72.512400
688.000000	72.709900
687.000000	72.802000
686.000000	72.908500
685.000000	72.989600
684.000000	73.070500
683.000000	73.084200
682.000000	73.110800
681.000000	73.024200
680.000000	72.901700
679.000000	72.819100
678.000000	72.643200
677.000000	72.455500
676.000000	72.276800
675.000000	72.093500
674.000000	71.867900
673.000000	71.655900
672.000000	71.381500
671.000000	71.102900
670.000000	70.784600
669.000000	70.445100
668.000000	70.060100
667.000000	69.636600
666.000000	69.124500
665.000000	68.561300
664.000000	67.905300
663.000000	67.189100
662.000000	66.404600
661.000000	65.613500
660.000000	64.811900
659.000000	63.910400
658.000000	62.962500
657.000000	62.015400
656.000000	61.066900
655.000000	60.113000
654.000000	59.120800
653.000000	58.170800
652.000000	57.256700
651.000000	56.361300
650.000000	55.553700
649.000000	54.802800
648.000000	54.116300
647.000000	53.546700
646.000000	53.045700
645.000000	52.663800
644.000000	52.440600
643.000000	52.308000
642.000000	52.318900
641.000000	52.534100
640.000000	52.901200
639.000000	53.413100
638.000000	54.105800
637.000000	54.958100
636.000000	55.979900
635.000000	57.096000
634.000000	58.336300
633.000000	59.694000
632.000000	61.114900
631.000000	62.597200
630.000000	64.105700
629.000000	65.632600
628.000000	67.110900
627.000000	68.528900
626.000000	69.940600
625.000000	71.328100
624.000000	72.611900
623.000000	73.876400
622.000000	75.087100
621.000000	76.242000
620.000000	77.303800
619.000000	78.270500
618.000000	79.217700
617.000000	80.064900
616.000000	80.886300
615.000000	81.713100
614.000000	82.449400
613.000000	83.111900
612.000000	83.774300
611.000000	84.402400
610.000000	84.918900
609.000000	85.366900
608.000000	85.814900
607.000000	86.231600
606.000000	86.595400
605.000000	86.876900
604.000000	87.151800
603.000000	87.360800
602.000000	87.547000
601.000000	87.703700
600.000000	87.833200
599.000000	87.919400
598.000000	88.002200
597.000000	88.061200
596.000000	88.106000
595.000000	88.093000
594.000000	88.099400
593.000000	88.111800
592.000000	88.068600
591.000000	87.983300
590.000000	87.888200
589.000000	87.839800
588.000000	87.771900
587.000000	87.684900
586.000000	87.552400
585.000000	87.407100
584.000000	87.307100
583.000000	87.129200
582.000000	86.960400
581.000000	86.798200
580.000000	86.574900
579.000000	86.363800
578.000000	86.162700
577.000000	85.953600
576.000000	85.684300
575.000000	85.450200
574.000000	85.198600
573.000000	84.915800
572.000000	84.607800
571.000000	84.292500
570.000000	83.929300
569.000000	83.612700
568.000000	83.232600
567.000000	82.833100
566.000000	82.432500
565.000000	82.026900
564.000000	81.582100
563.000000	81.105700
562.000000	80.634200
561.000000	80.158300
560.000000	79.681300
559.000000	79.201000
558.000000	78.721700
557.000000	78.216700
556.000000	77.706200
555.000000	77.161800
554.000000	76.607600
553.000000	76.063400
552.000000	75.508700
551.000000	74.907600
550.000000	74.291100
549.000000	73.635400
548.000000	72.948600
547.000000	72.268700
546.000000	71.536500
545.000000	70.746100
544.000000	69.922600
543.000000	69.087300
542.000000	68.178300
541.000000	67.241300
540.000000	66.223600
539.000000	65.176700
538.000000	64.099600
537.000000	62.995600
536.000000	61.837900
535.000000	60.652300
534.000000	59.454400
533.000000	58.248300
532.000000	57.017600
531.000000	55.770100
530.000000	54.533100
529.000000	53.313200
528.000000	52.149300
527.000000	51.041400
526.000000	49.942900
525.000000	48.883700
524.000000	47.873100
523.000000	46.884300
522.000000	45.950600
521.000000	45.116800
520.000000	44.278200
519.000000	43.550600
518.000000	42.845200
517.000000	42.163900
516.000000	41.539900
515.000000	40.935200
514.000000	40.347400
513.000000	39.813100
512.000000	39.284800
511.000000	38.781400
510.000000	38.280000
509.000000	37.782900
508.000000	37.255700
507.000000	36.781500
506.000000	36.234600
505.000000	35.715600
504.000000	35.211700
503.000000	34.672700
502.000000	34.137300
501.000000	33.569400
500.000000	33.010500
499.000000	32.507900
498.000000	31.985100
497.000000	31.437200
496.000000	30.914400
495.000000	30.465200
494.000000	29.976000
493.000000	29.547800
492.000000	29.142300
491.000000	28.805200
490.000000	28.492800
489.000000	28.226000
488.000000	28.012900
487.000000	27.834800
486.000000	27.739500
485.000000	27.633600
484.000000	27.557900
483.000000	27.575100
482.000000	27.605000
481.000000	27.566600
480.000000	27.588500
479.000000	27.635800
478.000000	27.696500
477.000000	27.719400
476.000000	27.801300
475.000000	27.864700
474.000000	27.902000
473.000000	27.934300
472.000000	27.956200
471.000000	27.985800
470.000000	27.999100
469.000000	27.985400
468.000000	27.979200
467.000000	27.915800
466.000000	27.885000
465.000000	27.869600
464.000000	27.756700
463.000000	27.694100
462.000000	27.597700
461.000000	27.502100
460.000000	27.381400
459.000000	27.262500
458.000000	27.187700
457.000000	27.059000
456.000000	26.882800
455.000000	26.706700
454.000000	26.570800
453.000000	26.409900
452.000000	26.240600
451.000000	26.016800
450.000000	25.834800
449.000000	25.600100
448.000000	25.369200
447.000000	25.117600
446.000000	24.893300
445.000000	24.607100
444.000000	24.359800
443.000000	24.035900
442.000000	23.741100
441.000000	23.391700
440.000000	23.031700
439.000000	22.683200
438.000000	22.292700
437.000000	21.938900
436.000000	21.517400
435.000000	21.085700
434.000000	20.645100
433.000000	20.185700
432.000000	19.734300
431.000000	19.245600
430.000000	18.771600
429.000000	18.247200
428.000000	17.749200
427.000000	17.256000
426.000000	16.721500
425.000000	16.219400
424.000000	15.695700
423.000000	15.194600
422.000000	14.685800
421.000000	14.145300
420.000000	13.672700
419.000000	13.213300
418.000000	12.788800
417.000000	12.317100
416.000000	11.915300
415.000000	11.524600
414.000000	11.127400
413.000000	10.778300
412.000000	10.437700
411.000000	10.101400
410.000000	9.829200
409.000000	9.558400
408.000000	9.297900
407.000000	9.077600
406.000000	8.854700
405.000000	8.656100
404.000000	8.475200
403.000000	8.320600
402.000000	8.186200
401.000000	8.038800
400.000000	7.916000
399.000000	7.806600
398.000000	7.697200
397.000000	7.608500
396.000000	7.542200
395.000000	7.449300
394.000000	7.356800
393.000000	7.289100
392.000000	7.218100
391.000000	7.157100
390.000000	7.091900
389.000000	7.040000
388.000000	6.998000
387.000000	6.917400
386.000000	6.875900
385.000000	6.854500
384.000000	6.788300
383.000000	6.739500
382.000000	6.703800
381.000000	6.657800
380.000000	6.622800
379.000000	6.583800
378.000000	6.517700
377.000000	6.467900
376.000000	6.465700
375.000000	6.403600
374.000000	6.379100
373.000000	6.459900
372.000000	6.307900
371.000000	6.318600
370.000000	6.273200
369.000000	6.237500
368.000000	6.187000
367.000000	6.179400
366.000000	6.181300
365.000000	6.106900
364.000000	6.092800
363.000000	6.027000
362.000000	5.979600
361.000000	5.988900
360.000000	5.948700
359.000000	5.830300
358.000000	5.912600
357.000000	5.909100
356.000000	5.814300
355.000000	5.794400
354.000000	5.734800
353.000000	5.729000
352.000000	5.718900
351.000000	5.676200
350.000000	5.624200
349.000000	5.690500
348.000000	5.632500
347.000000	5.631400
346.000000	5.621300
345.000000	5.659500
344.000000	5.784900
343.000000	5.660900
342.000000	5.428300
341.000000	5.602500
340.000000	5.627000
339.000000	5.568600
338.000000	5.630600
337.000000	5.653800
336.000000	5.739600
335.000000	5.660300
334.000000	5.430700
333.000000	5.497100
332.000000	5.667700
331.000000	5.588600
330.000000	5.530400
329.000000	5.588800
328.000000	5.618900
327.000000	5.701900
326.000000	5.707400
325.000000	5.541800
324.000000	5.510200
323.000000	5.512300
322.000000	5.246900
321.000000	5.583500
320.000000	5.925100
319.000000	5.803200
318.000000	5.802900
317.000000	5.650400
316.000000	5.542700
315.000000	5.527800
314.000000	5.478000
313.000000	5.480200
312.000000	5.491300
311.000000	5.523500
310.000000	5.524100
309.000000	5.530800
308.000000	5.549200
307.000000	5.520100
306.000000	5.513300
305.000000	5.485500
304.000000	5.524000
303.000000	5.565700
302.000000	5.530800
301.000000	5.526000
300.000000	5.514200
299.000000	5.519200
298.000000	5.561100
297.000000	5.561800
296.000000	5.568000
295.000000	5.599500
294.000000	5.590000
293.000000	5.596900
292.000000	5.586700
291.000000	5.591200
290.000000	5.576800
289.000000	5.585600
288.000000	5.577400
287.000000	5.589000
286.000000	5.607600
285.000000	5.619800
284.000000	5.653700
283.000000	5.638700
282.000000	5.623500
281.000000	5.618900
280.000000	5.644900
279.000000	5.647200
278.000000	5.679000
277.000000	5.689200
276.000000	5.684600
275.000000	5.706200
274.000000	5.718200
273.000000	5.725000
272.000000	5.740900
271.000000	5.741300
270.000000	5.769200
269.000000	5.795000
268.000000	5.805600
267.000000	5.799000
266.000000	5.828300
265.000000	5.872700
264.000000	5.918500
263.000000	5.935100
262.000000	5.932100
261.000000	5.967100
260.000000	5.999900
259.000000	5.963800
258.000000	6.005600
257.000000	6.011900
256.000000	6.025900
255.000000	6.059800
254.000000	6.084400
253.000000	6.047700
252.000000	6.075700
251.000000	6.108500
250.000000	6.086800
