PE UV       SUBTECH     SPECTRUM    ASCII       PEDS        4.00        
   -1
CICIMAUCR0261-2.Sample.ASC
24/07/01
11:49:43.00
24/07/01
11:49:43.00
Vinicio Soto Monge
C. resplendens. Sex M. Dorsal.
250,000000
1
Lambda 1050
1050L1511233
PerkinElmer UV WinLab 6.3.2.0749 / 2.02.05 Lambda 900 UV/VIS/NIR, Aug  7 2015 09:38:08

0
0
3350/servo 860,8/2
0
0
UV/VIS
1
1
1
DoubleDePol,CommonBeamDepol,RBeamAtt,SBeamAtt,60mm sphere, WB InGaAs Detector
0
0
0
0
Program
Program
3350/servo 860,8/2
3350/0,2 860,8/0,2
3350/0,2 860,8/0,2
0
15.00
 
 
 
0
 
860,8
319,2
860,8
Front
100
on
S:100 R:100
0
0
0
0
 
0
 
 
 
0
 
 
0
0
0
0
0
 
 
 
 
0
0


0
0
#HDR
-1
-1
#GR
nm
%R
1.0
0.0
2500,000000
-1,000000
2251
8
91,641800
5,581900
#DATA
2482.000000	9.405285
2481.000000	9.440359
2480.000000	9.399190
2479.000000	9.428062
2478.000000	9.348182
2477.000000	9.418652
2476.000000	9.415764
2475.000000	9.428276
2474.000000	9.413305
2473.000000	9.433302
2472.000000	9.412984
2471.000000	9.415337
2470.000000	9.396195
2469.000000	9.428810
2468.000000	9.431698
2467.000000	9.415764
2466.000000	9.492757
2465.000000	9.450518
2464.000000	9.493612
2463.000000	9.523982
2462.000000	9.553389
2461.000000	9.549646
2460.000000	9.573599
2459.000000	9.593168
2458.000000	9.700102
2457.000000	9.732503
2456.000000	9.738278
2455.000000	9.791638
2454.000000	9.850452
2453.000000	9.897823
2452.000000	9.958562
2451.000000	10.028925
2450.000000	10.070522
2449.000000	10.115221
2448.000000	10.186546
2447.000000	10.242900
2446.000000	10.317112
2445.000000	10.386085
2444.000000	10.438803
2443.000000	10.496975
2442.000000	10.564237
2441.000000	10.631926
2440.000000	10.700043
2439.000000	10.756932
2438.000000	10.820772
2437.000000	10.882901
2436.000000	10.947489
2435.000000	11.001598
2434.000000	11.052926
2433.000000	11.091743
2432.000000	11.161571
2431.000000	11.220064
2430.000000	11.286363
2429.000000	11.332666
2428.000000	11.374049
2427.000000	11.426340
2426.000000	11.466013
2425.000000	11.524078
2424.000000	11.583105
2423.000000	11.616790
2422.000000	11.656997
2421.000000	11.698380
2420.000000	11.729071
2419.000000	11.764573
2418.000000	11.809592
2417.000000	11.838785
2416.000000	11.869903
2415.000000	11.932887
2414.000000	11.972132
2413.000000	12.010628
2412.000000	12.044740
2411.000000	12.072971
2410.000000	12.102164
2409.000000	12.127935
2408.000000	12.168142
2407.000000	12.199260
2406.000000	12.227811
2405.000000	12.269516
2404.000000	12.300847
2403.000000	12.357202
2402.000000	12.404787
2401.000000	12.425960
2400.000000	12.449807
2399.000000	12.480817
2398.000000	12.521559
2397.000000	12.540701
2396.000000	12.578983
2395.000000	12.613309
2394.000000	12.654372
2393.000000	12.688911
2392.000000	12.718425
2391.000000	12.750398
2390.000000	12.768898
2389.000000	12.797129
2388.000000	12.814987
2387.000000	12.834876
2386.000000	12.852734
2385.000000	12.865139
2384.000000	12.882355
2383.000000	12.897112
2382.000000	12.909410
2381.000000	12.930262
2380.000000	12.943094
2379.000000	12.946088
2378.000000	12.938923
2377.000000	12.936892
2376.000000	12.940100
2375.000000	12.935822
2374.000000	12.954429
2373.000000	12.968330
2372.000000	12.955819
2371.000000	12.950365
2370.000000	12.938709
2369.000000	12.930476
2368.000000	12.926840
2367.000000	12.914222
2366.000000	12.895936
2365.000000	12.874442
2364.000000	12.850275
2363.000000	12.828033
2362.000000	12.810602
2361.000000	12.797022
2360.000000	12.766546
2359.000000	12.726231
2358.000000	12.697145
2357.000000	12.665920
2356.000000	12.651698
2355.000000	12.646352
2354.000000	12.625820
2353.000000	12.605717
2352.000000	12.601118
2351.000000	12.593098
2350.000000	12.589783
2349.000000	12.608390
2348.000000	12.627103
2347.000000	12.639935
2346.000000	12.663461
2345.000000	12.688163
2344.000000	12.720136
2343.000000	12.747725
2342.000000	12.783334
2341.000000	12.805683
2340.000000	12.831561
2339.000000	12.856905
2338.000000	12.869630
2337.000000	12.874014
2336.000000	12.901603
2335.000000	12.922883
2334.000000	12.923311
2333.000000	12.917323
2332.000000	12.906095
2331.000000	12.877329
2330.000000	12.860434
2329.000000	12.841292
2328.000000	12.824932
2327.000000	12.779591
2326.000000	12.741095
2325.000000	12.710405
2324.000000	12.664103
2323.000000	12.613202
2322.000000	12.551822
2321.000000	12.480711
2320.000000	12.412059
2319.000000	12.358378
2318.000000	12.274542
2317.000000	12.201399
2316.000000	12.123230
2315.000000	12.032763
2314.000000	11.947751
2313.000000	11.863701
2312.000000	11.784035
2311.000000	11.706828
2310.000000	11.632937
2309.000000	11.577331
2308.000000	11.514668
2307.000000	11.475209
2306.000000	11.444412
2305.000000	11.421528
2304.000000	11.415754
2303.000000	11.428586
2302.000000	11.440135
2301.000000	11.461949
2300.000000	11.522046
2299.000000	11.574016
2298.000000	11.613796
2297.000000	11.670578
2296.000000	11.733562
2295.000000	11.798257
2294.000000	11.845415
2293.000000	11.921231
2292.000000	11.951921
2291.000000	11.999935
2290.000000	12.039714
2289.000000	12.074682
2288.000000	12.094892
2287.000000	12.103982
2286.000000	12.110718
2285.000000	12.101522
2284.000000	12.088904
2283.000000	12.064737
2282.000000	12.048911
2281.000000	11.997582
2280.000000	11.983360
2279.000000	11.944757
2278.000000	11.910217
2277.000000	11.867336
2276.000000	11.825097
2275.000000	11.783286
2274.000000	11.751741
2273.000000	11.708432
2272.000000	11.688649
2271.000000	11.676245
2270.000000	11.676780
2269.000000	11.687687
2268.000000	11.703299
2267.000000	11.731744
2266.000000	11.785639
2265.000000	11.844666
2264.000000	11.909361
2263.000000	12.036292
2262.000000	12.148252
2261.000000	12.293469
2260.000000	12.441252
2259.000000	12.578128
2258.000000	12.736604
2257.000000	12.906950
2256.000000	13.087455
2255.000000	13.275017
2254.000000	13.453170
2253.000000	13.625654
2252.000000	13.783275
2251.000000	13.956829
2250.000000	14.121080
2249.000000	14.276349
2248.000000	14.404776
2247.000000	14.570524
2246.000000	14.675106
2245.000000	14.793268
2244.000000	14.914211
2243.000000	15.008847
2242.000000	15.135137
2241.000000	15.212985
2240.000000	15.283561
2239.000000	15.353817
2238.000000	15.431130
2237.000000	15.447812
2236.000000	15.526836
2235.000000	15.545015
2234.000000	15.590997
2233.000000	15.630028
2232.000000	15.653019
2231.000000	15.692156
2230.000000	15.686061
2229.000000	15.710977
2228.000000	15.724558
2227.000000	15.709694
2226.000000	15.703492
2225.000000	15.688628
2224.000000	15.675689
2223.000000	15.669914
2222.000000	15.643715
2221.000000	15.644678
2220.000000	15.609710
2219.000000	15.582228
2218.000000	15.536781
2217.000000	15.511866
2216.000000	15.489089
2215.000000	15.450165
2214.000000	15.418619
2213.000000	15.414662
2212.000000	15.354138
2211.000000	15.314786
2210.000000	15.295431
2209.000000	15.278108
2208.000000	15.252123
2207.000000	15.231805
2206.000000	15.214803
2205.000000	15.201008
2204.000000	15.197693
2203.000000	15.165613
2202.000000	15.148610
2201.000000	15.141018
2200.000000	15.114177
2199.000000	15.100811
2198.000000	15.077392
2197.000000	15.069800
2196.000000	15.061673
2195.000000	15.069800
2194.000000	15.043280
2193.000000	15.021786
2192.000000	15.040500
2191.000000	15.016867
2190.000000	15.017937
2189.000000	14.991738
2188.000000	15.000827
2187.000000	14.996871
2186.000000	14.988316
2185.000000	14.981151
2184.000000	14.960192
2183.000000	14.952172
2182.000000	14.958588
2181.000000	14.951103
2180.000000	14.940196
2179.000000	14.929181
2178.000000	14.910468
2177.000000	14.906191
2176.000000	14.921268
2175.000000	14.913034
2174.000000	14.928326
2173.000000	14.923514
2172.000000	14.919557
2171.000000	14.921482
2170.000000	14.930358
2169.000000	14.967464
2168.000000	14.960192
2167.000000	14.961155
2166.000000	14.985857
2165.000000	14.994732
2164.000000	15.034725
2163.000000	15.034405
2162.000000	15.067554
2161.000000	15.084343
2160.000000	15.108189
2159.000000	15.155454
2158.000000	15.175772
2157.000000	15.221325
2156.000000	15.271798
2155.000000	15.300136
2154.000000	15.329650
2153.000000	15.401937
2152.000000	15.440113
2151.000000	15.478716
2150.000000	15.528226
2149.000000	15.573032
2148.000000	15.612170
2147.000000	15.647565
2146.000000	15.702636
2145.000000	15.738031
2144.000000	15.770539
2143.000000	15.819194
2142.000000	15.859401
2141.000000	15.894904
2140.000000	15.924952
2139.000000	15.962593
2138.000000	15.996705
2137.000000	16.026753
2136.000000	16.063432
2135.000000	16.099255
2134.000000	16.137216
2133.000000	16.143205
2132.000000	16.178065
2131.000000	16.202339
2130.000000	16.203409
2129.000000	16.227255
2128.000000	16.249497
2127.000000	16.254202
2126.000000	16.259335
2125.000000	16.246396
2124.000000	16.251315
2123.000000	16.261581
2122.000000	16.265751
2121.000000	16.252812
2120.000000	16.253454
2119.000000	16.255379
2118.000000	16.248856
2117.000000	16.227469
2116.000000	16.208648
2115.000000	16.197955
2114.000000	16.188866
2113.000000	16.163201
2112.000000	16.135398
2111.000000	16.130373
2110.000000	16.104067
2109.000000	16.068565
2108.000000	16.067068
2107.000000	16.049744
2106.000000	16.023866
2105.000000	15.994673
2104.000000	15.972966
2103.000000	15.958102
2102.000000	15.921744
2101.000000	15.892658
2100.000000	15.870202
2099.000000	15.849670
2098.000000	15.827321
2097.000000	15.800909
2096.000000	15.769898
2095.000000	15.733647
2094.000000	15.723595
2093.000000	15.708624
2092.000000	15.694509
2091.000000	15.683495
2090.000000	15.662857
2089.000000	15.632166
2088.000000	15.607465
2087.000000	15.590569
2086.000000	15.565333
2085.000000	15.533252
2084.000000	15.500210
2083.000000	15.483100
2082.000000	15.460109
2081.000000	15.413807
2080.000000	15.377022
2079.000000	15.341413
2078.000000	15.302061
2077.000000	15.269232
2076.000000	15.213626
2075.000000	15.165720
2074.000000	15.133640
2073.000000	15.092470
2072.000000	15.032801
2071.000000	14.972917
2070.000000	14.923407
2069.000000	14.874752
2068.000000	14.811554
2067.000000	14.761723
2066.000000	14.718521
2065.000000	14.674999
2064.000000	14.620249
2063.000000	14.558334
2062.000000	14.506150
2061.000000	14.455035
2060.000000	14.404028
2059.000000	14.369702
2058.000000	14.324576
2057.000000	14.289181
2056.000000	14.260201
2055.000000	14.245552
2054.000000	14.236783
2053.000000	14.233147
2052.000000	14.232826
2051.000000	14.240846
2050.000000	14.261164
2049.000000	14.274958
2048.000000	14.309070
2047.000000	14.342220
2046.000000	14.400606
2045.000000	14.431617
2044.000000	14.459634
2043.000000	14.509572
2042.000000	14.554484
2041.000000	14.612015
2040.000000	14.669545
2039.000000	14.695637
2038.000000	14.730605
2037.000000	14.763113
2036.000000	14.812837
2035.000000	14.839785
2034.000000	14.853258
2033.000000	14.894214
2032.000000	14.915280
2031.000000	14.930679
2030.000000	14.950568
2029.000000	14.970672
2028.000000	14.991738
2027.000000	14.984466
2026.000000	14.996764
2025.000000	15.004035
2024.000000	15.010238
2023.000000	15.022214
2022.000000	15.004035
2021.000000	14.997940
2020.000000	15.010665
2019.000000	15.003501
2018.000000	14.990348
2017.000000	14.970137
2016.000000	14.949071
2015.000000	14.944045
2014.000000	14.926829
2013.000000	14.907260
2012.000000	14.862241
2011.000000	14.850050
2010.000000	14.828449
2009.000000	14.802037
2008.000000	14.768032
2007.000000	14.738946
2006.000000	14.710394
2005.000000	14.655109
2004.000000	14.613726
2003.000000	14.583356
2002.000000	14.536947
2001.000000	14.477706
2000.000000	14.438995
1999.000000	14.389378
1998.000000	14.325966
1997.000000	14.271643
1996.000000	14.218604
1995.000000	14.159790
1994.000000	14.097127
1993.000000	14.055102
1992.000000	13.964315
1991.000000	13.912238
1990.000000	13.841020
1989.000000	13.792472
1988.000000	13.711416
1987.000000	13.632498
1986.000000	13.581491
1985.000000	13.493805
1984.000000	13.412535
1983.000000	13.355966
1982.000000	13.290416
1981.000000	13.228929
1980.000000	13.156107
1979.000000	13.078900
1978.000000	13.004688
1977.000000	12.953787
1976.000000	12.863214
1975.000000	12.791889
1974.000000	12.732754
1973.000000	12.668594
1972.000000	12.629028
1971.000000	12.540166
1970.000000	12.472584
1969.000000	12.399227
1968.000000	12.325763
1967.000000	12.291972
1966.000000	12.216369
1965.000000	12.135527
1964.000000	12.072650
1963.000000	12.013729
1962.000000	11.959834
1961.000000	11.902197
1960.000000	11.849799
1959.000000	11.768529
1958.000000	11.717629
1957.000000	11.679667
1956.000000	11.604813
1955.000000	11.571557
1954.000000	11.488896
1953.000000	11.440135
1952.000000	11.392870
1951.000000	11.325929
1950.000000	11.292779
1949.000000	11.244873
1948.000000	11.201885
1947.000000	11.175259
1946.000000	11.118584
1945.000000	11.078804
1944.000000	11.075382
1943.000000	11.022771
1942.000000	11.009083
1941.000000	10.973046
1940.000000	10.955188
1939.000000	10.940004
1938.000000	10.939362
1937.000000	10.927171
1936.000000	10.929845
1935.000000	10.946633
1934.000000	10.935405
1933.000000	10.964491
1932.000000	10.973688
1931.000000	11.006089
1930.000000	11.060946
1929.000000	11.104254
1928.000000	11.155583
1927.000000	11.187021
1926.000000	11.265725
1925.000000	11.323897
1924.000000	11.407733
1923.000000	11.454571
1922.000000	11.543754
1921.000000	11.640957
1920.000000	11.779223
1919.000000	11.894818
1918.000000	11.989776
1917.000000	12.107297
1916.000000	12.239788
1915.000000	12.355170
1914.000000	12.487661
1913.000000	12.660574
1912.000000	12.863642
1911.000000	12.997844
1910.000000	13.156748
1909.000000	13.319074
1908.000000	13.488458
1907.000000	13.649928
1906.000000	13.880158
1905.000000	14.116054
1904.000000	14.401996
1903.000000	14.639176
1902.000000	14.881810
1901.000000	15.144654
1900.000000	15.394452
1899.000000	15.679217
1898.000000	15.973500
1897.000000	16.307455
1896.000000	16.593397
1895.000000	16.878912
1894.000000	17.154267
1893.000000	17.457532
1892.000000	17.817259
1891.000000	18.248203
1890.000000	18.654981
1889.000000	19.022406
1888.000000	19.419560
1887.000000	19.817675
1886.000000	20.206595
1885.000000	20.640747
1884.000000	21.077253
1883.000000	21.558884
1882.000000	22.025651
1881.000000	22.430825
1880.000000	22.841452
1879.000000	23.251865
1878.000000	23.649660
1877.000000	24.053550
1876.000000	24.436268
1875.000000	24.820375
1874.000000	25.197852
1873.000000	25.581318
1872.000000	25.923508
1871.000000	26.241423
1870.000000	26.540731
1869.000000	26.835014
1868.000000	27.083529
1867.000000	27.264141
1866.000000	27.417057
1865.000000	27.560455
1864.000000	27.694444
1863.000000	27.818701
1862.000000	27.935473
1861.000000	28.098120
1860.000000	28.261195
1859.000000	28.402562
1858.000000	28.513880
1857.000000	28.623701
1856.000000	28.688931
1855.000000	28.757155
1854.000000	28.834255
1853.000000	28.871468
1852.000000	28.902906
1851.000000	28.952417
1850.000000	28.982786
1849.000000	29.019251
1848.000000	29.082342
1847.000000	29.119234
1846.000000	29.129607
1845.000000	29.105547
1844.000000	29.066623
1843.000000	29.064377
1842.000000	29.104477
1841.000000	29.150245
1840.000000	29.152384
1839.000000	29.153025
1838.000000	29.142653
1837.000000	29.128324
1836.000000	29.109610
1835.000000	29.083732
1834.000000	29.037536
1833.000000	28.976691
1832.000000	28.932848
1831.000000	28.900019
1830.000000	28.877884
1829.000000	28.844093
1828.000000	28.820460
1827.000000	28.784209
1826.000000	28.739832
1825.000000	28.699090
1824.000000	28.654391
1823.000000	28.626268
1822.000000	28.629904
1821.000000	28.633432
1820.000000	28.614184
1819.000000	28.603491
1818.000000	28.567026
1817.000000	28.531631
1816.000000	28.508747
1815.000000	28.497626
1814.000000	28.492921
1813.000000	28.476881
1812.000000	28.455066
1811.000000	28.439026
1810.000000	28.415608
1809.000000	28.387056
1808.000000	28.363744
1807.000000	28.334124
1806.000000	28.300653
1805.000000	28.255313
1804.000000	28.215962
1803.000000	28.194147
1802.000000	28.175754
1801.000000	28.155544
1800.000000	28.106675
1799.000000	28.046792
1798.000000	28.002307
1797.000000	27.973542
1796.000000	27.937933
1795.000000	27.903179
1794.000000	27.872489
1793.000000	27.840516
1792.000000	27.802340
1791.000000	27.754648
1790.000000	27.716793
1789.000000	27.688242
1788.000000	27.658086
1787.000000	27.625792
1786.000000	27.600449
1785.000000	27.560241
1784.000000	27.523670
1783.000000	27.484211
1782.000000	27.431493
1781.000000	27.391285
1780.000000	27.354714
1779.000000	27.303172
1778.000000	27.258366
1777.000000	27.224147
1776.000000	27.162874
1775.000000	27.103740
1774.000000	27.051235
1773.000000	26.989427
1772.000000	26.927298
1771.000000	26.854369
1770.000000	26.789353
1769.000000	26.725407
1768.000000	26.669373
1767.000000	26.613554
1766.000000	26.552280
1765.000000	26.494964
1764.000000	26.454649
1763.000000	26.421714
1762.000000	26.401503
1761.000000	26.408668
1760.000000	26.426098
1759.000000	26.439358
1758.000000	26.474860
1757.000000	26.528220
1756.000000	26.583612
1755.000000	26.631625
1754.000000	26.656969
1753.000000	26.679532
1752.000000	26.715783
1751.000000	26.731288
1750.000000	26.718135
1749.000000	26.730326
1748.000000	26.715248
1747.000000	26.703699
1746.000000	26.663599
1745.000000	26.626599
1744.000000	26.584360
1743.000000	26.515174
1742.000000	26.441069
1741.000000	26.337877
1740.000000	26.244417
1739.000000	26.143685
1738.000000	26.007665
1737.000000	25.890786
1736.000000	25.783531
1735.000000	25.687718
1734.000000	25.625161
1733.000000	25.581532
1732.000000	25.560359
1731.000000	25.538865
1730.000000	25.550521
1729.000000	25.581960
1728.000000	25.611901
1727.000000	25.673709
1726.000000	25.731347
1725.000000	25.782034
1724.000000	25.833790
1723.000000	25.885760
1722.000000	25.935698
1721.000000	26.002746
1720.000000	26.045626
1719.000000	26.099521
1718.000000	26.157800
1717.000000	26.241316
1716.000000	26.302910
1715.000000	26.374556
1714.000000	26.448875
1713.000000	26.534957
1712.000000	26.609383
1711.000000	26.681029
1710.000000	26.733320
1709.000000	26.796946
1708.000000	26.821861
1707.000000	26.840254
1706.000000	26.850733
1705.000000	26.828705
1704.000000	26.824535
1703.000000	26.800260
1702.000000	26.752675
1701.000000	26.701560
1700.000000	26.654723
1699.000000	26.587248
1698.000000	26.498065
1697.000000	26.420965
1696.000000	26.363221
1695.000000	26.306653
1694.000000	26.267729
1693.000000	26.292644
1692.000000	26.329430
1691.000000	26.383431
1690.000000	26.453152
1689.000000	26.532284
1688.000000	26.608848
1687.000000	26.681777
1686.000000	26.744762
1685.000000	26.813627
1684.000000	26.876825
1683.000000	26.980445
1682.000000	27.097217
1681.000000	27.282854
1680.000000	27.492766
1679.000000	27.763844
1678.000000	28.044760
1677.000000	28.365562
1676.000000	28.653643
1675.000000	28.922903
1674.000000	29.167675
1673.000000	29.396728
1672.000000	29.564508
1671.000000	29.734105
1670.000000	29.893758
1669.000000	30.007964
1668.000000	30.129441
1667.000000	30.241294
1666.000000	30.323847
1665.000000	30.408325
1664.000000	30.477725
1663.000000	30.550548
1662.000000	30.615136
1661.000000	30.675233
1660.000000	30.724529
1659.000000	30.754792
1658.000000	30.785375
1657.000000	30.833816
1656.000000	30.826438
1655.000000	30.838521
1654.000000	30.861726
1653.000000	30.874986
1652.000000	30.843868
1651.000000	30.839377
1650.000000	30.839377
1649.000000	30.792219
1648.000000	30.775965
1647.000000	30.751584
1646.000000	30.740249
1645.000000	30.680793
1644.000000	30.643901
1643.000000	30.601127
1642.000000	30.585729
1641.000000	30.531406
1640.000000	30.498898
1639.000000	30.448746
1638.000000	30.395065
1637.000000	30.359563
1636.000000	30.315934
1635.000000	30.266210
1634.000000	30.233702
1633.000000	30.186116
1632.000000	30.115326
1631.000000	30.065708
1630.000000	30.005397
1629.000000	29.952465
1628.000000	29.886487
1627.000000	29.836762
1626.000000	29.755278
1625.000000	29.715392
1624.000000	29.650376
1623.000000	29.592845
1622.000000	29.554135
1621.000000	29.488905
1620.000000	29.447308
1619.000000	29.363686
1618.000000	29.338556
1617.000000	29.273112
1616.000000	29.228628
1615.000000	29.173664
1614.000000	29.127682
1613.000000	29.089293
1612.000000	29.029623
1611.000000	28.972093
1610.000000	28.921620
1609.000000	28.873179
1608.000000	28.832437
1607.000000	28.773302
1606.000000	28.711708
1605.000000	28.685616
1604.000000	28.604881
1603.000000	28.565636
1602.000000	28.523076
1601.000000	28.464156
1600.000000	28.394542
1599.000000	28.344924
1598.000000	28.295414
1597.000000	28.230291
1596.000000	28.208904
1595.000000	28.172653
1594.000000	28.120149
1593.000000	28.055560
1592.000000	28.007547
1591.000000	27.979102
1590.000000	27.937291
1589.000000	27.876232
1588.000000	27.844472
1587.000000	27.810146
1586.000000	27.757321
1585.000000	27.697652
1584.000000	27.691557
1583.000000	27.669742
1582.000000	27.621087
1581.000000	27.577779
1580.000000	27.551045
1579.000000	27.537251
1578.000000	27.496402
1577.000000	27.482286
1576.000000	27.449351
1575.000000	27.414811
1574.000000	27.393210
1573.000000	27.376315
1572.000000	27.360168
1571.000000	27.352148
1570.000000	27.345197
1569.000000	27.340492
1568.000000	27.333220
1567.000000	27.304027
1566.000000	27.300819
1565.000000	27.297932
1564.000000	27.288843
1563.000000	27.291944
1562.000000	27.269274
1561.000000	27.230991
1560.000000	27.231740
1559.000000	27.208856
1558.000000	27.176989
1557.000000	27.164799
1556.000000	27.127693
1555.000000	27.096682
1554.000000	27.064602
1553.000000	27.025678
1552.000000	26.997661
1551.000000	26.958309
1550.000000	26.911044
1549.000000	26.858647
1548.000000	26.823572
1547.000000	26.788712
1546.000000	26.735993
1545.000000	26.694075
1544.000000	26.661567
1543.000000	26.616227
1542.000000	26.577196
1541.000000	26.535492
1540.000000	26.499241
1539.000000	26.471973
1538.000000	26.446095
1537.000000	26.388243
1536.000000	26.349533
1535.000000	26.317132
1534.000000	26.269867
1533.000000	26.227414
1532.000000	26.174161
1531.000000	26.135023
1530.000000	26.097596
1529.000000	26.059314
1528.000000	26.007985
1527.000000	25.958475
1526.000000	25.910462
1525.000000	25.854000
1524.000000	25.795721
1523.000000	25.739474
1522.000000	25.691354
1521.000000	25.647404
1520.000000	25.596824
1519.000000	25.526568
1518.000000	25.465509
1517.000000	25.408192
1516.000000	25.341893
1515.000000	25.288319
1514.000000	25.230467
1513.000000	25.170370
1512.000000	25.107921
1511.000000	25.049000
1510.000000	24.993822
1509.000000	24.924101
1508.000000	24.853418
1507.000000	24.798988
1506.000000	24.752365
1505.000000	24.690129
1504.000000	24.623616
1503.000000	24.574747
1502.000000	24.512084
1501.000000	24.444715
1500.000000	24.393815
1499.000000	24.338744
1498.000000	24.286346
1497.000000	24.238867
1496.000000	24.199622
1495.000000	24.160164
1494.000000	24.121240
1493.000000	24.084989
1492.000000	24.049059
1491.000000	24.018262
1490.000000	23.988534
1489.000000	23.970463
1488.000000	23.940093
1487.000000	23.904377
1486.000000	23.865132
1485.000000	23.829630
1484.000000	23.802148
1483.000000	23.781617
1482.000000	23.765256
1481.000000	23.759054
1480.000000	23.722803
1479.000000	23.690081
1478.000000	23.681740
1477.000000	23.675324
1476.000000	23.669336
1475.000000	23.683237
1474.000000	23.671582
1473.000000	23.673399
1472.000000	23.696070
1471.000000	23.686018
1470.000000	23.679709
1469.000000	23.674790
1468.000000	23.672544
1467.000000	23.687194
1466.000000	23.701416
1465.000000	23.710826
1464.000000	23.719274
1463.000000	23.737560
1462.000000	23.749323
1461.000000	23.776591
1460.000000	23.814125
1459.000000	23.843318
1458.000000	23.863101
1457.000000	23.898924
1456.000000	23.942125
1455.000000	23.998693
1454.000000	24.039435
1453.000000	24.085844
1452.000000	24.142306
1451.000000	24.223789
1450.000000	24.284635
1449.000000	24.334680
1448.000000	24.375101
1447.000000	24.424184
1446.000000	24.502888
1445.000000	24.572929
1444.000000	24.637731
1443.000000	24.688632
1442.000000	24.764128
1441.000000	24.841120
1440.000000	24.908596
1439.000000	25.012536
1438.000000	25.099045
1437.000000	25.180422
1436.000000	25.262975
1435.000000	25.347346
1434.000000	25.453104
1433.000000	25.541753
1432.000000	25.652536
1431.000000	25.764817
1430.000000	25.876350
1429.000000	25.989593
1428.000000	26.118128
1427.000000	26.253079
1426.000000	26.386532
1425.000000	26.550569
1424.000000	26.728722
1423.000000	26.926550
1422.000000	27.073798
1421.000000	27.254731
1420.000000	27.439299
1419.000000	27.647927
1418.000000	27.872917
1417.000000	28.078765
1416.000000	28.269322
1415.000000	28.522542
1414.000000	28.786669
1413.000000	29.057747
1412.000000	29.288511
1411.000000	29.503555
1410.000000	29.810136
1409.000000	30.155426
1408.000000	30.460616
1407.000000	30.790615
1406.000000	31.128527
1405.000000	31.456600
1404.000000	31.823919
1403.000000	32.140765
1402.000000	32.497818
1401.000000	32.849952
1400.000000	33.297044
1399.000000	33.685215
1398.000000	33.973295
1397.000000	34.254960
1396.000000	34.624310
1395.000000	35.045310
1394.000000	35.398086
1393.000000	35.679964
1392.000000	35.981839
1391.000000	36.379206
1390.000000	36.751765
1389.000000	37.076310
1388.000000	37.515061
1387.000000	37.951031
1386.000000	38.375453
1385.000000	38.812706
1384.000000	39.314548
1383.000000	39.755545
1382.000000	40.225199
1381.000000	40.650263
1380.000000	40.983362
1379.000000	41.233802
1378.000000	41.459754
1377.000000	41.630421
1376.000000	41.830815
1375.000000	42.030675
1374.000000	42.194498
1373.000000	42.415531
1372.000000	42.655598
1371.000000	42.932986
1370.000000	43.170593
1369.000000	43.392161
1368.000000	43.625277
1367.000000	43.829628
1366.000000	43.998584
1365.000000	44.173849
1364.000000	44.339169
1363.000000	44.477863
1362.000000	44.662538
1361.000000	44.794281
1360.000000	44.905172
1359.000000	44.970081
1358.000000	45.010181
1357.000000	45.091130
1356.000000	45.188120
1355.000000	45.362422
1354.000000	45.555118
1353.000000	45.762356
1352.000000	45.957618
1351.000000	46.271362
1350.000000	46.558053
1349.000000	46.843460
1348.000000	47.091119
1347.000000	47.352787
1346.000000	47.612851
1345.000000	47.838589
1344.000000	48.090633
1343.000000	48.318723
1342.000000	48.524572
1341.000000	48.760682
1340.000000	48.971235
1339.000000	49.189916
1338.000000	49.432656
1337.000000	49.655828
1336.000000	49.866381
1335.000000	50.105913
1334.000000	50.281713
1333.000000	50.499752
1332.000000	50.686138
1331.000000	50.868995
1330.000000	51.077196
1329.000000	51.250857
1328.000000	51.444087
1327.000000	51.605665
1326.000000	51.775048
1325.000000	51.945074
1324.000000	52.104406
1323.000000	52.265234
1322.000000	52.417936
1321.000000	52.541552
1320.000000	52.678749
1319.000000	52.809529
1318.000000	52.954104
1317.000000	53.076437
1316.000000	53.210104
1315.000000	53.315328
1314.000000	53.431244
1313.000000	53.540852
1312.000000	53.642653
1311.000000	53.727452
1310.000000	53.839198
1309.000000	53.911379
1308.000000	54.009437
1307.000000	54.091135
1306.000000	54.159252
1305.000000	54.219990
1304.000000	54.285969
1303.000000	54.349915
1302.000000	54.405200
1301.000000	54.441023
1300.000000	54.489144
1299.000000	54.528495
1298.000000	54.549241
1297.000000	54.587309
1296.000000	54.622918
1295.000000	54.651577
1294.000000	54.665906
1293.000000	54.694029
1292.000000	54.701729
1291.000000	54.705364
1290.000000	54.721298
1289.000000	54.702691
1288.000000	54.696168
1287.000000	54.691891
1286.000000	54.677562
1285.000000	54.650293
1284.000000	54.619496
1283.000000	54.597896
1282.000000	54.572552
1281.000000	54.529351
1280.000000	54.487112
1279.000000	54.459202
1278.000000	54.411616
1277.000000	54.375793
1276.000000	54.345959
1275.000000	54.311098
1274.000000	54.284365
1273.000000	54.256027
1272.000000	54.218386
1271.000000	54.181815
1270.000000	54.148345
1269.000000	54.128455
1268.000000	54.106961
1267.000000	54.084291
1266.000000	54.047078
1265.000000	54.022055
1264.000000	53.992969
1263.000000	53.958430
1262.000000	53.921858
1261.000000	53.883576
1260.000000	53.856949
1259.000000	53.827007
1258.000000	53.787977
1257.000000	53.737504
1256.000000	53.716117
1255.000000	53.698259
1254.000000	53.648427
1253.000000	53.593677
1252.000000	53.552187
1251.000000	53.504601
1250.000000	53.454556
1249.000000	53.413386
1248.000000	53.357994
1247.000000	53.301212
1246.000000	53.248601
1245.000000	53.184547
1244.000000	53.112153
1243.000000	53.038796
1242.000000	52.960841
1241.000000	52.887912
1240.000000	52.801723
1239.000000	52.722164
1238.000000	52.646562
1237.000000	52.565826
1236.000000	52.488192
1235.000000	52.398902
1234.000000	52.308650
1233.000000	52.227487
1232.000000	52.127396
1231.000000	52.021211
1230.000000	51.918554
1229.000000	51.816967
1228.000000	51.719550
1227.000000	51.619566
1226.000000	51.510707
1225.000000	51.393507
1224.000000	51.272030
1223.000000	51.154296
1222.000000	51.031215
1221.000000	50.912625
1220.000000	50.797136
1219.000000	50.682395
1218.000000	50.565730
1217.000000	50.458368
1216.000000	50.344590
1215.000000	50.223755
1214.000000	50.115538
1213.000000	50.012881
1212.000000	49.906161
1211.000000	49.797515
1210.000000	49.701382
1209.000000	49.588673
1208.000000	49.492967
1207.000000	49.399827
1206.000000	49.311393
1205.000000	49.228519
1204.000000	49.161899
1203.000000	49.107683
1202.000000	49.045662
1201.000000	48.992729
1200.000000	48.933488
1199.000000	48.864408
1198.000000	48.797895
1197.000000	48.721437
1196.000000	48.628511
1195.000000	48.517193
1194.000000	48.385771
1193.000000	48.228899
1192.000000	48.034385
1191.000000	47.822549
1190.000000	47.581840
1189.000000	47.347975
1188.000000	47.135604
1187.000000	46.965900
1186.000000	46.861853
1185.000000	46.802611
1184.000000	46.811273
1183.000000	46.893077
1182.000000	47.033054
1181.000000	47.236550
1180.000000	47.482391
1179.000000	47.742134
1178.000000	48.005513
1177.000000	48.240661
1176.000000	48.470463
1175.000000	48.669681
1174.000000	48.836285
1173.000000	48.997862
1172.000000	49.170240
1171.000000	49.353204
1170.000000	49.541729
1169.000000	49.715176
1168.000000	49.899210
1167.000000	50.085061
1166.000000	50.266956
1165.000000	50.470773
1164.000000	50.670740
1163.000000	50.873594
1162.000000	51.074095
1161.000000	51.287750
1160.000000	51.505788
1159.000000	51.700301
1158.000000	51.882517
1157.000000	52.092536
1156.000000	52.266732
1155.000000	52.424887
1154.000000	52.584540
1153.000000	52.709118
1152.000000	52.819474
1151.000000	52.914432
1150.000000	52.998803
1149.000000	53.073122
1148.000000	53.135678
1147.000000	53.223899
1146.000000	53.301640
1145.000000	53.413707
1144.000000	53.540424
1143.000000	53.680829
1142.000000	53.856094
1141.000000	54.039165
1140.000000	54.238811
1139.000000	54.429795
1138.000000	54.649438
1137.000000	54.877742
1136.000000	55.138341
1135.000000	55.377446
1134.000000	55.645850
1133.000000	55.875652
1132.000000	56.030920
1131.000000	56.213457
1130.000000	56.373965
1129.000000	56.540568
1128.000000	56.660655
1127.000000	56.784378
1126.000000	56.850677
1125.000000	56.917297
1124.000000	56.949698
1123.000000	57.001989
1122.000000	57.034925
1121.000000	57.056098
1120.000000	57.057060
1119.000000	57.049040
1118.000000	57.058771
1117.000000	57.052676
1116.000000	57.034711
1115.000000	57.005732
1114.000000	56.976539
1113.000000	56.953548
1112.000000	56.918687
1111.000000	56.899439
1110.000000	56.880298
1109.000000	56.851533
1108.000000	56.812502
1107.000000	56.793681
1106.000000	56.762029
1105.000000	56.721501
1104.000000	56.691131
1103.000000	56.648999
1102.000000	56.619806
1101.000000	56.577674
1100.000000	56.538857
1099.000000	56.504317
1098.000000	56.476408
1097.000000	56.434810
1096.000000	56.362416
1095.000000	56.333009
1094.000000	56.293123
1093.000000	56.254092
1092.000000	56.181376
1091.000000	56.142559
1090.000000	56.084708
1089.000000	56.018302
1088.000000	55.963445
1087.000000	55.881319
1086.000000	55.845068
1085.000000	55.796093
1084.000000	55.743695
1083.000000	55.663922
1082.000000	55.632590
1081.000000	55.573884
1080.000000	55.514107
1079.000000	55.468767
1078.000000	55.396694
1077.000000	55.351567
1076.000000	55.299063
1075.000000	55.244313
1074.000000	55.172132
1073.000000	55.125402
1072.000000	55.089365
1071.000000	55.018895
1070.000000	54.957515
1069.000000	54.925114
1068.000000	54.873144
1067.000000	54.822992
1066.000000	54.759045
1065.000000	54.715523
1064.000000	54.650721
1063.000000	54.601745
1062.000000	54.544642
1061.000000	54.478236
1060.000000	54.420064
1059.000000	54.388626
1058.000000	54.316445
1057.000000	54.249718
1056.000000	54.168769
1055.000000	54.123750
1054.000000	54.073063
1053.000000	53.997995
1052.000000	53.940785
1051.000000	53.871706
1050.000000	53.798456
1049.000000	53.745310
1048.000000	53.650352
1047.000000	53.628324
1046.000000	53.556250
1045.000000	53.493587
1044.000000	53.402051
1043.000000	53.348263
1042.000000	53.276938
1041.000000	53.211067
1040.000000	53.134716
1039.000000	53.074405
1038.000000	53.003187
1037.000000	52.946833
1036.000000	52.887698
1035.000000	52.807818
1034.000000	52.726228
1033.000000	52.673830
1032.000000	52.599297
1031.000000	52.532891
1030.000000	52.451086
1029.000000	52.386177
1028.000000	52.328539
1027.000000	52.250584
1026.000000	52.201502
1025.000000	52.133171
1024.000000	52.065909
1023.000000	52.006347
1022.000000	51.964429
1021.000000	51.914811
1020.000000	51.863804
1019.000000	51.819319
1018.000000	51.797505
1017.000000	51.742113
1016.000000	51.719015
1015.000000	51.697307
1014.000000	51.687790
1013.000000	51.651005
1012.000000	51.617748
1011.000000	51.624699
1010.000000	51.611867
1009.000000	51.600639
1008.000000	51.602884
1007.000000	51.589838
1006.000000	51.597538
1005.000000	51.593688
1004.000000	51.585347
1003.000000	51.591015
1002.000000	51.575188
1001.000000	51.592726
1000.000000	51.584919
999.000000	51.563533
998.000000	51.552946
997.000000	51.548669
996.000000	51.536051
995.000000	51.523539
994.000000	51.498303
993.000000	51.480017
992.000000	51.478092
991.000000	51.458737
990.000000	51.440345
989.000000	51.437885
988.000000	51.426336
987.000000	51.420455
986.000000	51.409227
985.000000	51.414466
984.000000	51.398106
983.000000	51.406553
982.000000	51.416284
981.000000	51.432431
980.000000	51.440772
979.000000	51.450396
978.000000	51.477771
977.000000	51.528993
976.000000	51.564281
975.000000	51.590694
974.000000	51.626731
973.000000	51.677524
972.000000	51.735804
971.000000	51.785528
970.000000	51.830547
969.000000	51.891714
968.000000	51.982073
967.000000	52.053826
966.000000	52.123440
965.000000	52.198721
964.000000	52.270046
963.000000	52.353455
962.000000	52.428416
961.000000	52.504981
960.000000	52.587320
959.000000	52.671156
958.000000	52.760981
957.000000	52.837760
956.000000	52.917319
955.000000	52.997626
954.000000	53.059007
953.000000	53.138245
952.000000	53.224861
951.000000	53.300892
950.000000	53.394031
949.000000	53.490379
948.000000	53.575712
947.000000	53.665430
946.000000	53.764130
945.000000	53.866359
944.000000	53.964953
943.000000	54.076378
942.000000	54.198069
941.000000	54.318798
940.000000	54.452679
939.000000	54.589020
938.000000	54.728783
937.000000	54.874748
936.000000	55.021034
935.000000	55.182077
934.000000	55.349536
933.000000	55.519989
932.000000	55.693222
931.000000	55.865814
930.000000	56.042041
929.000000	56.212494
928.000000	56.387225
927.000000	56.565591
926.000000	56.753474
925.000000	56.940823
924.000000	57.110955
923.000000	57.291032
922.000000	57.472499
921.000000	57.653966
920.000000	57.853078
919.000000	58.039357
918.000000	58.221680
917.000000	58.403788
916.000000	58.572210
915.000000	58.746512
914.000000	58.964230
913.000000	59.146232
912.000000	59.321176
911.000000	59.496548
910.000000	59.683148
909.000000	59.869535
908.000000	60.063941
907.000000	60.260593
906.000000	60.468794
905.000000	60.686511
904.000000	60.904015
903.000000	61.118953
902.000000	61.353673
901.000000	61.573637
900.000000	61.817554
899.000000	62.058262
898.000000	62.311376
897.000000	62.555613
896.000000	62.810116
895.000000	63.060342
894.000000	63.316129
893.000000	63.559083
892.000000	63.809202
891.000000	64.065095
890.000000	64.335425
889.000000	64.573888
888.000000	64.822617
887.000000	65.074340
886.000000	65.312589
885.000000	65.557896
884.000000	65.810154
883.000000	66.081766
882.000000	66.320229
881.000000	66.562970
880.000000	66.827311
879.000000	67.068341
878.000000	67.315251
877.000000	67.558420
876.000000	67.792499
875.000000	67.992038
874.000000	68.149552
873.000000	68.345348
872.000000	68.479230
871.000000	68.600921
870.000000	68.777362
869.000000	69.099127
868.000000	69.478743
867.000000	69.852585
866.000000	70.231987
865.000000	70.609357
864.000000	70.981595
863.000000	71.362708
862.000000	71.777827
861.000000	72.165784
860.000000	72.548715
859.000000	72.955599
858.000000	73.366333
857.000000	72.309600
856.000000	73.294000
855.000000	74.495400
854.000000	75.024700
853.000000	75.247600
852.000000	75.489600
851.000000	76.083500
850.000000	76.315200
849.000000	76.953700
848.000000	77.173300
847.000000	77.506100
846.000000	78.424500
845.000000	78.561200
844.000000	79.025600
843.000000	79.669500
842.000000	80.117900
841.000000	80.538800
840.000000	81.216400
839.000000	81.618200
838.000000	82.129600
837.000000	82.490900
836.000000	82.762700
835.000000	83.069400
834.000000	83.655700
833.000000	83.957800
832.000000	84.101100
831.000000	84.480100
830.000000	84.815500
829.000000	85.073200
828.000000	85.394300
827.000000	85.230100
826.000000	85.374500
825.000000	85.634800
824.000000	85.665900
823.000000	85.512800
822.000000	85.871700
821.000000	85.817000
820.000000	85.786300
819.000000	85.796300
818.000000	85.958800
817.000000	86.188800
816.000000	86.101900
815.000000	85.727800
814.000000	85.968700
813.000000	86.197800
812.000000	86.261500
811.000000	86.381500
810.000000	86.670200
809.000000	86.482200
808.000000	86.784800
807.000000	86.977700
806.000000	86.988900
805.000000	87.451400
804.000000	87.597500
803.000000	88.086900
802.000000	88.162800
801.000000	88.400000
800.000000	88.913000
799.000000	89.000000
798.000000	89.428400
797.000000	89.599500
796.000000	89.852300
795.000000	90.052100
794.000000	90.154700
793.000000	90.360900
792.000000	90.427400
791.000000	90.496700
790.000000	90.619900
789.000000	90.622000
788.000000	90.661100
787.000000	90.541100
786.000000	90.513500
785.000000	90.431700
784.000000	90.299500
783.000000	89.947200
782.000000	89.883000
781.000000	89.719100
780.000000	89.423800
779.000000	89.173400
778.000000	88.822000
777.000000	88.705300
776.000000	88.299500
775.000000	88.258900
774.000000	87.783500
773.000000	87.538100
772.000000	87.253500
771.000000	87.196000
770.000000	86.925800
769.000000	86.740100
768.000000	86.483100
767.000000	86.561800
766.000000	86.306700
765.000000	86.362000
764.000000	86.327400
763.000000	86.248700
762.000000	86.163900
761.000000	86.279100
760.000000	86.192900
759.000000	86.090800
758.000000	86.068500
757.000000	86.013800
756.000000	85.969100
755.000000	85.858200
754.000000	85.828000
753.000000	85.753700
752.000000	85.747900
751.000000	85.642200
750.000000	85.283900
749.000000	85.085900
748.000000	84.795200
747.000000	84.466800
746.000000	84.119000
745.000000	83.810200
744.000000	83.485300
743.000000	83.106600
742.000000	82.671300
741.000000	82.178800
740.000000	81.634600
739.000000	81.224700
738.000000	80.877100
737.000000	80.431300
736.000000	79.950900
735.000000	79.518900
734.000000	79.080100
733.000000	78.675800
732.000000	78.252700
731.000000	77.914000
730.000000	77.602500
729.000000	77.341500
728.000000	76.959600
727.000000	76.639600
726.000000	76.348700
725.000000	76.079600
724.000000	75.856100
723.000000	75.591500
722.000000	75.450400
721.000000	75.262500
720.000000	75.103300
719.000000	74.940000
718.000000	74.732200
717.000000	74.564400
716.000000	74.453000
715.000000	74.372300
714.000000	74.276900
713.000000	74.189000
712.000000	74.069000
711.000000	73.996800
710.000000	73.879600
709.000000	73.973800
708.000000	73.945800
707.000000	73.943800
706.000000	73.959900
705.000000	74.013800
704.000000	74.068700
703.000000	74.084600
702.000000	74.047600
701.000000	74.162800
700.000000	74.188100
699.000000	74.229000
698.000000	74.186500
697.000000	74.117100
696.000000	74.034500
695.000000	73.955400
694.000000	73.772900
693.000000	73.602000
692.000000	73.335700
691.000000	73.094600
690.000000	72.839500
689.000000	72.495200
688.000000	72.221200
687.000000	71.846900
686.000000	71.450200
685.000000	71.094900
684.000000	70.667900
683.000000	70.207000
682.000000	69.777700
681.000000	69.246700
680.000000	68.703200
679.000000	68.124900
678.000000	67.576700
677.000000	66.983600
676.000000	66.292400
675.000000	65.672400
674.000000	65.052400
673.000000	64.422100
672.000000	63.760700
671.000000	63.038800
670.000000	62.330500
669.000000	61.674800
668.000000	61.050300
667.000000	60.437400
666.000000	59.823600
665.000000	59.275700
664.000000	58.714700
663.000000	58.156300
662.000000	57.636000
661.000000	57.157500
660.000000	56.699100
659.000000	56.271600
658.000000	55.938800
657.000000	55.643100
656.000000	55.385300
655.000000	55.265400
654.000000	55.228400
653.000000	55.276700
652.000000	55.467900
651.000000	55.783000
650.000000	56.195400
649.000000	56.708500
648.000000	57.308800
647.000000	57.955700
646.000000	58.679600
645.000000	59.492500
644.000000	60.358600
643.000000	61.224700
642.000000	62.088200
641.000000	63.039300
640.000000	63.993800
639.000000	64.930800
638.000000	65.930100
637.000000	66.914300
636.000000	67.907000
635.000000	68.971900
634.000000	70.062400
633.000000	71.119900
632.000000	72.211200
631.000000	73.300200
630.000000	74.338600
629.000000	75.339900
628.000000	76.307800
627.000000	77.237500
626.000000	78.124600
625.000000	79.017800
624.000000	79.876400
623.000000	80.657400
622.000000	81.434700
621.000000	82.158400
620.000000	82.852700
619.000000	83.577400
618.000000	84.248700
617.000000	84.807100
616.000000	85.374900
615.000000	85.972300
614.000000	86.540400
613.000000	87.034900
612.000000	87.528500
611.000000	87.972100
610.000000	88.378600
609.000000	88.784400
608.000000	89.121800
607.000000	89.402100
606.000000	89.679600
605.000000	89.933900
604.000000	90.154600
603.000000	90.372700
602.000000	90.537900
601.000000	90.683500
600.000000	90.848000
599.000000	90.946300
598.000000	91.081600
597.000000	91.203400
596.000000	91.311700
595.000000	91.376700
594.000000	91.419400
593.000000	91.520100
592.000000	91.584500
591.000000	91.606200
590.000000	91.590600
589.000000	91.608000
588.000000	91.641800
587.000000	91.634100
586.000000	91.592300
585.000000	91.525300
584.000000	91.480400
583.000000	91.369100
582.000000	91.289700
581.000000	91.211500
580.000000	91.109600
579.000000	90.958300
578.000000	90.861000
577.000000	90.657600
576.000000	90.440500
575.000000	90.314600
574.000000	90.130500
573.000000	89.950400
572.000000	89.727300
571.000000	89.504700
570.000000	89.296000
569.000000	89.083500
568.000000	88.835200
567.000000	88.570600
566.000000	88.383900
565.000000	88.092600
564.000000	87.796500
563.000000	87.463700
562.000000	87.075700
561.000000	86.697600
560.000000	86.296100
559.000000	85.826100
558.000000	85.361000
557.000000	84.881300
556.000000	84.384700
555.000000	83.863700
554.000000	83.317800
553.000000	82.768900
552.000000	82.143100
551.000000	81.494100
550.000000	80.806800
549.000000	80.083600
548.000000	79.302000
547.000000	78.458800
546.000000	77.594400
545.000000	76.663800
544.000000	75.691600
543.000000	74.722600
542.000000	73.619000
541.000000	72.462300
540.000000	71.258200
539.000000	70.047900
538.000000	68.765200
537.000000	67.470400
536.000000	66.116400
535.000000	64.742600
534.000000	63.355600
533.000000	61.957900
532.000000	60.591100
531.000000	59.188200
530.000000	57.807200
529.000000	56.474500
528.000000	55.151100
527.000000	53.850800
526.000000	52.545900
525.000000	51.321100
524.000000	50.104200
523.000000	48.893800
522.000000	47.746800
521.000000	46.600300
520.000000	45.516800
519.000000	44.494800
518.000000	43.537400
517.000000	42.591100
516.000000	41.683800
515.000000	40.854100
514.000000	40.071500
513.000000	39.290200
512.000000	38.573300
511.000000	37.882200
510.000000	37.189000
509.000000	36.526900
508.000000	35.882700
507.000000	35.274500
506.000000	34.689300
505.000000	34.056100
504.000000	33.488400
503.000000	32.916200
502.000000	32.375600
501.000000	31.867600
500.000000	31.419000
499.000000	30.995000
498.000000	30.638100
497.000000	30.369100
496.000000	30.066500
495.000000	29.873800
494.000000	29.734200
493.000000	29.602900
492.000000	29.565800
491.000000	29.563900
490.000000	29.573100
489.000000	29.660900
488.000000	29.748600
487.000000	29.895000
486.000000	29.999300
485.000000	30.166100
484.000000	30.291900
483.000000	30.427700
482.000000	30.512600
481.000000	30.531100
480.000000	30.530600
479.000000	30.554600
478.000000	30.551000
477.000000	30.495000
476.000000	30.474700
475.000000	30.432000
474.000000	30.371500
473.000000	30.291200
472.000000	30.256700
471.000000	30.177500
470.000000	30.066100
469.000000	29.992800
468.000000	29.898500
467.000000	29.806400
466.000000	29.696500
465.000000	29.569400
464.000000	29.492100
463.000000	29.368300
462.000000	29.225500
461.000000	29.110800
460.000000	28.986800
459.000000	28.823700
458.000000	28.650200
457.000000	28.474400
456.000000	28.318300
455.000000	28.161700
454.000000	27.947800
453.000000	27.757400
452.000000	27.566000
451.000000	27.355400
450.000000	27.139100
449.000000	26.837600
448.000000	26.575100
447.000000	26.290500
446.000000	25.954300
445.000000	25.679900
444.000000	25.308400
443.000000	24.949600
442.000000	24.560400
441.000000	24.209500
440.000000	23.766600
439.000000	23.344100
438.000000	22.873700
437.000000	22.411600
436.000000	21.954300
435.000000	21.433300
434.000000	20.901700
433.000000	20.365500
432.000000	19.823700
431.000000	19.288600
430.000000	18.726800
429.000000	18.161100
428.000000	17.594000
427.000000	17.051400
426.000000	16.509700
425.000000	15.952800
424.000000	15.445700
423.000000	14.875200
422.000000	14.333700
421.000000	13.841500
420.000000	13.358000
419.000000	12.901300
418.000000	12.483000
417.000000	12.032700
416.000000	11.638000
415.000000	11.298200
414.000000	10.944800
413.000000	10.633900
412.000000	10.326100
411.000000	10.030600
410.000000	9.792300
409.000000	9.553800
408.000000	9.348400
407.000000	9.133800
406.000000	8.970600
405.000000	8.805900
404.000000	8.656700
403.000000	8.506400
402.000000	8.380800
401.000000	8.252400
400.000000	8.160300
399.000000	8.058000
398.000000	7.960400
397.000000	7.868200
396.000000	7.798800
395.000000	7.711500
394.000000	7.631800
393.000000	7.566300
392.000000	7.518800
391.000000	7.453300
390.000000	7.416300
389.000000	7.369500
388.000000	7.319800
387.000000	7.276200
386.000000	7.233800
385.000000	7.181500
384.000000	7.126500
383.000000	7.094500
382.000000	7.049700
381.000000	7.013500
380.000000	6.987900
379.000000	6.969700
378.000000	6.927000
377.000000	6.881200
376.000000	6.836100
375.000000	6.822900
374.000000	6.855800
373.000000	6.782100
372.000000	6.756700
371.000000	6.749700
370.000000	6.675600
369.000000	6.678600
368.000000	6.625300
367.000000	6.569600
366.000000	6.554300
365.000000	6.468800
364.000000	6.467600
363.000000	6.502000
362.000000	6.465900
361.000000	6.450800
360.000000	6.431600
359.000000	6.348600
358.000000	6.402900
357.000000	6.413700
356.000000	6.339400
355.000000	6.273900
354.000000	6.171100
353.000000	6.115400
352.000000	6.186600
351.000000	6.119600
350.000000	6.040300
349.000000	6.059600
348.000000	6.054200
347.000000	6.012500
346.000000	6.023600
345.000000	6.002600
344.000000	5.987400
343.000000	5.985600
342.000000	5.909600
341.000000	5.825300
340.000000	5.782800
339.000000	5.858500
338.000000	5.820800
337.000000	5.859900
336.000000	5.929600
335.000000	5.739800
334.000000	5.694400
333.000000	5.850200
332.000000	5.962200
331.000000	5.848400
330.000000	5.714800
329.000000	5.765200
328.000000	5.835500
327.000000	5.801600
326.000000	5.739500
325.000000	5.739900
324.000000	5.725800
323.000000	5.644900
322.000000	5.591400
321.000000	5.678900
320.000000	5.796000
319.000000	5.716500
318.000000	5.705700
317.000000	5.581900
316.000000	5.612000
315.000000	5.756000
314.000000	5.749400
313.000000	5.755800
312.000000	5.756300
311.000000	5.736200
310.000000	5.739300
309.000000	5.754800
308.000000	5.784000
307.000000	5.795300
306.000000	5.767200
305.000000	5.796400
304.000000	5.805800
303.000000	5.806100
302.000000	5.815400
301.000000	5.824900
300.000000	5.819400
299.000000	5.816900
298.000000	5.798800
297.000000	5.793400
296.000000	5.805900
295.000000	5.831800
294.000000	5.868700
293.000000	5.848300
292.000000	5.851000
291.000000	5.833600
290.000000	5.861400
289.000000	5.893300
288.000000	5.923900
287.000000	5.927800
286.000000	5.927400
285.000000	5.936800
284.000000	5.951900
283.000000	5.972000
282.000000	5.980300
281.000000	5.972700
280.000000	5.993500
279.000000	5.999000
278.000000	5.993900
277.000000	6.017700
276.000000	6.044100
275.000000	6.059000
274.000000	6.052600
273.000000	6.035900
272.000000	6.090900
271.000000	6.098500
270.000000	6.133200
269.000000	6.160100
268.000000	6.169700
267.000000	6.183000
266.000000	6.216300
265.000000	6.223900
264.000000	6.248900
263.000000	6.314900
262.000000	6.324300
261.000000	6.341200
260.000000	6.374800
259.000000	6.395100
258.000000	6.409100
257.000000	6.410200
256.000000	6.417400
255.000000	6.465000
254.000000	6.486100
253.000000	6.469800
252.000000	6.480300
251.000000	6.507100
250.000000	6.519300
