PE UV       SUBTECH     SPECTRUM    ASCII       PEDS        4.00        
   -1
CICIMAUCR0225-2.Sample.ASC
24/05/27
15:32:39.00
24/05/27
15:32:39.00
Vinicio Soto Monge
C. resplendens, F
250,000000
1
Lambda 1050
1050L1511233
PerkinElmer UV WinLab 6.3.2.0749 / 2.02.05 Lambda 900 UV/VIS/NIR, Aug  7 2015 09:38:08

0
0
3350/servo 860,8/2
0
0
UV/VIS
1
1
1
DoubleDePol,CommonBeamDepol,RBeamAtt,SBeamAtt,60mm sphere, WB InGaAs Detector
0
0
0
0
Program
Program
3350/servo 860,8/2
3350/0,2 860,8/0,2
3350/0,2 860,8/0,2
0
15.00
 
 
 
0
 
860,8
319,2
860,8
Front
100
on
S:100 R:100
0
0
0
0
 
0
 
 
 
0
 
 
0
0
0
0
0
 
 
 
 
0
0


0
0
#HDR
-1
-1
#GR
nm
%R
1.0
0.0
2500,000000
-1,000000
2251
8
76,317000
5,348100
#DATA
2482.000000	8.636984
2481.000000	8.689332
2480.000000	8.740226
2479.000000	8.677907
2478.000000	8.607382
2477.000000	8.718726
2476.000000	8.739291
2475.000000	8.722984
2474.000000	8.678218
2473.000000	8.696083
2472.000000	8.699407
2471.000000	8.711663
2470.000000	8.700238
2469.000000	8.679672
2468.000000	8.740122
2467.000000	8.732228
2466.000000	8.769619
2465.000000	8.737941
2464.000000	8.818020
2463.000000	8.824668
2462.000000	8.840767
2461.000000	8.872965
2460.000000	8.907448
2459.000000	8.938815
2458.000000	8.997810
2457.000000	9.071658
2456.000000	9.095236
2455.000000	9.127122
2454.000000	9.205852
2453.000000	9.251033
2452.000000	9.304627
2451.000000	9.379825
2450.000000	9.456997
2449.000000	9.521705
2448.000000	9.585374
2447.000000	9.652678
2446.000000	9.706272
2445.000000	9.783652
2444.000000	9.841816
2443.000000	9.914418
2442.000000	9.987954
2441.000000	10.058582
2440.000000	10.121109
2439.000000	10.197034
2438.000000	10.232763
2437.000000	10.299237
2436.000000	10.366853
2435.000000	10.419097
2434.000000	10.479962
2433.000000	10.523377
2432.000000	10.599302
2431.000000	10.638459
2430.000000	10.684991
2429.000000	10.753022
2428.000000	10.791452
2427.000000	10.832271
2426.000000	10.880880
2425.000000	10.912766
2424.000000	10.966464
2423.000000	11.002506
2422.000000	11.026810
2421.000000	11.078950
2420.000000	11.113745
2419.000000	11.139088
2418.000000	11.155291
2417.000000	11.197044
2416.000000	11.223634
2415.000000	11.259259
2414.000000	11.304960
2413.000000	11.336846
2412.000000	11.349414
2411.000000	11.372576
2410.000000	11.398542
2409.000000	11.423781
2408.000000	11.443931
2407.000000	11.472390
2406.000000	11.505419
2405.000000	11.541045
2404.000000	11.547484
2403.000000	11.555897
2402.000000	11.599936
2401.000000	11.636600
2400.000000	11.668383
2399.000000	11.704528
2398.000000	11.726547
2397.000000	11.750644
2396.000000	11.778376
2395.000000	11.796656
2394.000000	11.806419
2393.000000	11.824388
2392.000000	11.852120
2391.000000	11.868530
2390.000000	11.891900
2389.000000	11.918178
2388.000000	11.918801
2387.000000	11.924617
2386.000000	11.949857
2385.000000	11.963775
2384.000000	11.972188
2383.000000	11.964190
2382.000000	11.951518
2381.000000	11.957543
2380.000000	11.956608
2379.000000	11.960451
2378.000000	11.951415
2377.000000	11.947156
2376.000000	11.933861
2375.000000	11.914646
2374.000000	11.900729
2373.000000	11.875801
2372.000000	11.849731
2371.000000	11.834255
2370.000000	11.806315
2369.000000	11.784088
2368.000000	11.749813
2367.000000	11.705670
2366.000000	11.664644
2365.000000	11.623513
2364.000000	11.572308
2363.000000	11.510301
2362.000000	11.462938
2361.000000	11.418796
2360.000000	11.355750
2359.000000	11.299663
2358.000000	11.251885
2357.000000	11.198083
2356.000000	11.148851
2355.000000	11.116445
2354.000000	11.085182
2353.000000	11.062539
2352.000000	11.040624
2351.000000	11.030445
2350.000000	11.032315
2349.000000	11.033561
2348.000000	11.051530
2347.000000	11.087363
2346.000000	11.119353
2345.000000	11.153317
2344.000000	11.195071
2343.000000	11.221037
2342.000000	11.259156
2341.000000	11.287822
2340.000000	11.317735
2339.000000	11.349933
2338.000000	11.367071
2337.000000	11.360424
2336.000000	11.351907
2335.000000	11.368733
2334.000000	11.371433
2333.000000	11.345987
2332.000000	11.310776
2331.000000	11.284810
2330.000000	11.248977
2329.000000	11.208469
2328.000000	11.138568
2327.000000	11.080716
2326.000000	11.032315
2325.000000	10.957740
2324.000000	10.859588
2323.000000	10.767771
2322.000000	10.688418
2321.000000	10.600029
2320.000000	10.502604
2319.000000	10.389599
2318.000000	10.273582
2317.000000	10.164628
2316.000000	10.050584
2315.000000	9.915041
2314.000000	9.803178
2313.000000	9.712193
2312.000000	9.616118
2311.000000	9.521393
2310.000000	9.446922
2309.000000	9.396651
2308.000000	9.324361
2307.000000	9.273052
2306.000000	9.257888
2305.000000	9.240750
2304.000000	9.237842
2303.000000	9.268274
2302.000000	9.309924
2301.000000	9.356248
2300.000000	9.430407
2299.000000	9.501451
2298.000000	9.570313
2297.000000	9.651224
2296.000000	9.731408
2295.000000	9.802244
2294.000000	9.893541
2293.000000	9.951497
2292.000000	10.001249
2291.000000	10.071669
2290.000000	10.110618
2289.000000	10.143336
2288.000000	10.160889
2287.000000	10.165874
2286.000000	10.164109
2285.000000	10.168055
2284.000000	10.161200
2283.000000	10.125263
2282.000000	10.094104
2281.000000	10.040198
2280.000000	10.018698
2279.000000	9.993666
2278.000000	9.941942
2277.000000	9.887620
2276.000000	9.831949
2275.000000	9.834338
2274.000000	9.780951
2273.000000	9.769526
2272.000000	9.738782
2271.000000	9.777316
2270.000000	9.759243
2269.000000	9.808372
2268.000000	9.862070
2267.000000	9.909120
2266.000000	10.006234
2265.000000	10.082367
2264.000000	10.183739
2263.000000	10.326138
2262.000000	10.477157
2261.000000	10.651650
2260.000000	10.835699
2259.000000	11.008218
2258.000000	11.227269
2257.000000	11.447982
2256.000000	11.682093
2255.000000	11.878917
2254.000000	12.110847
2253.000000	12.308502
2252.000000	12.534408
2251.000000	12.741826
2250.000000	12.943531
2249.000000	13.137655
2248.000000	13.323677
2247.000000	13.488406
2246.000000	13.643892
2245.000000	13.788576
2244.000000	13.930247
2243.000000	14.065064
2242.000000	14.179627
2241.000000	14.286712
2240.000000	14.368245
2239.000000	14.463801
2238.000000	14.547308
2237.000000	14.613574
2236.000000	14.680775
2235.000000	14.769683
2234.000000	14.822550
2233.000000	14.864927
2232.000000	14.902007
2231.000000	14.956224
2230.000000	14.959756
2229.000000	15.005768
2228.000000	15.022178
2227.000000	15.025087
2226.000000	15.042224
2225.000000	15.015843
2224.000000	15.025190
2223.000000	15.015116
2222.000000	14.998289
2221.000000	14.968376
2220.000000	14.978763
2219.000000	14.943864
2218.000000	14.921326
2217.000000	14.883415
2216.000000	14.866070
2215.000000	14.822862
2214.000000	14.796376
2213.000000	14.759816
2212.000000	14.719309
2211.000000	14.711207
2210.000000	14.700405
2209.000000	14.652108
2208.000000	14.664260
2207.000000	14.635905
2206.000000	14.612639
2205.000000	14.578987
2204.000000	14.575144
2203.000000	14.566108
2202.000000	14.536195
2201.000000	14.523523
2200.000000	14.481562
2199.000000	14.512098
2198.000000	14.513968
2197.000000	14.471072
2196.000000	14.456634
2195.000000	14.456738
2194.000000	14.443755
2193.000000	14.440328
2192.000000	14.410103
2191.000000	14.412803
2190.000000	14.396808
2189.000000	14.378840
2188.000000	14.376658
2187.000000	14.347161
2186.000000	14.357651
2185.000000	14.376347
2184.000000	14.349861
2183.000000	14.338436
2182.000000	14.320468
2181.000000	14.308004
2180.000000	14.312885
2179.000000	14.321922
2178.000000	14.295332
2177.000000	14.301668
2176.000000	14.293047
2175.000000	14.297513
2174.000000	14.307277
2173.000000	14.331581
2172.000000	14.315690
2171.000000	14.329608
2170.000000	14.335943
2169.000000	14.360767
2168.000000	14.393485
2167.000000	14.415088
2166.000000	14.441886
2165.000000	14.444067
2164.000000	14.476992
2163.000000	14.523004
2162.000000	14.552605
2161.000000	14.575871
2160.000000	14.604330
2159.000000	14.654705
2158.000000	14.688045
2157.000000	14.742782
2156.000000	14.788586
2155.000000	14.830132
2154.000000	14.879053
2153.000000	14.931089
2152.000000	14.976062
2151.000000	15.015843
2150.000000	15.038381
2149.000000	15.099558
2148.000000	15.159903
2147.000000	15.208720
2146.000000	15.252135
2145.000000	15.310923
2144.000000	15.354234
2143.000000	15.393807
2142.000000	15.429017
2141.000000	15.468382
2140.000000	15.494763
2139.000000	15.534751
2138.000000	15.574324
2137.000000	15.600498
2136.000000	15.628022
2135.000000	15.657000
2134.000000	15.695846
2133.000000	15.725655
2132.000000	15.736041
2131.000000	15.759826
2130.000000	15.770836
2129.000000	15.775302
2128.000000	15.784754
2127.000000	15.797218
2126.000000	15.796075
2125.000000	15.791090
2124.000000	15.781534
2123.000000	15.785169
2122.000000	15.785273
2121.000000	15.774160
2120.000000	15.754633
2119.000000	15.738015
2118.000000	15.712464
2117.000000	15.696780
2116.000000	15.683901
2115.000000	15.663544
2114.000000	15.631761
2113.000000	15.614727
2112.000000	15.591669
2111.000000	15.564353
2110.000000	15.534128
2109.000000	15.489674
2108.000000	15.463188
2107.000000	15.433795
2106.000000	15.417384
2105.000000	15.388821
2104.000000	15.343640
2103.000000	15.317570
2102.000000	15.295654
2101.000000	15.275609
2100.000000	15.235828
2099.000000	15.202799
2098.000000	15.191374
2097.000000	15.162396
2096.000000	15.133937
2095.000000	15.114203
2094.000000	15.095507
2093.000000	15.069852
2092.000000	15.056350
2091.000000	15.041393
2090.000000	15.011896
2089.000000	14.994239
2088.000000	14.975128
2087.000000	14.969415
2086.000000	14.955393
2085.000000	14.922676
2084.000000	14.887154
2083.000000	14.875625
2082.000000	14.852152
2081.000000	14.818292
2080.000000	14.785470
2079.000000	14.753272
2078.000000	14.722217
2077.000000	14.683371
2076.000000	14.633828
2075.000000	14.585634
2074.000000	14.544919
2073.000000	14.498803
2072.000000	14.449156
2071.000000	14.411869
2070.000000	14.364299
2069.000000	14.312678
2068.000000	14.260849
2067.000000	14.195414
2066.000000	14.145144
2065.000000	14.097781
2064.000000	14.047511
2063.000000	14.001291
2062.000000	13.961095
2061.000000	13.903243
2060.000000	13.847363
2059.000000	13.828875
2058.000000	13.786395
2057.000000	13.757105
2056.000000	13.754820
2055.000000	13.746199
2054.000000	13.735397
2053.000000	13.743083
2052.000000	13.765414
2051.000000	13.791588
2050.000000	13.827525
2049.000000	13.892648
2048.000000	13.963484
2047.000000	14.031723
2046.000000	14.094354
2045.000000	14.174226
2044.000000	14.282765
2043.000000	14.369596
2042.000000	14.466190
2041.000000	14.570262
2040.000000	14.659898
2039.000000	14.753999
2038.000000	14.846543
2037.000000	14.916548
2036.000000	15.011584
2035.000000	15.099973
2034.000000	15.165200
2033.000000	15.250266
2032.000000	15.319959
2031.000000	15.366075
2030.000000	15.421954
2029.000000	15.477314
2028.000000	15.524469
2027.000000	15.571104
2026.000000	15.618155
2025.000000	15.646302
2024.000000	15.676838
2023.000000	15.711425
2022.000000	15.732095
2021.000000	15.765227
2020.000000	15.793686
2019.000000	15.818718
2018.000000	15.857979
2017.000000	15.856421
2016.000000	15.861926
2015.000000	15.879686
2014.000000	15.889242
2013.000000	15.892566
2012.000000	15.902225
2011.000000	15.899317
2010.000000	15.894435
2009.000000	15.868469
2008.000000	15.855694
2007.000000	15.822872
2006.000000	15.815913
2005.000000	15.823288
2004.000000	15.785896
2003.000000	15.741650
2002.000000	15.706024
2001.000000	15.686082
2000.000000	15.645575
1999.000000	15.592292
1998.000000	15.535063
1997.000000	15.481157
1996.000000	15.429952
1995.000000	15.372411
1994.000000	15.319128
1993.000000	15.273116
1992.000000	15.203319
1991.000000	15.136014
1990.000000	15.059258
1989.000000	15.016466
1988.000000	14.924649
1987.000000	14.849867
1986.000000	14.775603
1985.000000	14.705183
1984.000000	14.627284
1983.000000	14.545231
1982.000000	14.453311
1981.000000	14.383306
1980.000000	14.321091
1979.000000	14.242050
1978.000000	14.149298
1977.000000	14.061844
1976.000000	13.987892
1975.000000	13.916953
1974.000000	13.815165
1973.000000	13.745680
1972.000000	13.664873
1971.000000	13.609928
1970.000000	13.529537
1969.000000	13.455481
1968.000000	13.380595
1967.000000	13.310070
1966.000000	13.227498
1965.000000	13.181070
1964.000000	13.091123
1963.000000	13.027870
1962.000000	12.967940
1961.000000	12.897623
1960.000000	12.801341
1959.000000	12.758964
1958.000000	12.674937
1957.000000	12.621031
1956.000000	12.538251
1955.000000	12.483826
1954.000000	12.437606
1953.000000	12.362927
1952.000000	12.293130
1951.000000	12.221048
1950.000000	12.155821
1949.000000	12.114794
1948.000000	12.070132
1947.000000	12.019342
1946.000000	11.961282
1945.000000	11.953180
1944.000000	11.894185
1943.000000	11.862506
1942.000000	11.828854
1941.000000	11.801330
1940.000000	11.765912
1939.000000	11.775675
1938.000000	11.779311
1937.000000	11.782946
1936.000000	11.819506
1935.000000	11.801122
1934.000000	11.804238
1933.000000	11.831035
1932.000000	11.857417
1931.000000	11.872270
1930.000000	11.925968
1929.000000	12.003347
1928.000000	12.075845
1927.000000	12.159871
1926.000000	12.221152
1925.000000	12.345062
1924.000000	12.400422
1923.000000	12.472089
1922.000000	12.557778
1921.000000	12.723130
1920.000000	12.885679
1919.000000	13.042722
1918.000000	13.173696
1917.000000	13.272679
1916.000000	13.387034
1915.000000	13.503155
1914.000000	13.677233
1913.000000	13.868967
1912.000000	14.101105
1911.000000	14.312262
1910.000000	14.472422
1909.000000	14.615444
1908.000000	14.764490
1907.000000	14.949577
1906.000000	15.172159
1905.000000	15.452594
1904.000000	15.744766
1903.000000	16.002662
1902.000000	16.229503
1901.000000	16.468704
1900.000000	16.745608
1899.000000	17.017318
1898.000000	17.341896
1897.000000	17.653075
1896.000000	17.917307
1895.000000	18.148614
1894.000000	18.381375
1893.000000	18.657344
1892.000000	18.958136
1891.000000	19.334335
1890.000000	19.715726
1889.000000	20.042900
1888.000000	20.366751
1887.000000	20.715633
1886.000000	21.058595
1885.000000	21.440090
1884.000000	21.868533
1883.000000	22.324707
1882.000000	22.769664
1881.000000	23.190316
1880.000000	23.616993
1879.000000	24.003786
1878.000000	24.397953
1877.000000	24.804168
1876.000000	25.162502
1875.000000	25.533403
1874.000000	25.871068
1873.000000	26.208213
1872.000000	26.554291
1871.000000	26.836699
1870.000000	27.123158
1869.000000	27.344702
1868.000000	27.579748
1867.000000	27.737000
1866.000000	27.874413
1865.000000	27.954389
1864.000000	28.059604
1863.000000	28.148200
1862.000000	28.227242
1861.000000	28.337234
1860.000000	28.432894
1859.000000	28.493135
1858.000000	28.577993
1857.000000	28.636053
1856.000000	28.668459
1855.000000	28.682377
1854.000000	28.704293
1853.000000	28.722365
1852.000000	28.699930
1851.000000	28.693802
1850.000000	28.704085
1849.000000	28.688505
1848.000000	28.678534
1847.000000	28.700554
1846.000000	28.655165
1845.000000	28.585575
1844.000000	28.554312
1843.000000	28.517024
1842.000000	28.513701
1841.000000	28.512766
1840.000000	28.500718
1839.000000	28.462184
1838.000000	28.436114
1837.000000	28.397476
1836.000000	28.372445
1835.000000	28.342428
1834.000000	28.278343
1833.000000	28.213116
1832.000000	28.132309
1831.000000	28.087336
1830.000000	28.054514
1829.000000	28.001959
1828.000000	27.940367
1827.000000	27.873893
1826.000000	27.808770
1825.000000	27.758603
1824.000000	27.706359
1823.000000	27.668553
1822.000000	27.650065
1821.000000	27.655362
1820.000000	27.642586
1819.000000	27.615374
1818.000000	27.573309
1817.000000	27.529997
1816.000000	27.523557
1815.000000	27.521272
1814.000000	27.477753
1813.000000	27.468509
1812.000000	27.476818
1811.000000	27.461135
1810.000000	27.430391
1809.000000	27.379808
1808.000000	27.346260
1807.000000	27.312504
1806.000000	27.279475
1805.000000	27.237202
1804.000000	27.181115
1803.000000	27.141750
1802.000000	27.108202
1801.000000	27.054400
1800.000000	27.006934
1799.000000	26.968296
1798.000000	26.915740
1797.000000	26.867651
1796.000000	26.822677
1795.000000	26.782066
1794.000000	26.744156
1793.000000	26.699701
1792.000000	26.652547
1791.000000	26.605808
1790.000000	26.552733
1789.000000	26.493737
1788.000000	26.436092
1787.000000	26.393612
1786.000000	26.360375
1785.000000	26.311455
1784.000000	26.238853
1783.000000	26.180689
1782.000000	26.107983
1781.000000	26.027281
1780.000000	25.970466
1779.000000	25.917184
1778.000000	25.847283
1777.000000	25.761906
1776.000000	25.682345
1775.000000	25.596969
1774.000000	25.504529
1773.000000	25.408558
1772.000000	25.307497
1771.000000	25.200724
1770.000000	25.084084
1769.000000	24.963289
1768.000000	24.858490
1767.000000	24.754936
1766.000000	24.655642
1765.000000	24.572550
1764.000000	24.518021
1763.000000	24.478864
1762.000000	24.461310
1761.000000	24.468269
1760.000000	24.501922
1759.000000	24.529134
1758.000000	24.569849
1757.000000	24.622509
1756.000000	24.668936
1755.000000	24.724919
1754.000000	24.752340
1753.000000	24.779864
1752.000000	24.796067
1751.000000	24.792743
1750.000000	24.781837
1749.000000	24.768543
1748.000000	24.716922
1747.000000	24.676622
1746.000000	24.608902
1745.000000	24.517397
1744.000000	24.419141
1743.000000	24.291180
1742.000000	24.129255
1741.000000	23.970965
1740.000000	23.780892
1739.000000	23.609307
1738.000000	23.412795
1737.000000	23.226773
1736.000000	23.059135
1735.000000	22.909778
1734.000000	22.799992
1733.000000	22.726352
1732.000000	22.701321
1731.000000	22.704748
1730.000000	22.747541
1729.000000	22.808821
1728.000000	22.880176
1727.000000	22.956932
1726.000000	23.016862
1725.000000	23.092787
1724.000000	23.140254
1723.000000	23.187720
1722.000000	23.227292
1721.000000	23.278705
1720.000000	23.313292
1719.000000	23.360551
1718.000000	23.418508
1717.000000	23.479268
1716.000000	23.550727
1715.000000	23.638389
1714.000000	23.741631
1713.000000	23.815271
1712.000000	23.902518
1711.000000	23.962552
1710.000000	24.003163
1709.000000	24.040139
1708.000000	24.066001
1707.000000	24.073168
1706.000000	24.059457
1705.000000	24.051252
1704.000000	24.036607
1703.000000	23.991738
1702.000000	23.919448
1701.000000	23.858791
1700.000000	23.775803
1699.000000	23.663940
1698.000000	23.544080
1697.000000	23.437930
1696.000000	23.353280
1695.000000	23.317966
1694.000000	23.281198
1693.000000	23.318278
1692.000000	23.409056
1691.000000	23.502846
1690.000000	23.609827
1689.000000	23.713691
1688.000000	23.809974
1687.000000	23.855051
1686.000000	23.924018
1685.000000	23.973977
1684.000000	24.022689
1683.000000	24.110040
1682.000000	24.277158
1681.000000	24.554997
1680.000000	24.882898
1679.000000	25.285270
1678.000000	25.694394
1677.000000	26.125744
1676.000000	26.505578
1675.000000	26.864639
1674.000000	27.163977
1673.000000	27.433818
1672.000000	27.685794
1671.000000	27.890719
1670.000000	28.063135
1669.000000	28.248222
1668.000000	28.373795
1667.000000	28.489604
1666.000000	28.581109
1665.000000	28.698269
1664.000000	28.791124
1663.000000	28.885329
1662.000000	28.942247
1661.000000	28.993556
1660.000000	29.069689
1659.000000	29.122453
1658.000000	29.161610
1657.000000	29.182383
1656.000000	29.210530
1655.000000	29.246675
1654.000000	29.246363
1653.000000	29.257581
1652.000000	29.233069
1651.000000	29.251556
1650.000000	29.236288
1649.000000	29.213334
1648.000000	29.193392
1647.000000	29.148938
1646.000000	29.123076
1645.000000	29.091605
1644.000000	29.041646
1643.000000	29.036349
1642.000000	28.988778
1641.000000	28.933522
1640.000000	28.902467
1639.000000	28.845964
1638.000000	28.793409
1637.000000	28.747397
1636.000000	28.697645
1635.000000	28.647686
1634.000000	28.571865
1633.000000	28.532085
1632.000000	28.480672
1631.000000	28.415652
1630.000000	28.355203
1629.000000	28.258505
1628.000000	28.217790
1627.000000	28.149343
1626.000000	28.082246
1625.000000	28.006321
1624.000000	27.942963
1623.000000	27.867142
1622.000000	27.803473
1621.000000	27.730871
1620.000000	27.670838
1619.000000	27.604468
1618.000000	27.558560
1617.000000	27.506316
1616.000000	27.418031
1615.000000	27.357374
1614.000000	27.301494
1613.000000	27.274282
1612.000000	27.182569
1611.000000	27.126897
1610.000000	27.059801
1609.000000	26.994989
1608.000000	26.949704
1607.000000	26.892163
1606.000000	26.828494
1605.000000	26.760462
1604.000000	26.695028
1603.000000	26.645796
1602.000000	26.566962
1601.000000	26.517938
1600.000000	26.455931
1599.000000	26.396624
1598.000000	26.341368
1597.000000	26.280607
1596.000000	26.231894
1595.000000	26.173730
1594.000000	26.119720
1593.000000	26.079109
1592.000000	26.015648
1591.000000	25.980334
1590.000000	25.937853
1589.000000	25.889036
1588.000000	25.867121
1587.000000	25.818824
1586.000000	25.771565
1585.000000	25.741133
1584.000000	25.709350
1583.000000	25.682242
1582.000000	25.637372
1581.000000	25.602162
1580.000000	25.577234
1579.000000	25.559681
1578.000000	25.522809
1577.000000	25.524367
1576.000000	25.507645
1575.000000	25.503490
1574.000000	25.504840
1573.000000	25.490195
1572.000000	25.484171
1571.000000	25.484275
1570.000000	25.494662
1569.000000	25.501309
1568.000000	25.510449
1567.000000	25.526444
1566.000000	25.563316
1565.000000	25.560200
1564.000000	25.565186
1563.000000	25.586686
1562.000000	25.582635
1561.000000	25.588555
1560.000000	25.599357
1559.000000	25.609432
1558.000000	25.606836
1557.000000	25.608809
1556.000000	25.617638
1555.000000	25.613587
1554.000000	25.600084
1553.000000	25.586167
1552.000000	25.561758
1551.000000	25.549918
1550.000000	25.526444
1549.000000	25.495077
1548.000000	25.474512
1547.000000	25.447715
1546.000000	25.432758
1545.000000	25.407415
1544.000000	25.387889
1543.000000	25.368466
1542.000000	25.350290
1541.000000	25.326504
1540.000000	25.306043
1539.000000	25.307393
1538.000000	25.313625
1537.000000	25.288490
1536.000000	25.260446
1535.000000	25.249852
1534.000000	25.234792
1533.000000	25.214746
1532.000000	25.197401
1531.000000	25.177874
1530.000000	25.149727
1529.000000	25.139340
1528.000000	25.114620
1527.000000	25.074425
1526.000000	25.041188
1525.000000	25.018234
1524.000000	24.991748
1523.000000	24.956850
1522.000000	24.919666
1521.000000	24.886845
1520.000000	24.860359
1519.000000	24.821825
1518.000000	24.777787
1517.000000	24.754002
1516.000000	24.707574
1515.000000	24.644632
1514.000000	24.608383
1513.000000	24.579405
1512.000000	24.531211
1511.000000	24.486342
1510.000000	24.443446
1509.000000	24.401484
1508.000000	24.350694
1507.000000	24.295231
1506.000000	24.243610
1505.000000	24.191677
1504.000000	24.140057
1503.000000	24.094668
1502.000000	24.055718
1501.000000	24.016042
1500.000000	23.975950
1499.000000	23.942402
1498.000000	23.893066
1497.000000	23.855259
1496.000000	23.835109
1495.000000	23.791278
1494.000000	23.746928
1493.000000	23.733530
1492.000000	23.722624
1491.000000	23.701124
1490.000000	23.692295
1489.000000	23.680143
1488.000000	23.655735
1487.000000	23.643479
1486.000000	23.633819
1485.000000	23.613981
1484.000000	23.599648
1483.000000	23.573993
1482.000000	23.562360
1481.000000	23.569631
1480.000000	23.566930
1479.000000	23.556440
1478.000000	23.566515
1477.000000	23.573058
1476.000000	23.572331
1475.000000	23.581471
1474.000000	23.598713
1473.000000	23.598817
1472.000000	23.621148
1471.000000	23.655008
1470.000000	23.683155
1469.000000	23.701851
1468.000000	23.713068
1467.000000	23.736853
1466.000000	23.774348
1465.000000	23.801665
1464.000000	23.816829
1463.000000	23.854532
1462.000000	23.892131
1461.000000	23.937312
1460.000000	23.983117
1459.000000	24.024663
1458.000000	24.083970
1457.000000	24.132474
1456.000000	24.205595
1455.000000	24.275289
1454.000000	24.345813
1453.000000	24.409690
1452.000000	24.491120
1451.000000	24.592180
1450.000000	24.668729
1449.000000	24.763038
1448.000000	24.838755
1447.000000	24.916342
1446.000000	25.016364
1445.000000	25.121060
1444.000000	25.198855
1443.000000	25.281843
1442.000000	25.380410
1441.000000	25.478978
1440.000000	25.589386
1439.000000	25.695848
1438.000000	25.792961
1437.000000	25.898177
1436.000000	25.997056
1435.000000	26.101440
1434.000000	26.223066
1433.000000	26.337213
1432.000000	26.466006
1431.000000	26.563639
1430.000000	26.693573
1429.000000	26.828598
1428.000000	26.984083
1427.000000	27.135414
1426.000000	27.263376
1425.000000	27.427690
1424.000000	27.612466
1423.000000	27.811886
1422.000000	27.989807
1421.000000	28.171882
1420.000000	28.369952
1419.000000	28.588483
1418.000000	28.791955
1417.000000	28.976419
1416.000000	29.159948
1415.000000	29.397175
1414.000000	29.661511
1413.000000	29.897076
1412.000000	30.108234
1411.000000	30.329777
1410.000000	30.624753
1409.000000	30.943411
1408.000000	31.253967
1407.000000	31.563899
1406.000000	31.886192
1405.000000	32.207653
1404.000000	32.545526
1403.000000	32.861067
1402.000000	33.187930
1401.000000	33.545225
1400.000000	33.941781
1399.000000	34.247974
1398.000000	34.461001
1397.000000	34.696463
1396.000000	34.973366
1395.000000	35.280183
1394.000000	35.503908
1393.000000	35.675700
1392.000000	35.874082
1391.000000	36.104039
1390.000000	36.341474
1389.000000	36.587530
1388.000000	36.894554
1387.000000	37.247071
1386.000000	37.567183
1385.000000	37.928528
1384.000000	38.365072
1383.000000	38.761524
1382.000000	39.202638
1381.000000	39.538122
1380.000000	39.820946
1379.000000	40.015381
1378.000000	40.193301
1377.000000	40.331961
1376.000000	40.489108
1375.000000	40.640543
1374.000000	40.805169
1373.000000	41.052159
1372.000000	41.313379
1371.000000	41.603370
1370.000000	41.894711
1369.000000	42.123837
1368.000000	42.395443
1367.000000	42.618649
1366.000000	42.824405
1365.000000	43.008038
1364.000000	43.179830
1363.000000	43.338432
1362.000000	43.549797
1361.000000	43.673396
1360.000000	43.756696
1359.000000	43.743505
1358.000000	43.857860
1357.000000	43.957363
1356.000000	44.102254
1355.000000	44.290561
1354.000000	44.596547
1353.000000	44.911984
1352.000000	45.231472
1351.000000	45.702084
1350.000000	46.092408
1349.000000	46.484186
1348.000000	46.818216
1347.000000	47.165540
1346.000000	47.458438
1345.000000	47.739185
1344.000000	48.043405
1343.000000	48.321763
1342.000000	48.589422
1341.000000	48.871519
1340.000000	49.129104
1339.000000	49.373602
1338.000000	49.621735
1337.000000	49.863844
1336.000000	50.094424
1335.000000	50.317110
1334.000000	50.536369
1333.000000	50.756666
1332.000000	50.958060
1331.000000	51.162674
1330.000000	51.348903
1329.000000	51.543962
1328.000000	51.720947
1327.000000	51.865423
1326.000000	52.037216
1325.000000	52.183146
1324.000000	52.327518
1323.000000	52.475837
1322.000000	52.607849
1321.000000	52.728540
1320.000000	52.854112
1319.000000	52.975634
1318.000000	53.086562
1317.000000	53.195101
1316.000000	53.296992
1315.000000	53.401272
1314.000000	53.497140
1313.000000	53.598408
1312.000000	53.681084
1311.000000	53.765526
1310.000000	53.835427
1309.000000	53.912911
1308.000000	53.988213
1307.000000	54.043365
1306.000000	54.099244
1305.000000	54.146503
1304.000000	54.203628
1303.000000	54.224297
1302.000000	54.257950
1301.000000	54.294614
1300.000000	54.316114
1299.000000	54.332836
1298.000000	54.355894
1297.000000	54.362126
1296.000000	54.381549
1295.000000	54.392039
1294.000000	54.394220
1293.000000	54.385496
1292.000000	54.392039
1291.000000	54.388092
1290.000000	54.378121
1289.000000	54.343326
1288.000000	54.333355
1287.000000	54.297522
1286.000000	54.260858
1285.000000	54.209964
1284.000000	54.169041
1283.000000	54.133208
1282.000000	54.089792
1281.000000	54.048766
1280.000000	53.998807
1279.000000	53.931606
1278.000000	53.885906
1277.000000	53.839374
1276.000000	53.799386
1275.000000	53.758879
1274.000000	53.723877
1273.000000	53.678695
1272.000000	53.654599
1271.000000	53.635799
1270.000000	53.594980
1269.000000	53.569118
1268.000000	53.538997
1267.000000	53.498802
1266.000000	53.459333
1265.000000	53.438041
1264.000000	53.413321
1263.000000	53.379980
1262.000000	53.352871
1261.000000	53.310702
1260.000000	53.281412
1259.000000	53.253161
1258.000000	53.210784
1257.000000	53.163110
1256.000000	53.125407
1255.000000	53.079707
1254.000000	53.046574
1253.000000	52.993811
1252.000000	52.936893
1251.000000	52.892542
1250.000000	52.819214
1249.000000	52.748378
1248.000000	52.679308
1247.000000	52.587595
1246.000000	52.505542
1245.000000	52.416530
1244.000000	52.323675
1243.000000	52.212124
1242.000000	52.094237
1241.000000	51.985179
1240.000000	51.867189
1239.000000	51.747121
1238.000000	51.629131
1237.000000	51.510725
1236.000000	51.378609
1235.000000	51.239534
1234.000000	51.091526
1233.000000	50.953178
1232.000000	50.826879
1231.000000	50.681780
1230.000000	50.530241
1229.000000	50.382233
1228.000000	50.218646
1227.000000	50.065549
1226.000000	49.912660
1225.000000	49.757383
1224.000000	49.595665
1223.000000	49.442153
1222.000000	49.293211
1221.000000	49.148423
1220.000000	48.997611
1219.000000	48.845553
1218.000000	48.707725
1217.000000	48.582879
1216.000000	48.466031
1215.000000	48.344613
1214.000000	48.220702
1213.000000	48.111748
1212.000000	48.003833
1211.000000	47.900279
1210.000000	47.802646
1209.000000	47.695666
1208.000000	47.607484
1207.000000	47.540388
1206.000000	47.470694
1205.000000	47.416061
1204.000000	47.370257
1203.000000	47.333177
1202.000000	47.298590
1201.000000	47.271274
1200.000000	47.249358
1199.000000	47.207813
1198.000000	47.154322
1197.000000	47.066452
1196.000000	46.943996
1195.000000	46.801286
1194.000000	46.620353
1193.000000	46.386657
1192.000000	46.103314
1191.000000	45.776867
1190.000000	45.422584
1189.000000	45.078999
1188.000000	44.791709
1187.000000	44.575982
1186.000000	44.429013
1185.000000	44.405643
1184.000000	44.451448
1183.000000	44.605583
1182.000000	44.884564
1181.000000	45.233342
1180.000000	45.623354
1179.000000	46.027596
1178.000000	46.420413
1177.000000	46.782486
1176.000000	47.109660
1175.000000	47.398093
1174.000000	47.663156
1173.000000	47.915132
1172.000000	48.168458
1171.000000	48.444531
1170.000000	48.727978
1169.000000	49.021916
1168.000000	49.314503
1167.000000	49.595977
1166.000000	49.882644
1165.000000	50.191122
1164.000000	50.515076
1163.000000	50.825321
1162.000000	51.154884
1161.000000	51.469387
1160.000000	51.768310
1159.000000	52.083020
1158.000000	52.386825
1157.000000	52.675361
1156.000000	52.937931
1155.000000	53.192400
1154.000000	53.393483
1153.000000	53.560601
1152.000000	53.686070
1151.000000	53.770096
1150.000000	53.822548
1149.000000	53.900966
1148.000000	53.964220
1147.000000	54.019476
1146.000000	54.107449
1145.000000	54.228244
1144.000000	54.406996
1143.000000	54.630097
1142.000000	54.913129
1141.000000	55.193252
1140.000000	55.502770
1139.000000	55.839811
1138.000000	56.178203
1137.000000	56.504857
1136.000000	56.864645
1135.000000	57.253204
1134.000000	57.612888
1133.000000	57.958861
1132.000000	58.247917
1131.000000	58.545282
1130.000000	58.858538
1129.000000	59.135442
1128.000000	59.338809
1127.000000	59.540411
1126.000000	59.686964
1125.000000	59.801631
1124.000000	59.915571
1123.000000	60.014346
1122.000000	60.098477
1121.000000	60.172221
1120.000000	60.212105
1119.000000	60.284291
1118.000000	60.308699
1117.000000	60.360424
1116.000000	60.388675
1115.000000	60.404151
1114.000000	60.418796
1113.000000	60.427001
1112.000000	60.441335
1111.000000	60.439153
1110.000000	60.448294
1109.000000	60.452864
1108.000000	60.457018
1107.000000	60.485996
1106.000000	60.482153
1105.000000	60.482465
1104.000000	60.472182
1103.000000	60.487243
1102.000000	60.495968
1101.000000	60.502823
1100.000000	60.495760
1099.000000	60.482361
1098.000000	60.476856
1097.000000	60.478414
1096.000000	60.448917
1095.000000	60.440296
1094.000000	60.437076
1093.000000	60.410175
1092.000000	60.389610
1091.000000	60.376315
1090.000000	60.353050
1089.000000	60.322617
1088.000000	60.296339
1087.000000	60.279929
1086.000000	60.228516
1085.000000	60.200264
1084.000000	60.212105
1083.000000	60.167547
1082.000000	60.132025
1081.000000	60.106890
1080.000000	60.068044
1079.000000	60.029718
1078.000000	60.012477
1077.000000	59.990769
1076.000000	59.959090
1075.000000	59.962725
1074.000000	59.938421
1073.000000	59.903107
1072.000000	59.891578
1071.000000	59.867585
1070.000000	59.845047
1069.000000	59.825208
1068.000000	59.808175
1067.000000	59.794153
1066.000000	59.787609
1065.000000	59.750426
1064.000000	59.734119
1063.000000	59.699740
1062.000000	59.676786
1061.000000	59.664010
1060.000000	59.645730
1059.000000	59.608443
1058.000000	59.549967
1057.000000	59.517145
1056.000000	59.498138
1055.000000	59.474041
1054.000000	59.421694
1053.000000	59.401648
1052.000000	59.366126
1051.000000	59.342341
1050.000000	59.292590
1049.000000	59.283346
1048.000000	59.260391
1047.000000	59.246889
1046.000000	59.214899
1045.000000	59.191841
1044.000000	59.172522
1043.000000	59.150502
1042.000000	59.119966
1041.000000	59.097635
1040.000000	59.078213
1039.000000	59.040925
1038.000000	59.008415
1037.000000	58.997717
1036.000000	58.971959
1035.000000	58.947654
1034.000000	58.916080
1033.000000	58.885959
1032.000000	58.858850
1031.000000	58.840050
1030.000000	58.815746
1029.000000	58.795285
1028.000000	58.759971
1027.000000	58.730992
1026.000000	58.720606
1025.000000	58.678125
1024.000000	58.657975
1023.000000	58.643746
1022.000000	58.611652
1021.000000	58.573845
1020.000000	58.554630
1019.000000	58.537492
1018.000000	58.517862
1017.000000	58.508202
1016.000000	58.496777
1015.000000	58.478705
1014.000000	58.465306
1013.000000	58.465929
1012.000000	58.480263
1011.000000	58.493557
1010.000000	58.508618
1009.000000	58.543620
1008.000000	58.559927
1007.000000	58.572079
1006.000000	58.609782
1005.000000	58.659741
1004.000000	58.678437
1003.000000	58.697756
1002.000000	58.723306
1001.000000	58.761217
1000.000000	58.786768
999.000000	58.800374
998.000000	58.830183
997.000000	58.860616
996.000000	58.885959
995.000000	58.927297
994.000000	58.946616
993.000000	58.956379
992.000000	58.997821
991.000000	59.025553
990.000000	59.047884
989.000000	59.079355
988.000000	59.126198
987.000000	59.171691
986.000000	59.217599
985.000000	59.272440
984.000000	59.334655
983.000000	59.383056
982.000000	59.445894
981.000000	59.510913
980.000000	59.568455
979.000000	59.633993
978.000000	59.709399
977.000000	59.767563
976.000000	59.821365
975.000000	59.892305
974.000000	59.950989
973.000000	60.021409
972.000000	60.082897
971.000000	60.121846
970.000000	60.184685
969.000000	60.253962
968.000000	60.316177
967.000000	60.375796
966.000000	60.457226
965.000000	60.532528
964.000000	60.600144
963.000000	60.683651
962.000000	60.763731
961.000000	60.847862
960.000000	60.948299
959.000000	61.049255
958.000000	61.133594
957.000000	61.210246
956.000000	61.297596
955.000000	61.370821
954.000000	61.433036
953.000000	61.503145
952.000000	61.570345
951.000000	61.625705
950.000000	61.699138
949.000000	61.756471
948.000000	61.800406
947.000000	61.878201
946.000000	61.947582
945.000000	62.008032
944.000000	62.090189
943.000000	62.175254
942.000000	62.249829
941.000000	62.332402
940.000000	62.436059
939.000000	62.532445
938.000000	62.632779
937.000000	62.734982
936.000000	62.827733
935.000000	62.919446
934.000000	62.993086
933.000000	63.059455
932.000000	63.132472
931.000000	63.206424
930.000000	63.279026
929.000000	63.330854
928.000000	63.381540
927.000000	63.423606
926.000000	63.478342
925.000000	63.526432
924.000000	63.554683
923.000000	63.601318
922.000000	63.664676
921.000000	63.737485
920.000000	63.787548
919.000000	63.834391
918.000000	63.891517
917.000000	63.932543
916.000000	63.977205
915.000000	64.022179
914.000000	64.051365
913.000000	64.073696
912.000000	64.093118
911.000000	64.123447
910.000000	64.145778
909.000000	64.166343
908.000000	64.190336
907.000000	64.229389
906.000000	64.283191
905.000000	64.348937
904.000000	64.414684
903.000000	64.493206
902.000000	64.569027
901.000000	64.672476
900.000000	64.789428
899.000000	64.915208
898.000000	65.039327
897.000000	65.157940
896.000000	65.282890
895.000000	65.414279
894.000000	65.530400
893.000000	65.632083
892.000000	65.740207
891.000000	65.830985
890.000000	65.925190
889.000000	66.009944
888.000000	66.090023
887.000000	66.151304
886.000000	66.226086
885.000000	66.309594
884.000000	66.391647
883.000000	66.444410
882.000000	66.514831
881.000000	66.547548
880.000000	66.596157
879.000000	66.633133
878.000000	66.684961
877.000000	66.678729
876.000000	66.644246
875.000000	66.609763
874.000000	66.605089
873.000000	66.532903
872.000000	66.408785
871.000000	66.322888
870.000000	66.368070
869.000000	66.491877
868.000000	66.684857
867.000000	66.849691
866.000000	66.995102
865.000000	67.158481
864.000000	67.297348
863.000000	67.499885
862.000000	67.653293
861.000000	67.820308
860.000000	67.999371
859.000000	68.178122
858.000000	68.333400
857.000000	68.139000
856.000000	68.372000
855.000000	68.489200
854.000000	68.528400
853.000000	69.037200
852.000000	69.143300
851.000000	68.810600
850.000000	69.392500
849.000000	69.525600
848.000000	68.998800
847.000000	69.662700
846.000000	69.763400
845.000000	70.230700
844.000000	70.104600
843.000000	70.457700
842.000000	70.923400
841.000000	70.830700
840.000000	71.202600
839.000000	71.417100
838.000000	71.332900
837.000000	71.512600
836.000000	71.515100
835.000000	72.072600
834.000000	72.067700
833.000000	72.379000
832.000000	72.806900
831.000000	72.690500
830.000000	73.000200
829.000000	73.008100
828.000000	73.058900
827.000000	73.124400
826.000000	73.395100
825.000000	73.606000
824.000000	73.352300
823.000000	73.430400
822.000000	73.647500
821.000000	73.715400
820.000000	73.760100
819.000000	73.718800
818.000000	73.717700
817.000000	73.605700
816.000000	73.739800
815.000000	73.680100
814.000000	73.870500
813.000000	73.867800
812.000000	73.690800
811.000000	73.806700
810.000000	73.926000
809.000000	73.825200
808.000000	73.582500
807.000000	73.595600
806.000000	73.782500
805.000000	73.685800
804.000000	73.918700
803.000000	73.792600
802.000000	73.838400
801.000000	74.019900
800.000000	74.000400
799.000000	74.080800
798.000000	74.274100
797.000000	73.936500
796.000000	74.175100
795.000000	74.170600
794.000000	74.340200
793.000000	74.380600
792.000000	74.405500
791.000000	74.536800
790.000000	74.534600
789.000000	74.316900
788.000000	74.421100
787.000000	74.437000
786.000000	74.266800
785.000000	74.116200
784.000000	74.192800
783.000000	74.018900
782.000000	73.904700
781.000000	73.862200
780.000000	73.583000
779.000000	73.553100
778.000000	73.504300
777.000000	73.321000
776.000000	73.132200
775.000000	73.066200
774.000000	73.048500
773.000000	72.853100
772.000000	72.714600
771.000000	72.584200
770.000000	72.405200
769.000000	72.320400
768.000000	72.038300
767.000000	71.646800
766.000000	71.603000
765.000000	71.529700
764.000000	71.486000
763.000000	71.174500
762.000000	71.056800
761.000000	70.879500
760.000000	70.762700
759.000000	70.417600
758.000000	70.260100
757.000000	70.180900
756.000000	70.032300
755.000000	69.750300
754.000000	69.636100
753.000000	69.552400
752.000000	69.412800
751.000000	69.265600
750.000000	68.876200
749.000000	68.839300
748.000000	68.587800
747.000000	68.423500
746.000000	68.189400
745.000000	68.096900
744.000000	67.865500
743.000000	67.659800
742.000000	67.466000
741.000000	67.428900
740.000000	67.181800
739.000000	67.118000
738.000000	67.079700
737.000000	66.996400
736.000000	66.907700
735.000000	66.853500
734.000000	66.831600
733.000000	66.712400
732.000000	66.693900
731.000000	66.676800
730.000000	66.535000
729.000000	66.433600
728.000000	66.370300
727.000000	66.355600
726.000000	66.230300
725.000000	66.131200
724.000000	65.949700
723.000000	65.888100
722.000000	65.704500
721.000000	65.635300
720.000000	65.477900
719.000000	65.369300
718.000000	65.214800
717.000000	65.119600
716.000000	64.945900
715.000000	64.861400
714.000000	64.745700
713.000000	64.623700
712.000000	64.544800
711.000000	64.332800
710.000000	64.242600
709.000000	64.079100
708.000000	63.894300
707.000000	63.727900
706.000000	63.564300
705.000000	63.381200
704.000000	63.184000
703.000000	62.891900
702.000000	62.680600
701.000000	62.500200
700.000000	62.203000
699.000000	61.938100
698.000000	61.689700
697.000000	61.372800
696.000000	61.085300
695.000000	60.788600
694.000000	60.582400
693.000000	60.280500
692.000000	59.933700
691.000000	59.601400
690.000000	59.295200
689.000000	58.930100
688.000000	58.572300
687.000000	58.226100
686.000000	57.758400
685.000000	57.310400
684.000000	56.857300
683.000000	56.405800
682.000000	55.926200
681.000000	55.398300
680.000000	54.870600
679.000000	54.376300
678.000000	53.858300
677.000000	53.350100
676.000000	52.858200
675.000000	52.395300
674.000000	51.946300
673.000000	51.524300
672.000000	51.127500
671.000000	50.745600
670.000000	50.427100
669.000000	50.109700
668.000000	49.851600
667.000000	49.666300
666.000000	49.442900
665.000000	49.223200
664.000000	49.104600
663.000000	49.018200
662.000000	48.921300
661.000000	48.830700
660.000000	48.812500
659.000000	48.797700
658.000000	48.792200
657.000000	48.829400
656.000000	48.867500
655.000000	48.950200
654.000000	49.069300
653.000000	49.199500
652.000000	49.427200
651.000000	49.737800
650.000000	50.071900
649.000000	50.443300
648.000000	50.914400
647.000000	51.431500
646.000000	51.930800
645.000000	52.480500
644.000000	53.058000
643.000000	53.720300
642.000000	54.374800
641.000000	54.947000
640.000000	55.570200
639.000000	56.153100
638.000000	56.725400
637.000000	57.289600
636.000000	57.802300
635.000000	58.326800
634.000000	58.837600
633.000000	59.321300
632.000000	59.823600
631.000000	60.315100
630.000000	60.794100
629.000000	61.320000
628.000000	61.837900
627.000000	62.403900
626.000000	62.989200
625.000000	63.549000
624.000000	64.122000
623.000000	64.705200
622.000000	65.339800
621.000000	65.957800
620.000000	66.548400
619.000000	67.143800
618.000000	67.694300
617.000000	68.214100
616.000000	68.730500
615.000000	69.257900
614.000000	69.800500
613.000000	70.260900
612.000000	70.683500
611.000000	71.066300
610.000000	71.501500
609.000000	71.914800
608.000000	72.265000
607.000000	72.591600
606.000000	72.937500
605.000000	73.244200
604.000000	73.526200
603.000000	73.815400
602.000000	74.097100
601.000000	74.362700
600.000000	74.618600
599.000000	74.827800
598.000000	75.048700
597.000000	75.230800
596.000000	75.418200
595.000000	75.572400
594.000000	75.720100
593.000000	75.877100
592.000000	76.006300
591.000000	76.074500
590.000000	76.148900
589.000000	76.230900
588.000000	76.266900
587.000000	76.274600
586.000000	76.303800
585.000000	76.317000
584.000000	76.261100
583.000000	76.234800
582.000000	76.166900
581.000000	76.088200
580.000000	75.969200
579.000000	75.859100
578.000000	75.720500
577.000000	75.531200
576.000000	75.336300
575.000000	75.111400
574.000000	74.838500
573.000000	74.544200
572.000000	74.212600
571.000000	73.857700
570.000000	73.477400
569.000000	73.056200
568.000000	72.624200
567.000000	72.175400
566.000000	71.699300
565.000000	71.172400
564.000000	70.712500
563.000000	70.161200
562.000000	69.578500
561.000000	69.018400
560.000000	68.408000
559.000000	67.711300
558.000000	67.075500
557.000000	66.424700
556.000000	65.765500
555.000000	65.089500
554.000000	64.349600
553.000000	63.559800
552.000000	62.770500
551.000000	61.986200
550.000000	61.096600
549.000000	60.195700
548.000000	59.270600
547.000000	58.321700
546.000000	57.317600
545.000000	56.220300
544.000000	55.132600
543.000000	54.003800
542.000000	52.800900
541.000000	51.580700
540.000000	50.337900
539.000000	49.041500
538.000000	47.740900
537.000000	46.437100
536.000000	45.146700
535.000000	43.822400
534.000000	42.505900
533.000000	41.222900
532.000000	39.954200
531.000000	38.717200
530.000000	37.497600
529.000000	36.326100
528.000000	35.236300
527.000000	34.175300
526.000000	33.232000
525.000000	32.313200
524.000000	31.426800
523.000000	30.651400
522.000000	29.937100
521.000000	29.277100
520.000000	28.670000
519.000000	28.147200
518.000000	27.713000
517.000000	27.303400
516.000000	26.944400
515.000000	26.631300
514.000000	26.370700
513.000000	26.127300
512.000000	25.930700
511.000000	25.747900
510.000000	25.621700
509.000000	25.480600
508.000000	25.357600
507.000000	25.265000
506.000000	25.183100
505.000000	25.069600
504.000000	24.957400
503.000000	24.830800
502.000000	24.706200
501.000000	24.520600
500.000000	24.366500
499.000000	24.208600
498.000000	24.036600
497.000000	23.773300
496.000000	23.509100
495.000000	23.225500
494.000000	22.891600
493.000000	22.556200
492.000000	22.219300
491.000000	21.842800
490.000000	21.414600
489.000000	21.017800
488.000000	20.626900
487.000000	20.199500
486.000000	19.777800
485.000000	19.406100
484.000000	19.014200
483.000000	18.624800
482.000000	18.275200
481.000000	17.965000
480.000000	17.683600
479.000000	17.442500
478.000000	17.239100
477.000000	17.053400
476.000000	16.908100
475.000000	16.781300
474.000000	16.691400
473.000000	16.620800
472.000000	16.587600
471.000000	16.574700
470.000000	16.600400
469.000000	16.620600
468.000000	16.675700
467.000000	16.764800
466.000000	16.844500
465.000000	16.908900
464.000000	17.054600
463.000000	17.195700
462.000000	17.293600
461.000000	17.428500
460.000000	17.515200
459.000000	17.651800
458.000000	17.776800
457.000000	17.870200
456.000000	17.951100
455.000000	18.075500
454.000000	18.130200
453.000000	18.186500
452.000000	18.258800
451.000000	18.324500
450.000000	18.320400
449.000000	18.275100
448.000000	18.282300
447.000000	18.260200
446.000000	18.216100
445.000000	18.183000
444.000000	18.101200
443.000000	17.985000
442.000000	17.906200
441.000000	17.749100
440.000000	17.634500
439.000000	17.464300
438.000000	17.310000
437.000000	17.132300
436.000000	16.971400
435.000000	16.793800
434.000000	16.566600
433.000000	16.352600
432.000000	16.134700
431.000000	15.921200
430.000000	15.679700
429.000000	15.416700
428.000000	15.158200
427.000000	14.929400
426.000000	14.647700
425.000000	14.356500
424.000000	14.112100
423.000000	13.831000
422.000000	13.558400
421.000000	13.254500
420.000000	12.982200
419.000000	12.665500
418.000000	12.380400
417.000000	12.105500
416.000000	11.821700
415.000000	11.514200
414.000000	11.219800
413.000000	10.928000
412.000000	10.654200
411.000000	10.392100
410.000000	10.120200
409.000000	9.859700
408.000000	9.617100
407.000000	9.366500
406.000000	9.138700
405.000000	8.907700
404.000000	8.689600
403.000000	8.491400
402.000000	8.295600
401.000000	8.118400
400.000000	7.930600
399.000000	7.764000
398.000000	7.637900
397.000000	7.485500
396.000000	7.364100
395.000000	7.232600
394.000000	7.135100
393.000000	7.014400
392.000000	6.910500
391.000000	6.817100
390.000000	6.724100
389.000000	6.651600
388.000000	6.589400
387.000000	6.521400
386.000000	6.450000
385.000000	6.403800
384.000000	6.374300
383.000000	6.333800
382.000000	6.293500
381.000000	6.240100
380.000000	6.208800
379.000000	6.182700
378.000000	6.169200
377.000000	6.156500
376.000000	6.069600
375.000000	5.815800
374.000000	5.432000
373.000000	5.348100
372.000000	5.668700
371.000000	5.852900
370.000000	5.761500
369.000000	5.891300
368.000000	5.922400
367.000000	5.816100
366.000000	5.933600
365.000000	5.929700
364.000000	5.891700
363.000000	5.921300
362.000000	5.896700
361.000000	5.922100
360.000000	6.057000
359.000000	5.883600
358.000000	5.727100
357.000000	5.971500
356.000000	5.900700
355.000000	5.777000
354.000000	6.013100
353.000000	6.141700
352.000000	5.905200
351.000000	5.800900
350.000000	5.783800
349.000000	5.859700
348.000000	6.042100
347.000000	5.912000
346.000000	5.943100
345.000000	6.107400
344.000000	5.985600
343.000000	6.002500
342.000000	6.234800
341.000000	6.129700
340.000000	6.162700
339.000000	6.192000
338.000000	5.938100
337.000000	6.143700
336.000000	6.331400
335.000000	6.010600
334.000000	6.193500
333.000000	6.145200
332.000000	6.138000
331.000000	6.416100
330.000000	6.062800
329.000000	5.869900
328.000000	5.771900
327.000000	5.778800
326.000000	5.938200
325.000000	6.614300
324.000000	6.836000
323.000000	6.590400
322.000000	7.543200
321.000000	7.095100
320.000000	6.601500
319.000000	6.986600
318.000000	7.252900
317.000000	7.241800
316.000000	6.435400
315.000000	5.952600
314.000000	5.988300
313.000000	6.023300
312.000000	6.003900
311.000000	5.994700
310.000000	6.043700
309.000000	6.048900
308.000000	6.056700
307.000000	6.061900
306.000000	6.035800
305.000000	5.987700
304.000000	5.980400
303.000000	6.061200
302.000000	6.075000
301.000000	6.073200
300.000000	6.077200
299.000000	6.107100
298.000000	6.081800
297.000000	6.125200
296.000000	6.157200
295.000000	6.189500
294.000000	6.143500
293.000000	6.142300
292.000000	6.161500
291.000000	6.225200
290.000000	6.243900
289.000000	6.208400
288.000000	6.220000
287.000000	6.261200
286.000000	6.256200
285.000000	6.275000
284.000000	6.301200
283.000000	6.251000
282.000000	6.282300
281.000000	6.286800
280.000000	6.293600
279.000000	6.351500
278.000000	6.319700
277.000000	6.392100
276.000000	6.388800
275.000000	6.394200
274.000000	6.395700
273.000000	6.397000
272.000000	6.443400
271.000000	6.467000
270.000000	6.451600
269.000000	6.485900
268.000000	6.499500
267.000000	6.508800
266.000000	6.557400
265.000000	6.593900
264.000000	6.686400
263.000000	6.702000
262.000000	6.732700
261.000000	6.762000
260.000000	6.778600
259.000000	6.782900
258.000000	6.796500
257.000000	6.823800
256.000000	6.857100
255.000000	6.855800
254.000000	6.880000
253.000000	6.896700
252.000000	6.941900
251.000000	6.962900
250.000000	6.971800
