PE UV       SUBTECH     SPECTRUM    ASCII       PEDS        4.00        
   -1
CICIMAUCR0204-3.Sample.ASC
24/05/31
16:34:21.00
24/05/31
16:34:21.00
Vinicio Soto Monge
C. cupreomarginata. Sex M. Dorsal
250,000000
1
Lambda 1050
1050L1511233
PerkinElmer UV WinLab 6.3.2.0749 / 2.02.05 Lambda 900 UV/VIS/NIR, Aug  7 2015 09:38:08

0
0
3350/servo 860,8/2
0
0
UV/VIS
1
1
1
DoubleDePol,CommonBeamDepol,RBeamAtt,SBeamAtt,60mm sphere, WB InGaAs Detector
0
0
0
0
Program
Program
3350/servo 860,8/2
3350/0,2 860,8/0,2
3350/0,2 860,8/0,2
0
15.00
 
 
 
0
 
860,8
319,2
860,8
Front
100
on
S:100 R:100
0
0
0
0
 
0
 
 
 
0
 
 
0
0
0
0
0
 
 
 
 
0
0


0
0
#HDR
-1
-1
#GR
nm
%R
1.0
0.0
2500,000000
-1,000000
2251
8
68,833200
5,187100
#DATA
2482.000000	11.761877
2481.000000	11.677592
2480.000000	11.737159
2479.000000	11.805134
2478.000000	11.754482
2477.000000	11.767347
2476.000000	11.721659
2475.000000	11.823774
2474.000000	11.805336
2473.000000	11.822760
2472.000000	11.805944
2471.000000	11.847377
2470.000000	11.836639
2469.000000	11.843224
2468.000000	11.839780
2467.000000	11.876654
2466.000000	11.888405
2465.000000	11.917176
2464.000000	11.933486
2463.000000	12.012300
2462.000000	12.032966
2461.000000	12.061837
2460.000000	12.129711
2459.000000	12.197078
2458.000000	12.285111
2457.000000	12.326240
2456.000000	12.431090
2455.000000	12.522466
2454.000000	12.560759
2453.000000	12.656592
2452.000000	12.750501
2451.000000	12.860922
2450.000000	12.946017
2449.000000	13.025338
2448.000000	13.127553
2447.000000	13.233416
2446.000000	13.354271
2445.000000	13.436429
2444.000000	13.517370
2443.000000	13.644811
2442.000000	13.723422
2441.000000	13.838503
2440.000000	13.925827
2439.000000	14.013658
2438.000000	14.131170
2437.000000	14.212112
2436.000000	14.301462
2435.000000	14.382809
2434.000000	14.451999
2433.000000	14.522507
2432.000000	14.604360
2431.000000	14.680540
2430.000000	14.757430
2429.000000	14.813958
2428.000000	14.873119
2427.000000	14.952035
2426.000000	15.009879
2425.000000	15.062962
2424.000000	15.130329
2423.000000	15.170446
2422.000000	15.217856
2421.000000	15.261214
2420.000000	15.320578
2419.000000	15.365861
2418.000000	15.418843
2417.000000	15.455920
2416.000000	15.498569
2415.000000	15.543649
2414.000000	15.588425
2413.000000	15.612738
2412.000000	15.655387
2411.000000	15.688209
2410.000000	15.739266
2409.000000	15.767226
2408.000000	15.794173
2407.000000	15.838645
2406.000000	15.874203
2405.000000	15.907431
2404.000000	15.938024
2403.000000	15.975304
2402.000000	16.015724
2401.000000	16.045913
2400.000000	16.077621
2399.000000	16.114597
2398.000000	16.164438
2397.000000	16.227044
2396.000000	16.257638
2395.000000	16.280431
2394.000000	16.294411
2393.000000	16.322878
2392.000000	16.357929
2391.000000	16.395614
2390.000000	16.420129
2389.000000	16.442720
2388.000000	16.457409
2387.000000	16.480709
2386.000000	16.493169
2385.000000	16.502996
2384.000000	16.511708
2383.000000	16.518293
2382.000000	16.524877
2381.000000	16.521940
2380.000000	16.524067
2379.000000	16.507960
2378.000000	16.493473
2377.000000	16.488611
2376.000000	16.474327
2375.000000	16.457814
2374.000000	16.439580
2373.000000	16.417597
2372.000000	16.377075
2371.000000	16.349419
2370.000000	16.323080
2369.000000	16.276582
2368.000000	16.242645
2367.000000	16.212963
2366.000000	16.160184
2365.000000	16.107607
2364.000000	16.050776
2363.000000	15.976520
2362.000000	15.908950
2361.000000	15.840064
2360.000000	15.773305
2359.000000	15.702797
2358.000000	15.633505
2357.000000	15.589539
2356.000000	15.532607
2355.000000	15.475978
2354.000000	15.441231
2353.000000	15.408307
2352.000000	15.389363
2351.000000	15.381563
2350.000000	15.388755
2349.000000	15.397265
2348.000000	15.409928
2347.000000	15.438192
2346.000000	15.484994
2345.000000	15.550841
2344.000000	15.599771
2343.000000	15.627832
2342.000000	15.670886
2341.000000	15.722551
2340.000000	15.755678
2339.000000	15.786575
2338.000000	15.819499
2337.000000	15.831554
2336.000000	15.840773
2335.000000	15.838949
2334.000000	15.833276
2333.000000	15.802784
2332.000000	15.766213
2331.000000	15.715257
2330.000000	15.668455
2329.000000	15.616993
2328.000000	15.545675
2327.000000	15.476687
2326.000000	15.405774
2325.000000	15.324326
2324.000000	15.218464
2323.000000	15.112500
2322.000000	15.007448
2321.000000	14.888517
2320.000000	14.764217
2319.000000	14.628876
2318.000000	14.481073
2317.000000	14.331954
2316.000000	14.188711
2315.000000	14.041415
2314.000000	13.898678
2313.000000	13.737301
2312.000000	13.594766
2311.000000	13.470568
2310.000000	13.357513
2309.000000	13.254994
2308.000000	13.198263
2307.000000	13.128566
2306.000000	13.091185
2305.000000	13.089261
2304.000000	13.084297
2303.000000	13.109825
2302.000000	13.185398
2301.000000	13.244458
2300.000000	13.321550
2299.000000	13.422145
2298.000000	13.533478
2297.000000	13.645925
2296.000000	13.751787
2295.000000	13.871326
2294.000000	13.961891
2293.000000	14.058940
2292.000000	14.137957
2291.000000	14.203298
2290.000000	14.269956
2289.000000	14.308553
2288.000000	14.323647
2287.000000	14.333676
2286.000000	14.323546
2285.000000	14.321824
2284.000000	14.258509
2283.000000	14.220621
2282.000000	14.182227
2281.000000	14.122154
2280.000000	14.053166
2279.000000	13.982557
2278.000000	13.922180
2277.000000	13.855522
2276.000000	13.790891
2275.000000	13.750876
2274.000000	13.704073
2273.000000	13.666287
2272.000000	13.608848
2271.000000	13.617661
2270.000000	13.638327
2269.000000	13.687561
2268.000000	13.712785
2267.000000	13.801730
2266.000000	13.875378
2265.000000	14.004439
2264.000000	14.169463
2263.000000	14.350797
2262.000000	14.556139
2261.000000	14.781338
2260.000000	15.016464
2259.000000	15.300722
2258.000000	15.554894
2257.000000	15.832061
2256.000000	16.115306
2255.000000	16.407669
2254.000000	16.689699
2253.000000	16.961801
2252.000000	17.228027
2251.000000	17.514919
2250.000000	17.751464
2249.000000	17.978080
2248.000000	18.195174
2247.000000	18.401935
2246.000000	18.605049
2245.000000	18.762172
2244.000000	18.933983
2243.000000	19.085533
2242.000000	19.235260
2241.000000	19.352874
2240.000000	19.460053
2239.000000	19.569360
2238.000000	19.682010
2237.000000	19.778350
2236.000000	19.856557
2235.000000	19.919365
2234.000000	19.977513
2233.000000	20.038397
2232.000000	20.081755
2231.000000	20.106068
2230.000000	20.156112
2229.000000	20.188124
2228.000000	20.201800
2227.000000	20.218211
2226.000000	20.224391
2225.000000	20.218819
2224.000000	20.181235
2223.000000	20.178095
2222.000000	20.154288
2221.000000	20.136358
2220.000000	20.107689
2219.000000	20.093506
2218.000000	20.065648
2217.000000	20.004156
2216.000000	19.976500
2215.000000	19.923113
2214.000000	19.903156
2213.000000	19.863546
2212.000000	19.834574
2211.000000	19.793242
2210.000000	19.750998
2209.000000	19.726381
2208.000000	19.702575
2207.000000	19.675425
2206.000000	19.655266
2205.000000	19.631459
2204.000000	19.615352
2203.000000	19.569360
2202.000000	19.540083
2201.000000	19.522963
2200.000000	19.513542
2199.000000	19.511921
2198.000000	19.488216
2197.000000	19.469069
2196.000000	19.464612
2195.000000	19.467246
2194.000000	19.435538
2193.000000	19.435234
2192.000000	19.391876
2191.000000	19.400487
2190.000000	19.378707
2189.000000	19.382556
2188.000000	19.352064
2187.000000	19.326636
2186.000000	19.321774
2185.000000	19.306376
2184.000000	19.295739
2183.000000	19.278517
2182.000000	19.263220
2181.000000	19.242757
2180.000000	19.235564
2179.000000	19.219052
2178.000000	19.224218
2177.000000	19.189471
2176.000000	19.183798
2175.000000	19.187546
2174.000000	19.177416
2173.000000	19.174275
2172.000000	19.183089
2171.000000	19.203755
2170.000000	19.206997
2169.000000	19.211758
2168.000000	19.214088
2167.000000	19.232120
2166.000000	19.254407
2165.000000	19.287432
2164.000000	19.297461
2163.000000	19.329473
2162.000000	19.362194
2161.000000	19.391673
2160.000000	19.405147
2159.000000	19.462282
2158.000000	19.506856
2157.000000	19.546263
2156.000000	19.582732
2155.000000	19.627914
2154.000000	19.694470
2153.000000	19.752720
2152.000000	19.809045
2151.000000	19.834776
2150.000000	19.889683
2149.000000	19.945603
2148.000000	19.989670
2147.000000	20.066559
2146.000000	20.101408
2145.000000	20.149223
2144.000000	20.207270
2143.000000	20.252654
2142.000000	20.274840
2141.000000	20.333697
2140.000000	20.375536
2139.000000	20.407852
2138.000000	20.467520
2137.000000	20.498721
2136.000000	20.505711
2135.000000	20.531848
2134.000000	20.579156
2133.000000	20.616538
2132.000000	20.625655
2131.000000	20.640141
2130.000000	20.650272
2129.000000	20.678333
2128.000000	20.698290
2127.000000	20.698391
2126.000000	20.698898
2125.000000	20.697885
2124.000000	20.690287
2123.000000	20.675192
2122.000000	20.680055
2121.000000	20.684310
2120.000000	20.664961
2119.000000	20.635684
2118.000000	20.618057
2117.000000	20.604178
2116.000000	20.580169
2115.000000	20.566797
2114.000000	20.528505
2113.000000	20.493859
2112.000000	20.483931
2111.000000	20.442498
2110.000000	20.415146
2109.000000	20.394277
2108.000000	20.350818
2107.000000	20.315767
2106.000000	20.282438
2105.000000	20.235433
2104.000000	20.209094
2103.000000	20.185996
2102.000000	20.138890
2101.000000	20.100597
2100.000000	20.070206
2099.000000	20.041132
2098.000000	19.998990
2097.000000	19.965762
2096.000000	19.942462
2095.000000	19.902548
2094.000000	19.862837
2093.000000	19.837511
2092.000000	19.806310
2091.000000	19.779160
2090.000000	19.764066
2089.000000	19.736613
2088.000000	19.696699
2087.000000	19.669246
2086.000000	19.651011
2085.000000	19.620823
2084.000000	19.588912
2083.000000	19.547580
2082.000000	19.505944
2081.000000	19.473020
2080.000000	19.427636
2079.000000	19.386102
2078.000000	19.342541
2077.000000	19.283177
2076.000000	19.229689
2075.000000	19.174377
2074.000000	19.121395
2073.000000	19.071959
2072.000000	19.017761
2071.000000	18.950191
2070.000000	18.886775
2069.000000	18.840378
2068.000000	18.782128
2067.000000	18.711722
2066.000000	18.656512
2065.000000	18.599073
2064.000000	18.526336
2063.000000	18.467783
2062.000000	18.436075
2061.000000	18.391400
2060.000000	18.329199
2059.000000	18.295972
2058.000000	18.269227
2057.000000	18.240457
2056.000000	18.221615
2055.000000	18.217664
2054.000000	18.231340
2053.000000	18.240356
2052.000000	18.265277
2051.000000	18.298302
2050.000000	18.347535
2049.000000	18.389171
2048.000000	18.463832
2047.000000	18.536467
2046.000000	18.619131
2045.000000	18.695210
2044.000000	18.776050
2043.000000	18.872795
2042.000000	18.972884
2041.000000	19.062537
2040.000000	19.147835
2039.000000	19.236577
2038.000000	19.315493
2037.000000	19.413454
2036.000000	19.492775
2035.000000	19.551936
2034.000000	19.622646
2033.000000	19.688291
2032.000000	19.734789
2031.000000	19.792634
2030.000000	19.846933
2029.000000	19.886644
2028.000000	19.924531
2027.000000	19.970928
2026.000000	19.995039
2025.000000	20.031002
2024.000000	20.060076
2023.000000	20.084287
2022.000000	20.101813
2021.000000	20.128051
2020.000000	20.158037
2019.000000	20.170902
2018.000000	20.186503
2017.000000	20.191467
2016.000000	20.182957
2015.000000	20.179513
2014.000000	20.170902
2013.000000	20.166344
2012.000000	20.156922
2011.000000	20.135952
2010.000000	20.115793
2009.000000	20.085908
2008.000000	20.065445
2007.000000	20.039309
2006.000000	19.980755
2005.000000	19.949351
2004.000000	19.909133
2003.000000	19.860102
2002.000000	19.807931
2001.000000	19.763661
2000.000000	19.712097
1999.000000	19.638247
1998.000000	19.566929
1997.000000	19.500372
1996.000000	19.444149
1995.000000	19.353988
1994.000000	19.285304
1993.000000	19.195448
1992.000000	19.106503
1991.000000	19.036705
1990.000000	18.963057
1989.000000	18.871782
1988.000000	18.770479
1987.000000	18.684370
1986.000000	18.593501
1985.000000	18.500707
1984.000000	18.411559
1983.000000	18.319778
1982.000000	18.218778
1981.000000	18.120513
1980.000000	18.012118
1979.000000	17.926922
1978.000000	17.825618
1977.000000	17.728063
1976.000000	17.637294
1975.000000	17.529304
1974.000000	17.450186
1973.000000	17.357898
1972.000000	17.255278
1971.000000	17.180414
1970.000000	17.065637
1969.000000	16.976996
1968.000000	16.910237
1967.000000	16.811770
1966.000000	16.714822
1965.000000	16.644922
1964.000000	16.552229
1963.000000	16.461765
1962.000000	16.367654
1961.000000	16.301300
1960.000000	16.203440
1959.000000	16.135060
1958.000000	16.042874
1957.000000	15.960717
1956.000000	15.880990
1955.000000	15.800150
1954.000000	15.712624
1953.000000	15.663289
1952.000000	15.602202
1951.000000	15.514777
1950.000000	15.444067
1949.000000	15.361099
1948.000000	15.329087
1947.000000	15.264557
1946.000000	15.213905
1945.000000	15.142688
1944.000000	15.101458
1943.000000	15.070155
1942.000000	15.020921
1941.000000	14.983236
1940.000000	14.966318
1939.000000	14.967534
1938.000000	14.942613
1937.000000	14.967534
1936.000000	14.956695
1935.000000	14.952035
1934.000000	14.978475
1933.000000	14.998938
1932.000000	15.058708
1931.000000	15.071168
1930.000000	15.131950
1929.000000	15.228898
1928.000000	15.293023
1927.000000	15.401824
1926.000000	15.513865
1925.000000	15.604431
1924.000000	15.705026
1923.000000	15.817777
1922.000000	15.919081
1921.000000	16.095451
1920.000000	16.303427
1919.000000	16.471085
1918.000000	16.628714
1917.000000	16.786039
1916.000000	16.953392
1915.000000	17.083973
1914.000000	17.264800
1913.000000	17.527076
1912.000000	17.766457
1911.000000	18.016373
1910.000000	18.210167
1909.000000	18.431820
1908.000000	18.615180
1907.000000	18.833591
1906.000000	19.097285
1905.000000	19.404235
1904.000000	19.726888
1903.000000	20.038599
1902.000000	20.303711
1901.000000	20.570951
1900.000000	20.886208
1899.000000	21.226589
1898.000000	21.581557
1897.000000	21.888305
1896.000000	22.223418
1895.000000	22.499775
1894.000000	22.763469
1893.000000	23.062720
1892.000000	23.403608
1891.000000	23.823410
1890.000000	24.232171
1889.000000	24.587646
1888.000000	24.946059
1887.000000	25.329393
1886.000000	25.707965
1885.000000	26.127363
1884.000000	26.556485
1883.000000	27.037375
1882.000000	27.476729
1881.000000	27.945968
1880.000000	28.401025
1879.000000	28.781319
1878.000000	29.192410
1877.000000	29.635716
1876.000000	30.020265
1875.000000	30.361557
1874.000000	30.742966
1873.000000	31.101683
1872.000000	31.436390
1871.000000	31.738478
1870.000000	32.037932
1869.000000	32.289470
1868.000000	32.543337
1867.000000	32.725076
1866.000000	32.869738
1865.000000	32.981273
1864.000000	33.112158
1863.000000	33.209916
1862.000000	33.285894
1861.000000	33.407864
1860.000000	33.520311
1859.000000	33.619690
1858.000000	33.693743
1857.000000	33.774178
1856.000000	33.813788
1855.000000	33.838202
1854.000000	33.882776
1853.000000	33.920056
1852.000000	33.908811
1851.000000	33.899086
1850.000000	33.913977
1849.000000	33.918030
1848.000000	33.920663
1847.000000	33.946395
1846.000000	33.913977
1845.000000	33.852385
1844.000000	33.826350
1843.000000	33.791906
1842.000000	33.787246
1841.000000	33.822703
1840.000000	33.812066
1839.000000	33.795553
1838.000000	33.758881
1837.000000	33.712484
1836.000000	33.674090
1835.000000	33.670240
1834.000000	33.626680
1833.000000	33.551107
1832.000000	33.478675
1831.000000	33.432582
1830.000000	33.397429
1829.000000	33.352147
1828.000000	33.296429
1827.000000	33.242029
1826.000000	33.192694
1825.000000	33.139712
1824.000000	33.080348
1823.000000	33.040131
1822.000000	33.017337
1821.000000	33.015919
1820.000000	33.002851
1819.000000	32.981375
1818.000000	32.955643
1817.000000	32.908740
1816.000000	32.879159
1815.000000	32.876221
1814.000000	32.868522
1813.000000	32.863153
1812.000000	32.836612
1811.000000	32.817161
1810.000000	32.804600
1809.000000	32.773904
1808.000000	32.746147
1807.000000	32.705727
1806.000000	32.665509
1805.000000	32.626507
1804.000000	32.585581
1803.000000	32.537259
1802.000000	32.497244
1801.000000	32.466042
1800.000000	32.429877
1799.000000	32.373045
1798.000000	32.325331
1797.000000	32.291901
1796.000000	32.241553
1795.000000	32.202652
1794.000000	32.177529
1793.000000	32.138426
1792.000000	32.107528
1791.000000	32.062144
1790.000000	31.990826
1789.000000	31.941593
1788.000000	31.899855
1787.000000	31.850216
1786.000000	31.810708
1785.000000	31.762994
1784.000000	31.707581
1783.000000	31.652168
1782.000000	31.586523
1781.000000	31.529793
1780.000000	31.473468
1779.000000	31.403062
1778.000000	31.357576
1777.000000	31.304290
1776.000000	31.219499
1775.000000	31.132682
1774.000000	31.048498
1773.000000	30.957730
1772.000000	30.864227
1771.000000	30.778220
1770.000000	30.687553
1769.000000	30.579766
1768.000000	30.479880
1767.000000	30.395494
1766.000000	30.324987
1765.000000	30.255897
1764.000000	30.199572
1763.000000	30.151757
1762.000000	30.133218
1761.000000	30.151048
1760.000000	30.181743
1759.000000	30.211628
1758.000000	30.248705
1757.000000	30.296419
1756.000000	30.364495
1755.000000	30.425277
1754.000000	30.455871
1753.000000	30.464077
1752.000000	30.478158
1751.000000	30.486465
1750.000000	30.476638
1749.000000	30.464988
1748.000000	30.430545
1747.000000	30.374929
1746.000000	30.321846
1745.000000	30.251339
1744.000000	30.165332
1743.000000	30.044476
1742.000000	29.922000
1741.000000	29.771868
1740.000000	29.601677
1739.000000	29.436451
1738.000000	29.259777
1737.000000	29.087763
1736.000000	28.958500
1735.000000	28.843621
1734.000000	28.762477
1733.000000	28.704734
1732.000000	28.688626
1731.000000	28.721753
1730.000000	28.756601
1729.000000	28.817890
1728.000000	28.905720
1727.000000	28.997603
1726.000000	29.085737
1725.000000	29.164450
1724.000000	29.228880
1723.000000	29.284394
1722.000000	29.342340
1721.000000	29.376074
1720.000000	29.421559
1719.000000	29.478593
1718.000000	29.521951
1717.000000	29.579087
1716.000000	29.655672
1715.000000	29.750290
1714.000000	29.836601
1713.000000	29.938006
1712.000000	30.017631
1711.000000	30.067878
1710.000000	30.131294
1709.000000	30.166345
1708.000000	30.178096
1707.000000	30.201295
1706.000000	30.189746
1705.000000	30.186302
1704.000000	30.161482
1703.000000	30.121670
1702.000000	30.062812
1701.000000	29.989468
1700.000000	29.897788
1699.000000	29.790305
1698.000000	29.683227
1697.000000	29.579593
1696.000000	29.496119
1695.000000	29.466943
1694.000000	29.456408
1693.000000	29.504628
1692.000000	29.592864
1691.000000	29.701360
1690.000000	29.834474
1689.000000	29.950264
1688.000000	30.088341
1687.000000	30.145375
1686.000000	30.209399
1685.000000	30.284870
1684.000000	30.355175
1683.000000	30.464685
1682.000000	30.660302
1681.000000	30.918728
1680.000000	31.272177
1679.000000	31.665134
1678.000000	32.100741
1677.000000	32.525913
1676.000000	32.940752
1675.000000	33.306560
1674.000000	33.618170
1673.000000	33.923601
1672.000000	34.168452
1671.000000	34.382406
1670.000000	34.564449
1669.000000	34.757028
1668.000000	34.904425
1667.000000	35.043515
1666.000000	35.161939
1665.000000	35.257266
1664.000000	35.371638
1663.000000	35.449236
1662.000000	35.535547
1661.000000	35.618312
1660.000000	35.689124
1659.000000	35.727619
1658.000000	35.780601
1657.000000	35.834292
1656.000000	35.855262
1655.000000	35.902166
1654.000000	35.911992
1653.000000	35.927390
1652.000000	35.949778
1651.000000	35.943092
1650.000000	35.937115
1649.000000	35.920704
1648.000000	35.931544
1647.000000	35.892339
1646.000000	35.879777
1645.000000	35.850197
1644.000000	35.827505
1643.000000	35.781310
1642.000000	35.759023
1641.000000	35.728328
1640.000000	35.691555
1639.000000	35.657010
1638.000000	35.623175
1637.000000	35.580830
1636.000000	35.542841
1635.000000	35.514375
1634.000000	35.466357
1633.000000	35.432825
1632.000000	35.382882
1631.000000	35.305891
1630.000000	35.270131
1629.000000	35.216947
1628.000000	35.136005
1627.000000	35.094774
1626.000000	35.029940
1625.000000	34.981213
1624.000000	34.912630
1623.000000	34.874337
1622.000000	34.815581
1621.000000	34.736058
1620.000000	34.687837
1619.000000	34.635058
1618.000000	34.585925
1617.000000	34.525042
1616.000000	34.478847
1615.000000	34.435591
1614.000000	34.375315
1613.000000	34.332869
1612.000000	34.263374
1611.000000	34.223258
1610.000000	34.158221
1609.000000	34.108481
1608.000000	34.061982
1607.000000	34.006063
1606.000000	33.959564
1605.000000	33.877913
1604.000000	33.841039
1603.000000	33.782485
1602.000000	33.718664
1601.000000	33.659097
1600.000000	33.595985
1599.000000	33.533987
1598.000000	33.478979
1597.000000	33.428226
1596.000000	33.363594
1595.000000	33.321046
1594.000000	33.272927
1593.000000	33.207079
1592.000000	33.148931
1591.000000	33.105269
1590.000000	33.061202
1589.000000	33.015615
1588.000000	32.976715
1587.000000	32.936396
1586.000000	32.884224
1585.000000	32.847451
1584.000000	32.794469
1583.000000	32.754555
1582.000000	32.723354
1581.000000	32.679591
1580.000000	32.651428
1579.000000	32.627622
1578.000000	32.581225
1577.000000	32.549517
1576.000000	32.545262
1575.000000	32.536854
1574.000000	32.515782
1573.000000	32.489241
1572.000000	32.470500
1571.000000	32.467258
1570.000000	32.465131
1569.000000	32.464016
1568.000000	32.466853
1567.000000	32.469993
1566.000000	32.469588
1565.000000	32.465131
1564.000000	32.464827
1563.000000	32.477996
1562.000000	32.471918
1561.000000	32.468474
1560.000000	32.470702
1559.000000	32.459660
1558.000000	32.442540
1557.000000	32.432004
1556.000000	32.427952
1555.000000	32.409717
1554.000000	32.391989
1553.000000	32.371931
1552.000000	32.344579
1551.000000	32.321887
1550.000000	32.300309
1549.000000	32.262928
1548.000000	32.233347
1547.000000	32.201234
1546.000000	32.177529
1545.000000	32.152406
1544.000000	32.121204
1543.000000	32.101349
1542.000000	32.079264
1541.000000	32.072376
1540.000000	32.064474
1539.000000	32.050595
1538.000000	32.018178
1537.000000	31.996094
1536.000000	31.989914
1535.000000	31.983026
1534.000000	31.951419
1533.000000	31.934096
1532.000000	31.931665
1531.000000	31.907149
1530.000000	31.883647
1529.000000	31.868958
1528.000000	31.835933
1527.000000	31.792879
1526.000000	31.768262
1525.000000	31.736554
1524.000000	31.706466
1523.000000	31.679520
1522.000000	31.649736
1521.000000	31.612254
1520.000000	31.570314
1519.000000	31.540835
1518.000000	31.503656
1517.000000	31.469517
1516.000000	31.434972
1515.000000	31.397895
1514.000000	31.357677
1513.000000	31.323943
1512.000000	31.283219
1511.000000	31.239051
1510.000000	31.199745
1509.000000	31.160642
1508.000000	31.115359
1507.000000	31.066429
1506.000000	31.032796
1505.000000	30.991768
1504.000000	30.943953
1503.000000	30.912549
1502.000000	30.879827
1501.000000	30.828669
1500.000000	30.779841
1499.000000	30.743067
1498.000000	30.719261
1497.000000	30.698190
1496.000000	30.670331
1495.000000	30.637002
1494.000000	30.616944
1493.000000	30.601343
1492.000000	30.591416
1491.000000	30.583007
1490.000000	30.563253
1489.000000	30.548058
1488.000000	30.549374
1487.000000	30.542992
1486.000000	30.522022
1485.000000	30.518983
1484.000000	30.510778
1483.000000	30.500242
1482.000000	30.509562
1481.000000	30.509866
1480.000000	30.505206
1479.000000	30.501762
1478.000000	30.499330
1477.000000	30.515742
1476.000000	30.514729
1475.000000	30.507232
1474.000000	30.535800
1473.000000	30.564975
1472.000000	30.591010
1471.000000	30.622516
1470.000000	30.634166
1469.000000	30.632950
1468.000000	30.648956
1467.000000	30.670736
1466.000000	30.697683
1465.000000	30.728480
1464.000000	30.749449
1463.000000	30.774877
1462.000000	30.808712
1461.000000	30.857237
1460.000000	30.899683
1459.000000	30.940205
1458.000000	30.988121
1457.000000	31.045662
1456.000000	31.111813
1455.000000	31.165909
1454.000000	31.234289
1453.000000	31.294869
1452.000000	31.392019
1451.000000	31.482788
1450.000000	31.550560
1449.000000	31.591993
1448.000000	31.650952
1447.000000	31.756916
1446.000000	31.846266
1445.000000	31.929335
1444.000000	32.008656
1443.000000	32.063258
1442.000000	32.163954
1441.000000	32.259180
1440.000000	32.335462
1439.000000	32.433321
1438.000000	32.528344
1437.000000	32.615364
1436.000000	32.692861
1435.000000	32.791835
1434.000000	32.898407
1433.000000	33.005181
1432.000000	33.119756
1431.000000	33.217109
1430.000000	33.328036
1429.000000	33.438964
1428.000000	33.579979
1427.000000	33.724641
1426.000000	33.861603
1425.000000	34.030375
1424.000000	34.186586
1423.000000	34.360322
1422.000000	34.518964
1421.000000	34.704552
1420.000000	34.885076
1419.000000	35.101562
1418.000000	35.278742
1417.000000	35.441132
1416.000000	35.639485
1415.000000	35.870458
1414.000000	36.132429
1413.000000	36.335341
1412.000000	36.561856
1411.000000	36.756562
1410.000000	37.020661
1409.000000	37.344428
1408.000000	37.625343
1407.000000	37.935637
1406.000000	38.216653
1405.000000	38.541433
1404.000000	38.840077
1403.000000	39.192918
1402.000000	39.488826
1401.000000	39.839945
1400.000000	40.189342
1399.000000	40.483224
1398.000000	40.687554
1397.000000	40.939699
1396.000000	41.221121
1395.000000	41.557956
1394.000000	41.773632
1393.000000	41.961348
1392.000000	42.177226
1391.000000	42.421369
1390.000000	42.674628
1389.000000	42.916744
1388.000000	43.246387
1387.000000	43.580284
1386.000000	43.907191
1385.000000	44.266009
1384.000000	44.693714
1383.000000	45.081910
1382.000000	45.505765
1381.000000	45.804510
1380.000000	46.096873
1379.000000	46.273851
1378.000000	46.457920
1377.000000	46.595997
1376.000000	46.769935
1375.000000	46.912064
1374.000000	47.081140
1373.000000	47.304009
1372.000000	47.576617
1371.000000	47.811642
1370.000000	48.049503
1369.000000	48.271764
1368.000000	48.502027
1367.000000	48.706155
1366.000000	48.905014
1365.000000	49.059401
1364.000000	49.246205
1363.000000	49.377799
1362.000000	49.555587
1361.000000	49.665603
1360.000000	49.757789
1359.000000	49.745937
1358.000000	49.851597
1357.000000	49.966374
1356.000000	50.076694
1355.000000	50.297131
1354.000000	50.533675
1353.000000	50.785516
1352.000000	51.045664
1351.000000	51.425554
1350.000000	51.746687
1349.000000	52.065186
1348.000000	52.368793
1347.000000	52.634716
1346.000000	52.887367
1345.000000	53.107804
1344.000000	53.378995
1343.000000	53.622326
1342.000000	53.837800
1341.000000	54.065429
1340.000000	54.309369
1339.000000	54.495565
1338.000000	54.727449
1337.000000	54.925093
1336.000000	55.131753
1335.000000	55.315417
1334.000000	55.497966
1333.000000	55.680212
1332.000000	55.867218
1331.000000	56.058885
1330.000000	56.225125
1329.000000	56.363404
1328.000000	56.520020
1327.000000	56.674508
1326.000000	56.805697
1325.000000	56.940836
1324.000000	57.084991
1323.000000	57.198350
1322.000000	57.298135
1321.000000	57.420206
1320.000000	57.523333
1319.000000	57.627980
1318.000000	57.732221
1317.000000	57.841427
1316.000000	57.928244
1315.000000	57.994699
1314.000000	58.090938
1313.000000	58.165295
1312.000000	58.243805
1311.000000	58.317352
1310.000000	58.386340
1309.000000	58.447629
1308.000000	58.498483
1307.000000	58.539005
1306.000000	58.598470
1305.000000	58.628456
1304.000000	58.655909
1303.000000	58.700382
1302.000000	58.718414
1301.000000	58.735129
1300.000000	58.736952
1299.000000	58.759543
1298.000000	58.786895
1297.000000	58.784869
1296.000000	58.781526
1295.000000	58.810296
1294.000000	58.808777
1293.000000	58.793682
1292.000000	58.777575
1291.000000	58.761468
1290.000000	58.739384
1289.000000	58.718414
1288.000000	58.714665
1287.000000	58.686604
1286.000000	58.648312
1285.000000	58.610829
1284.000000	58.566458
1283.000000	58.530394
1282.000000	58.504967
1281.000000	58.443678
1280.000000	58.397889
1279.000000	58.356658
1278.000000	58.313300
1277.000000	58.258798
1276.000000	58.219695
1275.000000	58.167422
1274.000000	58.136930
1273.000000	58.112820
1272.000000	58.077667
1271.000000	58.052341
1270.000000	58.028535
1269.000000	58.003513
1268.000000	57.977174
1267.000000	57.935437
1266.000000	57.912846
1265.000000	57.891876
1264.000000	57.868272
1263.000000	57.836058
1262.000000	57.808402
1261.000000	57.788344
1260.000000	57.763018
1259.000000	57.722699
1258.000000	57.684507
1257.000000	57.650672
1256.000000	57.619875
1255.000000	57.584926
1254.000000	57.528499
1253.000000	57.489295
1252.000000	57.456472
1251.000000	57.405111
1250.000000	57.365096
1249.000000	57.306745
1248.000000	57.237251
1247.000000	57.190246
1246.000000	57.122676
1245.000000	57.048117
1244.000000	56.987638
1243.000000	56.912268
1242.000000	56.826869
1241.000000	56.728301
1240.000000	56.647866
1239.000000	56.570976
1238.000000	56.475953
1237.000000	56.395011
1236.000000	56.302217
1235.000000	56.202737
1234.000000	56.109537
1233.000000	56.006714
1232.000000	55.900041
1231.000000	55.794584
1230.000000	55.681022
1229.000000	55.569791
1228.000000	55.462409
1227.000000	55.350569
1226.000000	55.230524
1225.000000	55.119394
1224.000000	54.999653
1223.000000	54.884774
1222.000000	54.774657
1221.000000	54.645292
1220.000000	54.528084
1219.000000	54.424551
1218.000000	54.306431
1217.000000	54.186183
1216.000000	54.078396
1215.000000	53.980537
1214.000000	53.888958
1213.000000	53.785628
1212.000000	53.700026
1211.000000	53.611386
1210.000000	53.523353
1209.000000	53.439777
1208.000000	53.366636
1207.000000	53.291063
1206.000000	53.216807
1205.000000	53.151872
1204.000000	53.100612
1203.000000	53.055633
1202.000000	53.018657
1201.000000	52.988671
1200.000000	52.948656
1199.000000	52.909553
1198.000000	52.854140
1197.000000	52.770260
1196.000000	52.666525
1195.000000	52.530373
1194.000000	52.356637
1193.000000	52.158588
1192.000000	51.912318
1191.000000	51.619449
1190.000000	51.323338
1189.000000	51.033609
1188.000000	50.780451
1187.000000	50.588480
1186.000000	50.465903
1185.000000	50.400359
1184.000000	50.433992
1183.000000	50.570752
1182.000000	50.776298
1181.000000	51.034318
1180.000000	51.339851
1179.000000	51.657337
1178.000000	51.968947
1177.000000	52.255130
1176.000000	52.501400
1175.000000	52.733082
1174.000000	52.934778
1173.000000	53.136777
1172.000000	53.325405
1171.000000	53.547868
1170.000000	53.775599
1169.000000	53.999683
1168.000000	54.217790
1167.000000	54.454031
1166.000000	54.680141
1165.000000	54.917597
1164.000000	55.161131
1163.000000	55.419050
1162.000000	55.677173
1161.000000	55.929419
1160.000000	56.186325
1159.000000	56.444346
1158.000000	56.693250
1157.000000	56.914294
1156.000000	57.126121
1155.000000	57.332375
1154.000000	57.515634
1153.000000	57.652394
1152.000000	57.786115
1151.000000	57.878605
1150.000000	57.940806
1149.000000	57.999562
1148.000000	58.076350
1147.000000	58.160432
1146.000000	58.248060
1145.000000	58.379046
1144.000000	58.540322
1143.000000	58.742321
1142.000000	58.982006
1141.000000	59.228580
1140.000000	59.483764
1139.000000	59.759513
1138.000000	60.038909
1137.000000	60.330157
1136.000000	60.626572
1135.000000	60.941728
1134.000000	61.249996
1133.000000	61.549753
1132.000000	61.786602
1131.000000	62.058906
1130.000000	62.281673
1129.000000	62.497349
1128.000000	62.679493
1127.000000	62.819698
1126.000000	62.948556
1125.000000	63.065866
1124.000000	63.157850
1123.000000	63.214985
1122.000000	63.308691
1121.000000	63.366333
1120.000000	63.399155
1119.000000	63.432079
1118.000000	63.480097
1117.000000	63.513224
1116.000000	63.528318
1115.000000	63.536220
1114.000000	63.540170
1113.000000	63.543817
1112.000000	63.556480
1111.000000	63.562761
1110.000000	63.563065
1109.000000	63.565395
1108.000000	63.574107
1107.000000	63.573094
1106.000000	63.574715
1105.000000	63.595584
1104.000000	63.584136
1103.000000	63.563572
1102.000000	63.557493
1101.000000	63.583022
1100.000000	63.564281
1099.000000	63.555467
1098.000000	63.555366
1097.000000	63.539461
1096.000000	63.562660
1095.000000	63.537638
1094.000000	63.512818
1093.000000	63.494786
1092.000000	63.483238
1091.000000	63.466725
1090.000000	63.454467
1089.000000	63.416985
1088.000000	63.390139
1087.000000	63.399358
1086.000000	63.360154
1085.000000	63.362281
1084.000000	63.302410
1083.000000	63.286303
1082.000000	63.267562
1081.000000	63.247200
1080.000000	63.208704
1079.000000	63.202424
1078.000000	63.173957
1077.000000	63.152379
1076.000000	63.142046
1075.000000	63.112668
1074.000000	63.100613
1073.000000	63.078833
1072.000000	63.073970
1071.000000	63.052393
1070.000000	63.039223
1069.000000	63.048239
1068.000000	63.020988
1067.000000	63.018962
1066.000000	62.980163
1065.000000	62.982898
1064.000000	62.977428
1063.000000	62.970640
1062.000000	62.969121
1061.000000	62.964866
1060.000000	62.957977
1059.000000	62.945213
1058.000000	62.941262
1057.000000	62.922217
1056.000000	62.940756
1055.000000	62.950481
1054.000000	62.930220
1053.000000	62.946530
1052.000000	62.941161
1051.000000	62.954736
1050.000000	62.948252
1049.000000	62.954331
1048.000000	62.958889
1047.000000	62.985836
1046.000000	63.004375
1045.000000	63.017544
1044.000000	63.034968
1043.000000	63.051481
1042.000000	63.063840
1041.000000	63.071033
1040.000000	63.106894
1039.000000	63.125331
1038.000000	63.148935
1037.000000	63.149340
1036.000000	63.184797
1035.000000	63.212858
1034.000000	63.211338
1033.000000	63.216201
1032.000000	63.243755
1031.000000	63.264016
1030.000000	63.261484
1029.000000	63.274552
1028.000000	63.302714
1027.000000	63.282757
1026.000000	63.307678
1025.000000	63.303423
1024.000000	63.317505
1023.000000	63.350124
1022.000000	63.355291
1021.000000	63.354075
1020.000000	63.385277
1019.000000	63.396826
1018.000000	63.399257
1017.000000	63.429040
1016.000000	63.451023
1015.000000	63.471486
1014.000000	63.504815
1013.000000	63.535916
1012.000000	63.586669
1011.000000	63.614223
1010.000000	63.655758
1009.000000	63.708436
1008.000000	63.757872
1007.000000	63.800015
1006.000000	63.852085
1005.000000	63.920161
1004.000000	63.984185
1003.000000	64.026226
1002.000000	64.083564
1001.000000	64.145055
1000.000000	64.193681
999.000000	64.261960
998.000000	64.318082
997.000000	64.379067
996.000000	64.438634
995.000000	64.505393
994.000000	64.570430
993.000000	64.635568
992.000000	64.690374
991.000000	64.759058
990.000000	64.840101
989.000000	64.904226
988.000000	64.968149
987.000000	65.059322
986.000000	65.148469
985.000000	65.220699
984.000000	65.292827
983.000000	65.370527
982.000000	65.462309
981.000000	65.562701
980.000000	65.641616
979.000000	65.725496
978.000000	65.790938
977.000000	65.871373
976.000000	65.978553
975.000000	66.044805
974.000000	66.114604
973.000000	66.223708
972.000000	66.320757
971.000000	66.393797
970.000000	66.455795
969.000000	66.519515
968.000000	66.606028
967.000000	66.710169
966.000000	66.786957
965.000000	66.856857
964.000000	66.928985
963.000000	67.010129
962.000000	67.091577
961.000000	67.172418
960.000000	67.262578
959.000000	67.345040
958.000000	67.415142
957.000000	67.492538
956.000000	67.571555
955.000000	67.641049
954.000000	67.711759
953.000000	67.788851
952.000000	67.843556
951.000000	67.903122
950.000000	67.979201
949.000000	68.036641
948.000000	68.091243
947.000000	68.156179
946.000000	68.191433
945.000000	68.230232
944.000000	68.280783
943.000000	68.344604
942.000000	68.391913
941.000000	68.418758
940.000000	68.478933
939.000000	68.515706
938.000000	68.540323
937.000000	68.587531
936.000000	68.623696
935.000000	68.682857
934.000000	68.733003
933.000000	68.754783
932.000000	68.803915
931.000000	68.842411
930.000000	68.892962
929.000000	68.919706
928.000000	68.932977
927.000000	68.970256
926.000000	68.987377
925.000000	69.016046
924.000000	69.054845
923.000000	69.082704
922.000000	69.109650
921.000000	69.151084
920.000000	69.165063
919.000000	69.175396
918.000000	69.200824
917.000000	69.223718
916.000000	69.230303
915.000000	69.238813
914.000000	69.245195
913.000000	69.274978
912.000000	69.281158
911.000000	69.279334
910.000000	69.285615
909.000000	69.294530
908.000000	69.289363
907.000000	69.294530
906.000000	69.304660
905.000000	69.324212
904.000000	69.332823
903.000000	69.341737
902.000000	69.348727
901.000000	69.358756
900.000000	69.367570
899.000000	69.375471
898.000000	69.382056
897.000000	69.401507
896.000000	69.411941
895.000000	69.417614
894.000000	69.419843
893.000000	69.426123
892.000000	69.418120
891.000000	69.423793
890.000000	69.417513
889.000000	69.411738
888.000000	69.388134
887.000000	69.366455
886.000000	69.351564
885.000000	69.338496
884.000000	69.320362
883.000000	69.290883
882.000000	69.256743
881.000000	69.226048
880.000000	69.196974
879.000000	69.170027
878.000000	69.135078
877.000000	69.046639
876.000000	68.951110
875.000000	68.827114
874.000000	68.698560
873.000000	68.596040
872.000000	68.431928
871.000000	68.318366
870.000000	68.297802
869.000000	68.304690
868.000000	68.353620
867.000000	68.360610
866.000000	68.355444
865.000000	68.374387
864.000000	68.384315
863.000000	68.401436
862.000000	68.396776
861.000000	68.423216
860.000000	68.416935
859.000000	68.424026
858.000000	68.427167
857.000000	67.930900
856.000000	68.629700
855.000000	68.720900
854.000000	68.833200
853.000000	68.409500
852.000000	68.548500
851.000000	68.291000
850.000000	68.420700
849.000000	68.324800
848.000000	68.164700
847.000000	68.197200
846.000000	68.363000
845.000000	68.076000
844.000000	68.105500
843.000000	67.909000
842.000000	67.752000
841.000000	67.645100
840.000000	67.569300
839.000000	67.647500
838.000000	67.458800
837.000000	67.449800
836.000000	67.275400
835.000000	67.383200
834.000000	67.048600
833.000000	67.047400
832.000000	66.876600
831.000000	66.926900
830.000000	66.700200
829.000000	66.563700
828.000000	66.583800
827.000000	66.646300
826.000000	66.498600
825.000000	66.158100
824.000000	66.013800
823.000000	66.225600
822.000000	66.297300
821.000000	66.020100
820.000000	65.855000
819.000000	65.732400
818.000000	65.456600
817.000000	65.601600
816.000000	65.532700
815.000000	65.439100
814.000000	65.322900
813.000000	65.280600
812.000000	65.071800
811.000000	64.940500
810.000000	64.795200
809.000000	64.821500
808.000000	64.723600
807.000000	64.628600
806.000000	64.631100
805.000000	64.544700
804.000000	64.411800
803.000000	64.423000
802.000000	64.251100
801.000000	64.084700
800.000000	63.885600
799.000000	63.859100
798.000000	63.848100
797.000000	63.594900
796.000000	63.454200
795.000000	63.464300
794.000000	63.387400
793.000000	63.066200
792.000000	63.046200
791.000000	63.055800
790.000000	62.977100
789.000000	62.602400
788.000000	62.739500
787.000000	62.737600
786.000000	62.491500
785.000000	62.358000
784.000000	62.331200
783.000000	62.165800
782.000000	61.987000
781.000000	61.757100
780.000000	61.779100
779.000000	61.626600
778.000000	61.482600
777.000000	61.323400
776.000000	61.078700
775.000000	60.999600
774.000000	60.974700
773.000000	60.757700
772.000000	60.621400
771.000000	60.562500
770.000000	60.478000
769.000000	60.192600
768.000000	60.146000
767.000000	59.956300
766.000000	59.825200
765.000000	59.667300
764.000000	59.516100
763.000000	59.382500
762.000000	59.197900
761.000000	59.147600
760.000000	58.857200
759.000000	58.876300
758.000000	58.698400
757.000000	58.552200
756.000000	58.458700
755.000000	58.291500
754.000000	58.265500
753.000000	58.184500
752.000000	58.134300
751.000000	58.077200
750.000000	57.884300
749.000000	57.809600
748.000000	57.684000
747.000000	57.633000
746.000000	57.627700
745.000000	57.526500
744.000000	57.553200
743.000000	57.401800
742.000000	57.225300
741.000000	57.199900
740.000000	57.156100
739.000000	57.003000
738.000000	57.002400
737.000000	56.860000
736.000000	56.801000
735.000000	56.650200
734.000000	56.591000
733.000000	56.452200
732.000000	56.375100
731.000000	56.265700
730.000000	56.117500
729.000000	56.022500
728.000000	56.016400
727.000000	55.809500
726.000000	55.657800
725.000000	55.582300
724.000000	55.377000
723.000000	55.252200
722.000000	55.151900
721.000000	55.016500
720.000000	54.877500
719.000000	54.773900
718.000000	54.632600
717.000000	54.494300
716.000000	54.339400
715.000000	54.179200
714.000000	53.935400
713.000000	53.719300
712.000000	53.558300
711.000000	53.339200
710.000000	53.104400
709.000000	52.875900
708.000000	52.661100
707.000000	52.428800
706.000000	52.222900
705.000000	51.984600
704.000000	51.788900
703.000000	51.574400
702.000000	51.362700
701.000000	51.176600
700.000000	50.943400
699.000000	50.731300
698.000000	50.524200
697.000000	50.282000
696.000000	50.112400
695.000000	49.898800
694.000000	49.660600
693.000000	49.455300
692.000000	49.279400
691.000000	49.104400
690.000000	48.855000
689.000000	48.705100
688.000000	48.526000
687.000000	48.395400
686.000000	48.230100
685.000000	48.091800
684.000000	47.970800
683.000000	47.882900
682.000000	47.825600
681.000000	47.796400
680.000000	47.788600
679.000000	47.742300
678.000000	47.756600
677.000000	47.752800
676.000000	47.763200
675.000000	47.814900
674.000000	47.846600
673.000000	47.897100
672.000000	47.940300
671.000000	48.004300
670.000000	48.020700
669.000000	47.982300
668.000000	47.987000
667.000000	48.016900
666.000000	48.036700
665.000000	48.055100
664.000000	48.055200
663.000000	48.068300
662.000000	48.112400
661.000000	48.129300
660.000000	48.185300
659.000000	48.275100
658.000000	48.332200
657.000000	48.334300
656.000000	48.322900
655.000000	48.311100
654.000000	48.227100
653.000000	48.074700
652.000000	47.929200
651.000000	47.719000
650.000000	47.453400
649.000000	47.178200
648.000000	46.849700
647.000000	46.439800
646.000000	46.060100
645.000000	45.716200
644.000000	45.339200
643.000000	44.962300
642.000000	44.648000
641.000000	44.387900
640.000000	44.163400
639.000000	43.959800
638.000000	43.805600
637.000000	43.714800
636.000000	43.694500
635.000000	43.724700
634.000000	43.798800
633.000000	43.934200
632.000000	44.129600
631.000000	44.373000
630.000000	44.669100
629.000000	45.063100
628.000000	45.526500
627.000000	46.008900
626.000000	46.542100
625.000000	47.135600
624.000000	47.801300
623.000000	48.481600
622.000000	49.146200
621.000000	49.871100
620.000000	50.611300
619.000000	51.358300
618.000000	52.074600
617.000000	52.767000
616.000000	53.451200
615.000000	54.118300
614.000000	54.784100
613.000000	55.446300
612.000000	56.043500
611.000000	56.626000
610.000000	57.136700
609.000000	57.603200
608.000000	58.025600
607.000000	58.404300
606.000000	58.788600
605.000000	59.135600
604.000000	59.467200
603.000000	59.793300
602.000000	60.090700
601.000000	60.364000
600.000000	60.676900
599.000000	60.935400
598.000000	61.171300
597.000000	61.345100
596.000000	61.484900
595.000000	61.658500
594.000000	61.790800
593.000000	61.848500
592.000000	61.941900
591.000000	62.038600
590.000000	62.162400
589.000000	62.221600
588.000000	62.293600
587.000000	62.400000
586.000000	62.529700
585.000000	62.682000
584.000000	62.793200
583.000000	62.986800
582.000000	63.243200
581.000000	63.484900
580.000000	63.723100
579.000000	63.955000
578.000000	64.185400
577.000000	64.380600
576.000000	64.551900
575.000000	64.659700
574.000000	64.765700
573.000000	64.795900
572.000000	64.821900
571.000000	64.816900
570.000000	64.758400
569.000000	64.686500
568.000000	64.622100
567.000000	64.611500
566.000000	64.557000
565.000000	64.550600
564.000000	64.558000
563.000000	64.591400
562.000000	64.611400
561.000000	64.641400
560.000000	64.656600
559.000000	64.692200
558.000000	64.709800
557.000000	64.636600
556.000000	64.535500
555.000000	64.374900
554.000000	64.134300
553.000000	63.853600
552.000000	63.540800
551.000000	63.148200
550.000000	62.725400
549.000000	62.293600
548.000000	61.816000
547.000000	61.286700
546.000000	60.771800
545.000000	60.198800
544.000000	59.581500
543.000000	58.885400
542.000000	58.148900
541.000000	57.351000
540.000000	56.489300
539.000000	55.570100
538.000000	54.649400
537.000000	53.697200
536.000000	52.719000
535.000000	51.715400
534.000000	50.644900
533.000000	49.623300
532.000000	48.595200
531.000000	47.591200
530.000000	46.616300
529.000000	45.649000
528.000000	44.700300
527.000000	43.817600
526.000000	42.966500
525.000000	42.144300
524.000000	41.366600
523.000000	40.608400
522.000000	39.938000
521.000000	39.253800
520.000000	38.619500
519.000000	38.050400
518.000000	37.490600
517.000000	36.960400
516.000000	36.439800
515.000000	35.947100
514.000000	35.435200
513.000000	34.969200
512.000000	34.499700
511.000000	33.990300
510.000000	33.529500
509.000000	33.034400
508.000000	32.569500
507.000000	32.066400
506.000000	31.593600
505.000000	31.100600
504.000000	30.576500
503.000000	30.035400
502.000000	29.519400
501.000000	28.970100
500.000000	28.437000
499.000000	27.896100
498.000000	27.394900
497.000000	26.876000
496.000000	26.456400
495.000000	25.945600
494.000000	25.513900
493.000000	25.092300
492.000000	24.697500
491.000000	24.347800
490.000000	24.054600
489.000000	23.760000
488.000000	23.492300
487.000000	23.296100
486.000000	23.079700
485.000000	22.918900
484.000000	22.732600
483.000000	22.590500
482.000000	22.466500
481.000000	22.325900
480.000000	22.194400
479.000000	22.106300
478.000000	21.973500
477.000000	21.891800
476.000000	21.789500
475.000000	21.668100
474.000000	21.541200
473.000000	21.446100
472.000000	21.332900
471.000000	21.227900
470.000000	21.075300
469.000000	20.968100
468.000000	20.846300
467.000000	20.719700
466.000000	20.606800
465.000000	20.486800
464.000000	20.353000
463.000000	20.172900
462.000000	20.058500
461.000000	19.920200
460.000000	19.764300
459.000000	19.605400
458.000000	19.490200
457.000000	19.302700
456.000000	19.160300
455.000000	18.984800
454.000000	18.815400
453.000000	18.640200
452.000000	18.480100
451.000000	18.282600
450.000000	18.070800
449.000000	17.870600
448.000000	17.671100
447.000000	17.437000
446.000000	17.205700
445.000000	16.974400
444.000000	16.715900
443.000000	16.458000
442.000000	16.194800
441.000000	15.931000
440.000000	15.639100
439.000000	15.345000
438.000000	15.079300
437.000000	14.756600
436.000000	14.492400
435.000000	14.183200
434.000000	13.866400
433.000000	13.553100
432.000000	13.256000
431.000000	12.931200
430.000000	12.613200
429.000000	12.290700
428.000000	11.967600
427.000000	11.668300
426.000000	11.348800
425.000000	11.049200
424.000000	10.713700
423.000000	10.406600
422.000000	10.136500
421.000000	9.845700
420.000000	9.559300
419.000000	9.312900
418.000000	9.066300
417.000000	8.830200
416.000000	8.595800
415.000000	8.369700
414.000000	8.146300
413.000000	7.963200
412.000000	7.768900
411.000000	7.599700
410.000000	7.431200
409.000000	7.265400
408.000000	7.142500
407.000000	7.008300
406.000000	6.901000
405.000000	6.812300
404.000000	6.705100
403.000000	6.603800
402.000000	6.546400
401.000000	6.465400
400.000000	6.390900
399.000000	6.309300
398.000000	6.249900
397.000000	6.181500
396.000000	6.141000
395.000000	6.099900
394.000000	6.052400
393.000000	6.007300
392.000000	5.989500
391.000000	5.942200
390.000000	5.902100
389.000000	5.874500
388.000000	5.861400
387.000000	5.838500
386.000000	5.820000
385.000000	5.783700
384.000000	5.747600
383.000000	5.742500
382.000000	5.736700
381.000000	5.706300
380.000000	5.681800
379.000000	5.658700
378.000000	5.658400
377.000000	5.642200
376.000000	5.625500
375.000000	5.674300
374.000000	5.735100
373.000000	5.640600
372.000000	5.629400
371.000000	5.620100
370.000000	5.581000
369.000000	5.550000
368.000000	5.537300
367.000000	5.552700
366.000000	5.551700
365.000000	5.611800
364.000000	5.491400
363.000000	5.431800
362.000000	5.525400
361.000000	5.450000
360.000000	5.435100
359.000000	5.447200
358.000000	5.423500
357.000000	5.455000
356.000000	5.451300
355.000000	5.405600
354.000000	5.406000
353.000000	5.426400
352.000000	5.405800
351.000000	5.401900
350.000000	5.420200
349.000000	5.369700
348.000000	5.290600
347.000000	5.330200
346.000000	5.363400
345.000000	5.380100
344.000000	5.352000
343.000000	5.277500
342.000000	5.302700
341.000000	5.395700
340.000000	5.414000
339.000000	5.394300
338.000000	5.318800
337.000000	5.345800
336.000000	5.382800
335.000000	5.364800
334.000000	5.340100
333.000000	5.302900
332.000000	5.371500
331.000000	5.388500
330.000000	5.301700
329.000000	5.286000
328.000000	5.345100
327.000000	5.309600
326.000000	5.187100
325.000000	5.195200
324.000000	5.335900
323.000000	5.456300
322.000000	5.387400
321.000000	5.348400
320.000000	5.370500
319.000000	5.328800
318.000000	5.371500
317.000000	5.310800
316.000000	5.243000
315.000000	5.279600
314.000000	5.321400
313.000000	5.301500
312.000000	5.287700
311.000000	5.285600
310.000000	5.291900
309.000000	5.313600
308.000000	5.337300
307.000000	5.297400
306.000000	5.313400
305.000000	5.305600
304.000000	5.277800
303.000000	5.293300
302.000000	5.324800
301.000000	5.337200
300.000000	5.342100
299.000000	5.354200
298.000000	5.338500
297.000000	5.313300
296.000000	5.331100
295.000000	5.346500
294.000000	5.357900
293.000000	5.358100
292.000000	5.373500
291.000000	5.367900
290.000000	5.374500
289.000000	5.382500
288.000000	5.389300
287.000000	5.387200
286.000000	5.406300
285.000000	5.412500
284.000000	5.424600
283.000000	5.429400
282.000000	5.422000
281.000000	5.415500
280.000000	5.473100
279.000000	5.469100
278.000000	5.480300
277.000000	5.505700
276.000000	5.506100
275.000000	5.471200
274.000000	5.495200
273.000000	5.526800
272.000000	5.538500
271.000000	5.526300
270.000000	5.563900
269.000000	5.585600
268.000000	5.563000
267.000000	5.611600
266.000000	5.625100
265.000000	5.655700
264.000000	5.675800
263.000000	5.694300
262.000000	5.722200
261.000000	5.733300
260.000000	5.763000
259.000000	5.775600
258.000000	5.768900
257.000000	5.775400
256.000000	5.792800
255.000000	5.805400
254.000000	5.785300
253.000000	5.812300
252.000000	5.814400
251.000000	5.819500
250.000000	5.822200
