PE UV       SUBTECH     SPECTRUM    ASCII       PEDS        4.00        
   -1
CICIMAUCR0204-1.Sample.ASC
24/05/31
11:40:38.00
24/05/31
11:40:38.00
Vinicio Soto Monge
C. cupreomarginata. Sex M. Dorsal
250,000000
1
Lambda 1050
1050L1511233
PerkinElmer UV WinLab 6.3.2.0749 / 2.02.05 Lambda 900 UV/VIS/NIR, Aug  7 2015 09:38:08

0
0
3350/servo 860,8/2
0
0
UV/VIS
1
1
1
DoubleDePol,CommonBeamDepol,RBeamAtt,SBeamAtt,60mm sphere, WB InGaAs Detector
0
0
0
0
Program
Program
3350/servo 860,8/2
3350/0,2 860,8/0,2
3350/0,2 860,8/0,2
0
15.00
 
 
 
0
 
860,8
319,2
860,8
Front
100
on
S:100 R:100
0
0
0
0
 
0
 
 
 
0
 
 
0
0
0
0
0
 
 
 
 
0
0


0
0
#HDR
-1
-1
#GR
nm
%R
1.0
0.0
2500,000000
-1,000000
2251
8
68,478300
5,084100
#DATA
2482.000000	10.882910
2481.000000	10.880147
2480.000000	10.868135
2479.000000	10.868986
2478.000000	10.887056
2477.000000	10.898854
2476.000000	10.935632
2475.000000	10.909590
2474.000000	10.922983
2473.000000	10.927766
2472.000000	10.942222
2471.000000	10.958804
2470.000000	10.928510
2469.000000	10.942010
2468.000000	10.969115
2467.000000	10.955828
2466.000000	11.018648
2465.000000	11.022793
2464.000000	11.039269
2463.000000	11.095498
2462.000000	11.146413
2461.000000	11.172030
2460.000000	11.228472
2459.000000	11.274179
2458.000000	11.356237
2457.000000	11.418738
2456.000000	11.424903
2455.000000	11.524926
2454.000000	11.597950
2453.000000	11.690957
2452.000000	11.779394
2451.000000	11.834773
2450.000000	11.938197
2449.000000	12.035137
2448.000000	12.099232
2447.000000	12.211266
2446.000000	12.304911
2445.000000	12.379317
2444.000000	12.468923
2443.000000	12.530892
2442.000000	12.617097
2441.000000	12.715844
2440.000000	12.766440
2439.000000	12.843290
2438.000000	12.952773
2437.000000	13.027817
2436.000000	13.092337
2435.000000	13.159621
2434.000000	13.237960
2433.000000	13.316192
2432.000000	13.372422
2431.000000	13.422593
2430.000000	13.478928
2429.000000	13.548020
2428.000000	13.609883
2427.000000	13.645385
2426.000000	13.695449
2425.000000	13.746152
2424.000000	13.784205
2423.000000	13.834163
2422.000000	13.875830
2421.000000	13.909951
2420.000000	13.936949
2419.000000	13.993391
2418.000000	14.037929
2417.000000	14.090757
2416.000000	14.121050
2415.000000	14.148687
2414.000000	14.170902
2413.000000	14.216396
2412.000000	14.251473
2411.000000	14.278259
2410.000000	14.310147
2409.000000	14.331619
2408.000000	14.367546
2407.000000	14.399860
2406.000000	14.439507
2405.000000	14.476816
2404.000000	14.516570
2403.000000	14.556218
2402.000000	14.610322
2401.000000	14.672610
2400.000000	14.725970
2399.000000	14.765511
2398.000000	14.790809
2397.000000	14.811005
2396.000000	14.835665
2395.000000	14.878820
2394.000000	14.909858
2393.000000	14.936963
2392.000000	14.973316
2391.000000	15.008605
2390.000000	15.027951
2389.000000	15.060370
2388.000000	15.097361
2387.000000	15.106821
2386.000000	15.109903
2385.000000	15.119257
2384.000000	15.115856
2383.000000	15.132544
2382.000000	15.156141
2381.000000	15.154228
2380.000000	15.139028
2379.000000	15.135201
2378.000000	15.127973
2377.000000	15.126911
2376.000000	15.119257
2375.000000	15.094597
2374.000000	15.084499
2373.000000	15.072594
2372.000000	15.043363
2371.000000	15.027526
2370.000000	14.999995
2369.000000	14.959604
2368.000000	14.919212
2367.000000	14.870423
2366.000000	14.825567
2365.000000	14.771782
2364.000000	14.717891
2363.000000	14.663469
2362.000000	14.597992
2361.000000	14.548778
2360.000000	14.502327
2359.000000	14.446416
2358.000000	14.381683
2357.000000	14.327473
2356.000000	14.298243
2355.000000	14.270181
2354.000000	14.239675
2353.000000	14.217459
2352.000000	14.204598
2351.000000	14.197263
2350.000000	14.208637
2349.000000	14.241800
2348.000000	14.287401
2347.000000	14.314824
2346.000000	14.341611
2345.000000	14.397415
2344.000000	14.441952
2343.000000	14.492335
2342.000000	14.525074
2341.000000	14.562915
2340.000000	14.606920
2339.000000	14.618825
2338.000000	14.629348
2337.000000	14.657197
2336.000000	14.642104
2335.000000	14.632856
2334.000000	14.638277
2333.000000	14.604901
2332.000000	14.571950
2331.000000	14.526775
2330.000000	14.482237
2329.000000	14.424307
2328.000000	14.360637
2327.000000	14.293140
2326.000000	14.227982
2325.000000	14.136676
2324.000000	14.037078
2323.000000	13.927383
2322.000000	13.831187
2321.000000	13.716389
2320.000000	13.593939
2319.000000	13.468086
2318.000000	13.328735
2317.000000	13.188321
2316.000000	13.059492
2315.000000	12.919609
2314.000000	12.801623
2313.000000	12.683318
2312.000000	12.558423
2311.000000	12.453510
2310.000000	12.350618
2309.000000	12.270685
2308.000000	12.212329
2307.000000	12.169918
2306.000000	12.141963
2305.000000	12.129739
2304.000000	12.148978
2303.000000	12.175233
2302.000000	12.231143
2301.000000	12.294813
2300.000000	12.366243
2299.000000	12.452660
2298.000000	12.572241
2297.000000	12.664398
2296.000000	12.767609
2295.000000	12.848605
2294.000000	12.928857
2293.000000	13.001243
2292.000000	13.063000
2291.000000	13.121674
2290.000000	13.151968
2289.000000	13.186726
2288.000000	13.194911
2287.000000	13.206391
2286.000000	13.185344
2285.000000	13.156858
2284.000000	13.106155
2283.000000	13.053753
2282.000000	13.011554
2281.000000	12.959576
2280.000000	12.882300
2279.000000	12.815016
2278.000000	12.757511
2277.000000	12.698943
2276.000000	12.641970
2275.000000	12.580957
2274.000000	12.551195
2273.000000	12.525152
2272.000000	12.490501
2271.000000	12.482741
2270.000000	12.514204
2269.000000	12.552045
2268.000000	12.570965
2267.000000	12.647178
2266.000000	12.756023
2265.000000	12.879749
2264.000000	13.021971
2263.000000	13.170357
2262.000000	13.354671
2261.000000	13.572042
2260.000000	13.787925
2259.000000	14.042074
2258.000000	14.302069
2257.000000	14.527944
2256.000000	14.810261
2255.000000	15.064197
2254.000000	15.309736
2253.000000	15.564098
2252.000000	15.804110
2251.000000	16.041889
2250.000000	16.258835
2249.000000	16.443362
2248.000000	16.648509
2247.000000	16.842389
2246.000000	17.009271
2245.000000	17.189120
2244.000000	17.303918
2243.000000	17.427538
2242.000000	17.548819
2241.000000	17.644271
2240.000000	17.740680
2239.000000	17.850375
2238.000000	17.921380
2237.000000	18.018320
2236.000000	18.065302
2235.000000	18.160328
2234.000000	18.197638
2233.000000	18.228357
2232.000000	18.279059
2231.000000	18.337733
2230.000000	18.335501
2229.000000	18.356866
2228.000000	18.353252
2227.000000	18.367070
2226.000000	18.380676
2225.000000	18.364200
2224.000000	18.356866
2223.000000	18.351445
2222.000000	18.303506
2221.000000	18.253017
2220.000000	18.269386
2219.000000	18.245789
2218.000000	18.194768
2217.000000	18.155226
2216.000000	18.123338
2215.000000	18.090387
2214.000000	18.068384
2213.000000	18.021721
2212.000000	17.982392
2211.000000	17.958582
2210.000000	17.939450
2209.000000	17.892786
2208.000000	17.878012
2207.000000	17.868445
2206.000000	17.816893
2205.000000	17.784685
2204.000000	17.781071
2203.000000	17.758750
2202.000000	17.739085
2201.000000	17.721334
2200.000000	17.685088
2199.000000	17.684131
2198.000000	17.655751
2197.000000	17.622268
2196.000000	17.628752
2195.000000	17.603242
2194.000000	17.582727
2193.000000	17.589317
2192.000000	17.559661
2191.000000	17.563594
2190.000000	17.550307
2189.000000	17.522139
2188.000000	17.520013
2187.000000	17.499711
2186.000000	17.468780
2185.000000	17.452517
2184.000000	17.448265
2183.000000	17.437104
2182.000000	17.415633
2181.000000	17.431683
2180.000000	17.408086
2179.000000	17.397882
2178.000000	17.385339
2177.000000	17.364293
2176.000000	17.360998
2175.000000	17.378642
2174.000000	17.388209
2173.000000	17.368332
2172.000000	17.360998
2171.000000	17.371521
2170.000000	17.409361
2169.000000	17.415739
2168.000000	17.411062
2167.000000	17.426475
2166.000000	17.437742
2165.000000	17.477177
2164.000000	17.491420
2163.000000	17.516931
2162.000000	17.546481
2161.000000	17.571353
2160.000000	17.602604
2159.000000	17.648417
2158.000000	17.694654
2157.000000	17.740148
2156.000000	17.779477
2155.000000	17.820507
2154.000000	17.843253
2153.000000	17.886621
2152.000000	17.947740
2151.000000	18.005883
2150.000000	18.038834
2149.000000	18.065514
2148.000000	18.121106
2147.000000	18.151719
2146.000000	18.175316
2145.000000	18.241112
2144.000000	18.285224
2143.000000	18.327210
2142.000000	18.348363
2141.000000	18.373767
2140.000000	18.400553
2139.000000	18.438712
2138.000000	18.466136
2137.000000	18.495367
2136.000000	18.530657
2135.000000	18.533208
2134.000000	18.554360
2133.000000	18.561907
2132.000000	18.571155
2131.000000	18.576363
2130.000000	18.589862
2129.000000	18.594858
2128.000000	18.590075
2127.000000	18.594221
2126.000000	18.560100
2125.000000	18.548514
2124.000000	18.552872
2123.000000	18.548089
2122.000000	18.525023
2121.000000	18.504296
2120.000000	18.481655
2119.000000	18.452743
2118.000000	18.422768
2117.000000	18.385884
2116.000000	18.349957
2115.000000	18.329761
2114.000000	18.292877
2113.000000	18.246533
2112.000000	18.211987
2111.000000	18.173934
2110.000000	18.146298
2109.000000	18.109520
2108.000000	18.066683
2107.000000	18.013218
2106.000000	17.967724
2105.000000	17.952205
2104.000000	17.920529
2103.000000	17.860048
2102.000000	17.815298
2101.000000	17.780646
2100.000000	17.757262
2099.000000	17.707729
2098.000000	17.670526
2097.000000	17.635024
2096.000000	17.588042
2095.000000	17.557854
2094.000000	17.525434
2093.000000	17.483873
2092.000000	17.458788
2091.000000	17.449647
2090.000000	17.406173
2089.000000	17.359191
2088.000000	17.333786
2087.000000	17.307107
2086.000000	17.269691
2085.000000	17.228555
2084.000000	17.196136
2083.000000	17.169881
2082.000000	17.134379
2081.000000	17.074854
2080.000000	17.016818
2079.000000	16.979508
2078.000000	16.921153
2077.000000	16.873533
2076.000000	16.836862
2075.000000	16.763200
2074.000000	16.698999
2073.000000	16.660839
2072.000000	16.597275
2071.000000	16.542853
2070.000000	16.498209
2069.000000	16.440279
2068.000000	16.393191
2067.000000	16.330796
2066.000000	16.268827
2065.000000	16.202712
2064.000000	16.139999
2063.000000	16.088021
2062.000000	16.036256
2061.000000	15.994801
2060.000000	15.932725
2059.000000	15.902006
2058.000000	15.885956
2057.000000	15.867036
2056.000000	15.859489
2055.000000	15.839293
2054.000000	15.848222
2053.000000	15.875964
2052.000000	15.887550
2051.000000	15.912848
2050.000000	15.948350
2049.000000	15.990868
2048.000000	16.042740
2047.000000	16.107685
2046.000000	16.165828
2045.000000	16.241297
2044.000000	16.323993
2043.000000	16.385431
2042.000000	16.467597
2041.000000	16.535093
2040.000000	16.609074
2039.000000	16.681673
2038.000000	16.743004
2037.000000	16.803060
2036.000000	16.864073
2035.000000	16.919771
2034.000000	16.985142
2033.000000	17.026278
2032.000000	17.059229
2031.000000	17.099727
2030.000000	17.135973
2029.000000	17.167543
2028.000000	17.196880
2027.000000	17.208147
2026.000000	17.227918
2025.000000	17.249070
2024.000000	17.283403
2023.000000	17.294989
2022.000000	17.277982
2021.000000	17.294776
2020.000000	17.314547
2019.000000	17.306044
2018.000000	17.329216
2017.000000	17.308382
2016.000000	17.291588
2015.000000	17.289674
2014.000000	17.266290
2013.000000	17.245775
2012.000000	17.214206
2011.000000	17.187526
2010.000000	17.164035
2009.000000	17.130552
2008.000000	17.092712
2007.000000	17.075705
2006.000000	17.048174
2005.000000	16.988756
2004.000000	16.950384
2003.000000	16.879698
2002.000000	16.826020
2001.000000	16.772873
2000.000000	16.710904
1999.000000	16.642663
1998.000000	16.591961
1997.000000	16.520531
1996.000000	16.458243
1995.000000	16.395529
1994.000000	16.296995
1993.000000	16.232687
1992.000000	16.157112
1991.000000	16.068994
1990.000000	15.997777
1989.000000	15.932300
1988.000000	15.855024
1987.000000	15.761167
1986.000000	15.661463
1985.000000	15.572814
1984.000000	15.481082
1983.000000	15.406464
1982.000000	15.321854
1981.000000	15.220874
1980.000000	15.131162
1979.000000	15.048147
1978.000000	14.978843
1977.000000	14.861282
1976.000000	14.791766
1975.000000	14.704392
1974.000000	14.623077
1973.000000	14.536873
1972.000000	14.456089
1971.000000	14.387530
1970.000000	14.312486
1969.000000	14.227238
1968.000000	14.140715
1967.000000	14.075344
1966.000000	14.006572
1965.000000	13.923344
1964.000000	13.856485
1963.000000	13.783992
1962.000000	13.709374
1961.000000	13.630397
1960.000000	13.567578
1959.000000	13.483180
1958.000000	13.421105
1957.000000	13.353395
1956.000000	13.292701
1955.000000	13.210855
1954.000000	13.176309
1953.000000	13.096589
1952.000000	13.033238
1951.000000	12.971800
1950.000000	12.918865
1949.000000	12.860829
1948.000000	12.805769
1947.000000	12.786848
1946.000000	12.722753
1945.000000	12.712974
1944.000000	12.675240
1943.000000	12.630596
1942.000000	12.624644
1941.000000	12.628364
1940.000000	12.591480
1939.000000	12.594562
1938.000000	12.594562
1937.000000	12.615502
1936.000000	12.591586
1935.000000	12.611995
1934.000000	12.636230
1933.000000	12.646859
1932.000000	12.738591
1931.000000	12.760487
1930.000000	12.841802
1929.000000	12.914401
1928.000000	12.989870
1927.000000	13.094782
1926.000000	13.171739
1925.000000	13.269423
1924.000000	13.375611
1923.000000	13.503589
1922.000000	13.604143
1921.000000	13.776764
1920.000000	13.910269
1919.000000	14.071943
1918.000000	14.190248
1917.000000	14.351390
1916.000000	14.499776
1915.000000	14.699821
1914.000000	14.878608
1913.000000	15.100124
1912.000000	15.317070
1911.000000	15.518816
1910.000000	15.704937
1909.000000	15.888507
1908.000000	16.140211
1907.000000	16.354181
1906.000000	16.618959
1905.000000	16.923598
1904.000000	17.190396
1903.000000	17.447521
1902.000000	17.728456
1901.000000	18.011411
1900.000000	18.303188
1899.000000	18.620794
1898.000000	18.933405
1897.000000	19.275034
1896.000000	19.559901
1895.000000	19.829144
1894.000000	20.150790
1893.000000	20.460424
1892.000000	20.833197
1891.000000	21.250295
1890.000000	21.637418
1889.000000	22.006151
1888.000000	22.418041
1887.000000	22.794534
1886.000000	23.205785
1885.000000	23.635000
1884.000000	24.130330
1883.000000	24.628956
1882.000000	25.116207
1881.000000	25.612388
1880.000000	26.074979
1879.000000	26.550964
1878.000000	27.009303
1877.000000	27.464667
1876.000000	27.893776
1875.000000	28.318420
1874.000000	28.705118
1873.000000	29.096705
1872.000000	29.482446
1871.000000	29.826944
1870.000000	30.141149
1869.000000	30.426974
1868.000000	30.651892
1867.000000	30.833974
1866.000000	30.987887
1865.000000	31.130321
1864.000000	31.266271
1863.000000	31.389998
1862.000000	31.512873
1861.000000	31.649780
1860.000000	31.780841
1859.000000	31.893831
1858.000000	31.973233
1857.000000	32.062413
1856.000000	32.099404
1855.000000	32.127040
1854.000000	32.188265
1853.000000	32.198470
1852.000000	32.190285
1851.000000	32.221110
1850.000000	32.230039
1849.000000	32.235991
1848.000000	32.262565
1847.000000	32.275745
1846.000000	32.229082
1845.000000	32.177955
1844.000000	32.158503
1843.000000	32.133099
1842.000000	32.162117
1841.000000	32.191773
1840.000000	32.170833
1839.000000	32.147130
1838.000000	32.123320
1837.000000	32.106844
1836.000000	32.070598
1835.000000	32.026061
1834.000000	31.969831
1833.000000	31.897870
1832.000000	31.836007
1831.000000	31.799867
1830.000000	31.766597
1829.000000	31.719084
1828.000000	31.646485
1827.000000	31.579201
1826.000000	31.530199
1825.000000	31.478647
1824.000000	31.424543
1823.000000	31.405729
1822.000000	31.401584
1821.000000	31.398501
1820.000000	31.380006
1819.000000	31.346630
1818.000000	31.302092
1817.000000	31.276901
1816.000000	31.264358
1815.000000	31.263508
1814.000000	31.242355
1813.000000	31.238422
1812.000000	31.223116
1811.000000	31.192397
1810.000000	31.169756
1809.000000	31.127877
1808.000000	31.094713
1807.000000	31.062187
1806.000000	31.037952
1805.000000	30.996922
1804.000000	30.943775
1803.000000	30.913375
1802.000000	30.883932
1801.000000	30.841627
1800.000000	30.790606
1799.000000	30.740966
1798.000000	30.692815
1797.000000	30.647640
1796.000000	30.614689
1795.000000	30.578549
1794.000000	30.528166
1793.000000	30.483841
1792.000000	30.438241
1791.000000	30.392428
1790.000000	30.346403
1789.000000	30.299953
1788.000000	30.247018
1787.000000	30.195891
1786.000000	30.150928
1785.000000	30.092998
1784.000000	30.041020
1783.000000	29.976075
1782.000000	29.907515
1781.000000	29.846077
1780.000000	29.792293
1779.000000	29.739358
1778.000000	29.672818
1777.000000	29.594479
1776.000000	29.529427
1775.000000	29.453534
1774.000000	29.377321
1773.000000	29.286121
1772.000000	29.186736
1771.000000	29.073214
1770.000000	28.967026
1769.000000	28.889006
1768.000000	28.808223
1767.000000	28.713940
1766.000000	28.634538
1765.000000	28.558432
1764.000000	28.520272
1763.000000	28.498695
1762.000000	28.486152
1761.000000	28.499758
1760.000000	28.547590
1759.000000	28.614449
1758.000000	28.665789
1757.000000	28.729034
1756.000000	28.793767
1755.000000	28.846382
1754.000000	28.874550
1753.000000	28.908777
1752.000000	28.940346
1751.000000	28.949487
1750.000000	28.927485
1749.000000	28.913773
1748.000000	28.883904
1747.000000	28.835009
1746.000000	28.770914
1745.000000	28.687260
1744.000000	28.587875
1743.000000	28.480625
1742.000000	28.339254
1741.000000	28.168014
1740.000000	27.993054
1739.000000	27.804489
1738.000000	27.647811
1737.000000	27.489221
1736.000000	27.334350
1735.000000	27.214238
1734.000000	27.138663
1733.000000	27.091894
1732.000000	27.111345
1731.000000	27.151312
1730.000000	27.219553
1729.000000	27.299805
1728.000000	27.389729
1727.000000	27.487733
1726.000000	27.576063
1725.000000	27.665562
1724.000000	27.744007
1723.000000	27.785887
1722.000000	27.834889
1721.000000	27.890480
1720.000000	27.938632
1719.000000	27.994755
1718.000000	28.053110
1717.000000	28.130811
1716.000000	28.201709
1715.000000	28.292272
1714.000000	28.373693
1713.000000	28.442253
1712.000000	28.512938
1711.000000	28.592127
1710.000000	28.645168
1709.000000	28.665683
1708.000000	28.686729
1707.000000	28.688855
1706.000000	28.654734
1705.000000	28.641129
1704.000000	28.591064
1703.000000	28.529201
1702.000000	28.477011
1701.000000	28.378795
1700.000000	28.279942
1699.000000	28.141228
1698.000000	28.005172
1697.000000	27.917373
1696.000000	27.820964
1695.000000	27.761652
1694.000000	27.774726
1693.000000	27.847963
1692.000000	27.950643
1691.000000	28.076920
1690.000000	28.186934
1689.000000	28.336596
1688.000000	28.424927
1687.000000	28.505072
1686.000000	28.573632
1685.000000	28.627842
1684.000000	28.712133
1683.000000	28.829588
1682.000000	29.037924
1681.000000	29.372431
1680.000000	29.767420
1679.000000	30.190576
1678.000000	30.654549
1677.000000	31.100878
1676.000000	31.520633
1675.000000	31.893618
1674.000000	32.220260
1673.000000	32.503640
1672.000000	32.775115
1671.000000	32.983876
1670.000000	33.184346
1669.000000	33.363133
1668.000000	33.518428
1667.000000	33.633226
1666.000000	33.739626
1665.000000	33.842625
1664.000000	33.951470
1663.000000	34.018010
1662.000000	34.086889
1661.000000	34.162783
1660.000000	34.238145
1659.000000	34.287147
1658.000000	34.294800
1657.000000	34.344545
1656.000000	34.375052
1655.000000	34.397055
1654.000000	34.392909
1653.000000	34.425116
1652.000000	34.413636
1651.000000	34.405664
1650.000000	34.372501
1649.000000	34.345077
1648.000000	34.303091
1647.000000	34.301921
1646.000000	34.282257
1645.000000	34.241440
1644.000000	34.209339
1643.000000	34.176176
1642.000000	34.118245
1641.000000	34.093585
1640.000000	34.042458
1639.000000	33.981551
1638.000000	33.948494
1637.000000	33.891945
1636.000000	33.866329
1635.000000	33.811162
1634.000000	33.753126
1633.000000	33.684566
1632.000000	33.624510
1631.000000	33.558501
1630.000000	33.494619
1629.000000	33.412134
1628.000000	33.359413
1627.000000	33.283094
1626.000000	33.214746
1625.000000	33.137683
1624.000000	33.072206
1623.000000	32.984301
1622.000000	32.939658
1621.000000	32.875137
1620.000000	32.796267
1619.000000	32.742270
1618.000000	32.666907
1617.000000	32.600792
1616.000000	32.554236
1615.000000	32.488546
1614.000000	32.401916
1613.000000	32.337608
1612.000000	32.288501
1611.000000	32.235141
1610.000000	32.169877
1609.000000	32.102380
1608.000000	32.024466
1607.000000	31.978441
1606.000000	31.907118
1605.000000	31.837283
1604.000000	31.765853
1603.000000	31.692404
1602.000000	31.629159
1601.000000	31.554115
1600.000000	31.488107
1599.000000	31.419654
1598.000000	31.346948
1597.000000	31.297628
1596.000000	31.245119
1595.000000	31.177835
1594.000000	31.103216
1593.000000	31.031787
1592.000000	30.973538
1591.000000	30.913163
1590.000000	30.862035
1589.000000	30.809526
1588.000000	30.746494
1587.000000	30.711523
1586.000000	30.654549
1585.000000	30.610863
1584.000000	30.579506
1583.000000	30.508183
1582.000000	30.465878
1581.000000	30.422616
1580.000000	30.385838
1579.000000	30.354800
1578.000000	30.308350
1577.000000	30.303567
1576.000000	30.271785
1575.000000	30.238408
1574.000000	30.228948
1573.000000	30.214386
1572.000000	30.202162
1571.000000	30.185474
1570.000000	30.175163
1569.000000	30.164959
1568.000000	30.155074
1567.000000	30.146996
1566.000000	30.146677
1565.000000	30.149228
1564.000000	30.146252
1563.000000	30.152735
1562.000000	30.142850
1561.000000	30.129138
1560.000000	30.132221
1559.000000	30.127650
1558.000000	30.111281
1557.000000	30.079711
1556.000000	30.067594
1555.000000	30.046760
1554.000000	30.023163
1553.000000	29.992125
1552.000000	29.943868
1551.000000	29.926117
1550.000000	29.898905
1549.000000	29.853305
1548.000000	29.831302
1547.000000	29.800902
1546.000000	29.756578
1545.000000	29.729792
1544.000000	29.691951
1543.000000	29.665590
1542.000000	29.646138
1541.000000	29.620415
1540.000000	29.613187
1539.000000	29.582256
1538.000000	29.556639
1537.000000	29.546753
1536.000000	29.517204
1535.000000	29.495520
1534.000000	29.472879
1533.000000	29.436101
1532.000000	29.407933
1531.000000	29.372856
1530.000000	29.337673
1529.000000	29.307273
1528.000000	29.277511
1527.000000	29.228934
1526.000000	29.178126
1525.000000	29.148045
1524.000000	29.096598
1523.000000	29.039625
1522.000000	29.002422
1521.000000	28.965325
1520.000000	28.930780
1519.000000	28.882522
1518.000000	28.824379
1517.000000	28.773039
1516.000000	28.723400
1515.000000	28.670678
1514.000000	28.617212
1513.000000	28.563747
1512.000000	28.523249
1511.000000	28.462874
1510.000000	28.406113
1509.000000	28.355091
1508.000000	28.307578
1507.000000	28.244546
1506.000000	28.176092
1505.000000	28.123158
1504.000000	28.058638
1503.000000	28.013144
1502.000000	27.963186
1501.000000	27.902279
1500.000000	27.858061
1499.000000	27.805658
1498.000000	27.753786
1497.000000	27.731252
1496.000000	27.692667
1495.000000	27.649087
1494.000000	27.611778
1493.000000	27.581803
1492.000000	27.559375
1491.000000	27.526742
1490.000000	27.499744
1489.000000	27.480505
1488.000000	27.446916
1487.000000	27.413752
1486.000000	27.400678
1485.000000	27.377718
1484.000000	27.349338
1483.000000	27.329780
1482.000000	27.315961
1481.000000	27.300761
1480.000000	27.283223
1479.000000	27.270680
1478.000000	27.272381
1477.000000	27.266322
1476.000000	27.255905
1475.000000	27.268342
1474.000000	27.270786
1473.000000	27.264621
1472.000000	27.273338
1471.000000	27.286412
1470.000000	27.305332
1469.000000	27.299486
1468.000000	27.312560
1467.000000	27.332862
1466.000000	27.347956
1465.000000	27.361243
1464.000000	27.359117
1463.000000	27.388241
1462.000000	27.415559
1461.000000	27.443727
1460.000000	27.474127
1459.000000	27.519196
1458.000000	27.556505
1457.000000	27.612734
1456.000000	27.685333
1455.000000	27.743051
1454.000000	27.789501
1453.000000	27.834464
1452.000000	27.914397
1451.000000	28.005491
1450.000000	28.078408
1449.000000	28.131555
1448.000000	28.192887
1447.000000	28.288233
1446.000000	28.389637
1445.000000	28.458834
1444.000000	28.535472
1443.000000	28.587025
1442.000000	28.703311
1441.000000	28.812687
1440.000000	28.891238
1439.000000	29.000402
1438.000000	29.099149
1437.000000	29.195239
1436.000000	29.304297
1435.000000	29.399855
1434.000000	29.516034
1433.000000	29.609042
1432.000000	29.725327
1431.000000	29.851073
1430.000000	29.963638
1429.000000	30.092254
1428.000000	30.245955
1427.000000	30.394342
1426.000000	30.556759
1425.000000	30.739903
1424.000000	30.949834
1423.000000	31.107149
1422.000000	31.295077
1421.000000	31.485024
1420.000000	31.707923
1419.000000	31.943151
1418.000000	32.142772
1417.000000	32.335695
1416.000000	32.566034
1415.000000	32.816463
1414.000000	33.091339
1413.000000	33.339854
1412.000000	33.556907
1411.000000	33.824236
1410.000000	34.130894
1409.000000	34.474224
1408.000000	34.800015
1407.000000	35.133778
1406.000000	35.438204
1405.000000	35.831492
1404.000000	36.153244
1403.000000	36.560244
1402.000000	36.878275
1401.000000	37.292078
1400.000000	37.631368
1399.000000	37.963218
1398.000000	38.175381
1397.000000	38.470559
1396.000000	38.815908
1395.000000	39.142125
1394.000000	39.393404
1393.000000	39.623105
1392.000000	39.902658
1391.000000	40.187632
1390.000000	40.466973
1389.000000	40.743762
1388.000000	41.136306
1387.000000	41.506953
1386.000000	41.891525
1385.000000	42.308091
1384.000000	42.773127
1383.000000	43.232743
1382.000000	43.685024
1381.000000	44.100527
1380.000000	44.344790
1379.000000	44.558973
1378.000000	44.757742
1377.000000	44.912081
1376.000000	45.082790
1375.000000	45.267635
1374.000000	45.447697
1373.000000	45.726719
1372.000000	45.976084
1371.000000	46.293159
1370.000000	46.594609
1369.000000	46.824842
1368.000000	47.107265
1367.000000	47.320491
1366.000000	47.527020
1365.000000	47.732486
1364.000000	47.910741
1363.000000	48.050305
1362.000000	48.238020
1361.000000	48.355688
1360.000000	48.461344
1359.000000	48.488236
1358.000000	48.600483
1357.000000	48.722083
1356.000000	48.864517
1355.000000	49.117603
1354.000000	49.412675
1353.000000	49.706047
1352.000000	50.114003
1351.000000	50.503570
1350.000000	50.902386
1349.000000	51.249754
1348.000000	51.579797
1347.000000	51.903143
1346.000000	52.188543
1345.000000	52.459911
1344.000000	52.767420
1343.000000	53.030179
1342.000000	53.272316
1341.000000	53.540602
1340.000000	53.800810
1339.000000	54.057510
1338.000000	54.288806
1337.000000	54.523503
1336.000000	54.748102
1335.000000	54.994492
1334.000000	55.217390
1333.000000	55.409889
1332.000000	55.628110
1331.000000	55.830919
1330.000000	56.019272
1329.000000	56.202098
1328.000000	56.396509
1327.000000	56.568706
1326.000000	56.724107
1325.000000	56.892690
1324.000000	57.037675
1323.000000	57.178939
1322.000000	57.321905
1321.000000	57.449245
1320.000000	57.579243
1319.000000	57.711366
1318.000000	57.812345
1317.000000	57.937560
1316.000000	58.042472
1315.000000	58.164497
1314.000000	58.259737
1313.000000	58.348173
1312.000000	58.422685
1311.000000	58.524515
1310.000000	58.600090
1309.000000	58.679173
1308.000000	58.764740
1307.000000	58.821607
1306.000000	58.889210
1305.000000	58.925987
1304.000000	58.978922
1303.000000	59.016656
1302.000000	59.054710
1301.000000	59.083090
1300.000000	59.109664
1299.000000	59.134217
1298.000000	59.165999
1297.000000	59.175459
1296.000000	59.197569
1295.000000	59.209261
1294.000000	59.207985
1293.000000	59.216064
1292.000000	59.217977
1291.000000	59.214363
1290.000000	59.205860
1289.000000	59.188534
1288.000000	59.160259
1287.000000	59.146973
1286.000000	59.131029
1285.000000	59.091912
1284.000000	59.059705
1283.000000	59.013467
1282.000000	58.974245
1281.000000	58.933428
1280.000000	58.898883
1279.000000	58.862849
1278.000000	58.826390
1277.000000	58.799072
1276.000000	58.758149
1275.000000	58.725198
1274.000000	58.691290
1273.000000	58.654938
1272.000000	58.636336
1271.000000	58.610613
1270.000000	58.576599
1269.000000	58.556191
1268.000000	58.545136
1267.000000	58.525791
1266.000000	58.493158
1265.000000	58.473707
1264.000000	58.444157
1263.000000	58.413757
1262.000000	58.379424
1261.000000	58.361460
1260.000000	58.329147
1259.000000	58.290456
1258.000000	58.271429
1257.000000	58.242942
1256.000000	58.207759
1255.000000	58.183418
1254.000000	58.143770
1253.000000	58.105398
1252.000000	58.041728
1251.000000	57.984860
1250.000000	57.943512
1249.000000	57.890365
1248.000000	57.829884
1247.000000	57.759624
1246.000000	57.683942
1245.000000	57.603690
1244.000000	57.520249
1243.000000	57.438616
1242.000000	57.353793
1241.000000	57.268120
1240.000000	57.170755
1239.000000	57.072433
1238.000000	56.964651
1237.000000	56.849747
1236.000000	56.740583
1235.000000	56.631738
1234.000000	56.507374
1233.000000	56.397041
1232.000000	56.286601
1231.000000	56.163513
1230.000000	56.031071
1229.000000	55.896502
1228.000000	55.768418
1227.000000	55.637677
1226.000000	55.506510
1225.000000	55.372473
1224.000000	55.235673
1223.000000	55.102274
1222.000000	54.967706
1221.000000	54.829523
1220.000000	54.691022
1219.000000	54.541467
1218.000000	54.404985
1217.000000	54.289656
1216.000000	54.176559
1215.000000	54.062293
1214.000000	53.947602
1213.000000	53.826533
1212.000000	53.720558
1211.000000	53.629570
1210.000000	53.526678
1209.000000	53.428994
1208.000000	53.334392
1207.000000	53.237665
1206.000000	53.167617
1205.000000	53.118296
1204.000000	53.076310
1203.000000	53.025183
1202.000000	52.980327
1201.000000	52.943443
1200.000000	52.905071
1199.000000	52.842782
1198.000000	52.776774
1197.000000	52.676964
1196.000000	52.548348
1195.000000	52.387525
1194.000000	52.180996
1193.000000	51.928548
1192.000000	51.645806
1191.000000	51.318101
1190.000000	50.966906
1189.000000	50.632824
1188.000000	50.356247
1187.000000	50.163111
1186.000000	50.050758
1185.000000	50.018764
1184.000000	50.084453
1183.000000	50.266747
1182.000000	50.544813
1181.000000	50.887398
1180.000000	51.255282
1179.000000	51.642298
1178.000000	52.003591
1177.000000	52.339587
1176.000000	52.624880
1175.000000	52.888489
1174.000000	53.150397
1173.000000	53.389027
1172.000000	53.622449
1171.000000	53.877554
1170.000000	54.149773
1169.000000	54.407961
1168.000000	54.685601
1167.000000	54.966111
1166.000000	55.244495
1165.000000	55.530639
1164.000000	55.823797
1163.000000	56.135239
1162.000000	56.432437
1161.000000	56.720706
1160.000000	57.025664
1159.000000	57.324137
1158.000000	57.596887
1157.000000	57.858902
1156.000000	58.112094
1155.000000	58.346579
1154.000000	58.527704
1153.000000	58.688633
1152.000000	58.813954
1151.000000	58.911957
1150.000000	58.988701
1149.000000	59.039616
1148.000000	59.140595
1147.000000	59.221060
1146.000000	59.357541
1145.000000	59.508904
1144.000000	59.718622
1143.000000	59.952150
1142.000000	60.223625
1141.000000	60.511894
1140.000000	60.825249
1139.000000	61.137328
1138.000000	61.442817
1137.000000	61.762762
1136.000000	62.132877
1135.000000	62.492363
1134.000000	62.876404
1133.000000	63.170944
1132.000000	63.462934
1131.000000	63.715276
1130.000000	63.971870
1129.000000	64.199339
1128.000000	64.403211
1127.000000	64.550640
1126.000000	64.684146
1125.000000	64.763866
1124.000000	64.877494
1123.000000	64.956152
1122.000000	65.029176
1121.000000	65.077327
1120.000000	65.124415
1119.000000	65.146843
1118.000000	65.180326
1117.000000	65.202435
1116.000000	65.194782
1115.000000	65.227414
1114.000000	65.210620
1113.000000	65.204667
1112.000000	65.210301
1111.000000	65.205518
1110.000000	65.193719
1109.000000	65.196802
1108.000000	65.189892
1107.000000	65.177031
1106.000000	65.178094
1105.000000	65.168102
1104.000000	65.157154
1103.000000	65.142592
1102.000000	65.124628
1101.000000	65.113786
1100.000000	65.096354
1099.000000	65.086894
1098.000000	65.061808
1097.000000	65.043419
1096.000000	65.019928
1095.000000	64.981450
1094.000000	64.959447
1093.000000	64.916929
1092.000000	64.913103
1091.000000	64.865908
1090.000000	64.832107
1089.000000	64.832319
1088.000000	64.781936
1087.000000	64.733891
1086.000000	64.684464
1085.000000	64.655021
1084.000000	64.623452
1083.000000	64.561695
1082.000000	64.537035
1081.000000	64.475703
1080.000000	64.454019
1079.000000	64.421281
1078.000000	64.400234
1077.000000	64.356654
1076.000000	64.324340
1075.000000	64.301275
1074.000000	64.248021
1073.000000	64.232184
1072.000000	64.218472
1071.000000	64.161498
1070.000000	64.130460
1069.000000	64.128334
1068.000000	64.096234
1067.000000	64.055736
1066.000000	64.020127
1065.000000	63.997380
1064.000000	63.989727
1063.000000	63.965705
1062.000000	63.921486
1061.000000	63.909262
1060.000000	63.877906
1059.000000	63.845167
1058.000000	63.831349
1057.000000	63.808708
1056.000000	63.790213
1055.000000	63.738979
1054.000000	63.740255
1053.000000	63.715276
1052.000000	63.714319
1051.000000	63.675097
1050.000000	63.677223
1049.000000	63.671695
1048.000000	63.642358
1047.000000	63.655007
1046.000000	63.650118
1045.000000	63.650118
1044.000000	63.641614
1043.000000	63.625032
1042.000000	63.645122
1041.000000	63.619186
1040.000000	63.618123
1039.000000	63.625245
1038.000000	63.632685
1037.000000	63.622481
1036.000000	63.623332
1035.000000	63.610045
1034.000000	63.623013
1033.000000	63.614297
1032.000000	63.584003
1031.000000	63.602711
1030.000000	63.584853
1029.000000	63.566145
1028.000000	63.557748
1027.000000	63.552646
1026.000000	63.534363
1025.000000	63.519482
1024.000000	63.496842
1023.000000	63.474307
1022.000000	63.478240
1021.000000	63.470906
1020.000000	63.457194
1019.000000	63.445714
1018.000000	63.449647
1017.000000	63.444758
1016.000000	63.460489
1015.000000	63.465485
1014.000000	63.474626
1013.000000	63.489082
1012.000000	63.507896
1011.000000	63.548926
1010.000000	63.579432
1009.000000	63.622906
1008.000000	63.648204
1007.000000	63.696993
1006.000000	63.735897
1005.000000	63.794146
1004.000000	63.856541
1003.000000	63.908199
1002.000000	63.963366
1001.000000	64.012899
1000.000000	64.070723
999.000000	64.108670
998.000000	64.167982
997.000000	64.240156
996.000000	64.308928
995.000000	64.366433
994.000000	64.432548
993.000000	64.505572
992.000000	64.588481
991.000000	64.673197
990.000000	64.735167
989.000000	64.814356
988.000000	64.910127
987.000000	64.995481
986.000000	65.071481
985.000000	65.170122
984.000000	65.270676
983.000000	65.373143
982.000000	65.473166
981.000000	65.570425
980.000000	65.665027
979.000000	65.765687
978.000000	65.866773
977.000000	65.981357
976.000000	66.084356
975.000000	66.193201
974.000000	66.291311
973.000000	66.379960
972.000000	66.495183
971.000000	66.605303
970.000000	66.696291
969.000000	66.800140
968.000000	66.910686
967.000000	67.032499
966.000000	67.148359
965.000000	67.251145
964.000000	67.357439
963.000000	67.474894
962.000000	67.601065
961.000000	67.707147
960.000000	67.821200
959.000000	67.937380
958.000000	68.054834
957.000000	68.157408
956.000000	68.258068
955.000000	68.373504
954.000000	68.476928
953.000000	68.567490
952.000000	68.657840
951.000000	68.750741
950.000000	68.834288
949.000000	68.928996
948.000000	69.023810
947.000000	69.092476
946.000000	69.174323
945.000000	69.263610
944.000000	69.336315
943.000000	69.417098
942.000000	69.490866
941.000000	69.553686
940.000000	69.615549
939.000000	69.678581
938.000000	69.738850
937.000000	69.813362
936.000000	69.869485
935.000000	69.927628
934.000000	69.989916
933.000000	70.045083
932.000000	70.117363
931.000000	70.188686
930.000000	70.226421
929.000000	70.257777
928.000000	70.316558
927.000000	70.356524
926.000000	70.384586
925.000000	70.424340
924.000000	70.468665
923.000000	70.533717
922.000000	70.559015
921.000000	70.575384
920.000000	70.609292
919.000000	70.636290
918.000000	70.647770
917.000000	70.667966
916.000000	70.678914
915.000000	70.696027
914.000000	70.703574
913.000000	70.707401
912.000000	70.718987
911.000000	70.732061
910.000000	70.742478
909.000000	70.752682
908.000000	70.753001
907.000000	70.752682
906.000000	70.761186
905.000000	70.766288
904.000000	70.757465
903.000000	70.759591
902.000000	70.780319
901.000000	70.761186
900.000000	70.750450
899.000000	70.759910
898.000000	70.755340
897.000000	70.759804
896.000000	70.753107
895.000000	70.712928
894.000000	70.673812
893.000000	70.656274
892.000000	70.643625
891.000000	70.570494
890.000000	70.514903
889.000000	70.477274
888.000000	70.390007
887.000000	70.309436
886.000000	70.222169
885.000000	70.133839
884.000000	70.017659
883.000000	69.947505
882.000000	69.831220
881.000000	69.726095
880.000000	69.593546
879.000000	69.489697
878.000000	69.343543
877.000000	69.190905
876.000000	68.973321
875.000000	68.724699
874.000000	68.451949
873.000000	68.136787
872.000000	67.884020
871.000000	67.776663
870.000000	67.776132
869.000000	67.826090
868.000000	67.846923
867.000000	67.861167
866.000000	67.874347
865.000000	67.899114
864.000000	67.930045
863.000000	67.949072
862.000000	67.942269
861.000000	67.940462
860.000000	67.977771
859.000000	67.989782
858.000000	68.017100
857.000000	67.464000
856.000000	68.478300
855.000000	68.109000
854.000000	67.522700
853.000000	67.860500
852.000000	68.192700
851.000000	67.756200
850.000000	67.989800
849.000000	67.526800
848.000000	68.052900
847.000000	67.700000
846.000000	67.450400
845.000000	67.413600
844.000000	67.338800
843.000000	67.103100
842.000000	67.272800
841.000000	67.399300
840.000000	66.961600
839.000000	66.857400
838.000000	66.745700
837.000000	66.811400
836.000000	66.772200
835.000000	66.519200
834.000000	66.301200
833.000000	66.369700
832.000000	66.192700
831.000000	66.173900
830.000000	66.384400
829.000000	66.123600
828.000000	65.967100
827.000000	65.850000
826.000000	65.762400
825.000000	65.829700
824.000000	65.523500
823.000000	65.702500
822.000000	65.383500
821.000000	65.325300
820.000000	65.345100
819.000000	65.138000
818.000000	65.293200
817.000000	65.069200
816.000000	64.958900
815.000000	64.868400
814.000000	64.814900
813.000000	64.586400
812.000000	64.563800
811.000000	64.620700
810.000000	64.359100
809.000000	64.240800
808.000000	64.437800
807.000000	64.180900
806.000000	64.141600
805.000000	64.036900
804.000000	64.090500
803.000000	63.955100
802.000000	63.624400
801.000000	63.488900
800.000000	63.363600
799.000000	63.475800
798.000000	63.388200
797.000000	63.115400
796.000000	63.200100
795.000000	63.069200
794.000000	62.900800
793.000000	62.900800
792.000000	62.816100
791.000000	62.761700
790.000000	62.671500
789.000000	62.435200
788.000000	62.276500
787.000000	62.183600
786.000000	62.253900
785.000000	62.060600
784.000000	61.914400
783.000000	61.993800
782.000000	61.716000
781.000000	61.726700
780.000000	61.496100
779.000000	61.467300
778.000000	61.288900
777.000000	61.184400
776.000000	61.032000
775.000000	61.022800
774.000000	60.848500
773.000000	60.872600
772.000000	60.625800
771.000000	60.541900
770.000000	60.486800
769.000000	60.133000
768.000000	60.120000
767.000000	60.001500
766.000000	59.885800
765.000000	59.781600
764.000000	59.656400
763.000000	59.467600
762.000000	59.337100
761.000000	59.216200
760.000000	59.068600
759.000000	59.043900
758.000000	58.970400
757.000000	58.772000
756.000000	58.665800
755.000000	58.495600
754.000000	58.397500
753.000000	58.166900
752.000000	58.191100
751.000000	58.018900
750.000000	58.015900
749.000000	57.776300
748.000000	57.793000
747.000000	57.630000
746.000000	57.581000
745.000000	57.490800
744.000000	57.370300
743.000000	57.358600
742.000000	57.231200
741.000000	57.179500
740.000000	57.175900
739.000000	57.152700
738.000000	57.088000
737.000000	56.940800
736.000000	56.780900
735.000000	56.590500
734.000000	56.522300
733.000000	56.469800
732.000000	56.365500
731.000000	56.169900
730.000000	55.990700
729.000000	55.857100
728.000000	55.800200
727.000000	55.653200
726.000000	55.604900
725.000000	55.489600
724.000000	55.358100
723.000000	55.170600
722.000000	55.026800
721.000000	54.955500
720.000000	54.891800
719.000000	54.810300
718.000000	54.690600
717.000000	54.617800
716.000000	54.434400
715.000000	54.209400
714.000000	54.100300
713.000000	53.931600
712.000000	53.802300
711.000000	53.664300
710.000000	53.481200
709.000000	53.332600
708.000000	53.164000
707.000000	52.963900
706.000000	52.753500
705.000000	52.609000
704.000000	52.437900
703.000000	52.268800
702.000000	52.100000
701.000000	51.911900
700.000000	51.705700
699.000000	51.469800
698.000000	51.276500
697.000000	51.198900
696.000000	51.024200
695.000000	50.835500
694.000000	50.652200
693.000000	50.506700
692.000000	50.346700
691.000000	50.150700
690.000000	49.994500
689.000000	49.838500
688.000000	49.636500
687.000000	49.412000
686.000000	49.221100
685.000000	48.998300
684.000000	48.807400
683.000000	48.671600
682.000000	48.499300
681.000000	48.341200
680.000000	48.224600
679.000000	48.126000
678.000000	48.062300
677.000000	48.043500
676.000000	47.998400
675.000000	47.939100
674.000000	47.928600
673.000000	47.932300
672.000000	47.982600
671.000000	47.949900
670.000000	47.906500
669.000000	47.905900
668.000000	47.879200
667.000000	47.860100
666.000000	47.806700
665.000000	47.749900
664.000000	47.723000
663.000000	47.702300
662.000000	47.679000
661.000000	47.662400
660.000000	47.630300
659.000000	47.608200
658.000000	47.617900
657.000000	47.607100
656.000000	47.618700
655.000000	47.636000
654.000000	47.609200
653.000000	47.571500
652.000000	47.508600
651.000000	47.430300
650.000000	47.317500
649.000000	47.157100
648.000000	46.974200
647.000000	46.767600
646.000000	46.510100
645.000000	46.238400
644.000000	45.933800
643.000000	45.643500
642.000000	45.375500
641.000000	45.092800
640.000000	44.833000
639.000000	44.581500
638.000000	44.410600
637.000000	44.294500
636.000000	44.240100
635.000000	44.216100
634.000000	44.218700
633.000000	44.320000
632.000000	44.474800
631.000000	44.675100
630.000000	44.911800
629.000000	45.186100
628.000000	45.484200
627.000000	45.823400
626.000000	46.221500
625.000000	46.593100
624.000000	46.985300
623.000000	47.458300
622.000000	47.919500
621.000000	48.371100
620.000000	48.829300
619.000000	49.289200
618.000000	49.808500
617.000000	50.295600
616.000000	50.799200
615.000000	51.299300
614.000000	51.804800
613.000000	52.316700
612.000000	52.814700
611.000000	53.315100
610.000000	53.851700
609.000000	54.321500
608.000000	54.718900
607.000000	55.121300
606.000000	55.479400
605.000000	55.833500
604.000000	56.149900
603.000000	56.424200
602.000000	56.713100
601.000000	56.943500
600.000000	57.179000
599.000000	57.425400
598.000000	57.658700
597.000000	57.888000
596.000000	58.128100
595.000000	58.330400
594.000000	58.581000
593.000000	58.788400
592.000000	58.972900
591.000000	59.179100
590.000000	59.400600
589.000000	59.591700
588.000000	59.777900
587.000000	59.978600
586.000000	60.203800
585.000000	60.373300
584.000000	60.556300
583.000000	60.802500
582.000000	61.040300
581.000000	61.251700
580.000000	61.489400
579.000000	61.732700
578.000000	61.947100
577.000000	62.179800
576.000000	62.358500
575.000000	62.549800
574.000000	62.743000
573.000000	62.889300
572.000000	62.988100
571.000000	63.062900
570.000000	63.144400
569.000000	63.174400
568.000000	63.187400
567.000000	63.188500
566.000000	63.200200
565.000000	63.210900
564.000000	63.210200
563.000000	63.221000
562.000000	63.223800
561.000000	63.268900
560.000000	63.277200
559.000000	63.246900
558.000000	63.253300
557.000000	63.177200
556.000000	63.119700
555.000000	62.972800
554.000000	62.807300
553.000000	62.607900
552.000000	62.377800
551.000000	62.072600
550.000000	61.772800
549.000000	61.409300
548.000000	61.036800
547.000000	60.612500
546.000000	60.161100
545.000000	59.702100
544.000000	59.195900
543.000000	58.632800
542.000000	58.077700
541.000000	57.462700
540.000000	56.759700
539.000000	56.073900
538.000000	55.310000
537.000000	54.528900
536.000000	53.694000
535.000000	52.868700
534.000000	52.002100
533.000000	51.117500
532.000000	50.226500
531.000000	49.338400
530.000000	48.455100
529.000000	47.592000
528.000000	46.747700
527.000000	45.917000
526.000000	45.123500
525.000000	44.301200
524.000000	43.541000
523.000000	42.822500
522.000000	42.128700
521.000000	41.447800
520.000000	40.803600
519.000000	40.208900
518.000000	39.612000
517.000000	38.993500
516.000000	38.445900
515.000000	37.887700
514.000000	37.314900
513.000000	36.811000
512.000000	36.256300
511.000000	35.751700
510.000000	35.245700
509.000000	34.734000
508.000000	34.180700
507.000000	33.647800
506.000000	33.107400
505.000000	32.585600
504.000000	32.079000
503.000000	31.534900
502.000000	31.017000
501.000000	30.428400
500.000000	29.927900
499.000000	29.353500
498.000000	28.836500
497.000000	28.340000
496.000000	27.833100
495.000000	27.371600
494.000000	26.892900
493.000000	26.421400
492.000000	26.016000
491.000000	25.609800
490.000000	25.255500
489.000000	24.889700
488.000000	24.556600
487.000000	24.271700
486.000000	23.996000
485.000000	23.700000
484.000000	23.488300
483.000000	23.255200
482.000000	23.048400
481.000000	22.825700
480.000000	22.612200
479.000000	22.444300
478.000000	22.249100
477.000000	22.052900
476.000000	21.890700
475.000000	21.708000
474.000000	21.542300
473.000000	21.368600
472.000000	21.221100
471.000000	21.043600
470.000000	20.888500
469.000000	20.733000
468.000000	20.569900
467.000000	20.416700
466.000000	20.278700
465.000000	20.085100
464.000000	19.938800
463.000000	19.786300
462.000000	19.657900
461.000000	19.490800
460.000000	19.361400
459.000000	19.185200
458.000000	19.027900
457.000000	18.882000
456.000000	18.701000
455.000000	18.582700
454.000000	18.446800
453.000000	18.261500
452.000000	18.057600
451.000000	17.891800
450.000000	17.708200
449.000000	17.509700
448.000000	17.314100
447.000000	17.128100
446.000000	16.909000
445.000000	16.683700
444.000000	16.473200
443.000000	16.231400
442.000000	15.979600
441.000000	15.727600
440.000000	15.496500
439.000000	15.241200
438.000000	14.981400
437.000000	14.726900
436.000000	14.458000
435.000000	14.190400
434.000000	13.912400
433.000000	13.641000
432.000000	13.381500
431.000000	13.084400
430.000000	12.796400
429.000000	12.525700
428.000000	12.258700
427.000000	11.995400
426.000000	11.725000
425.000000	11.458200
424.000000	11.184700
423.000000	10.930300
422.000000	10.656100
421.000000	10.398600
420.000000	10.154100
419.000000	9.917600
418.000000	9.694500
417.000000	9.460900
416.000000	9.245100
415.000000	9.038900
414.000000	8.829400
413.000000	8.643400
412.000000	8.455800
411.000000	8.278400
410.000000	8.107300
409.000000	7.946600
408.000000	7.797800
407.000000	7.644900
406.000000	7.505700
405.000000	7.367300
404.000000	7.231500
403.000000	7.126100
402.000000	7.022600
401.000000	6.903500
400.000000	6.792400
399.000000	6.698100
398.000000	6.621900
397.000000	6.549100
396.000000	6.475500
395.000000	6.379000
394.000000	6.295300
393.000000	6.226700
392.000000	6.169400
391.000000	6.109800
390.000000	6.047500
389.000000	6.002000
388.000000	5.932100
387.000000	5.886600
386.000000	5.870700
385.000000	5.847900
384.000000	5.781100
383.000000	5.748200
382.000000	5.755200
381.000000	5.733100
380.000000	5.685000
379.000000	5.650500
378.000000	5.630700
377.000000	5.626700
376.000000	5.435300
375.000000	5.084100
374.000000	5.102700
373.000000	5.264300
372.000000	5.305100
371.000000	5.374800
370.000000	5.472000
369.000000	5.465200
368.000000	5.382200
367.000000	5.419700
366.000000	5.482500
365.000000	5.488700
364.000000	5.602200
363.000000	5.627300
362.000000	5.468700
361.000000	5.357400
360.000000	5.394100
359.000000	5.371600
358.000000	5.259100
357.000000	5.455100
356.000000	5.526500
355.000000	5.450500
354.000000	5.440600
353.000000	5.336000
352.000000	5.359500
351.000000	5.471900
350.000000	5.437200
349.000000	5.515000
348.000000	5.672400
347.000000	5.422400
346.000000	5.445300
345.000000	5.447400
344.000000	5.516300
343.000000	5.563500
342.000000	5.488500
341.000000	5.511800
340.000000	5.497500
339.000000	5.578700
338.000000	5.840000
337.000000	5.804300
336.000000	5.476100
335.000000	5.573600
334.000000	5.682300
333.000000	5.515700
332.000000	5.289500
331.000000	5.432300
330.000000	5.897000
329.000000	5.825400
328.000000	5.855400
327.000000	5.848000
326.000000	5.524500
325.000000	5.746900
324.000000	6.017300
323.000000	5.787000
322.000000	6.042400
321.000000	5.913200
320.000000	5.467600
319.000000	6.273900
318.000000	6.891100
317.000000	6.551200
316.000000	5.694100
315.000000	5.170600
314.000000	5.146700
313.000000	5.144400
312.000000	5.156400
311.000000	5.188300
310.000000	5.187200
309.000000	5.173300
308.000000	5.174600
307.000000	5.179100
306.000000	5.177300
305.000000	5.208800
304.000000	5.179300
303.000000	5.153400
302.000000	5.160700
301.000000	5.170600
300.000000	5.173000
299.000000	5.139800
298.000000	5.176200
297.000000	5.215400
296.000000	5.233800
295.000000	5.229300
294.000000	5.236200
293.000000	5.225300
292.000000	5.230200
291.000000	5.263400
290.000000	5.248000
289.000000	5.262100
288.000000	5.272400
287.000000	5.279500
286.000000	5.266500
285.000000	5.273900
284.000000	5.293300
283.000000	5.267800
282.000000	5.291500
281.000000	5.298400
280.000000	5.316100
279.000000	5.327800
278.000000	5.352700
277.000000	5.358200
276.000000	5.382600
275.000000	5.387900
274.000000	5.391100
273.000000	5.353700
272.000000	5.391400
271.000000	5.403200
270.000000	5.406600
269.000000	5.411100
268.000000	5.477400
267.000000	5.488300
266.000000	5.516600
265.000000	5.519400
264.000000	5.507100
263.000000	5.541000
262.000000	5.597100
261.000000	5.609200
260.000000	5.646800
259.000000	5.606900
258.000000	5.593700
257.000000	5.650200
256.000000	5.650800
255.000000	5.606400
254.000000	5.621700
253.000000	5.631500
252.000000	5.678400
251.000000	5.665100
250.000000	5.646600
