Time1=100ms:Average1=5:Objective=10X:Aperture=1: (11/21/2018 11:07:22 AM)
11/21/2018 11:07:22 AM
Reflectance
10X
Ap#: 1
Avg1: 5.000000
Avg2: 0.000000
Int.Time1:100.000000
Int.Time2:0.000000
420.190645	12.775861
420.624620	12.684634
421.058582	12.594387
421.492531	12.540468
421.926468	12.510615
422.360391	12.529221
422.794301	12.542577
423.228199	12.573387
423.662083	12.619787
424.095955	12.665761
424.529813	12.731404
424.963658	12.808778
425.397491	12.879042
425.831310	12.962531
426.265116	13.029925
426.698909	13.090698
427.132689	13.165536
427.566455	13.292263
428.000209	13.391764
428.433949	13.506362
428.867676	13.671148
429.301389	13.798350
429.735090	13.937189
430.168777	14.071225
430.602451	14.198518
431.036111	14.318061
431.469759	14.444225
431.903392	14.570863
432.337013	14.698737
432.770620	14.822908
433.204213	14.961172
433.637794	15.109601
434.071360	15.287649
434.504914	15.472058
434.938453	15.655975
435.371979	15.847419
435.805492	16.019905
436.238991	16.189347
436.672477	16.371974
437.105949	16.544204
437.539407	16.698384
437.972852	16.837930
438.406283	16.986911
438.839700	17.157696
439.273104	17.312306
439.706494	17.476283
440.139871	17.655592
440.573233	17.837644
441.006582	17.998472
441.439917	18.174932
441.873238	18.326089
442.306546	18.457167
442.739839	18.585292
443.173119	18.714778
443.606385	18.854813
444.039636	18.991152
444.472874	19.133151
444.906099	19.278508
445.339309	19.428492
445.772505	19.588157
446.205687	19.752410
446.638855	19.918078
447.072009	20.070134
447.505149	20.229694
447.938275	20.391200
448.371387	20.541180
448.804485	20.670451
449.237569	20.801061
449.670638	20.919428
450.103694	21.028477
450.536735	21.140564
450.969762	21.257403
451.402774	21.377130
451.835773	21.502445
452.268757	21.630212
452.701727	21.765739
453.134683	21.903295
453.567624	22.024994
454.000551	22.162049
454.433464	22.289587
454.866362	22.408272
455.299246	22.531250
455.732116	22.641129
456.164971	22.741983
456.597811	22.855638
457.030638	22.956606
457.463449	23.053877
457.896246	23.149175
458.329029	23.244551
458.761797	23.355540
459.194551	23.455019
459.627290	23.561868
460.060014	23.670596
460.492724	23.790378
460.925419	23.892149
461.358099	23.994857
461.790765	24.101646
462.223416	24.207298
462.656052	24.304304
463.088674	24.407639
463.521281	24.487925
463.953873	24.569804
464.386450	24.658610
464.819012	24.753611
465.251560	24.833585
465.684093	24.914375
466.116611	25.007164
466.549114	25.096352
466.981602	25.206155
467.414075	25.298553
467.846533	25.391293
468.278977	25.489342
468.711405	25.565652
469.143818	25.651207
469.576216	25.732112
470.008600	25.796594
470.440968	25.857371
470.873321	25.915185
471.305659	25.969575
471.737982	26.030523
472.170289	26.070376
472.602582	26.109015
473.034859	26.140263
473.467122	26.180950
473.899369	26.215788
474.331600	26.260125
474.763817	26.311752
475.196018	26.356118
475.628204	26.412647
476.060375	26.465925
476.492530	26.523817
476.924670	26.579904
477.356795	26.622358
477.788904	26.647145
478.220998	26.665124
478.653076	26.678030
479.085139	26.692271
479.517186	26.686955
479.949219	26.687587
480.381235	26.678738
480.813236	26.676188
481.245221	26.682900
481.677191	26.691802
482.109146	26.709854
482.541084	26.719185
482.973008	26.731687
483.404915	26.738402
483.836807	26.728541
484.268683	26.695593
484.700544	26.650632
485.132388	26.592498
485.564217	26.531923
485.996031	26.454849
486.427828	26.380106
486.859610	26.290980
487.291376	26.190455
487.723126	26.094383
488.154860	26.006372
488.586579	25.924482
489.018281	25.848746
489.449968	25.792210
489.881639	25.745690
490.313293	25.719823
490.744932	25.716915
491.176555	25.717229
491.608162	25.722089
492.039753	25.725998
492.471328	25.723219
492.902886	25.715510
493.334429	25.698001
493.765956	25.677210
494.197466	25.662436
494.628960	25.651095
495.060439	25.655279
495.491901	25.677140
495.923347	25.737518
496.354776	25.819685
496.786190	25.941042
497.217587	26.080730
497.648968	26.259798
498.080332	26.458017
498.511681	26.676250
498.943013	26.892884
499.374328	27.134785
499.805628	27.378212
500.236911	27.630527
500.668177	27.891055
501.099427	28.150448
501.530661	28.417767
501.961878	28.689569
502.393079	28.966998
502.824264	29.257985
503.255431	29.554906
503.686583	29.860682
504.117717	30.184413
504.548835	30.538968
504.979937	30.916218
505.411022	31.313282
505.842090	31.734189
506.273142	32.185180
506.704177	32.666957
507.135195	33.161723
507.566197	33.653998
507.997182	34.151037
508.428150	34.637185
508.859102	35.108118
509.290036	35.558348
509.720954	36.004850
510.151855	36.419640
510.582739	36.842748
511.013607	37.262341
511.444457	37.691954
511.875291	38.126661
512.306107	38.596013
512.736907	39.077834
513.167690	39.582810
513.598456	40.106812
514.029205	40.659405
514.459936	41.216387
514.890651	41.763968
515.321349	42.310635
515.752030	42.838811
516.182693	43.342857
516.613340	43.822266
517.043969	44.280730
517.474582	44.704265
517.905177	45.089199
518.335755	45.445666
518.766315	45.783989
519.196859	46.097041
519.627385	46.386001
520.057894	46.657587
520.488386	46.929421
520.918860	47.200986
521.349318	47.488368
521.779757	47.787044
522.210180	48.118307
522.640585	48.457090
523.070973	48.818786
523.501343	49.197497
523.931696	49.581060
524.362031	49.966093
524.792349	50.345524
525.222650	50.714675
525.652933	51.054852
526.083198	51.367617
526.513446	51.642068
526.943677	51.894648
527.373890	52.113961
527.804085	52.324134
528.234262	52.525350
528.664422	52.727444
529.094565	52.951714
529.524689	53.185082
529.954796	53.438004
530.384885	53.714969
530.814957	54.009632
531.245011	54.347750
531.675047	54.696115
532.105065	55.067175
532.535065	55.449712
532.965048	55.836374
533.395013	56.201575
533.824959	56.555130
534.254888	56.904571
534.684799	57.218495
535.114693	57.514808
535.544568	57.775212
535.974425	58.017149
536.404264	58.212130
536.834086	58.392779
537.263889	58.564673
537.693674	58.725105
538.123441	58.879937
538.553190	59.025326
538.982921	59.195807
539.412634	59.383195
539.842329	59.606229
540.272006	59.842498
540.701664	60.096604
541.131304	60.378579
541.560926	60.679413
541.990530	61.000360
542.420116	61.327572
542.849683	61.660760
543.279232	62.008350
543.708763	62.335467
544.138275	62.655057
544.567769	62.935012
544.997245	63.206468
545.426702	63.443799
545.856141	63.667691
546.285562	63.873665
546.714964	64.066961
547.144347	64.259114
547.573713	64.445007
548.003059	64.641898
548.432387	64.854146
548.861697	65.097945
549.290988	65.359783
549.720260	65.657725
550.149514	65.975548
550.578750	66.311760
551.007966	66.660257
551.437164	67.039494
551.866344	67.425974
552.295504	67.794558
552.724646	68.170138
553.153769	68.525910
553.582874	68.858770
554.011960	69.162714
554.441027	69.425411
554.870075	69.647886
555.299104	69.829053
555.728115	69.961268
556.157106	70.071965
556.586079	70.134005
557.015033	70.178781
557.443968	70.207682
557.872884	70.225922
558.301781	70.239140
558.730659	70.282810
559.159518	70.311625
559.588358	70.367284
560.017180	70.448180
560.445982	70.543530
560.874765	70.652999
561.303528	70.781731
561.732273	70.932557
562.160999	71.071692
562.589705	71.224929
563.018393	71.378204
563.447061	71.537468
563.875710	71.690019
564.304340	71.841691
564.732950	71.970172
565.161542	72.097869
565.590114	72.212006
566.018666	72.312758
566.447200	72.394319
566.875714	72.470673
567.304208	72.549352
567.732684	72.628640
568.161140	72.714594
568.589576	72.813487
569.017993	72.931094
569.446391	73.057294
569.874769	73.213568
570.303128	73.384491
570.731467	73.585944
571.159787	73.822235
571.588087	74.088084
572.016368	74.359349
572.444629	74.661379
572.872870	74.970802
573.301092	75.283638
573.729294	75.586402
574.157476	75.886018
574.585639	76.152404
575.013782	76.377789
575.441906	76.577665
575.870009	76.727190
576.298093	76.836514
576.726157	76.904222
577.154202	76.929966
577.582226	76.930178
578.010231	76.886656
578.438216	76.826747
578.866181	76.757731
579.294126	76.680638
579.722051	76.615953
580.149957	76.562311
580.577842	76.513500
581.005707	76.477312
581.433553	76.451882
581.861378	76.443311
582.289184	76.438697
582.716969	76.435541
583.144734	76.428566
583.572479	76.446995
584.000205	76.459546
584.427910	76.470055
584.855594	76.468755
585.283259	76.461699
585.710904	76.460419
586.138528	76.446732
586.566132	76.434115
586.993716	76.425911
587.421280	76.414474
587.848823	76.414952
588.276346	76.417611
588.703849	76.407000
589.131332	76.404887
589.558794	76.405360
589.986236	76.390693
590.413657	76.390400
590.841058	76.386234
591.268438	76.406287
591.695799	76.426772
592.123138	76.455537
592.550458	76.498948
592.977756	76.559564
593.405034	76.642192
593.832292	76.747778
594.259529	76.870720
594.686746	77.011616
595.113942	77.163476
595.541117	77.323166
595.968272	77.495466
596.395406	77.670268
596.822519	77.823781
597.249612	77.966616
597.676684	78.076097
598.103735	78.154238
598.530766	78.207866
598.957775	78.220668
599.384764	78.197620
599.811733	78.135136
600.238680	78.043032
600.665606	77.920387
601.092512	77.774878
601.519397	77.613044
601.946261	77.459015
602.373104	77.289013
602.799926	77.115808
603.226727	76.961575
603.653507	76.806392
604.080266	76.655235
604.507004	76.505712
604.933721	76.353990
605.360417	76.213839
605.787092	76.064760
606.213746	75.898424
606.640379	75.714636
607.066991	75.516613
607.493581	75.305946
607.920150	75.083434
608.346699	74.853130
608.773226	74.619225
609.199731	74.381385
609.626216	74.144968
610.052679	73.912250
610.479121	73.678415
610.905542	73.457821
611.331941	73.256929
611.758319	73.048519
612.184676	72.849403
612.611011	72.655645
613.037325	72.460886
613.463617	72.256326
613.889888	72.048131
614.316138	71.825378
614.742366	71.594154
615.168573	71.341574
615.594758	71.085293
616.020921	70.820668
616.447063	70.539581
616.873184	70.248917
617.299283	69.956538
617.725360	69.666227
618.151416	69.388286
618.577450	69.103629
619.003462	68.824817
619.429453	68.565489
619.855422	68.312093
620.281369	68.071551
620.707295	67.839469
621.133199	67.601924
621.559081	67.356633
621.984941	67.107603
622.410779	66.839679
622.836596	66.547933
623.262391	66.238524
623.688163	65.906256
624.113914	65.550753
624.539644	65.159245
624.965351	64.749026
625.391036	64.312053
625.816699	63.852784
626.242340	63.383791
626.667960	62.897416
627.093557	62.402650
627.519132	61.909830
627.944685	61.407857
628.370216	60.909305
628.795725	60.407604
629.221212	59.895995
629.646677	59.380936
630.072119	58.866643
630.497540	58.339417
630.922938	57.800305
631.348314	57.242487
631.773668	56.671467
632.198999	56.082791
632.624308	55.481875
633.049595	54.871860
633.474860	54.247949
633.900102	53.612337
634.325322	52.982063
634.750520	52.358374
635.175695	51.741427
635.600848	51.139244
636.025978	50.567988
636.451086	50.013952
636.876171	49.492697
637.301234	48.992975
637.726275	48.533841
638.151293	48.102077
638.576288	47.698753
639.001261	47.338469
639.426211	47.003306
639.851139	46.688847
640.276044	46.398327
640.700927	46.130728
641.125787	45.881022
641.550624	45.650325
641.975438	45.431636
642.400230	45.235800
642.824999	45.054225
643.249745	44.884851
643.674469	44.741697
644.099169	44.618595
644.523847	44.519508
644.948502	44.454820
645.373135	44.415832
645.797744	44.403531
646.222330	44.421012
646.646894	44.472894
647.071435	44.556742
647.495953	44.669665
647.920447	44.801720
648.344919	44.956210
648.769368	45.130668
649.193794	45.310513
649.618197	45.505552
650.042576	45.695736
650.466933	45.897877
650.891267	46.093465
651.315577	46.293315
651.739864	46.485833
652.164129	46.663774
652.588370	46.839491
653.012587	47.017025
653.436782	47.188748
653.860953	47.357320
654.285102	47.519033
654.709226	47.680301
655.133328	47.849161
655.557406	48.015679
655.981461	48.189779
656.405493	48.366283
656.829501	48.540150
657.253486	48.712616
657.677448	48.885186
658.101386	49.047951
658.525301	49.213396
658.949192	49.375650
659.373060	49.530490
659.796904	49.676172
660.220725	49.816650
660.644522	49.949639
661.068296	50.086588
661.492046	50.230961
661.915772	50.375896
662.339475	50.532235
662.763154	50.707857
663.186810	50.908220
663.610442	51.127102
664.034050	51.379876
664.457635	51.661588
664.881196	51.992034
665.304733	52.362086
665.728247	52.767491
666.151736	53.216743
666.575202	53.707120
666.998644	54.237580
667.422062	54.806917
667.845457	55.399974
668.268827	56.016139
668.692174	56.659327
669.115496	57.312144
669.538795	57.971369
669.962070	58.631231
670.385321	59.289582
670.808547	59.928684
671.231750	60.554748
671.654929	61.156109
672.078084	61.727469
672.501214	62.273524
672.924321	62.784336
673.347404	63.270652
673.770462	63.728404
674.193496	64.149720
674.616506	64.534394
675.039492	64.896469
675.462454	65.233196
675.885391	65.528401
676.308305	65.799992
676.731194	66.053109
677.154058	66.280358
677.576899	66.479914
677.999715	66.659257
678.422507	66.825727
678.845274	66.971583
679.268017	67.105776
679.690736	67.223985
680.113430	67.317869
680.536100	67.408786
680.958746	67.497583
681.381367	67.581329
681.803963	67.647645
682.226535	67.717726
682.649083	67.795850
683.071605	67.876017
683.494104	67.955683
683.916578	68.044565
684.339027	68.141040
684.761451	68.244871
685.183851	68.357411
685.606227	68.475189
686.028577	68.601539
686.450903	68.727175
686.873204	68.854549
687.295481	68.988226
687.717733	69.116855
688.139959	69.230202
688.562162	69.324773
688.984339	69.413470
689.406492	69.482380
689.828619	69.533850
690.250722	69.563055
690.672800	69.584232
691.094853	69.575986
691.516881	69.530623
691.938884	69.461046
692.360863	69.368984
692.782816	69.255418
693.204744	69.128234
693.626647	68.983022
694.048526	68.819791
694.470379	68.651933
694.892207	68.480922
695.314010	68.316615
695.735788	68.155904
696.157540	68.002146
696.579268	67.868787
697.000970	67.749298
697.422648	67.643179
697.844300	67.549548
698.265926	67.477670
698.687528	67.421333
699.109104	67.388139
699.530655	67.362771
699.952181	67.357844
