PE UV       SUBTECH     SPECTRUM    ASCII       PEDS        4.00        
   -1
CICIMAUCR0071-1.ASC
24/04/03
15:28:35.00
24/04/03
15:28:35.00
Vinicio Soto Monge
C. resplendens
250,000000
1
Lambda 1050
1050L1511233
PerkinElmer UV WinLab 6.3.2.0749 / 2.02.05 Lambda 900 UV/VIS/NIR, Aug  7 2015 09:38:08

0
0
3350/servo 860,8/2
0
0
UV/VIS
1
1
1
DoubleDePol,CommonBeamDepol,RBeamAtt,SBeamAtt,60mm sphere, WB InGaAs Detector
0
0
0
0
Program
Program
3350/servo 860,8/2
3350/0,2 860,8/0,2
3350/0,2 860,8/0,2
0
15.00
 
 
 
0
 
860,8
319,2
860,8
Front
100
on
S:100 R:100
0
0
0
0
 
0
 
 
 
0
 
 
0
0
0
0
0
 
 
 
 
0
0


0
0
#HDR
-1
-1
#GR
nm
%R
1.0
0.0
2500,000000
-1,000000
2251
8
72,736100
5,101300
#DATA

250.000000	nan
251.000000	nan
252.000000	nan
253.000000	nan
254.000000	nan
255.000000	nan
256.000000	nan
257.000000	nan
258.000000	nan
259.000000	5.698116
260.000000	5.690745
261.000000	5.673951
262.000000	5.661600
263.000000	5.643158
264.000000	5.627276
265.000000	5.611215
266.000000	5.589758
267.000000	5.567983
268.000000	5.539135
269.000000	5.516765
270.000000	5.496558
271.000000	5.470993
272.000000	5.444507
273.000000	5.425569
274.000000	5.403318
275.000000	5.383458
276.000000	5.365304
277.000000	5.358578
278.000000	5.350632
279.000000	5.343072
280.000000	5.327369
281.000000	5.321556
282.000000	5.312320
283.000000	5.299860
284.000000	5.289980
285.000000	5.276707
286.000000	5.271032
287.000000	5.253136
288.000000	5.243831
289.000000	5.231610
290.000000	5.223396
291.000000	5.209606
292.000000	5.202712
293.000000	5.194567
294.000000	5.188248
295.000000	5.180719
296.000000	5.167575
297.000000	5.166503
298.000000	5.156682
299.000000	5.143706
300.000000	5.139421
301.000000	5.137437
302.000000	5.133886
303.000000	5.132239
304.000000	5.124213
305.000000	5.120176
306.000000	5.120305
307.000000	5.114045
308.000000	5.115960
309.000000	5.117993
310.000000	5.115712
311.000000	5.111506
312.000000	5.104512
313.000000	5.097498
314.000000	5.098203
315.000000	5.094830
316.000000	5.092737
317.000000	5.127051
318.000000	5.173467
319.000000	5.213436
320.000000	5.268760
321.000000	5.309354
322.000000	5.337289
323.000000	5.376484
324.000000	5.385005
325.000000	5.394043
326.000000	5.399737
327.000000	5.395064
328.000000	5.348549
329.000000	5.318272
330.000000	5.278254
331.000000	5.243027
332.000000	5.239863
333.000000	5.217850
334.000000	5.227314
335.000000	5.238196
336.000000	5.256906
337.000000	5.252799
338.000000	5.265021
339.000000	5.254079
340.000000	5.241946
341.000000	5.250954
342.000000	5.238425
343.000000	5.250686
344.000000	5.247095
345.000000	5.232661
346.000000	5.215549
347.000000	5.210866
348.000000	5.209130
349.000000	5.232205
350.000000	5.239149
351.000000	5.241530
352.000000	5.262233
353.000000	5.263989
354.000000	5.270933
355.000000	5.282887
356.000000	5.302529
357.000000	5.314890
358.000000	5.342537
359.000000	5.359808
360.000000	5.389886
361.000000	5.421383
362.000000	5.426908
363.000000	5.433356
364.000000	5.451233
365.000000	5.477868
366.000000	5.488939
367.000000	5.500625
368.000000	5.506518
369.000000	5.518670
370.000000	5.527777
371.000000	5.526626
372.000000	5.541457
373.000000	5.556843
374.000000	5.566793
375.000000	5.582080
376.000000	5.596930
377.000000	5.614886
378.000000	5.635688
379.000000	5.657622
380.000000	5.679843
381.000000	5.709663
382.000000	5.741041
383.000000	5.777894
384.000000	5.818071
385.000000	5.855510
386.000000	5.900250
387.000000	5.940089
388.000000	5.980435
389.000000	6.023429
390.000000	6.069399
391.000000	6.119189
392.000000	6.170625
393.000000	6.225275
394.000000	6.283794
395.000000	6.344536
396.000000	6.408481
397.000000	6.477268
398.000000	6.551104
399.000000	6.630445
400.000000	6.716820
401.000000	6.810606
402.000000	6.911415
403.000000	7.020954
404.000000	7.142069
405.000000	7.275129
406.000000	7.420330
407.000000	7.579321
408.000000	7.750256
409.000000	7.935367
410.000000	8.136528
411.000000	8.354395
412.000000	8.589166
413.000000	8.840633
414.000000	9.109817
415.000000	9.395082
416.000000	9.697638
417.000000	10.014836
418.000000	10.348809
419.000000	10.696433
420.000000	11.055166
421.000000	11.424684
422.000000	11.803178
423.000000	12.188865
424.000000	12.580405
425.000000	12.975199
426.000000	13.369159
427.000000	13.764241
428.000000	14.157249
429.000000	14.545833
430.000000	14.929406
431.000000	15.306235
432.000000	15.674631
433.000000	16.034495
434.000000	16.384281
435.000000	16.725466
436.000000	17.057525
437.000000	17.378592
438.000000	17.689431
439.000000	17.990032
440.000000	18.280704
441.000000	18.561455
442.000000	18.831830
443.000000	19.090618
444.000000	19.339069
445.000000	19.575377
446.000000	19.801657
447.000000	20.016122
448.000000	20.219079
449.000000	20.413653
450.000000	20.597970
451.000000	20.773032
452.000000	20.940058
453.000000	21.098077
454.000000	21.246155
455.000000	21.386020
456.000000	21.515389
457.000000	21.637785
458.000000	21.752730
459.000000	21.857576
460.000000	21.954338
461.000000	22.040703
462.000000	22.115898
463.000000	22.183693
464.000000	22.245019
465.000000	22.297547
466.000000	22.344122
467.000000	22.383872
468.000000	22.414833
469.000000	22.438046
470.000000	22.451786
471.000000	22.456666
472.000000	22.454752
473.000000	22.445079
474.000000	22.427263
475.000000	22.403742
476.000000	22.373277
477.000000	22.338547
478.000000	22.303985
479.000000	22.269730
480.000000	22.237946
481.000000	22.211161
482.000000	22.191420
483.000000	22.178028
484.000000	22.172701
485.000000	22.179715
486.000000	22.202204
487.000000	22.242708
488.000000	22.304818
489.000000	22.393653
490.000000	22.514481
491.000000	22.668333
492.000000	22.855815
493.000000	23.078950
494.000000	23.341408
495.000000	23.638161
496.000000	23.967551
497.000000	24.327346
498.000000	24.711942
499.000000	25.118679
500.000000	25.542787
501.000000	25.980297
502.000000	26.429632
503.000000	26.890603
504.000000	27.359015
505.000000	27.836503
506.000000	28.323624
507.000000	28.819762
508.000000	29.327914
509.000000	29.851303
510.000000	30.392539
511.000000	30.958763
512.000000	31.550959
513.000000	32.171844
514.000000	32.823203
515.000000	33.507438
516.000000	34.221196
517.000000	34.965745
518.000000	35.738439
519.000000	36.536091
520.000000	37.358108
521.000000	38.202961
522.000000	39.067703
523.000000	39.950134
524.000000	40.849300
525.000000	41.761104
526.000000	42.690844
527.000000	43.633381
528.000000	44.588705
529.000000	45.553909
530.000000	46.523617
531.000000	47.490042
532.000000	48.450961
533.000000	49.397853
534.000000	50.324716
535.000000	51.228048
536.000000	52.100023
537.000000	52.938557
538.000000	53.740366
539.000000	54.501522
540.000000	55.223662
541.000000	55.910923
542.000000	56.566855
543.000000	57.191579
544.000000	57.787068
545.000000	58.359423
546.000000	58.908555
547.000000	59.438363
548.000000	59.951603
549.000000	60.448793
550.000000	60.933127
551.000000	61.400189
552.000000	61.849196
553.000000	62.286210
554.000000	62.707273
555.000000	63.111223
556.000000	63.498338
557.000000	63.871754
558.000000	64.222046
559.000000	64.555314
560.000000	64.882333
561.000000	65.194740
562.000000	65.487733
563.000000	65.762373
564.000000	66.026260
565.000000	66.276398
566.000000	66.515385
567.000000	66.740533
568.000000	66.966724
569.000000	67.184343
570.000000	67.381477
571.000000	67.569345
572.000000	67.753533
573.000000	67.929726
574.000000	68.097010
575.000000	68.254106
576.000000	68.402373
577.000000	68.537526
578.000000	68.652471
579.000000	68.758071
580.000000	68.849367
581.000000	68.923242
582.000000	68.985789
583.000000	69.032851
584.000000	69.062343
585.000000	69.082809
586.000000	69.094197
587.000000	69.097580
588.000000	69.099862
589.000000	69.096032
590.000000	69.080854
591.000000	69.065925
592.000000	69.040281
593.000000	69.010659
594.000000	68.975592
595.000000	68.927320
596.000000	68.862729
597.000000	68.787038
598.000000	68.689503
599.000000	68.565223
600.000000	68.425308
601.000000	68.255624
602.000000	68.061505
603.000000	67.839025
604.000000	67.587201
605.000000	67.309337
606.000000	67.011483
607.000000	66.688700
608.000000	66.339282
609.000000	65.982086
610.000000	65.606616
611.000000	65.225979
612.000000	64.831929
613.000000	64.428525
614.000000	64.021073
615.000000	63.606905
616.000000	63.184354
617.000000	62.741884
618.000000	62.293601
619.000000	61.825904
620.000000	61.341193
621.000000	60.831970
622.000000	60.308879
623.000000	59.762693
624.000000	59.189604
625.000000	58.593470
626.000000	57.973052
627.000000	57.339519
628.000000	56.687544
629.000000	56.011027
630.000000	55.319074
631.000000	54.610892
632.000000	53.882224
633.000000	53.146642
634.000000	52.402459
635.000000	51.655777
636.000000	50.908459
637.000000	50.165159
638.000000	49.438099
639.000000	48.742079
640.000000	48.073974
641.000000	47.447950
642.000000	46.872282
643.000000	46.356283
644.000000	45.914686
645.000000	45.548532
646.000000	45.268088
647.000000	45.077432
648.000000	44.975869
649.000000	44.963052
650.000000	45.048654
651.000000	45.227425
652.000000	45.498088
653.000000	45.848925
654.000000	46.276684
655.000000	46.768794
656.000000	47.320278
657.000000	47.924427
658.000000	48.569517
659.000000	49.246381
660.000000	49.939723
661.000000	50.643322
662.000000	51.350979
663.000000	52.057912
664.000000	52.749319
665.000000	53.430489
666.000000	54.087274
667.000000	54.722791
668.000000	55.338210
669.000000	55.929245
670.000000	56.493555
671.000000	57.030207
672.000000	57.539827
673.000000	58.021988
674.000000	58.487860
675.000000	58.933088
676.000000	59.359805
677.000000	59.766661
678.000000	60.147577
679.000000	60.508116
680.000000	60.855541
681.000000	61.192609
682.000000	61.521364
683.000000	61.833880
684.000000	62.129075
685.000000	62.402286
686.000000	62.662116
687.000000	62.908008
688.000000	63.139822
689.000000	63.354356
690.000000	63.558077
691.000000	63.742047
692.000000	63.902744
693.000000	64.053105
694.000000	64.186065
695.000000	64.310167
696.000000	64.425271
697.000000	64.526357
698.000000	64.626095
699.000000	64.718710
700.000000	64.800165
701.000000	64.883881
702.000000	64.965891
703.000000	65.045947
704.000000	65.129108
705.000000	65.219967
706.000000	65.312929
707.000000	65.404820
708.000000	65.492931
709.000000	65.592252
710.000000	65.705292
711.000000	65.826497
712.000000	65.952850
713.000000	66.086664
714.000000	66.228840
715.000000	66.370322
716.000000	66.520077
717.000000	66.684504
718.000000	66.862631
719.000000	67.041780
720.000000	67.215899
721.000000	67.389244
722.000000	67.569554
723.000000	67.751658
724.000000	67.931273
725.000000	68.105621
726.000000	68.269641
727.000000	68.435447
728.000000	68.593664
729.000000	68.754351
730.000000	68.921824
731.000000	69.085696
732.000000	69.249289
733.000000	69.410750
734.000000	69.574513
735.000000	69.751945
736.000000	69.936689
737.000000	70.118169
738.000000	70.302784
739.000000	70.488073
740.000000	70.671765
741.000000	70.851052
742.000000	71.021650
743.000000	71.183686
744.000000	71.336824
745.000000	71.476550
746.000000	71.606991
747.000000	71.722868
748.000000	71.822368
749.000000	71.902632
750.000000	71.966161
751.000000	72.017756
752.000000	72.056930
753.000000	72.085332
754.000000	72.090967
755.000000	72.079142
756.000000	72.055928
757.000000	72.025255
758.000000	71.984404
759.000000	71.933295
760.000000	71.871383
761.000000	71.798440
762.000000	71.718563
763.000000	71.627545
764.000000	71.539603
765.000000	71.453833
766.000000	71.358470
767.000000	71.265022
768.000000	71.168459
769.000000	71.073830
770.000000	70.984330
771.000000	70.898124
772.000000	70.812254
773.000000	70.735066
774.000000	70.666170
775.000000	70.604833
776.000000	70.562672
777.000000	70.516881
778.000000	70.477438
779.000000	70.450971
780.000000	70.414891
781.000000	70.387363
782.000000	70.363029
783.000000	70.343406
784.000000	70.317168
785.000000	70.276167
786.000000	70.224453
787.000000	70.168027
788.000000	70.105411
789.000000	70.032200
790.000000	69.958414
791.000000	69.874410
792.000000	69.779335
793.000000	69.670302
794.000000	69.558194
795.000000	69.440590
796.000000	69.321131
797.000000	69.196067
798.000000	69.059100
799.000000	68.907846
800.000000	68.758022
801.000000	68.602374
802.000000	68.442312
803.000000	68.277785
804.000000	68.112297
805.000000	67.953286
806.000000	67.787619
807.000000	67.639163
808.000000	67.506005
809.000000	67.366477
810.000000	67.234301
811.000000	67.105864
812.000000	66.996127
813.000000	66.888632
814.000000	66.785998
815.000000	66.685744
816.000000	66.586126
817.000000	66.476061
818.000000	66.359162
819.000000	66.241429
820.000000	66.113915
821.000000	65.993712
822.000000	65.853321
823.000000	65.688011
824.000000	65.511779
825.000000	65.340626
826.000000	65.167846
827.000000	64.984392
828.000000	64.782586
829.000000	64.559511
830.000000	64.341395
831.000000	64.110027
832.000000	63.890295
833.000000	63.676475
834.000000	63.467129
835.000000	63.253726
836.000000	63.016911
837.000000	62.783400
838.000000	62.554254
839.000000	62.357090
840.000000	62.156305
841.000000	61.961244
842.000000	61.755063
843.000000	61.560132
844.000000	61.366787
845.000000	61.209572
846.000000	61.038856
847.000000	60.903614
848.000000	60.817517
849.000000	60.747539
850.000000	60.646215
851.000000	60.559820
852.000000	60.490250
853.000000	60.478613
854.000000	60.445341
855.000000	60.385512
856.000000	60.367676
857.000000	60.344978
858.000000	60.371931
859.000000	60.455397
860.000000	60.578367
861.000000	60.694532
862.000000	60.810330
863.000000	60.887479
864.000000	60.992863
865.000000	61.089607
866.000000	61.188959
867.000000	61.265363
868.000000	61.263180
869.000000	61.195870
870.000000	61.124820
871.000000	61.049780
872.000000	60.972800
873.000000	60.892150
874.000000	60.810880
875.000000	60.729800
876.000000	60.648090
877.000000	60.567010
878.000000	60.484880
879.000000	60.405410
880.000000	60.327130
881.000000	60.249040
882.000000	60.168460
883.000000	60.091620
884.000000	60.012650
885.000000	59.935530
886.000000	59.861100
887.000000	59.787450
888.000000	59.714150
889.000000	59.640580
890.000000	59.568630
891.000000	59.499640
892.000000	59.432180
893.000000	59.366160
894.000000	59.304070
895.000000	59.242730
896.000000	59.182780
897.000000	59.125010
898.000000	59.071240
899.000000	59.019940
900.000000	58.970860
901.000000	58.923270
902.000000	58.882420
903.000000	58.844910
904.000000	58.809900
905.000000	58.781170
906.000000	58.752030
907.000000	58.727130
908.000000	58.706580
909.000000	58.686460
910.000000	58.669890
911.000000	58.655760
912.000000	58.640390
913.000000	58.627170
914.000000	58.610990
915.000000	58.593860
916.000000	58.578140
917.000000	58.561500
918.000000	58.541720
919.000000	58.523940
920.000000	58.504850
921.000000	58.481240
922.000000	58.458580
923.000000	58.428490
924.000000	58.402410
925.000000	58.373300
926.000000	58.342360
927.000000	58.313370
928.000000	58.279420
929.000000	58.242630
930.000000	58.205140
931.000000	58.164040
932.000000	58.119490
933.000000	58.078660
934.000000	58.035940
935.000000	57.990040
936.000000	57.940730
937.000000	57.886510
938.000000	57.832020
939.000000	57.778240
940.000000	57.723600
941.000000	57.673940
942.000000	57.624720
943.000000	57.572620
944.000000	57.521020
945.000000	57.475050
946.000000	57.429450
947.000000	57.385170
948.000000	57.346980
949.000000	57.311430
950.000000	57.274350
951.000000	57.238210
952.000000	57.201440
953.000000	57.166540
954.000000	57.132690
955.000000	57.095410
956.000000	57.061010
957.000000	57.027130
958.000000	56.989410
959.000000	56.949280
960.000000	56.911540
961.000000	56.869330
962.000000	56.830590
963.000000	56.790820
964.000000	56.749020
965.000000	56.708970
966.000000	56.665930
967.000000	56.622530
968.000000	56.579170
969.000000	56.535810
970.000000	56.490380
971.000000	56.447800
972.000000	56.401050
973.000000	56.356050
974.000000	56.312180
975.000000	56.267120
976.000000	56.224260
977.000000	56.181100
978.000000	56.140530
979.000000	56.098290
980.000000	56.057360
981.000000	56.017740
982.000000	55.979880
983.000000	55.942950
984.000000	55.908680
985.000000	55.875400
986.000000	55.845910
987.000000	55.818100
988.000000	55.791380
989.000000	55.769010
990.000000	55.748510
991.000000	55.730780
992.000000	55.717290
993.000000	55.706940
994.000000	55.697380
995.000000	55.691190
996.000000	55.686580
997.000000	55.685610
998.000000	55.688950
999.000000	55.694300
1000.000000	55.701380
1001.000000	55.710300
1002.000000	55.720820
1003.000000	55.732540
1004.000000	55.745360
1005.000000	55.758000
1006.000000	55.773200
1007.000000	55.790120
1008.000000	55.806210
1009.000000	55.822810
1010.000000	55.841680
1011.000000	55.861200
1012.000000	55.881280
1013.000000	55.900520
1014.000000	55.921380
1015.000000	55.945070
1016.000000	55.967330
1017.000000	55.990440
1018.000000	56.015250
1019.000000	56.041710
1020.000000	56.068770
1021.000000	56.095940
1022.000000	56.124270
1023.000000	56.157220
1024.000000	56.191550
1025.000000	56.226610
1026.000000	56.264250
1027.000000	56.301310
1028.000000	56.339720
1029.000000	56.379710
1030.000000	56.419830
1031.000000	56.462100
1032.000000	56.505680
1033.000000	56.549760
1034.000000	56.594800
1035.000000	56.640450
1036.000000	56.687150
1037.000000	56.735350
1038.000000	56.784100
1039.000000	56.833300
1040.000000	56.882960
1041.000000	56.932250
1042.000000	56.982040
1043.000000	57.031750
1044.000000	57.080430
1045.000000	57.129130
1046.000000	57.178510
1047.000000	57.228070
1048.000000	57.276960
1049.000000	57.324470
1050.000000	57.373410
1051.000000	57.423600
1052.000000	57.472880
1053.000000	57.522050
1054.000000	57.572920
1055.000000	57.623490
1056.000000	57.672220
1057.000000	57.722300
1058.000000	57.773590
1059.000000	57.825600
1060.000000	57.878210
1061.000000	57.931010
1062.000000	57.984690
1063.000000	58.038230
1064.000000	58.092200
1065.000000	58.146740
1066.000000	58.202490
1067.000000	58.257670
1068.000000	58.313170
1069.000000	58.370070
1070.000000	58.426880
1071.000000	58.482920
1072.000000	58.539920
1073.000000	58.597240
1074.000000	58.653760
1075.000000	58.711280
1076.000000	58.769890
1077.000000	58.828350
1078.000000	58.887480
1079.000000	58.946550
1080.000000	59.006140
1081.000000	59.066280
1082.000000	59.125650
1083.000000	59.185660
1084.000000	59.246720
1085.000000	59.307520
1086.000000	59.366080
1087.000000	59.424750
1088.000000	59.481840
1089.000000	59.538240
1090.000000	59.592280
1091.000000	59.644470
1092.000000	59.696000
1093.000000	59.745400
1094.000000	59.791970
1095.000000	59.837580
1096.000000	59.882960
1097.000000	59.924310
1098.000000	59.963040
1099.000000	60.000520
1100.000000	60.034860
1101.000000	60.069000
1102.000000	60.098710
1103.000000	60.126420
1104.000000	60.153010
1105.000000	60.175640
1106.000000	60.194940
1107.000000	60.214510
1108.000000	60.232580
1109.000000	60.249370
1110.000000	60.264680
1111.000000	60.276210
1112.000000	60.289340
1113.000000	60.299390
1114.000000	60.306390
1115.000000	60.313490
1116.000000	60.318690
1117.000000	60.322490
1118.000000	60.324840
1119.000000	60.323430
1120.000000	60.322510
1121.000000	60.320830
1122.000000	60.315110
1123.000000	60.305870
1124.000000	60.294020
1125.000000	60.277210
1126.000000	60.253910
1127.000000	60.223310
1128.000000	60.186910
1129.000000	60.142670
1130.000000	60.088950
1131.000000	60.024470
1132.000000	59.948460
1133.000000	59.867810
1134.000000	59.779780
1135.000000	59.680830
1136.000000	59.576940
1137.000000	59.459590
1138.000000	59.329680
1139.000000	59.193720
1140.000000	59.050300
1141.000000	58.906870
1142.000000	58.762130
1143.000000	58.611320
1144.000000	58.457910
1145.000000	58.309150
1146.000000	58.159570
1147.000000	58.017490
1148.000000	57.881200
1149.000000	57.747180
1150.000000	57.617580
1151.000000	57.487600
1152.000000	57.355900
1153.000000	57.226110
1154.000000	57.097520
1155.000000	56.961150
1156.000000	56.823970
1157.000000	56.682260
1158.000000	56.537130
1159.000000	56.386750
1160.000000	56.229650
1161.000000	56.065370
1162.000000	55.899210
1163.000000	55.727170
1164.000000	55.549750
1165.000000	55.370560
1166.000000	55.190640
1167.000000	55.010500
1168.000000	54.832680
1169.000000	54.658130
1170.000000	54.490330
1171.000000	54.331270
1172.000000	54.179300
1173.000000	54.035860
1174.000000	53.899530
1175.000000	53.775200
1176.000000	53.656250
1177.000000	53.548540
1178.000000	53.445420
1179.000000	53.348000
1180.000000	53.254050
1181.000000	53.163360
1182.000000	53.075520
1183.000000	52.991260
1184.000000	52.911870
1185.000000	52.838320
1186.000000	52.772260
1187.000000	52.711720
1188.000000	52.660680
1189.000000	52.621490
1190.000000	52.596260
1191.000000	52.584060
1192.000000	52.585160
1193.000000	52.601670
1194.000000	52.630750
1195.000000	52.670560
1196.000000	52.719440
1197.000000	52.775840
1198.000000	52.841230
1199.000000	52.912120
1200.000000	52.983560
1201.000000	53.057130
1202.000000	53.133780
1203.000000	53.207370
1204.000000	53.280180
1205.000000	53.352220
1206.000000	53.423140
1207.000000	53.494770
1208.000000	53.564070
1209.000000	53.630240
1210.000000	53.698930
1211.000000	53.768970
1212.000000	53.838240
1213.000000	53.908170
1214.000000	53.977150
1215.000000	54.046360
1216.000000	54.116730
1217.000000	54.185440
1218.000000	54.255120
1219.000000	54.325850
1220.000000	54.395490
1221.000000	54.465110
1222.000000	54.534910
1223.000000	54.605770
1224.000000	54.678810
1225.000000	54.749090
1226.000000	54.818150
1227.000000	54.886870
1228.000000	54.953520
1229.000000	55.018840
1230.000000	55.082890
1231.000000	55.141540
1232.000000	55.196270
1233.000000	55.246620
1234.000000	55.292460
1235.000000	55.336470
1236.000000	55.376800
1237.000000	55.413480
1238.000000	55.448790
1239.000000	55.482440
1240.000000	55.512400
1241.000000	55.543160
1242.000000	55.573920
1243.000000	55.605620
1244.000000	55.640270
1245.000000	55.676760
1246.000000	55.716160
1247.000000	55.760370
1248.000000	55.804340
1249.000000	55.850910
1250.000000	55.901770
1251.000000	55.953940
1252.000000	56.008130
1253.000000	56.062070
1254.000000	56.113730
1255.000000	56.163310
1256.000000	56.211750
1257.000000	56.255690
1258.000000	56.299920
1259.000000	56.340060
1260.000000	56.377130
1261.000000	56.410440
1262.000000	56.439510
1263.000000	56.466740
1264.000000	56.492530
1265.000000	56.517130
1266.000000	56.539740
1267.000000	56.561220
1268.000000	56.579670
1269.000000	56.597920
1270.000000	56.614350
1271.000000	56.629610
1272.000000	56.643190
1273.000000	56.655580
1274.000000	56.666800
1275.000000	56.676550
1276.000000	56.685160
1277.000000	56.694350
1278.000000	56.704560
1279.000000	56.715740
1280.000000	56.727230
1281.000000	56.741170
1282.000000	56.758040
1283.000000	56.776280
1284.000000	56.796490
1285.000000	56.819240
1286.000000	56.843040
1287.000000	56.867410
1288.000000	56.891560
1289.000000	56.913910
1290.000000	56.935630
1291.000000	56.955900
1292.000000	56.974850
1293.000000	56.990490
1294.000000	57.002570
1295.000000	57.011090
1296.000000	57.015440
1297.000000	57.016180
1298.000000	57.012860
1299.000000	57.005780
1300.000000	56.994240
1301.000000	56.977140
1302.000000	56.953820
1303.000000	56.926870
1304.000000	56.895080
1305.000000	56.858450
1306.000000	56.818670
1307.000000	56.773320
1308.000000	56.723460
1309.000000	56.669960
1310.000000	56.613020
1311.000000	56.550910
1312.000000	56.484010
1313.000000	56.413570
1314.000000	56.339050
1315.000000	56.260060
1316.000000	56.175800
1317.000000	56.087810
1318.000000	55.996580
1319.000000	55.902170
1320.000000	55.803430
1321.000000	55.703500
1322.000000	55.602590
1323.000000	55.496390
1324.000000	55.386480
1325.000000	55.274340
1326.000000	55.159320
1327.000000	55.041390
1328.000000	54.919320
1329.000000	54.791540
1330.000000	54.658860
1331.000000	54.520810
1332.000000	54.378410
1333.000000	54.231860
1334.000000	54.079490
1335.000000	53.921920
1336.000000	53.760480
1337.000000	53.593740
1338.000000	53.420580
1339.000000	53.242490
1340.000000	53.061530
1341.000000	52.875480
1342.000000	52.682400
1343.000000	52.486810
1344.000000	52.289440
1345.000000	52.087390
1346.000000	51.879460
1347.000000	51.669820
1348.000000	51.458650
1349.000000	51.244450
1350.000000	51.026880
1351.000000	50.808670
1352.000000	50.592450
1353.000000	50.374830
1354.000000	50.164590
1355.000000	49.963920
1356.000000	49.770020
1357.000000	49.583200
1358.000000	49.406530
1359.000000	49.242770
1360.000000	49.092670
1361.000000	48.956860
1362.000000	48.829440
1363.000000	48.706770
1364.000000	48.583330
1365.000000	48.457410
1366.000000	48.326350
1367.000000	48.189010
1368.000000	48.043240
1369.000000	47.879900
1370.000000	47.695620
1371.000000	47.485270
1372.000000	47.242320
1373.000000	46.966290
1374.000000	46.650980
1375.000000	46.291580
1376.000000	45.896620
1377.000000	45.465250
1378.000000	44.997210
1379.000000	44.505740
1380.000000	43.991290
1381.000000	43.475090
1382.000000	42.962460
1383.000000	42.460870
1384.000000	41.979900
1385.000000	41.521410
1386.000000	41.091840
1387.000000	40.690820
1388.000000	40.321950
1389.000000	39.972020
1390.000000	39.645600
1391.000000	39.330940
1392.000000	39.033520
1393.000000	38.744830
1394.000000	38.465780
1395.000000	38.201550
1396.000000	37.932480
1397.000000	37.649830
1398.000000	37.361620
1399.000000	37.081610
1400.000000	36.803030
1401.000000	36.510780
1402.000000	36.197550
1403.000000	35.880920
1404.000000	35.550810
1405.000000	35.210150
1406.000000	34.864260
1407.000000	34.526010
1408.000000	34.182310
1409.000000	33.830000
1410.000000	33.469290
1411.000000	33.110630
1412.000000	32.764930
1413.000000	32.426920
1414.000000	32.097450
1415.000000	31.771280
1416.000000	31.455660
1417.000000	31.147310
1418.000000	30.857630
1419.000000	30.578960
1420.000000	30.313170
1421.000000	30.061350
1422.000000	29.822420
1423.000000	29.591790
1424.000000	29.371170
1425.000000	29.164120
1426.000000	28.966900
1427.000000	28.780740
1428.000000	28.602500
1429.000000	28.431200
1430.000000	28.269180
1431.000000	28.118080
1432.000000	27.976820
1433.000000	27.840630
1434.000000	27.714620
1435.000000	27.591810
1436.000000	27.479900
1437.000000	27.375010
1438.000000	27.272570
1439.000000	27.176160
1440.000000	27.087880
1441.000000	27.000040
1442.000000	26.915100
1443.000000	26.836320
1444.000000	26.760030
1445.000000	26.691770
1446.000000	26.628230
1447.000000	26.564090
1448.000000	26.499150
1449.000000	26.437940
1450.000000	26.379070
1451.000000	26.324000
1452.000000	26.267340
1453.000000	26.212520
1454.000000	26.156050
1455.000000	26.098700
1456.000000	26.038250
1457.000000	25.979820
1458.000000	25.921250
1459.000000	25.864550
1460.000000	25.805490
1461.000000	25.744570
1462.000000	25.686920
1463.000000	25.629730
1464.000000	25.575040
1465.000000	25.521390
1466.000000	25.467940
1467.000000	25.418670
1468.000000	25.371680
1469.000000	25.323510
1470.000000	25.278040
1471.000000	25.237450
1472.000000	25.197120
1473.000000	25.156510
1474.000000	25.117490
1475.000000	25.078530
1476.000000	25.044010
1477.000000	25.012330
1478.000000	24.984850
1479.000000	24.961110
1480.000000	24.939680
1481.000000	24.919930
1482.000000	24.906870
1483.000000	24.899830
1484.000000	24.895030
1485.000000	24.894710
1486.000000	24.898030
1487.000000	24.904140
1488.000000	24.912790
1489.000000	24.924450
1490.000000	24.938360
1491.000000	24.954450
1492.000000	24.969850
1493.000000	24.986230
1494.000000	25.006590
1495.000000	25.028770
1496.000000	25.051310
1497.000000	25.076900
1498.000000	25.105740
1499.000000	25.136110
1500.000000	25.168360
1501.000000	25.205960
1502.000000	25.249140
1503.000000	25.296100
1504.000000	25.346590
1505.000000	25.404060
1506.000000	25.465790
1507.000000	25.529140
1508.000000	25.595490
1509.000000	25.667000
1510.000000	25.741930
1511.000000	25.818460
1512.000000	25.896370
1513.000000	25.975780
1514.000000	26.056440
1515.000000	26.136690
1516.000000	26.217760
1517.000000	26.299380
1518.000000	26.379750
1519.000000	26.460230
1520.000000	26.541210
1521.000000	26.623110
1522.000000	26.704910
1523.000000	26.786430
1524.000000	26.866990
1525.000000	26.945970
1526.000000	27.022720
1527.000000	27.099900
1528.000000	27.177720
1529.000000	27.254730
1530.000000	27.332690
1531.000000	27.408240
1532.000000	27.481070
1533.000000	27.552440
1534.000000	27.624080
1535.000000	27.695580
1536.000000	27.765850
1537.000000	27.832910
1538.000000	27.900020
1539.000000	27.965690
1540.000000	28.027500
1541.000000	28.088430
1542.000000	28.149040
1543.000000	28.209940
1544.000000	28.269770
1545.000000	28.327580
1546.000000	28.385040
1547.000000	28.444410
1548.000000	28.505300
1549.000000	28.566660
1550.000000	28.631400
1551.000000	28.698610
1552.000000	28.766420
1553.000000	28.834490
1554.000000	28.902740
1555.000000	28.972010
1556.000000	29.042420
1557.000000	29.110060
1558.000000	29.172840
1559.000000	29.231260
1560.000000	29.283370
1561.000000	29.330610
1562.000000	29.374370
1563.000000	29.412060
1564.000000	29.443910
1565.000000	29.470980
1566.000000	29.493380
1567.000000	29.511110
1568.000000	29.525010
1569.000000	29.535560
1570.000000	29.543960
1571.000000	29.548730
1572.000000	29.551860
1573.000000	29.555110
1574.000000	29.557880
1575.000000	29.560710
1576.000000	29.565570
1577.000000	29.573720
1578.000000	29.583650
1579.000000	29.596480
1580.000000	29.612020
1581.000000	29.631960
1582.000000	29.654870
1583.000000	29.679280
1584.000000	29.708510
1585.000000	29.741210
1586.000000	29.775070
1587.000000	29.809750
1588.000000	29.848080
1589.000000	29.889060
1590.000000	29.930550
1591.000000	29.972050
1592.000000	30.014590
1593.000000	30.058660
1594.000000	30.102460
1595.000000	30.146590
1596.000000	30.191710
1597.000000	30.238820
1598.000000	30.287160
1599.000000	30.337300
1600.000000	30.391300
1601.000000	30.448020
1602.000000	30.505940
1603.000000	30.566410
1604.000000	30.630600
1605.000000	30.695380
1606.000000	30.761080
1607.000000	30.827910
1608.000000	30.894980
1609.000000	30.961150
1610.000000	31.027340
1611.000000	31.092290
1612.000000	31.155370
1613.000000	31.216460
1614.000000	31.274400
1615.000000	31.331950
1616.000000	31.387890
1617.000000	31.441670
1618.000000	31.493520
1619.000000	31.544740
1620.000000	31.595340
1621.000000	31.644990
1622.000000	31.694640
1623.000000	31.745060
1624.000000	31.796300
1625.000000	31.845760
1626.000000	31.896960
1627.000000	31.947970
1628.000000	32.001480
1629.000000	32.054590
1630.000000	32.105690
1631.000000	32.158190
1632.000000	32.211080
1633.000000	32.262570
1634.000000	32.311590
1635.000000	32.360090
1636.000000	32.406070
1637.000000	32.451510
1638.000000	32.492220
1639.000000	32.530270
1640.000000	32.568510
1641.000000	32.602710
1642.000000	32.635860
1643.000000	32.666660
1644.000000	32.696170
1645.000000	32.725180
1646.000000	32.752520
1647.000000	32.778310
1648.000000	32.802300
1649.000000	32.824840
1650.000000	32.844240
1651.000000	32.861210
1652.000000	32.873510
1653.000000	32.883790
1654.000000	32.888450
1655.000000	32.887560
1656.000000	32.881110
1657.000000	32.868100
1658.000000	32.848560
1659.000000	32.821460
1660.000000	32.784760
1661.000000	32.739530
1662.000000	32.685020
1663.000000	32.620140
1664.000000	32.547340
1665.000000	32.467070
1666.000000	32.377200
1667.000000	32.281990
1668.000000	32.178500
1669.000000	32.068660
1670.000000	31.954850
1671.000000	31.836640
1672.000000	31.715030
1673.000000	31.591000
1674.000000	31.465780
1675.000000	31.338140
1676.000000	31.210310
1677.000000	31.078020
1678.000000	30.944780
1679.000000	30.810480
1680.000000	30.672500
1681.000000	30.527850
1682.000000	30.377440
1683.000000	30.224340
1684.000000	30.065520
1685.000000	29.906220
1686.000000	29.749140
1687.000000	29.598430
1688.000000	29.457680
1689.000000	29.331930
1690.000000	29.223660
1691.000000	29.141220
1692.000000	29.082490
1693.000000	29.044090
1694.000000	29.030230
1695.000000	29.034370
1696.000000	29.049860
1697.000000	29.073450
1698.000000	29.099890
1699.000000	29.124330
1700.000000	29.146410
1701.000000	29.155160
1702.000000	29.157410
1703.000000	29.149700
1704.000000	29.129050
1705.000000	29.099260
1706.000000	29.060960
1707.000000	29.013730
1708.000000	28.959590
1709.000000	28.897190
1710.000000	28.822150
1711.000000	28.741250
1712.000000	28.649420
1713.000000	28.549770
1714.000000	28.441140
1715.000000	28.317780
1716.000000	28.185780
1717.000000	28.042230
1718.000000	27.888300
1719.000000	27.725730
1720.000000	27.562100
1721.000000	27.398860
1722.000000	27.238980
1723.000000	27.086570
1724.000000	26.946400
1725.000000	26.824390
1726.000000	26.721520
1727.000000	26.640490
1728.000000	26.582590
1729.000000	26.545990
1730.000000	26.531110
1731.000000	26.532810
1732.000000	26.549420
1733.000000	26.579800
1734.000000	26.617800
1735.000000	26.665730
1736.000000	26.715900
1737.000000	26.771410
1738.000000	26.829240
1739.000000	26.890550
1740.000000	26.953340
1741.000000	27.019420
1742.000000	27.086550
1743.000000	27.155110
1744.000000	27.226850
1745.000000	27.295380
1746.000000	27.364230
1747.000000	27.429460
1748.000000	27.491540
1749.000000	27.550310
1750.000000	27.603240
1751.000000	27.650750
1752.000000	27.692200
1753.000000	27.724320
1754.000000	27.749600
1755.000000	27.767660
1756.000000	27.781090
1757.000000	27.789310
1758.000000	27.793330
1759.000000	27.795730
1760.000000	27.793810
1761.000000	27.791140
1762.000000	27.789620
1763.000000	27.789220
1764.000000	27.789820
1765.000000	27.794870
1766.000000	27.804180
1767.000000	27.818420
1768.000000	27.837640
1769.000000	27.860850
1770.000000	27.888620
1771.000000	27.920220
1772.000000	27.953280
1773.000000	27.988270
1774.000000	28.025930
1775.000000	28.065880
1776.000000	28.104910
1777.000000	28.144870
1778.000000	28.184980
1779.000000	28.223000
1780.000000	28.259030
1781.000000	28.293070
1782.000000	28.325160
1783.000000	28.357700
1784.000000	28.387510
1785.000000	28.413950
1786.000000	28.437330
1787.000000	28.455820
1788.000000	28.470860
1789.000000	28.483220
1790.000000	28.495530
1791.000000	28.506690
1792.000000	28.518510
1793.000000	28.528280
1794.000000	28.538110
1795.000000	28.549950
1796.000000	28.564250
1797.000000	28.581120
1798.000000	28.599610
1799.000000	28.619600
1800.000000	28.643200
1801.000000	28.669220
1802.000000	28.696630
1803.000000	28.724230
1804.000000	28.751030
1805.000000	28.776340
1806.000000	28.803290
1807.000000	28.830690
1808.000000	28.857260
1809.000000	28.883600
1810.000000	28.909130
1811.000000	28.934390
1812.000000	28.956930
1813.000000	28.979250
1814.000000	29.002930
1815.000000	29.025940
1816.000000	29.044920
1817.000000	29.061330
1818.000000	29.077580
1819.000000	29.093040
1820.000000	29.108490
1821.000000	29.119340
1822.000000	29.126330
1823.000000	29.130210
1824.000000	29.132220
1825.000000	29.135330
1826.000000	29.139780
1827.000000	29.144200
1828.000000	29.148170
1829.000000	29.153500
1830.000000	29.157740
1831.000000	29.162810
1832.000000	29.171580
1833.000000	29.185290
1834.000000	29.203120
1835.000000	29.222090
1836.000000	29.241330
1837.000000	29.262320
1838.000000	29.284690
1839.000000	29.306820
1840.000000	29.328340
1841.000000	29.350010
1842.000000	29.367670
1843.000000	29.377380
1844.000000	29.382330
1845.000000	29.387170
1846.000000	29.393710
1847.000000	29.399460
1848.000000	29.398260
1849.000000	29.388010
1850.000000	29.369670
1851.000000	29.346900
1852.000000	29.323680
1853.000000	29.300680
1854.000000	29.273280
1855.000000	29.234170
1856.000000	29.183270
1857.000000	29.125300
1858.000000	29.064220
1859.000000	28.998040
1860.000000	28.925270
1861.000000	28.843030
1862.000000	28.751600
1863.000000	28.650930
1864.000000	28.543540
1865.000000	28.432260
1866.000000	28.317090
1867.000000	28.196340
1868.000000	28.067760
1869.000000	27.929410
1870.000000	27.780550
1871.000000	27.621230
1872.000000	27.448810
1873.000000	27.260620
1874.000000	27.052930
1875.000000	26.825940
1876.000000	26.577660
1877.000000	26.308570
1878.000000	26.022330
1879.000000	25.724280
1880.000000	25.416700
1881.000000	25.100000
1882.000000	24.771100
1883.000000	24.433340
1884.000000	24.084920
1885.000000	23.720200
1886.000000	23.345220
1887.000000	22.960210
1888.000000	22.567750
1889.000000	22.163020
1890.000000	21.747780
1891.000000	21.318130
1892.000000	20.876950
1893.000000	20.424450
1894.000000	19.969610
1895.000000	19.522360
1896.000000	19.084650
1897.000000	18.652960
1898.000000	18.221440
1899.000000	17.794810
1900.000000	17.371250
1901.000000	16.956290
1902.000000	16.560110
1903.000000	16.184150
1904.000000	15.824640
1905.000000	15.473850
1906.000000	15.122400
1907.000000	14.779830
1908.000000	14.454230
1909.000000	14.150110
1910.000000	13.873000
1911.000000	13.619220
1912.000000	13.377380
1913.000000	13.145320
1914.000000	12.921920
1915.000000	12.712440
1916.000000	12.525500
1917.000000	12.356770
1918.000000	12.203510
1919.000000	12.057430
1920.000000	11.914070
1921.000000	11.776340
1922.000000	11.645660
1923.000000	11.527980
1924.000000	11.424290
1925.000000	11.329880
1926.000000	11.242450
1927.000000	11.159970
1928.000000	11.079480
1929.000000	11.007800
1930.000000	10.942250
1931.000000	10.886490
1932.000000	10.840230
1933.000000	10.798980
1934.000000	10.759540
1935.000000	10.729300
1936.000000	10.704910
1937.000000	10.686700
1938.000000	10.676640
1939.000000	10.669580
1940.000000	10.665260
1941.000000	10.666270
1942.000000	10.672190
1943.000000	10.682820
1944.000000	10.700390
1945.000000	10.720930
1946.000000	10.744250
1947.000000	10.768970
1948.000000	10.796480
1949.000000	10.829520
1950.000000	10.867100
1951.000000	10.904850
1952.000000	10.946240
1953.000000	10.989550
1954.000000	11.034410
1955.000000	11.079190
1956.000000	11.128620
1957.000000	11.181310
1958.000000	11.234740
1959.000000	11.286790
1960.000000	11.341220
1961.000000	11.398440
1962.000000	11.455480
1963.000000	11.510810
1964.000000	11.567610
1965.000000	11.627410
1966.000000	11.684780
1967.000000	11.740930
1968.000000	11.797680
1969.000000	11.856390
1970.000000	11.912790
1971.000000	11.970260
1972.000000	12.027830
1973.000000	12.087630
1974.000000	12.146920
1975.000000	12.205840
1976.000000	12.266400
1977.000000	12.327040
1978.000000	12.386370
1979.000000	12.447920
1980.000000	12.511760
1981.000000	12.575820
1982.000000	12.638230
1983.000000	12.703520
1984.000000	12.771650
1985.000000	12.839110
1986.000000	12.903510
1987.000000	12.970780
1988.000000	13.040450
1989.000000	13.107540
1990.000000	13.174070
1991.000000	13.237360
1992.000000	13.303780
1993.000000	13.367060
1994.000000	13.427660
1995.000000	13.489140
1996.000000	13.551470
1997.000000	13.608840
1998.000000	13.666840
1999.000000	13.722280
2000.000000	13.779650
2001.000000	13.835810
2002.000000	13.890710
2003.000000	13.943330
2004.000000	13.994930
2005.000000	14.043140
2006.000000	14.088570
2007.000000	14.134420
2008.000000	14.175220
2009.000000	14.216270
2010.000000	14.252290
2011.000000	14.284580
2012.000000	14.313990
2013.000000	14.342780
2014.000000	14.368690
2015.000000	14.390430
2016.000000	14.408840
2017.000000	14.423400
2018.000000	14.437470
2019.000000	14.447520
2020.000000	14.453860
2021.000000	14.459010
2022.000000	14.460070
2023.000000	14.455930
2024.000000	14.447970
2025.000000	14.439760
2026.000000	14.428540
2027.000000	14.415500
2028.000000	14.396140
2029.000000	14.373600
2030.000000	14.349640
2031.000000	14.322940
2032.000000	14.293140
2033.000000	14.262810
2034.000000	14.228050
2035.000000	14.188210
2036.000000	14.146980
2037.000000	14.102850
2038.000000	14.055790
2039.000000	14.004890
2040.000000	13.951240
2041.000000	13.894760
2042.000000	13.834920
2043.000000	13.770160
2044.000000	13.704650
2045.000000	13.636960
2046.000000	13.568090
2047.000000	13.497170
2048.000000	13.428060
2049.000000	13.361980
2050.000000	13.299310
2051.000000	13.240950
2052.000000	13.187430
2053.000000	13.141340
2054.000000	13.102580
2055.000000	13.073630
2056.000000	13.053960
2057.000000	13.046410
2058.000000	13.049090
2059.000000	13.061200
2060.000000	13.082340
2061.000000	13.111560
2062.000000	13.150340
2063.000000	13.197910
2064.000000	13.252610
2065.000000	13.314020
2066.000000	13.380070
2067.000000	13.450600
2068.000000	13.523150
2069.000000	13.599020
2070.000000	13.676510
2071.000000	13.754930
2072.000000	13.833400
2073.000000	13.909910
2074.000000	13.984740
2075.000000	14.057460
2076.000000	14.129580
2077.000000	14.196790
2078.000000	14.261610
2079.000000	14.322660
2080.000000	14.379500
2081.000000	14.432520
2082.000000	14.482130
2083.000000	14.528990
2084.000000	14.571870
2085.000000	14.609110
2086.000000	14.641290
2087.000000	14.671180
2088.000000	14.696510
2089.000000	14.717460
2090.000000	14.735320
2091.000000	14.750280
2092.000000	14.762620
2093.000000	14.771860
2094.000000	14.778490
2095.000000	14.784410
2096.000000	14.790870
2097.000000	14.796850
2098.000000	14.803060
2099.000000	14.810540
2100.000000	14.819130
2101.000000	14.827800
2102.000000	14.837330
2103.000000	14.848530
2104.000000	14.861730
2105.000000	14.875850
2106.000000	14.889120
2107.000000	14.902020
2108.000000	14.916430
2109.000000	14.929770
2110.000000	14.941010
2111.000000	14.952760
2112.000000	14.963670
2113.000000	14.974010
2114.000000	14.983530
2115.000000	14.993430
2116.000000	15.001210
2117.000000	15.006270
2118.000000	15.009250
2119.000000	15.010930
2120.000000	15.012330
2121.000000	15.011250
2122.000000	15.007840
2123.000000	15.001780
2124.000000	14.992400
2125.000000	14.979440
2126.000000	14.964000
2127.000000	14.945730
2128.000000	14.924960
2129.000000	14.902660
2130.000000	14.876890
2131.000000	14.848690
2132.000000	14.817570
2133.000000	14.782570
2134.000000	14.745640
2135.000000	14.705200
2136.000000	14.662900
2137.000000	14.618370
2138.000000	14.570550
2139.000000	14.519500
2140.000000	14.465970
2141.000000	14.407870
2142.000000	14.347950
2143.000000	14.285780
2144.000000	14.219870
2145.000000	14.151950
2146.000000	14.080300
2147.000000	14.008040
2148.000000	13.931190
2149.000000	13.852930
2150.000000	13.773630
2151.000000	13.694900
2152.000000	13.614780
2153.000000	13.534750
2154.000000	13.453380
2155.000000	13.374770
2156.000000	13.297630
2157.000000	13.220390
2158.000000	13.147230
2159.000000	13.075740
2160.000000	13.003380
2161.000000	12.932990
2162.000000	12.866610
2163.000000	12.801930
2164.000000	12.741240
2165.000000	12.681940
2166.000000	12.624720
2167.000000	12.570970
2168.000000	12.519850
2169.000000	12.470820
2170.000000	12.426350
2171.000000	12.384700
2172.000000	12.343750
2173.000000	12.305120
2174.000000	12.268410
2175.000000	12.232030
2176.000000	12.196740
2177.000000	12.162320
2178.000000	12.127350
2179.000000	12.094290
2180.000000	12.062340
2181.000000	12.026900
2182.000000	11.992930
2183.000000	11.958410
2184.000000	11.922350
2185.000000	11.883820
2186.000000	11.841020
2187.000000	11.794470
2188.000000	11.745310
2189.000000	11.687820
2190.000000	11.623350
2191.000000	11.557200
2192.000000	11.483140
2193.000000	11.400610
2194.000000	11.311500
2195.000000	11.212560
2196.000000	11.109100
2197.000000	10.998600
2198.000000	10.879920
2199.000000	10.758740
2200.000000	10.634150
2201.000000	10.502360
2202.000000	10.368570
2203.000000	10.236760
2204.000000	10.104980
2205.000000	9.980330
2206.000000	9.860170
2207.000000	9.746830
2208.000000	9.641900
2209.000000	9.549500
2210.000000	9.469430
2211.000000	9.405780
2212.000000	9.353900
2213.000000	9.318150
2214.000000	9.297730
2215.000000	9.292530
2216.000000	9.299500
2217.000000	9.321090
2218.000000	9.355530
2219.000000	9.399530
2220.000000	9.451580
2221.000000	9.509550
2222.000000	9.576910
2223.000000	9.648230
2224.000000	9.725430
2225.000000	9.802000
2226.000000	9.878920
2227.000000	9.953740
2228.000000	10.029510
2229.000000	10.099960
2230.000000	10.169040
2231.000000	10.236640
2232.000000	10.296450
2233.000000	10.349030
2234.000000	10.393910
2235.000000	10.433740
2236.000000	10.469840
2237.000000	10.499510
2238.000000	10.520080
2239.000000	10.535240
2240.000000	10.543490
2241.000000	10.543190
2242.000000	10.538730
2243.000000	10.527100
2244.000000	10.510900
2245.000000	10.489500
2246.000000	10.465460
2247.000000	10.436550
2248.000000	10.404480
2249.000000	10.371190
2250.000000	10.333410
2251.000000	10.294840
2252.000000	10.251770
2253.000000	10.210470
2254.000000	10.167670
2255.000000	10.123580
2256.000000	10.079140
2257.000000	10.035710
2258.000000	9.994290
2259.000000	9.954640
2260.000000	9.919150
2261.000000	9.884960
2262.000000	9.855990
2263.000000	9.830250
2264.000000	9.807560
2265.000000	9.792270
2266.000000	9.777960
2267.000000	9.772080
2268.000000	9.772800
2269.000000	9.775680
2270.000000	9.780490
2271.000000	9.793250
2272.000000	9.810460
2273.000000	9.829860
2274.000000	9.854190
2275.000000	9.878230
2276.000000	9.908060
2277.000000	9.937100
2278.000000	9.964010
2279.000000	9.991670
2280.000000	10.022920
2281.000000	10.050640
2282.000000	10.075730
2283.000000	10.103750
2284.000000	10.127820
2285.000000	10.151770
2286.000000	10.173510
2287.000000	10.193300
2288.000000	10.212320
2289.000000	10.230740
2290.000000	10.248060
2291.000000	10.265050
2292.000000	10.283860
2293.000000	10.299460
2294.000000	10.317260
2295.000000	10.334400
2296.000000	10.352400
2297.000000	10.371040
2298.000000	10.393190
2299.000000	10.415640
2300.000000	10.438210
2301.000000	10.462410
2302.000000	10.486790
2303.000000	10.510590
2304.000000	10.537020
2305.000000	10.566560
2306.000000	10.595700
2307.000000	10.626360
2308.000000	10.657250
2309.000000	10.690320
2310.000000	10.725560
2311.000000	10.761550
2312.000000	10.797950
2313.000000	10.836430
2314.000000	10.874840
2315.000000	10.913370
2316.000000	10.954630
2317.000000	10.995300
2318.000000	11.033730
2319.000000	11.070900
2320.000000	11.106520
2321.000000	11.139810
2322.000000	11.172940
2323.000000	11.202090
2324.000000	11.227990
2325.000000	11.251390
2326.000000	11.268750
2327.000000	11.284710
2328.000000	11.301370
2329.000000	11.315680
2330.000000	11.325970
2331.000000	11.336320
2332.000000	11.346590
2333.000000	11.356470
2334.000000	11.365260
2335.000000	11.372500
2336.000000	11.382020
2337.000000	11.392520
2338.000000	11.402540
2339.000000	11.413040
2340.000000	11.424870
2341.000000	11.435810
2342.000000	11.446050
2343.000000	11.458970
2344.000000	11.472700
2345.000000	11.489380
2346.000000	11.505910
2347.000000	11.520420
2348.000000	11.534970
2349.000000	11.549620
2350.000000	11.565050
2351.000000	11.582060
2352.000000	11.599260
2353.000000	11.615880
2354.000000	11.634130
2355.000000	11.651400
2356.000000	11.666410
2357.000000	11.681470
2358.000000	11.697730
2359.000000	11.714370
2360.000000	11.729630
2361.000000	11.743890
2362.000000	11.757280
2363.000000	11.769970
2364.000000	11.779850
2365.000000	11.787760
2366.000000	11.796950
2367.000000	11.805150
2368.000000	11.809990
2369.000000	11.815510
2370.000000	11.821360
2371.000000	11.825910
2372.000000	11.830250
2373.000000	11.833680
2374.000000	11.837840
2375.000000	11.841690
2376.000000	11.845670
2377.000000	11.851050
2378.000000	11.856310
2379.000000	11.859260
2380.000000	11.861690
2381.000000	11.863630
2382.000000	11.864740
2383.000000	11.867450
2384.000000	11.869250
2385.000000	11.870030
2386.000000	11.869480
2387.000000	11.868870
2388.000000	11.867120
2389.000000	11.862850
2390.000000	11.857850
2391.000000	11.852320
2392.000000	11.844710
2393.000000	11.834380
2394.000000	11.821970
2395.000000	11.808980
2396.000000	11.798070
2397.000000	11.784160
2398.000000	11.768430
2399.000000	11.752370
2400.000000	11.734220
2401.000000	11.718010
2402.000000	11.702700
2403.000000	11.685460
2404.000000	11.666310
2405.000000	11.647380
2406.000000	11.627470
2407.000000	11.607250
2408.000000	11.587270
2409.000000	11.567770
2410.000000	11.547800
2411.000000	11.522950
2412.000000	11.495380
2413.000000	11.469030
2414.000000	11.443620
2415.000000	11.414050
2416.000000	11.379930
2417.000000	11.345950
2418.000000	11.312700
2419.000000	11.281610
2420.000000	11.252790
2421.000000	11.224640
2422.000000	11.196200
2423.000000	11.163740
2424.000000	11.127910
2425.000000	11.090410
2426.000000	11.049400
2427.000000	11.006280
2428.000000	10.959280
2429.000000	10.905360
2430.000000	10.846800
2431.000000	10.784980
2432.000000	10.719400
2433.000000	10.654260
2434.000000	10.587210
2435.000000	10.520870
2436.000000	10.454410
2437.000000	10.387400
2438.000000	10.321040
2439.000000	10.253440
2440.000000	10.184650
2441.000000	10.115460
2442.000000	10.046720
2443.000000	9.976130
2444.000000	9.910390
2445.000000	9.843110
2446.000000	9.775630
2447.000000	9.707000
2448.000000	9.635910
2449.000000	9.565890
2450.000000	9.500020
2451.000000	9.436230
2452.000000	9.368870
2453.000000	9.305250
2454.000000	9.242370
2455.000000	9.181580
2456.000000	9.123990
2457.000000	9.067280
2458.000000	9.012570
2459.000000	8.962090
2460.000000	8.910920
2461.000000	8.858750
2462.000000	8.811050
2463.000000	8.767000
2464.000000	8.719130
2465.000000	8.678490
2466.000000	8.639910
2467.000000	8.602860
2468.000000	8.567310
2469.000000	8.534080
2470.000000	8.502090
2471.000000	8.468560
2472.000000	8.438240
2473.000000	8.409690
2474.000000	8.378720
2475.000000	8.349750
2476.000000	8.322700
2477.000000	8.293640
2478.000000	8.270440
2479.000000	8.244830
2480.000000	8.220290
2481.000000	8.202140
2482.000000	8.180060
2483.000000	8.159800
2484.000000	8.148220
2485.000000	8.131590
2486.000000	8.114200
2487.000000	8.101840
2488.000000	8.090610
2489.000000	8.084430
2490.000000	8.075110
2491.000000	8.064300
2492.000000	8.058690
2493.000000	8.048800
2494.000000	8.050760
2495.000000	8.053000
2496.000000	8.051190
2497.000000	8.041790
2498.000000	8.040010
2499.000000	8.019540
2500.000000	8.025370
