PE UV       SUBTECH     SPECTRUM    ASCII       PEDS        4.00        
   -1
CICIMAUCR0018-3.Sample.ASC
24/04/17
10:35:40.00
24/04/17
10:35:40.00
Vinicio Soto Monge
C. cupreomarginata
250,000000
1
Lambda 1050
1050L1511233
PerkinElmer UV WinLab 6.3.2.0749 / 2.02.05 Lambda 900 UV/VIS/NIR, Aug  7 2015 09:38:08

0
0
3350/servo 860,8/2
0
0
UV/VIS
1
1
1
DoubleDePol,CommonBeamDepol,RBeamAtt,SBeamAtt,60mm sphere, WB InGaAs Detector
0
0
0
0
Program
Program
3350/servo 860,8/2
3350/0,2 860,8/0,2
3350/0,2 860,8/0,2
0
15.00
 
 
 
0
 
860,8
319,2
860,8
Front
100
on
S:100 R:100
0
0
0
0
 
0
 
 
 
0
 
 
0
0
0
0
0
 
 
 
 
0
0


0
0
#HDR
-1
-1
#GR
nm
%R
1.0
0.0
2500,000000
-1,000000
2251
8
67,966100
4,192900
#DATA
250.000000	3.039617
251.000000	3.050091
252.000000	3.035750
253.000000	3.028574
254.000000	3.017588
255.000000	3.024298
256.000000	2.990784
257.000000	3.008491
258.000000	2.990538
259.000000	2.996181
260.000000	2.962430
261.000000	2.962148
262.000000	2.957626
263.000000	2.951506
264.000000	2.924818
265.000000	2.911627
266.000000	2.910390
267.000000	2.905163
268.000000	2.887637
269.000000	2.886254
270.000000	2.878162
271.000000	2.873000
272.000000	2.851907
273.000000	2.845731
274.000000	2.854309
275.000000	2.838491
276.000000	2.841891
277.000000	2.816939
278.000000	2.826224
279.000000	2.829581
280.000000	2.809733
281.000000	2.805884
282.000000	2.805422
283.000000	2.795138
284.000000	2.785980
285.000000	2.821720
286.000000	2.823309
287.000000	2.803369
288.000000	2.821101
289.000000	2.802185
290.000000	2.824586
291.000000	2.805580
292.000000	2.807904
293.000000	2.831000
294.000000	2.818062
295.000000	2.805848
296.000000	2.824838
297.000000	2.816782
298.000000	2.812702
299.000000	2.818783
300.000000	2.833149
301.000000	2.826933
302.000000	2.825897
303.000000	2.825196
304.000000	2.837086
305.000000	2.832345
306.000000	2.840325
307.000000	2.835966
308.000000	2.841884
309.000000	2.836068
310.000000	2.854906
311.000000	2.828154
312.000000	2.848556
313.000000	2.837919
314.000000	2.836019
315.000000	2.845242
316.000000	2.848871
317.000000	2.807525
318.000000	2.892933
319.000000	2.844919
320.000000	2.896711
321.000000	2.900284
322.000000	2.885837
323.000000	2.828825
324.000000	2.865939
325.000000	2.844478
326.000000	2.864704
327.000000	2.854467
328.000000	2.875514
329.000000	2.889906
330.000000	2.875165
331.000000	2.904608
332.000000	2.879724
333.000000	2.915648
334.000000	2.873786
335.000000	2.927503
336.000000	2.950280
337.000000	2.903617
338.000000	2.921708
339.000000	2.934847
340.000000	2.944437
341.000000	2.933959
342.000000	2.955553
343.000000	2.933080
344.000000	2.962340
345.000000	2.978008
346.000000	2.974215
347.000000	2.973127
348.000000	2.972042
349.000000	3.009014
350.000000	3.031788
351.000000	3.023934
352.000000	3.018006
353.000000	3.026450
354.000000	3.035603
355.000000	3.043695
356.000000	3.081297
357.000000	3.102485
358.000000	3.107741
359.000000	3.124290
360.000000	3.124671
361.000000	3.167865
362.000000	3.174996
363.000000	3.193939
364.000000	3.219955
365.000000	3.244644
366.000000	3.277701
367.000000	3.274189
368.000000	3.331751
369.000000	3.352102
370.000000	3.377438
371.000000	3.400241
372.000000	3.430869
373.000000	3.501393
374.000000	3.520854
375.000000	3.595445
376.000000	3.614491
377.000000	3.606092
378.000000	3.650941
379.000000	3.694278
380.000000	3.743864
381.000000	3.794811
382.000000	3.853194
383.000000	3.913980
384.000000	3.962873
385.000000	4.018775
386.000000	4.083889
387.000000	4.140394
388.000000	4.198938
389.000000	4.262764
390.000000	4.335112
391.000000	4.401109
392.000000	4.470666
393.000000	4.541666
394.000000	4.611619
395.000000	4.678558
396.000000	4.745155
397.000000	4.814990
398.000000	4.885610
399.000000	4.957324
400.000000	5.023339
401.000000	5.091039
402.000000	5.157888
403.000000	5.231227
404.000000	5.299055
405.000000	5.360680
406.000000	5.423770
407.000000	5.484429
408.000000	5.541495
409.000000	5.600331
410.000000	5.659484
411.000000	5.720514
412.000000	5.777085
413.000000	5.828109
414.000000	5.877157
415.000000	5.921326
416.000000	5.966872
417.000000	6.014685
418.000000	6.058907
419.000000	6.101606
420.000000	6.145779
421.000000	6.183523
422.000000	6.217953
423.000000	6.259951
424.000000	6.303229
425.000000	6.342572
426.000000	6.375621
427.000000	6.412622
428.000000	6.454289
429.000000	6.492104
430.000000	6.528783
431.000000	6.567275
432.000000	6.608687
433.000000	6.644348
434.000000	6.677839
435.000000	6.717597
436.000000	6.760025
437.000000	6.804783
438.000000	6.840016
439.000000	6.876193
440.000000	6.914427
441.000000	6.951969
442.000000	6.993237
443.000000	7.038767
444.000000	7.075486
445.000000	7.101919
446.000000	7.132174
447.000000	7.159767
448.000000	7.188406
449.000000	7.226820
450.000000	7.265264
451.000000	7.297272
452.000000	7.330021
453.000000	7.371162
454.000000	7.411448
455.000000	7.457610
456.000000	7.504761
457.000000	7.548233
458.000000	7.602443
459.000000	7.663172
460.000000	7.726179
461.000000	7.793650
462.000000	7.865445
463.000000	7.944426
464.000000	8.025375
465.000000	8.106873
466.000000	8.195903
467.000000	8.290899
468.000000	8.384939
469.000000	8.482586
470.000000	8.584940
471.000000	8.694171
472.000000	8.806833
473.000000	8.916076
474.000000	9.029216
475.000000	9.152788
476.000000	9.278060
477.000000	9.398980
478.000000	9.526235
479.000000	9.661000
480.000000	9.823034
481.000000	10.005011
482.000000	10.188884
483.000000	10.357059
484.000000	10.515589
485.000000	10.674201
486.000000	10.831362
487.000000	10.990172
488.000000	11.151809
489.000000	11.318671
490.000000	11.491172
491.000000	11.668372
492.000000	11.847101
493.000000	12.036382
494.000000	12.225207
495.000000	12.408536
496.000000	12.606960
497.000000	12.809841
498.000000	13.015772
499.000000	13.222674
500.000000	13.445117
501.000000	13.678439
502.000000	13.920886
503.000000	14.158213
504.000000	14.403777
505.000000	14.655717
506.000000	14.916837
507.000000	15.176571
508.000000	15.451973
509.000000	15.740794
510.000000	16.036745
511.000000	16.317242
512.000000	16.609912
513.000000	16.911430
514.000000	17.231016
515.000000	17.544996
516.000000	17.865240
517.000000	18.192291
518.000000	18.529420
519.000000	18.863579
520.000000	19.193432
521.000000	19.541849
522.000000	19.881256
523.000000	20.210462
524.000000	20.547952
525.000000	20.884462
526.000000	21.214636
527.000000	21.531223
528.000000	21.841865
529.000000	22.148255
530.000000	22.450037
531.000000	22.750226
532.000000	23.045987
533.000000	23.313457
534.000000	23.579424
535.000000	23.837656
536.000000	24.099166
537.000000	24.322356
538.000000	24.539300
539.000000	24.759526
540.000000	24.965580
541.000000	25.136931
542.000000	25.325759
543.000000	25.509258
544.000000	25.650105
545.000000	25.765063
546.000000	25.880479
547.000000	26.007658
548.000000	26.082626
549.000000	26.188264
550.000000	26.284772
551.000000	26.347614
552.000000	26.418967
553.000000	26.467985
554.000000	26.528405
555.000000	26.570654
556.000000	26.591026
557.000000	26.626599
558.000000	26.666806
559.000000	26.696297
560.000000	26.590023
561.000000	26.608811
562.000000	26.627246
563.000000	26.635990
564.000000	26.655622
565.000000	26.679214
566.000000	26.661951
567.000000	26.648718
568.000000	26.625200
569.000000	26.579383
570.000000	26.543519
571.000000	26.490774
572.000000	26.448946
573.000000	26.408171
574.000000	26.371844
575.000000	26.335155
576.000000	26.285195
577.000000	26.248650
578.000000	26.195314
579.000000	26.149000
580.000000	26.123067
581.000000	26.056103
582.000000	26.008737
583.000000	25.975421
584.000000	25.936023
585.000000	25.891891
586.000000	25.831287
587.000000	25.800826
588.000000	25.745933
589.000000	25.695380
590.000000	25.628517
591.000000	25.551849
592.000000	25.471700
593.000000	25.388052
594.000000	25.303818
595.000000	25.229351
596.000000	25.135557
597.000000	25.057360
598.000000	24.962269
599.000000	24.863713
600.000000	24.770931
601.000000	24.686669
602.000000	24.569518
603.000000	24.495530
604.000000	24.424712
605.000000	24.317007
606.000000	24.215995
607.000000	24.141157
608.000000	24.067333
609.000000	23.997078
610.000000	23.905736
611.000000	23.817809
612.000000	23.726586
613.000000	23.634643
614.000000	23.568309
615.000000	23.490947
616.000000	23.425491
617.000000	23.349604
618.000000	23.268156
619.000000	23.215454
620.000000	23.159650
621.000000	23.118032
622.000000	23.068752
623.000000	23.023418
624.000000	22.987832
625.000000	22.980403
626.000000	22.966953
627.000000	22.986289
628.000000	23.000364
629.000000	23.024169
630.000000	23.051848
631.000000	23.100625
632.000000	23.132372
633.000000	23.170572
634.000000	23.232597
635.000000	23.311449
636.000000	23.375201
637.000000	23.460967
638.000000	23.561759
639.000000	23.655541
640.000000	23.754279
641.000000	23.859323
642.000000	23.960905
643.000000	24.060477
644.000000	24.180500
645.000000	24.251111
646.000000	24.332653
647.000000	24.429984
648.000000	24.514109
649.000000	24.584082
650.000000	24.677794
651.000000	24.760167
652.000000	24.844876
653.000000	24.927958
654.000000	24.978088
655.000000	25.052207
656.000000	25.115826
657.000000	25.178716
658.000000	25.236221
659.000000	25.307509
660.000000	25.379221
661.000000	25.440119
662.000000	25.477651
663.000000	25.529016
664.000000	25.595068
665.000000	25.633597
666.000000	25.695011
667.000000	25.739348
668.000000	25.772242
669.000000	25.809920
670.000000	25.864292
671.000000	25.892358
672.000000	25.924798
673.000000	25.977422
674.000000	26.008375
675.000000	26.044339
676.000000	26.085129
677.000000	26.128858
678.000000	26.145170
679.000000	26.183057
680.000000	26.216882
681.000000	26.251988
682.000000	26.295073
683.000000	26.339857
684.000000	26.389398
685.000000	26.424281
686.000000	26.461455
687.000000	26.499898
688.000000	26.531924
689.000000	26.569915
690.000000	26.632259
691.000000	26.706668
692.000000	26.780721
693.000000	26.835720
694.000000	26.892930
695.000000	26.953919
696.000000	27.029276
697.000000	27.105556
698.000000	27.172139
699.000000	27.248037
700.000000	27.305911
701.000000	27.372259
702.000000	27.453690
703.000000	27.537397
704.000000	27.611901
705.000000	27.667825
706.000000	27.748619
707.000000	27.835566
708.000000	27.897455
709.000000	27.978431
710.000000	28.038352
711.000000	28.099505
712.000000	28.181321
713.000000	28.254405
714.000000	28.316418
715.000000	28.378516
716.000000	28.449872
717.000000	28.516219
718.000000	28.582060
719.000000	28.628775
720.000000	28.689742
721.000000	28.744587
722.000000	28.783376
723.000000	28.840289
724.000000	28.916635
725.000000	28.981951
726.000000	29.045539
727.000000	29.100798
728.000000	29.136008
729.000000	29.191710
730.000000	29.264314
731.000000	29.321326
732.000000	29.383218
733.000000	29.447330
734.000000	29.502519
735.000000	29.556026
736.000000	29.610424
737.000000	29.669880
738.000000	29.737235
739.000000	29.800661
740.000000	29.876884
741.000000	29.947926
742.000000	29.993242
743.000000	30.053240
744.000000	30.120633
745.000000	30.188144
746.000000	30.250264
747.000000	30.308357
748.000000	30.367574
749.000000	30.431710
750.000000	30.484556
751.000000	30.548762
752.000000	30.620453
753.000000	30.678546
754.000000	30.744087
755.000000	30.815525
756.000000	30.886167
757.000000	30.954343
758.000000	31.032970
759.000000	31.119976
760.000000	31.169948
761.000000	31.214789
762.000000	31.261427
763.000000	31.312061
764.000000	31.388249
765.000000	31.459100
766.000000	31.527300
767.000000	31.617035
768.000000	31.687964
769.000000	31.724062
770.000000	31.778652
771.000000	31.847784
772.000000	31.906450
773.000000	31.968127
774.000000	32.038043
775.000000	32.101076
776.000000	32.165725
777.000000	32.197102
778.000000	32.267880
779.000000	32.323968
780.000000	32.372422
781.000000	32.416365
782.000000	32.461928
783.000000	32.541186
784.000000	32.601550
785.000000	32.620874
786.000000	32.682501
787.000000	32.742800
788.000000	32.809433
789.000000	32.870466
790.000000	32.903587
791.000000	32.972787
792.000000	33.015914
793.000000	33.068018
794.000000	33.123289
795.000000	33.184165
796.000000	33.243213
797.000000	33.318769
798.000000	33.351630
799.000000	33.408177
800.000000	33.411861
801.000000	33.482237
802.000000	33.537291
803.000000	33.583032
804.000000	33.654344
805.000000	33.707993
806.000000	33.749746
807.000000	33.790436
808.000000	33.833909
809.000000	33.914308
810.000000	33.974284
811.000000	34.006896
812.000000	34.061027
813.000000	34.093981
814.000000	34.122236
815.000000	34.127560
816.000000	34.184133
817.000000	34.232087
818.000000	34.255951
819.000000	34.326610
820.000000	34.332535
821.000000	34.359056
822.000000	34.424845
823.000000	34.450443
824.000000	34.512579
825.000000	34.512517
826.000000	34.505198
827.000000	34.542623
828.000000	34.568875
829.000000	34.633922
830.000000	34.701813
831.000000	34.725076
832.000000	34.685339
833.000000	34.748647
834.000000	34.771280
835.000000	34.801775
836.000000	34.795443
837.000000	34.779337
838.000000	34.785373
839.000000	34.887942
840.000000	34.869971
841.000000	34.887580
842.000000	34.820576
843.000000	34.929177
844.000000	34.951342
845.000000	34.946637
846.000000	34.908735
847.000000	34.938324
848.000000	35.012950
849.000000	35.100240
850.000000	35.117522
851.000000	35.090341
852.000000	35.000163
853.000000	34.986476
854.000000	35.100610
855.000000	35.137504
856.000000	35.005797
857.000000	35.157927
858.000000	35.901500
859.000000	34.895933
860.000000	34.997400
861.000000	35.111333
862.000000	35.214500
863.000000	35.348567
864.000000	35.468533
865.000000	35.582600
866.000000	35.697467
867.000000	35.827500
868.000000	35.947933
869.000000	36.107033
870.000000	36.233367
871.000000	36.323867
872.000000	36.446333
873.000000	36.564033
874.000000	36.707100
875.000000	36.831833
876.000000	36.942500
877.000000	37.070400
878.000000	37.197400
879.000000	37.306567
880.000000	37.426467
881.000000	37.555267
882.000000	37.669500
883.000000	37.757000
884.000000	37.894633
885.000000	38.021667
886.000000	38.149933
887.000000	38.272633
888.000000	38.363600
889.000000	38.460167
890.000000	38.554133
891.000000	38.664333
892.000000	38.768567
893.000000	38.877700
894.000000	38.999667
895.000000	39.111133
896.000000	39.202600
897.000000	39.297767
898.000000	39.373600
899.000000	39.465633
900.000000	39.561833
901.000000	39.639333
902.000000	39.713600
903.000000	39.794367
904.000000	39.857000
905.000000	39.964867
906.000000	40.074133
907.000000	40.169767
908.000000	40.204067
909.000000	40.287500
910.000000	40.364367
911.000000	40.440700
912.000000	40.475867
913.000000	40.572267
914.000000	40.658200
915.000000	40.788700
916.000000	40.859200
917.000000	40.902333
918.000000	40.973400
919.000000	41.054233
920.000000	41.131667
921.000000	41.224900
922.000000	41.334000
923.000000	41.382167
924.000000	41.437400
925.000000	41.526600
926.000000	41.588800
927.000000	41.666700
928.000000	41.760100
929.000000	41.819233
930.000000	41.884667
931.000000	41.941233
932.000000	42.019900
933.000000	42.073133
934.000000	42.089533
935.000000	42.140400
936.000000	42.215567
937.000000	42.260233
938.000000	42.334433
939.000000	42.400100
940.000000	42.501267
941.000000	42.604200
942.000000	42.700467
943.000000	42.722300
944.000000	42.770867
945.000000	42.841700
946.000000	42.891800
947.000000	42.944867
948.000000	43.026633
949.000000	43.075667
950.000000	43.112800
951.000000	43.186033
952.000000	43.236200
953.000000	43.288467
954.000000	43.342533
955.000000	43.343800
956.000000	43.386200
957.000000	43.420933
958.000000	43.477733
959.000000	43.537567
960.000000	43.573900
961.000000	43.594533
962.000000	43.639400
963.000000	43.704233
964.000000	43.748600
965.000000	43.781567
966.000000	43.809067
967.000000	43.850367
968.000000	43.905967
969.000000	43.961733
970.000000	43.982367
971.000000	44.031867
972.000000	44.060233
973.000000	44.099367
974.000000	44.117367
975.000000	44.152400
976.000000	44.193400
977.000000	44.252567
978.000000	44.278067
979.000000	44.291133
980.000000	44.341467
981.000000	44.403000
982.000000	44.438067
983.000000	44.458367
984.000000	44.485133
985.000000	44.520433
986.000000	44.555367
987.000000	44.603700
988.000000	44.645833
989.000000	44.688000
990.000000	44.710767
991.000000	44.731500
992.000000	44.787867
993.000000	44.832033
994.000000	44.863333
995.000000	44.894633
996.000000	44.928933
997.000000	44.986333
998.000000	45.028500
999.000000	45.069000
1000.000000	45.094600
1001.000000	45.131333
1002.000000	45.185167
1003.000000	45.224033
1004.000000	45.254867
1005.000000	45.275767
1006.000000	45.295867
1007.000000	45.326533
1008.000000	45.356333
1009.000000	45.398500
1010.000000	45.440600
1011.000000	45.471067
1012.000000	45.492633
1013.000000	45.510500
1014.000000	45.550367
1015.000000	45.612267
1016.000000	45.646500
1017.000000	45.677300
1018.000000	45.720900
1019.000000	45.763967
1020.000000	45.811200
1021.000000	45.847700
1022.000000	45.873700
1023.000000	45.894467
1024.000000	45.931033
1025.000000	45.970600
1026.000000	46.009833
1027.000000	46.049300
1028.000000	46.077267
1029.000000	46.107467
1030.000000	46.149667
1031.000000	46.182867
1032.000000	46.206233
1033.000000	46.249333
1034.000000	46.293367
1035.000000	46.315300
1036.000000	46.337833
1037.000000	46.374900
1038.000000	46.419033
1039.000000	46.454367
1040.000000	46.472867
1041.000000	46.502100
1042.000000	46.530267
1043.000000	46.548767
1044.000000	46.572400
1045.000000	46.596900
1046.000000	46.641367
1047.000000	46.675000
1048.000000	46.695700
1049.000000	46.734967
1050.000000	46.777067
1051.000000	46.810967
1052.000000	46.835133
1053.000000	46.857767
1054.000000	46.906333
1055.000000	46.935400
1056.000000	46.947167
1057.000000	46.971200
1058.000000	47.025933
1059.000000	47.067833
1060.000000	47.082100
1061.000000	47.116233
1062.000000	47.142433
1063.000000	47.184533
1064.000000	47.231333
1065.000000	47.256133
1066.000000	47.274700
1067.000000	47.295700
1068.000000	47.326733
1069.000000	47.355400
1070.000000	47.378867
1071.000000	47.417000
1072.000000	47.460533
1073.000000	47.498633
1074.000000	47.519400
1075.000000	47.543767
1076.000000	47.561767
1077.000000	47.594567
1078.000000	47.633167
1079.000000	47.666867
1080.000000	47.696033
1081.000000	47.731133
1082.000000	47.767533
1083.000000	47.800200
1084.000000	47.819900
1085.000000	47.846600
1086.000000	47.859600
1087.000000	47.892300
1088.000000	47.918300
1089.000000	47.942367
1090.000000	47.963700
1091.000000	48.019100
1092.000000	48.047167
1093.000000	48.066767
1094.000000	48.095500
1095.000000	48.094967
1096.000000	48.122267
1097.000000	48.147333
1098.000000	48.172067
1099.000000	48.201400
1100.000000	48.210500
1101.000000	48.236200
1102.000000	48.247100
1103.000000	48.261933
1104.000000	48.288667
1105.000000	48.313667
1106.000000	48.341567
1107.000000	48.355767
1108.000000	48.365900
1109.000000	48.377967
1110.000000	48.396533
1111.000000	48.405633
1112.000000	48.423367
1113.000000	48.449133
1114.000000	48.437300
1115.000000	48.449500
1116.000000	48.479733
1117.000000	48.477800
1118.000000	48.480733
1119.000000	48.472300
1120.000000	48.479600
1121.000000	48.490433
1122.000000	48.505933
1123.000000	48.477900
1124.000000	48.460100
1125.000000	48.440300
1126.000000	48.431567
1127.000000	48.411500
1128.000000	48.425333
1129.000000	48.385433
1130.000000	48.319433
1131.000000	48.255867
1132.000000	48.218167
1133.000000	48.216333
1134.000000	48.167633
1135.000000	48.038433
1136.000000	47.946100
1137.000000	47.895567
1138.000000	47.818967
1139.000000	47.762867
1140.000000	47.693367
1141.000000	47.635000
1142.000000	47.549467
1143.000000	47.508300
1144.000000	47.459033
1145.000000	47.401967
1146.000000	47.349533
1147.000000	47.319733
1148.000000	47.288700
1149.000000	47.268200
1150.000000	47.250700
1151.000000	47.228600
1152.000000	47.231567
1153.000000	47.201133
1154.000000	47.175367
1155.000000	47.154300
1156.000000	47.102233
1157.000000	47.035200
1158.000000	46.952700
1159.000000	46.882433
1160.000000	46.797867
1161.000000	46.690200
1162.000000	46.603167
1163.000000	46.518100
1164.000000	46.448733
1165.000000	46.350367
1166.000000	46.269633
1167.000000	46.174967
1168.000000	46.095767
1169.000000	45.999867
1170.000000	45.892333
1171.000000	45.816833
1172.000000	45.739733
1173.000000	45.671233
1174.000000	45.589867
1175.000000	45.534533
1176.000000	45.472133
1177.000000	45.399767
1178.000000	45.305367
1179.000000	45.209067
1180.000000	45.119267
1181.000000	44.997633
1182.000000	44.881300
1183.000000	44.794633
1184.000000	44.725467
1185.000000	44.683567
1186.000000	44.672133
1187.000000	44.698933
1188.000000	44.754167
1189.000000	44.823100
1190.000000	44.913267
1191.000000	45.032967
1192.000000	45.147867
1193.000000	45.251733
1194.000000	45.349900
1195.000000	45.434367
1196.000000	45.487800
1197.000000	45.542933
1198.000000	45.573367
1199.000000	45.619133
1200.000000	45.648833
1201.000000	45.687233
1202.000000	45.706833
1203.000000	45.707867
1204.000000	45.764633
1205.000000	45.795700
1206.000000	45.816400
1207.000000	45.837233
1208.000000	45.855633
1209.000000	45.882600
1210.000000	45.925967
1211.000000	45.978133
1212.000000	46.001400
1213.000000	46.034567
1214.000000	46.060567
1215.000000	46.098867
1216.000000	46.143400
1217.000000	46.185833
1218.000000	46.234067
1219.000000	46.264433
1220.000000	46.293167
1221.000000	46.308200
1222.000000	46.354300
1223.000000	46.405600
1224.000000	46.437767
1225.000000	46.471133
1226.000000	46.528633
1227.000000	46.563267
1228.000000	46.586200
1229.000000	46.626600
1230.000000	46.667633
1231.000000	46.701133
1232.000000	46.742033
1233.000000	46.783500
1234.000000	46.814633
1235.000000	46.837200
1236.000000	46.865800
1237.000000	46.895533
1238.000000	46.941400
1239.000000	46.987100
1240.000000	47.034433
1241.000000	47.061633
1242.000000	47.081967
1243.000000	47.112133
1244.000000	47.153533
1245.000000	47.193667
1246.000000	47.232133
1247.000000	47.252967
1248.000000	47.284500
1249.000000	47.321433
1250.000000	47.348433
1251.000000	47.358767
1252.000000	47.388900
1253.000000	47.424067
1254.000000	47.433933
1255.000000	47.452700
1256.000000	47.470033
1257.000000	47.498700
1258.000000	47.510633
1259.000000	47.509300
1260.000000	47.511700
1261.000000	47.508667
1262.000000	47.512167
1263.000000	47.522867
1264.000000	47.544200
1265.000000	47.567033
1266.000000	47.571667
1267.000000	47.574633
1268.000000	47.578900
1269.000000	47.579000
1270.000000	47.581267
1271.000000	47.582467
1272.000000	47.587367
1273.000000	47.608967
1274.000000	47.628900
1275.000000	47.640533
1276.000000	47.637833
1277.000000	47.641633
1278.000000	47.664933
1279.000000	47.678300
1280.000000	47.701100
1281.000000	47.730200
1282.000000	47.745933
1283.000000	47.757167
1284.000000	47.767267
1285.000000	47.787933
1286.000000	47.815433
1287.000000	47.847433
1288.000000	47.874367
1289.000000	47.892367
1290.000000	47.893533
1291.000000	47.888000
1292.000000	47.880833
1293.000000	47.899967
1294.000000	47.935333
1295.000000	47.943667
1296.000000	47.940367
1297.000000	47.945367
1298.000000	47.960900
1299.000000	47.973767
1300.000000	47.981100
1301.000000	47.979533
1302.000000	47.967500
1303.000000	47.964900
1304.000000	47.961500
1305.000000	47.955700
1306.000000	47.954533
1307.000000	47.942100
1308.000000	47.930033
1309.000000	47.911700
1310.000000	47.886400
1311.000000	47.880967
1312.000000	47.885067
1313.000000	47.879300
1314.000000	47.858667
1315.000000	47.823100
1316.000000	47.786633
1317.000000	47.747700
1318.000000	47.712467
1319.000000	47.691300
1320.000000	47.663767
1321.000000	47.634233
1322.000000	47.616800
1323.000000	47.586800
1324.000000	47.529133
1325.000000	47.471833
1326.000000	47.441933
1327.000000	47.409433
1328.000000	47.361167
1329.000000	47.313267
1330.000000	47.267500
1331.000000	47.207933
1332.000000	47.158833
1333.000000	47.109367
1334.000000	47.052633
1335.000000	46.996567
1336.000000	46.929433
1337.000000	46.856233
1338.000000	46.779233
1339.000000	46.707367
1340.000000	46.627867
1341.000000	46.529767
1342.000000	46.439867
1343.000000	46.355933
1344.000000	46.252033
1345.000000	46.137567
1346.000000	46.059933
1347.000000	45.958000
1348.000000	45.808067
1349.000000	45.674633
1350.000000	45.565100
1351.000000	45.381600
1352.000000	45.189933
1353.000000	45.099967
1354.000000	45.018800
1355.000000	44.835300
1356.000000	44.660600
1357.000000	44.588167
1358.000000	44.521967
1359.000000	44.475367
1360.000000	44.536933
1361.000000	44.460167
1362.000000	44.249967
1363.000000	44.182733
1364.000000	44.221033
1365.000000	44.081133
1366.000000	44.009733
1367.000000	44.017400
1368.000000	43.874433
1369.000000	43.726933
1370.000000	43.726367
1371.000000	43.612133
1372.000000	43.437100
1373.000000	43.360933
1374.000000	43.286667
1375.000000	43.251967
1376.000000	43.148600
1377.000000	43.098967
1378.000000	43.034200
1379.000000	43.022833
1380.000000	42.920167
1381.000000	42.888767
1382.000000	42.661900
1383.000000	42.456533
1384.000000	42.289533
1385.000000	42.128300
1386.000000	42.041933
1387.000000	41.977467
1388.000000	41.789167
1389.000000	41.492533
1390.000000	41.437933
1391.000000	41.383933
1392.000000	41.147367
1393.000000	40.927533
1394.000000	40.941567
1395.000000	40.900100
1396.000000	40.489333
1397.000000	40.177667
1398.000000	40.155100
1399.000000	40.243433
1400.000000	40.031533
1401.000000	39.571367
1402.000000	39.303067
1403.000000	39.261667
1404.000000	39.037033
1405.000000	38.787233
1406.000000	38.524067
1407.000000	38.328367
1408.000000	38.112900
1409.000000	37.905800
1410.000000	37.569433
1411.000000	37.354433
1412.000000	37.233067
1413.000000	37.129733
1414.000000	36.890500
1415.000000	36.561333
1416.000000	36.402167
1417.000000	36.316300
1418.000000	36.171467
1419.000000	35.972800
1420.000000	35.738300
1421.000000	35.546700
1422.000000	35.429900
1423.000000	35.271033
1424.000000	35.095467
1425.000000	34.922100
1426.000000	34.770267
1427.000000	34.659300
1428.000000	34.519533
1429.000000	34.343667
1430.000000	34.254900
1431.000000	34.180933
1432.000000	34.051467
1433.000000	33.940200
1434.000000	33.840000
1435.000000	33.727300
1436.000000	33.660900
1437.000000	33.557200
1438.000000	33.469400
1439.000000	33.391700
1440.000000	33.310700
1441.000000	33.228900
1442.000000	33.123667
1443.000000	33.048700
1444.000000	33.026667
1445.000000	32.974300
1446.000000	32.840700
1447.000000	32.698200
1448.000000	32.637267
1449.000000	32.594833
1450.000000	32.569467
1451.000000	32.485867
1452.000000	32.426000
1453.000000	32.350400
1454.000000	32.274600
1455.000000	32.219800
1456.000000	32.149700
1457.000000	32.084800
1458.000000	31.990467
1459.000000	31.928333
1460.000000	31.884100
1461.000000	31.807500
1462.000000	31.772133
1463.000000	31.728467
1464.000000	31.665467
1465.000000	31.617667
1466.000000	31.558300
1467.000000	31.501700
1468.000000	31.450367
1469.000000	31.423633
1470.000000	31.391367
1471.000000	31.340633
1472.000000	31.295000
1473.000000	31.257633
1474.000000	31.201800
1475.000000	31.177367
1476.000000	31.146033
1477.000000	31.114067
1478.000000	31.064733
1479.000000	31.042833
1480.000000	31.020033
1481.000000	31.004167
1482.000000	30.972833
1483.000000	30.953300
1484.000000	30.945233
1485.000000	30.933133
1486.000000	30.910867
1487.000000	30.899200
1488.000000	30.878433
1489.000000	30.870533
1490.000000	30.852933
1491.000000	30.841667
1492.000000	30.829900
1493.000000	30.840333
1494.000000	30.842667
1495.000000	30.844867
1496.000000	30.840767
1497.000000	30.855600
1498.000000	30.867767
1499.000000	30.871967
1500.000000	30.904500
1501.000000	30.941467
1502.000000	30.974467
1503.000000	30.996067
1504.000000	31.031933
1505.000000	31.070800
1506.000000	31.102167
1507.000000	31.143533
1508.000000	31.182567
1509.000000	31.230167
1510.000000	31.269233
1511.000000	31.304167
1512.000000	31.325367
1513.000000	31.349100
1514.000000	31.390867
1515.000000	31.431367
1516.000000	31.468633
1517.000000	31.508333
1518.000000	31.556867
1519.000000	31.595200
1520.000000	31.627267
1521.000000	31.669833
1522.000000	31.697167
1523.000000	31.713600
1524.000000	31.744400
1525.000000	31.781900
1526.000000	31.812033
1527.000000	31.845833
1528.000000	31.871933
1529.000000	31.899667
1530.000000	31.923967
1531.000000	31.949400
1532.000000	31.976433
1533.000000	31.993700
1534.000000	32.008767
1535.000000	32.036800
1536.000000	32.044533
1537.000000	32.044967
1538.000000	32.061667
1539.000000	32.082667
1540.000000	32.104533
1541.000000	32.133500
1542.000000	32.151167
1543.000000	32.171233
1544.000000	32.195167
1545.000000	32.226733
1546.000000	32.264300
1547.000000	32.288833
1548.000000	32.316500
1549.000000	32.357233
1550.000000	32.397267
1551.000000	32.438567
1552.000000	32.472667
1553.000000	32.498300
1554.000000	32.517033
1555.000000	32.536300
1556.000000	32.554133
1557.000000	32.576300
1558.000000	32.586267
1559.000000	32.594133
1560.000000	32.599533
1561.000000	32.599733
1562.000000	32.600900
1563.000000	32.597433
1564.000000	32.594333
1565.000000	32.589500
1566.000000	32.583000
1567.000000	32.576367
1568.000000	32.569833
1569.000000	32.556467
1570.000000	32.556367
1571.000000	32.551700
1572.000000	32.537433
1573.000000	32.550933
1574.000000	32.580733
1575.000000	32.590433
1576.000000	32.597267
1577.000000	32.610533
1578.000000	32.617933
1579.000000	32.625933
1580.000000	32.641400
1581.000000	32.657033
1582.000000	32.673400
1583.000000	32.702933
1584.000000	32.727100
1585.000000	32.746700
1586.000000	32.767667
1587.000000	32.781867
1588.000000	32.807967
1589.000000	32.853867
1590.000000	32.883967
1591.000000	32.911100
1592.000000	32.951533
1593.000000	32.990767
1594.000000	33.036000
1595.000000	33.082533
1596.000000	33.118067
1597.000000	33.153667
1598.000000	33.202233
1599.000000	33.244967
1600.000000	33.295400
1601.000000	33.354600
1602.000000	33.404500
1603.000000	33.459633
1604.000000	33.521400
1605.000000	33.576800
1606.000000	33.624267
1607.000000	33.672633
1608.000000	33.731433
1609.000000	33.787100
1610.000000	33.832467
1611.000000	33.872200
1612.000000	33.918133
1613.000000	33.958900
1614.000000	34.013467
1615.000000	34.065800
1616.000000	34.100600
1617.000000	34.139867
1618.000000	34.176400
1619.000000	34.213000
1620.000000	34.245533
1621.000000	34.282633
1622.000000	34.332600
1623.000000	34.370633
1624.000000	34.403700
1625.000000	34.446700
1626.000000	34.493433
1627.000000	34.537800
1628.000000	34.567700
1629.000000	34.603733
1630.000000	34.648067
1631.000000	34.694533
1632.000000	34.724900
1633.000000	34.752200
1634.000000	34.787433
1635.000000	34.810800
1636.000000	34.839133
1637.000000	34.873400
1638.000000	34.901000
1639.000000	34.929000
1640.000000	34.964000
1641.000000	34.981267
1642.000000	35.002667
1643.000000	35.019033
1644.000000	35.032500
1645.000000	35.051700
1646.000000	35.078067
1647.000000	35.088667
1648.000000	35.100867
1649.000000	35.125767
1650.000000	35.151800
1651.000000	35.148467
1652.000000	35.148133
1653.000000	35.135900
1654.000000	35.128600
1655.000000	35.120833
1656.000000	35.110367
1657.000000	35.087700
1658.000000	35.055633
1659.000000	35.006133
1660.000000	34.967200
1661.000000	34.912900
1662.000000	34.853500
1663.000000	34.796633
1664.000000	34.726500
1665.000000	34.658767
1666.000000	34.586200
1667.000000	34.518433
1668.000000	34.389167
1669.000000	34.266567
1670.000000	34.163900
1671.000000	34.039267
1672.000000	33.924100
1673.000000	33.790633
1674.000000	33.647067
1675.000000	33.474800
1676.000000	33.310000
1677.000000	33.113833
1678.000000	32.910033
1679.000000	32.700933
1680.000000	32.459233
1681.000000	32.237433
1682.000000	32.032033
1683.000000	31.862000
1684.000000	31.734233
1685.000000	31.630000
1686.000000	31.558300
1687.000000	31.507967
1688.000000	31.475767
1689.000000	31.456300
1690.000000	31.421233
1691.000000	31.395133
1692.000000	31.357633
1693.000000	31.322267
1694.000000	31.306900
1695.000000	31.292367
1696.000000	31.317967
1697.000000	31.350200
1698.000000	31.379367
1699.000000	31.410767
1700.000000	31.475333
1701.000000	31.493400
1702.000000	31.527033
1703.000000	31.552333
1704.000000	31.542867
1705.000000	31.544700
1706.000000	31.544567
1707.000000	31.536967
1708.000000	31.533933
1709.000000	31.488900
1710.000000	31.450533
1711.000000	31.406067
1712.000000	31.340600
1713.000000	31.261233
1714.000000	31.188033
1715.000000	31.103433
1716.000000	31.005867
1717.000000	30.918500
1718.000000	30.830467
1719.000000	30.739200
1720.000000	30.671667
1721.000000	30.603733
1722.000000	30.546033
1723.000000	30.517067
1724.000000	30.484933
1725.000000	30.470000
1726.000000	30.451400
1727.000000	30.447400
1728.000000	30.435500
1729.000000	30.405367
1730.000000	30.387867
1731.000000	30.364333
1732.000000	30.359900
1733.000000	30.366767
1734.000000	30.384567
1735.000000	30.429633
1736.000000	30.474700
1737.000000	30.529033
1738.000000	30.590067
1739.000000	30.674867
1740.000000	30.752367
1741.000000	30.831133
1742.000000	30.920633
1743.000000	31.011400
1744.000000	31.083867
1745.000000	31.149733
1746.000000	31.223733
1747.000000	31.267200
1748.000000	31.315000
1749.000000	31.348367
1750.000000	31.384567
1751.000000	31.399867
1752.000000	31.417700
1753.000000	31.423733
1754.000000	31.412633
1755.000000	31.407733
1756.000000	31.395367
1757.000000	31.387467
1758.000000	31.386567
1759.000000	31.366800
1760.000000	31.352667
1761.000000	31.349033
1762.000000	31.341267
1763.000000	31.335300
1764.000000	31.332567
1765.000000	31.350933
1766.000000	31.366667
1767.000000	31.411333
1768.000000	31.454600
1769.000000	31.507667
1770.000000	31.561367
1771.000000	31.613500
1772.000000	31.667833
1773.000000	31.697200
1774.000000	31.752800
1775.000000	31.798800
1776.000000	31.842300
1777.000000	31.895233
1778.000000	31.931867
1779.000000	31.971767
1780.000000	31.976800
1781.000000	32.001133
1782.000000	32.037033
1783.000000	32.087833
1784.000000	32.113733
1785.000000	32.129933
1786.000000	32.150867
1787.000000	32.170667
1788.000000	32.183567
1789.000000	32.206867
1790.000000	32.230733
1791.000000	32.242200
1792.000000	32.256633
1793.000000	32.284367
1794.000000	32.326400
1795.000000	32.349800
1796.000000	32.354600
1797.000000	32.367567
1798.000000	32.395267
1799.000000	32.427667
1800.000000	32.445000
1801.000000	32.434800
1802.000000	32.421567
1803.000000	32.443367
1804.000000	32.503633
1805.000000	32.534967
1806.000000	32.531667
1807.000000	32.515467
1808.000000	32.532733
1809.000000	32.592767
1810.000000	32.643333
1811.000000	32.632800
1812.000000	32.587467
1813.000000	32.605800
1814.000000	32.649400
1815.000000	32.659067
1816.000000	32.604967
1817.000000	32.569200
1818.000000	32.638367
1819.000000	32.712167
1820.000000	32.688833
1821.000000	32.549700
1822.000000	32.435033
1823.000000	32.506500
1824.000000	32.671900
1825.000000	32.740867
1826.000000	32.719200
1827.000000	32.653433
1828.000000	32.674900
1829.000000	32.736700
1830.000000	32.734267
1831.000000	32.688267
1832.000000	32.708467
1833.000000	32.817400
1834.000000	32.982333
1835.000000	33.033633
1836.000000	32.927600
1837.000000	32.777467
1838.000000	32.740567
1839.000000	32.858067
1840.000000	32.940500
1841.000000	32.919500
1842.000000	32.773300
1843.000000	32.726067
1844.000000	32.915167
1845.000000	33.155767
1846.000000	33.277633
1847.000000	33.171067
1848.000000	32.892100
1849.000000	32.727433
1850.000000	32.854233
1851.000000	33.068167
1852.000000	33.139633
1853.000000	33.143033
1854.000000	33.086000
1855.000000	32.957033
1856.000000	32.964267
1857.000000	33.032100
1858.000000	32.984533
1859.000000	32.883233
1860.000000	32.799667
1861.000000	32.738633
1862.000000	32.718433
1863.000000	32.731067
1864.000000	32.782933
1865.000000	32.775633
1866.000000	32.705700
1867.000000	32.692500
1868.000000	32.511667
1869.000000	32.283533
1870.000000	32.012267
1871.000000	31.685067
1872.000000	31.432000
1873.000000	31.225033
1874.000000	31.041067
1875.000000	30.907933
1876.000000	30.780000
1877.000000	30.656600
1878.000000	30.492800
1879.000000	30.302800
1880.000000	30.136433
1881.000000	29.922567
1882.000000	29.634467
1883.000000	29.326367
1884.000000	28.985567
1885.000000	28.585333
1886.000000	28.258400
1887.000000	27.965667
1888.000000	27.698000
1889.000000	27.350533
1890.000000	27.007233
1891.000000	26.613467
1892.000000	26.177167
1893.000000	25.778000
1894.000000	25.455867
1895.000000	25.155967
1896.000000	24.965733
1897.000000	24.669367
1898.000000	24.209833
1899.000000	23.737933
1900.000000	23.226733
1901.000000	22.831067
1902.000000	22.600400
1903.000000	22.310300
1904.000000	21.996800
1905.000000	21.607267
1906.000000	21.202533
1907.000000	20.896967
1908.000000	20.683967
1909.000000	20.538533
1910.000000	20.433467
1911.000000	20.183933
1912.000000	19.909900
1913.000000	19.627333
1914.000000	19.322733
1915.000000	19.097300
1916.000000	19.009467
1917.000000	18.918267
1918.000000	18.775900
1919.000000	18.616267
1920.000000	18.471733
1921.000000	18.233000
1922.000000	18.049500
1923.000000	17.989333
1924.000000	17.972967
1925.000000	17.889400
1926.000000	17.782300
1927.000000	17.693333
1928.000000	17.613467
1929.000000	17.545867
1930.000000	17.513367
1931.000000	17.514100
1932.000000	17.488767
1933.000000	17.485100
1934.000000	17.466000
1935.000000	17.474100
1936.000000	17.491667
1937.000000	17.481533
1938.000000	17.487533
1939.000000	17.499967
1940.000000	17.513567
1941.000000	17.597500
1942.000000	17.637133
1943.000000	17.696000
1944.000000	17.741267
1945.000000	17.780067
1946.000000	17.836367
1947.000000	17.919267
1948.000000	17.986467
1949.000000	18.048600
1950.000000	18.116867
1951.000000	18.179967
1952.000000	18.257033
1953.000000	18.333500
1954.000000	18.392300
1955.000000	18.450167
1956.000000	18.506667
1957.000000	18.590900
1958.000000	18.670233
1959.000000	18.732367
1960.000000	18.808867
1961.000000	18.873400
1962.000000	18.947367
1963.000000	19.015833
1964.000000	19.084700
1965.000000	19.154667
1966.000000	19.216900
1967.000000	19.299367
1968.000000	19.349700
1969.000000	19.412367
1970.000000	19.489300
1971.000000	19.564033
1972.000000	19.618633
1973.000000	19.667933
1974.000000	19.749000
1975.000000	19.821233
1976.000000	19.892100
1977.000000	19.966267
1978.000000	20.027333
1979.000000	20.085200
1980.000000	20.152167
1981.000000	20.234233
1982.000000	20.302633
1983.000000	20.366700
1984.000000	20.438267
1985.000000	20.511867
1986.000000	20.562733
1987.000000	20.638133
1988.000000	20.683433
1989.000000	20.746667
1990.000000	20.826233
1991.000000	20.879900
1992.000000	20.924967
1993.000000	20.996567
1994.000000	21.047867
1995.000000	21.087433
1996.000000	21.152767
1997.000000	21.213767
1998.000000	21.229500
1999.000000	21.248467
2000.000000	21.293700
2001.000000	21.334933
2002.000000	21.354533
2003.000000	21.381167
2004.000000	21.390633
2005.000000	21.409833
2006.000000	21.443000
2007.000000	21.429000
2008.000000	21.453433
2009.000000	21.464933
2010.000000	21.448100
2011.000000	21.454033
2012.000000	21.433800
2013.000000	21.435633
2014.000000	21.408733
2015.000000	21.373033
2016.000000	21.336833
2017.000000	21.310567
2018.000000	21.277667
2019.000000	21.249633
2020.000000	21.218933
2021.000000	21.181467
2022.000000	21.111733
2023.000000	21.035100
2024.000000	20.997567
2025.000000	20.946567
2026.000000	20.900433
2027.000000	20.825333
2028.000000	20.744433
2029.000000	20.684267
2030.000000	20.601467
2031.000000	20.514567
2032.000000	20.431200
2033.000000	20.330200
2034.000000	20.265267
2035.000000	20.176800
2036.000000	20.073733
2037.000000	19.973967
2038.000000	19.870467
2039.000000	19.759633
2040.000000	19.651700
2041.000000	19.525133
2042.000000	19.423300
2043.000000	19.310233
2044.000000	19.170867
2045.000000	19.067067
2046.000000	18.968100
2047.000000	18.879033
2048.000000	18.786000
2049.000000	18.670900
2050.000000	18.575700
2051.000000	18.513833
2052.000000	18.441400
2053.000000	18.386367
2054.000000	18.350600
2055.000000	18.298800
2056.000000	18.253367
2057.000000	18.244600
2058.000000	18.250333
2059.000000	18.249067
2060.000000	18.247400
2061.000000	18.264933
2062.000000	18.277200
2063.000000	18.279467
2064.000000	18.309633
2065.000000	18.343133
2066.000000	18.359700
2067.000000	18.402167
2068.000000	18.441067
2069.000000	18.468233
2070.000000	18.482533
2071.000000	18.505933
2072.000000	18.523633
2073.000000	18.555833
2074.000000	18.569333
2075.000000	18.576333
2076.000000	18.607433
2077.000000	18.618233
2078.000000	18.619867
2079.000000	18.634033
2080.000000	18.637400
2081.000000	18.632700
2082.000000	18.650500
2083.000000	18.644967
2084.000000	18.629500
2085.000000	18.628600
2086.000000	18.619567
2087.000000	18.601433
2088.000000	18.596733
2089.000000	18.595200
2090.000000	18.567933
2091.000000	18.542767
2092.000000	18.524300
2093.000000	18.507767
2094.000000	18.511000
2095.000000	18.505700
2096.000000	18.479967
2097.000000	18.453333
2098.000000	18.430700
2099.000000	18.413367
2100.000000	18.420200
2101.000000	18.410567
2102.000000	18.399100
2103.000000	18.398367
2104.000000	18.396600
2105.000000	18.407100
2106.000000	18.398033
2107.000000	18.380800
2108.000000	18.390567
2109.000000	18.386500
2110.000000	18.376500
2111.000000	18.357000
2112.000000	18.348533
2113.000000	18.361167
2114.000000	18.340867
2115.000000	18.330833
2116.000000	18.336067
2117.000000	18.317600
2118.000000	18.289400
2119.000000	18.270933
2120.000000	18.264233
2121.000000	18.271100
2122.000000	18.263767
2123.000000	18.231167
2124.000000	18.182633
2125.000000	18.146933
2126.000000	18.135100
2127.000000	18.123933
2128.000000	18.079833
2129.000000	18.048167
2130.000000	18.032967
2131.000000	17.985667
2132.000000	17.944200
2133.000000	17.915933
2134.000000	17.892067
2135.000000	17.861567
2136.000000	17.800467
2137.000000	17.744800
2138.000000	17.712167
2139.000000	17.673300
2140.000000	17.629700
2141.000000	17.584300
2142.000000	17.547733
2143.000000	17.503967
2144.000000	17.461367
2145.000000	17.414933
2146.000000	17.371067
2147.000000	17.329200
2148.000000	17.286367
2149.000000	17.234800
2150.000000	17.192967
2151.000000	17.155200
2152.000000	17.107867
2153.000000	17.051267
2154.000000	17.002367
2155.000000	16.988600
2156.000000	16.963233
2157.000000	16.915467
2158.000000	16.869733
2159.000000	16.846200
2160.000000	16.834700
2161.000000	16.819233
2162.000000	16.793333
2163.000000	16.765600
2164.000000	16.740133
2165.000000	16.735867
2166.000000	16.751900
2167.000000	16.746433
2168.000000	16.737933
2169.000000	16.735533
2170.000000	16.746733
2171.000000	16.761867
2172.000000	16.748600
2173.000000	16.752300
2174.000000	16.773367
2175.000000	16.775633
2176.000000	16.773500
2177.000000	16.833000
2178.000000	16.848467
2179.000000	16.856300
2180.000000	16.877867
2181.000000	16.890400
2182.000000	16.914600
2183.000000	16.949100
2184.000000	16.976433
2185.000000	16.987933
2186.000000	17.006933
2187.000000	17.036300
2188.000000	17.051700
2189.000000	17.065767
2190.000000	17.086433
2191.000000	17.111900
2192.000000	17.140333
2193.000000	17.154767
2194.000000	17.165967
2195.000000	17.178467
2196.000000	17.190600
2197.000000	17.183433
2198.000000	17.212000
2199.000000	17.223700
2200.000000	17.241367
2201.000000	17.262767
2202.000000	17.290967
2203.000000	17.280067
2204.000000	17.287833
2205.000000	17.304233
2206.000000	17.329733
2207.000000	17.354733
2208.000000	17.389700
2209.000000	17.405567
2210.000000	17.439367
2211.000000	17.457000
2212.000000	17.522033
2213.000000	17.553767
2214.000000	17.599633
2215.000000	17.600367
2216.000000	17.632567
2217.000000	17.671533
2218.000000	17.696133
2219.000000	17.732967
2220.000000	17.773033
2221.000000	17.798867
2222.000000	17.853167
2223.000000	17.869000
2224.000000	17.903467
2225.000000	17.914400
2226.000000	17.935767
2227.000000	17.910000
2228.000000	17.915867
2229.000000	17.927567
2230.000000	17.928967
2231.000000	17.915933
2232.000000	17.905800
2233.000000	17.901367
2234.000000	17.839967
2235.000000	17.799000
2236.000000	17.769900
2237.000000	17.737367
2238.000000	17.691733
2239.000000	17.615567
2240.000000	17.550800
2241.000000	17.475867
2242.000000	17.408967
2243.000000	17.302400
2244.000000	17.219933
2245.000000	17.121233
2246.000000	17.016400
2247.000000	16.914533
2248.000000	16.764733
2249.000000	16.646133
2250.000000	16.511567
2251.000000	16.382933
2252.000000	16.211167
2253.000000	16.083100
2254.000000	15.932100
2255.000000	15.770433
2256.000000	15.604533
2257.000000	15.456133
2258.000000	15.321133
2259.000000	15.180667
2260.000000	14.985900
2261.000000	14.857667
2262.000000	14.744900
2263.000000	14.625767
2264.000000	14.510200
2265.000000	14.385500
2266.000000	14.295567
2267.000000	14.224667
2268.000000	14.147367
2269.000000	14.061167
2270.000000	14.021400
2271.000000	13.979067
2272.000000	13.953433
2273.000000	13.905500
2274.000000	13.893600
2275.000000	13.880233
2276.000000	13.887667
2277.000000	13.872767
2278.000000	13.847600
2279.000000	13.860467
2280.000000	13.866500
2281.000000	13.849467
2282.000000	13.858700
2283.000000	13.870367
2284.000000	13.876200
2285.000000	13.841067
2286.000000	13.841700
2287.000000	13.839067
2288.000000	13.833000
2289.000000	13.809433
2290.000000	13.798400
2291.000000	13.769800
2292.000000	13.730167
2293.000000	13.710433
2294.000000	13.681433
2295.000000	13.650167
2296.000000	13.593900
2297.000000	13.571000
2298.000000	13.537167
2299.000000	13.497967
2300.000000	13.444300
2301.000000	13.408133
2302.000000	13.362333
2303.000000	13.316100
2304.000000	13.300133
2305.000000	13.279067
2306.000000	13.259900
2307.000000	13.240433
2308.000000	13.242400
2309.000000	13.246467
2310.000000	13.224800
2311.000000	13.237067
2312.000000	13.262700
2313.000000	13.283633
2314.000000	13.287133
2315.000000	13.307433
2316.000000	13.333800
2317.000000	13.365700
2318.000000	13.385600
2319.000000	13.386200
2320.000000	13.386200
2321.000000	13.402400
2322.000000	13.415700
2323.000000	13.427367
2324.000000	13.419133
2325.000000	13.404200
2326.000000	13.394300
2327.000000	13.404067
2328.000000	13.396167
2329.000000	13.388633
2330.000000	13.363033
2331.000000	13.335700
2332.000000	13.331900
2333.000000	13.335033
2334.000000	13.324433
2335.000000	13.299267
2336.000000	13.279767
2337.000000	13.280633
2338.000000	13.281033
2339.000000	13.256167
2340.000000	13.224533
2341.000000	13.197467
2342.000000	13.194733
2343.000000	13.198867
2344.000000	13.177900
2345.000000	13.145233
2346.000000	13.135567
2347.000000	13.123267
2348.000000	13.090500
2349.000000	13.085467
2350.000000	13.072333
2351.000000	13.056567
2352.000000	13.054033
2353.000000	13.051867
2354.000000	13.047600
2355.000000	13.037533
2356.000000	13.043533
2357.000000	13.063533
2358.000000	13.070700
2359.000000	13.075000
2360.000000	13.090267
2361.000000	13.106467
2362.000000	13.111867
2363.000000	13.115233
2364.000000	13.131100
2365.000000	13.152000
2366.000000	13.175233
2367.000000	13.185300
2368.000000	13.189300
2369.000000	13.177533
2370.000000	13.170500
2371.000000	13.183467
2372.000000	13.197767
2373.000000	13.202700
2374.000000	13.199867
2375.000000	13.205800
2376.000000	13.230233
2377.000000	13.236200
2378.000000	13.228200
2379.000000	13.231433
2380.000000	13.247733
2381.000000	13.244967
2382.000000	13.233200
2383.000000	13.236367
2384.000000	13.232800
2385.000000	13.223433
2386.000000	13.220833
2387.000000	13.223600
2388.000000	13.217800
2389.000000	13.202000
2390.000000	13.192633
2391.000000	13.180800
2392.000000	13.164667
2393.000000	13.157000
2394.000000	13.133000
2395.000000	13.109233
2396.000000	13.102900
2397.000000	13.078167
2398.000000	13.050533
2399.000000	13.042733
2400.000000	13.013267
2401.000000	12.974500
2402.000000	12.961867
2403.000000	12.947567
2404.000000	12.913833
2405.000000	12.877967
2406.000000	12.851900
2407.000000	12.829933
2408.000000	12.799467
2409.000000	12.765100
2410.000000	12.721867
2411.000000	12.685233
2412.000000	12.660467
2413.000000	12.635433
2414.000000	12.586433
2415.000000	12.543667
2416.000000	12.496800
2417.000000	12.439267
2418.000000	12.393300
2419.000000	12.358500
2420.000000	12.326567
2421.000000	12.303233
2422.000000	12.273000
2423.000000	12.214700
2424.000000	12.143800
2425.000000	12.071067
2426.000000	11.979933
2427.000000	11.912033
2428.000000	11.863633
2429.000000	11.824567
2430.000000	11.780400
2431.000000	11.734467
2432.000000	11.694467
2433.000000	11.647633
2434.000000	11.588833
2435.000000	11.540400
2436.000000	11.488333
2437.000000	11.446400
2438.000000	11.381800
2439.000000	11.324100
2440.000000	11.264467
2441.000000	11.207967
2442.000000	11.144233
2443.000000	11.073667
2444.000000	11.026733
2445.000000	10.969500
2446.000000	10.902400
2447.000000	10.837767
2448.000000	10.774733
2449.000000	10.728100
2450.000000	10.669433
2451.000000	10.611833
2452.000000	10.545033
2453.000000	10.495567
2454.000000	10.435800
2455.000000	10.382400
2456.000000	10.333133
2457.000000	10.278133
2458.000000	10.249900
2459.000000	10.192600
2460.000000	10.153567
2461.000000	10.121267
2462.000000	10.076733
2463.000000	10.064033
2464.000000	10.026200
2465.000000	9.986900
2466.000000	9.948933
2467.000000	9.938233
2468.000000	9.892400
2469.000000	9.869500
2470.000000	9.849700
2471.000000	9.802167
2472.000000	9.784533
2473.000000	9.786267
2474.000000	9.768467
2475.000000	9.754333
2476.000000	9.704400
2477.000000	9.726767
2478.000000	9.717933
2479.000000	9.713067
2480.000000	9.724967
2481.000000	9.703900
2482.000000	9.689733
2483.000000	9.686133
2484.000000	9.670367
2485.000000	9.676900
2486.000000	9.687067
2487.000000	9.657167
2488.000000	9.681033
2489.000000	9.711367
2490.000000	9.703967
2491.000000	9.702233
2492.000000	9.693367
2493.000000	9.695433
2494.000000	9.743100
2495.000000	9.800400
2496.000000	9.764233
2497.000000	9.769500
2498.000000	9.837633
2499.000000	9.811200
2500.000000	9.885867
