PE UV       SUBTECH     SPECTRUM    ASCII       PEDS        4.00        
   -1
CICIMAUCR0212-2.Sample.ASC
24/06/12
13:07:04.00
24/06/12
13:07:04.00
Vinicio Soto Monge
C. resplendens. Sex F. Ventral
250,000000
1
Lambda 1050
1050L1511233
PerkinElmer UV WinLab 6.3.2.0749 / 2.02.05 Lambda 900 UV/VIS/NIR, Aug  7 2015 09:38:08

0
0
3350/servo 860,8/2
0
0
UV/VIS
1
1
1
DoubleDePol,CommonBeamDepol,RBeamAtt,SBeamAtt,60mm sphere, WB InGaAs Detector
0
0
0
0
Program
Program
3350/servo 860,8/2
3350/0,2 860,8/0,2
3350/0,2 860,8/0,2
0
15.00
 
 
 
0
 
860,8
319,2
860,8
Front
100
on
S:100 R:100
0
0
0
0
 
0
 
 
 
0
 
 
0
0
0
0
0
 
 
 
 
0
0


0
0
#HDR
-1
-1
#GR
nm
%R
1.0
0.0
2500,000000
-1,000000
2251
8
63,363600
3,800600
#DATA
2500,000000	5,982700
2499,000000	6,234200
2498,000000	6,097200
2497,000000	6,062400
2496,000000	6,042100
2495,000000	6,044600
2494,000000	5,847100
2493,000000	5,995300
2492,000000	5,856600
2491,000000	5,862800
2490,000000	5,880900
2489,000000	5,876600
2488,000000	5,942800
2487,000000	5,947000
2486,000000	5,863500
2485,000000	5,740700
2484,000000	5,714400
2483,000000	5,746700
2482,000000	5,621000
2481,000000	5,721400
2480,000000	5,727300
2479,000000	5,705000
2478,000000	5,807700
2477,000000	5,650800
2476,000000	5,722700
2475,000000	5,745400
2474,000000	5,777700
2473,000000	5,713800
2472,000000	5,713100
2471,000000	5,718300
2470,000000	5,699500
2469,000000	5,752200
2468,000000	5,740300
2467,000000	5,752700
2466,000000	5,691500
2465,000000	5,680000
2464,000000	5,712100
2463,000000	5,738900
2462,000000	5,680900
2461,000000	5,754500
2460,000000	5,796500
2459,000000	5,766800
2458,000000	5,756300
2457,000000	5,791400
2456,000000	5,804400
2455,000000	5,818700
2454,000000	5,843700
2453,000000	5,872800
2452,000000	5,916200
2451,000000	5,964500
2450,000000	5,939700
2449,000000	5,977000
2448,000000	6,000600
2447,000000	6,043700
2446,000000	6,110500
2445,000000	6,130500
2444,000000	6,165500
2443,000000	6,176000
2442,000000	6,181500
2441,000000	6,209600
2440,000000	6,280100
2439,000000	6,272200
2438,000000	6,317000
2437,000000	6,343700
2436,000000	6,382300
2435,000000	6,395900
2434,000000	6,445700
2433,000000	6,480000
2432,000000	6,485400
2431,000000	6,517700
2430,000000	6,577300
2429,000000	6,575800
2428,000000	6,598100
2427,000000	6,598700
2426,000000	6,631400
2425,000000	6,668900
2424,000000	6,700300
2423,000000	6,693500
2422,000000	6,716300
2421,000000	6,719500
2420,000000	6,770600
2419,000000	6,805400
2418,000000	6,804300
2417,000000	6,817400
2416,000000	6,844800
2415,000000	6,855800
2414,000000	6,861800
2413,000000	6,883600
2412,000000	6,923800
2411,000000	6,954200
2410,000000	6,986000
2409,000000	6,967100
2408,000000	7,000500
2407,000000	6,999900
2406,000000	7,014100
2405,000000	7,031000
2404,000000	7,061900
2403,000000	7,064600
2402,000000	7,093100
2401,000000	7,114700
2400,000000	7,131800
2399,000000	7,130200
2398,000000	7,138000
2397,000000	7,163000
2396,000000	7,185400
2395,000000	7,191200
2394,000000	7,188000
2393,000000	7,192600
2392,000000	7,221200
2391,000000	7,236100
2390,000000	7,261400
2389,000000	7,267700
2388,000000	7,275800
2387,000000	7,288700
2386,000000	7,293600
2385,000000	7,293100
2384,000000	7,321600
2383,000000	7,326800
2382,000000	7,312000
2381,000000	7,337200
2380,000000	7,352300
2379,000000	7,336800
2378,000000	7,325700
2377,000000	7,347000
2376,000000	7,346900
2375,000000	7,321900
2374,000000	7,313500
2373,000000	7,330900
2372,000000	7,338500
2371,000000	7,331600
2370,000000	7,315500
2369,000000	7,314000
2368,000000	7,325500
2367,000000	7,321100
2366,000000	7,306600
2365,000000	7,286400
2364,000000	7,279700
2363,000000	7,271700
2362,000000	7,253000
2361,000000	7,240300
2360,000000	7,219300
2359,000000	7,195400
2358,000000	7,189800
2357,000000	7,191400
2356,000000	7,169400
2355,000000	7,146400
2354,000000	7,132200
2353,000000	7,139400
2352,000000	7,128200
2351,000000	7,104200
2350,000000	7,112400
2349,000000	7,118700
2348,000000	7,132500
2347,000000	7,139000
2346,000000	7,157300
2345,000000	7,179700
2344,000000	7,192900
2343,000000	7,210000
2342,000000	7,215700
2341,000000	7,225000
2340,000000	7,252900
2339,000000	7,286600
2338,000000	7,313700
2337,000000	7,311900
2336,000000	7,319900
2335,000000	7,335100
2334,000000	7,329300
2333,000000	7,319400
2332,000000	7,314800
2331,000000	7,321100
2330,000000	7,333500
2329,000000	7,314100
2328,000000	7,294800
2327,000000	7,284500
2326,000000	7,267000
2325,000000	7,248700
2324,000000	7,207900
2323,000000	7,193900
2322,000000	7,181400
2321,000000	7,132100
2320,000000	7,106900
2319,000000	7,080900
2318,000000	7,054300
2317,000000	7,009900
2316,000000	6,975600
2315,000000	6,935000
2314,000000	6,881500
2313,000000	6,828800
2312,000000	6,802200
2311,000000	6,783700
2310,000000	6,747400
2309,000000	6,702200
2308,000000	6,698000
2307,000000	6,675900
2306,000000	6,649500
2305,000000	6,636300
2304,000000	6,622900
2303,000000	6,636100
2302,000000	6,642600
2301,000000	6,654500
2300,000000	6,674700
2299,000000	6,712900
2298,000000	6,737300
2297,000000	6,763600
2296,000000	6,808400
2295,000000	6,862300
2294,000000	6,881200
2293,000000	6,900500
2292,000000	6,950000
2291,000000	6,963500
2290,000000	7,000500
2289,000000	7,014900
2288,000000	7,032500
2287,000000	7,047800
2286,000000	7,046700
2285,000000	7,051600
2284,000000	7,060400
2283,000000	7,067000
2282,000000	7,055400
2281,000000	7,034600
2280,000000	7,025600
2279,000000	7,001400
2278,000000	6,991400
2277,000000	6,979600
2276,000000	6,964900
2275,000000	6,949200
2274,000000	6,935500
2273,000000	6,920200
2272,000000	6,896800
2271,000000	6,893700
2270,000000	6,909300
2269,000000	6,912800
2268,000000	6,945500
2267,000000	6,951100
2266,000000	6,974000
2265,000000	7,013900
2264,000000	7,069200
2263,000000	7,125200
2262,000000	7,190500
2261,000000	7,262600
2260,000000	7,358000
2259,000000	7,460600
2258,000000	7,570500
2257,000000	7,652700
2256,000000	7,788400
2255,000000	7,880200
2254,000000	8,025500
2253,000000	8,115400
2252,000000	8,227600
2251,000000	8,349200
2250,000000	8,445500
2249,000000	8,555000
2248,000000	8,658100
2247,000000	8,755700
2246,000000	8,867500
2245,000000	8,956400
2244,000000	9,056000
2243,000000	9,111100
2242,000000	9,190400
2241,000000	9,233000
2240,000000	9,292600
2239,000000	9,362000
2238,000000	9,416900
2237,000000	9,453600
2236,000000	9,491100
2235,000000	9,544900
2234,000000	9,572000
2233,000000	9,614000
2232,000000	9,611000
2231,000000	9,649500
2230,000000	9,663400
2229,000000	9,678700
2228,000000	9,681600
2227,000000	9,701500
2226,000000	9,690400
2225,000000	9,700000
2224,000000	9,713200
2223,000000	9,688000
2222,000000	9,658900
2221,000000	9,674600
2220,000000	9,645200
2219,000000	9,635300
2218,000000	9,623700
2217,000000	9,609500
2216,000000	9,589400
2215,000000	9,556300
2214,000000	9,540500
2213,000000	9,515900
2212,000000	9,491200
2211,000000	9,488500
2210,000000	9,442700
2209,000000	9,451000
2208,000000	9,431400
2207,000000	9,407200
2206,000000	9,409900
2205,000000	9,393000
2204,000000	9,376000
2203,000000	9,367700
2202,000000	9,361400
2201,000000	9,342700
2200,000000	9,333000
2199,000000	9,342300
2198,000000	9,313400
2197,000000	9,307800
2196,000000	9,316800
2195,000000	9,301800
2194,000000	9,297900
2193,000000	9,295700
2192,000000	9,256000
2191,000000	9,280300
2190,000000	9,266700
2189,000000	9,269500
2188,000000	9,247200
2187,000000	9,239600
2186,000000	9,236300
2185,000000	9,228000
2184,000000	9,219600
2183,000000	9,198600
2182,000000	9,202800
2181,000000	9,190300
2180,000000	9,176100
2179,000000	9,166000
2178,000000	9,145600
2177,000000	9,131500
2176,000000	9,125000
2175,000000	9,133300
2174,000000	9,121900
2173,000000	9,108800
2172,000000	9,097400
2171,000000	9,120600
2170,000000	9,122500
2169,000000	9,119200
2168,000000	9,117800
2167,000000	9,127400
2166,000000	9,117800
2165,000000	9,117600
2164,000000	9,140700
2163,000000	9,155800
2162,000000	9,159500
2161,000000	9,153800
2160,000000	9,178800
2159,000000	9,185600
2158,000000	9,186300
2157,000000	9,224600
2156,000000	9,227600
2155,000000	9,255000
2154,000000	9,289900
2153,000000	9,287700
2152,000000	9,311200
2151,000000	9,331000
2150,000000	9,361300
2149,000000	9,366000
2148,000000	9,403400
2147,000000	9,422100
2146,000000	9,433800
2145,000000	9,457100
2144,000000	9,483400
2143,000000	9,505500
2142,000000	9,526900
2141,000000	9,538800
2140,000000	9,544700
2139,000000	9,565600
2138,000000	9,579900
2137,000000	9,609000
2136,000000	9,620000
2135,000000	9,630500
2134,000000	9,644100
2133,000000	9,657200
2132,000000	9,679400
2131,000000	9,690700
2130,000000	9,696100
2129,000000	9,698700
2128,000000	9,700000
2127,000000	9,702500
2126,000000	9,702900
2125,000000	9,710900
2124,000000	9,723400
2123,000000	9,716800
2122,000000	9,710300
2121,000000	9,705000
2120,000000	9,688400
2119,000000	9,685600
2118,000000	9,679300
2117,000000	9,668600
2116,000000	9,670000
2115,000000	9,665100
2114,000000	9,659100
2113,000000	9,647500
2112,000000	9,624000
2111,000000	9,623200
2110,000000	9,613800
2109,000000	9,597300
2108,000000	9,564600
2107,000000	9,551900
2106,000000	9,546100
2105,000000	9,535000
2104,000000	9,515200
2103,000000	9,494300
2102,000000	9,477200
2101,000000	9,463200
2100,000000	9,448500
2099,000000	9,445200
2098,000000	9,425800
2097,000000	9,404000
2096,000000	9,404000
2095,000000	9,376800
2094,000000	9,363400
2093,000000	9,361500
2092,000000	9,343400
2091,000000	9,333700
2090,000000	9,325800
2089,000000	9,306500
2088,000000	9,280800
2087,000000	9,271900
2086,000000	9,274200
2085,000000	9,255400
2084,000000	9,237700
2083,000000	9,218800
2082,000000	9,196000
2081,000000	9,181200
2080,000000	9,155300
2079,000000	9,130100
2078,000000	9,105200
2077,000000	9,081000
2076,000000	9,052800
2075,000000	9,017200
2074,000000	8,991000
2073,000000	8,964500
2072,000000	8,942000
2071,000000	8,912900
2070,000000	8,888000
2069,000000	8,859800
2068,000000	8,819700
2067,000000	8,785700
2066,000000	8,753400
2065,000000	8,706200
2064,000000	8,676100
2063,000000	8,660500
2062,000000	8,630700
2061,000000	8,598500
2060,000000	8,572100
2059,000000	8,548200
2058,000000	8,527400
2057,000000	8,511200
2056,000000	8,499500
2055,000000	8,486100
2054,000000	8,469700
2053,000000	8,483500
2052,000000	8,490300
2051,000000	8,496000
2050,000000	8,516900
2049,000000	8,529500
2048,000000	8,535600
2047,000000	8,566800
2046,000000	8,596600
2045,000000	8,624700
2044,000000	8,649100
2043,000000	8,680100
2042,000000	8,719900
2041,000000	8,752700
2040,000000	8,767200
2039,000000	8,802400
2038,000000	8,822400
2037,000000	8,840900
2036,000000	8,860400
2035,000000	8,890500
2034,000000	8,923600
2033,000000	8,930600
2032,000000	8,952000
2031,000000	8,959800
2030,000000	8,987100
2029,000000	8,995400
2028,000000	8,988500
2027,000000	9,004800
2026,000000	9,011500
2025,000000	9,007700
2024,000000	9,004200
2023,000000	9,019700
2022,000000	9,028300
2021,000000	9,008500
2020,000000	9,009300
2019,000000	9,000800
2018,000000	9,006800
2017,000000	8,997700
2016,000000	8,975200
2015,000000	8,968100
2014,000000	8,965000
2013,000000	8,958300
2012,000000	8,927300
2011,000000	8,910300
2010,000000	8,901500
2009,000000	8,893000
2008,000000	8,881900
2007,000000	8,839800
2006,000000	8,814400
2005,000000	8,786800
2004,000000	8,755000
2003,000000	8,737900
2002,000000	8,701200
2001,000000	8,688400
2000,000000	8,657200
1999,000000	8,622300
1998,000000	8,587100
1997,000000	8,548700
1996,000000	8,503900
1995,000000	8,469600
1994,000000	8,444400
1993,000000	8,396100
1992,000000	8,353300
1991,000000	8,321500
1990,000000	8,287000
1989,000000	8,245500
1988,000000	8,212200
1987,000000	8,170500
1986,000000	8,128500
1985,000000	8,083200
1984,000000	8,030800
1983,000000	7,999000
1982,000000	7,960100
1981,000000	7,922900
1980,000000	7,867700
1979,000000	7,825600
1978,000000	7,782300
1977,000000	7,751800
1976,000000	7,680600
1975,000000	7,670700
1974,000000	7,639900
1973,000000	7,609600
1972,000000	7,569900
1971,000000	7,512900
1970,000000	7,489400
1969,000000	7,447200
1968,000000	7,401200
1967,000000	7,395600
1966,000000	7,354400
1965,000000	7,333600
1964,000000	7,298400
1963,000000	7,248400
1962,000000	7,224600
1961,000000	7,190700
1960,000000	7,148500
1959,000000	7,140700
1958,000000	7,089500
1957,000000	7,072600
1956,000000	7,043400
1955,000000	6,984800
1954,000000	6,984100
1953,000000	6,949700
1952,000000	6,916700
1951,000000	6,891400
1950,000000	6,881400
1949,000000	6,842300
1948,000000	6,860200
1947,000000	6,806100
1946,000000	6,786400
1945,000000	6,773300
1944,000000	6,749100
1943,000000	6,747900
1942,000000	6,728000
1941,000000	6,704500
1940,000000	6,725700
1939,000000	6,712500
1938,000000	6,720900
1937,000000	6,696800
1936,000000	6,686500
1935,000000	6,707800
1934,000000	6,710800
1933,000000	6,705300
1932,000000	6,732600
1931,000000	6,763100
1930,000000	6,759300
1929,000000	6,787200
1928,000000	6,776900
1927,000000	6,836100
1926,000000	6,857500
1925,000000	6,873000
1924,000000	6,931400
1923,000000	6,974300
1922,000000	7,009900
1921,000000	7,060800
1920,000000	7,112300
1919,000000	7,147300
1918,000000	7,199000
1917,000000	7,256500
1916,000000	7,346200
1915,000000	7,402300
1914,000000	7,488800
1913,000000	7,576700
1912,000000	7,636700
1911,000000	7,722500
1910,000000	7,806800
1909,000000	7,899900
1908,000000	8,018800
1907,000000	8,144000
1906,000000	8,263400
1905,000000	8,373000
1904,000000	8,494900
1903,000000	8,626500
1902,000000	8,765500
1901,000000	8,906000
1900,000000	9,098500
1899,000000	9,271000
1898,000000	9,450200
1897,000000	9,656900
1896,000000	9,835200
1895,000000	10,039200
1894,000000	10,249800
1893,000000	10,481700
1892,000000	10,730500
1891,000000	11,024900
1890,000000	11,309300
1889,000000	11,578400
1888,000000	11,876000
1887,000000	12,211700
1886,000000	12,561000
1885,000000	12,923900
1884,000000	13,308200
1883,000000	13,733200
1882,000000	14,115600
1881,000000	14,510100
1880,000000	14,951900
1879,000000	15,319000
1878,000000	15,731200
1877,000000	16,138800
1876,000000	16,564200
1875,000000	16,949600
1874,000000	17,350700
1873,000000	17,723800
1872,000000	18,107700
1871,000000	18,463200
1870,000000	18,834300
1869,000000	19,170800
1868,000000	19,516800
1867,000000	19,792800
1866,000000	20,037400
1865,000000	20,277300
1864,000000	20,497100
1863,000000	20,715600
1862,000000	20,892800
1861,000000	21,085400
1860,000000	21,285700
1859,000000	21,451900
1858,000000	21,596800
1857,000000	21,725000
1856,000000	21,854800
1855,000000	21,947700
1854,000000	22,055200
1853,000000	22,150200
1852,000000	22,197900
1851,000000	22,240800
1850,000000	22,279300
1849,000000	22,318700
1848,000000	22,379900
1847,000000	22,421700
1846,000000	22,435700
1845,000000	22,418300
1844,000000	22,416500
1843,000000	22,419000
1842,000000	22,456500
1841,000000	22,500900
1840,000000	22,491300
1839,000000	22,468800
1838,000000	22,455900
1837,000000	22,440900
1836,000000	22,417300
1835,000000	22,418800
1834,000000	22,391500
1833,000000	22,344400
1832,000000	22,305400
1831,000000	22,264100
1830,000000	22,245100
1829,000000	22,211800
1828,000000	22,154500
1827,000000	22,107900
1826,000000	22,069700
1825,000000	22,029200
1824,000000	21,975600
1823,000000	21,929100
1822,000000	21,924800
1821,000000	21,925000
1820,000000	21,896400
1819,000000	21,867000
1818,000000	21,821700
1817,000000	21,792300
1816,000000	21,784700
1815,000000	21,771300
1814,000000	21,750900
1813,000000	21,731300
1812,000000	21,709900
1811,000000	21,690400
1810,000000	21,668000
1809,000000	21,626200
1808,000000	21,586400
1807,000000	21,549300
1806,000000	21,508500
1805,000000	21,466000
1804,000000	21,424700
1803,000000	21,379200
1802,000000	21,344700
1801,000000	21,317100
1800,000000	21,272700
1799,000000	21,220400
1798,000000	21,166400
1797,000000	21,121300
1796,000000	21,081800
1795,000000	21,043200
1794,000000	21,012600
1793,000000	20,953700
1792,000000	20,898700
1791,000000	20,859400
1790,000000	20,818300
1789,000000	20,782700
1788,000000	20,752800
1787,000000	20,710900
1786,000000	20,666500
1785,000000	20,620300
1784,000000	20,569400
1783,000000	20,518000
1782,000000	20,478100
1781,000000	20,421100
1780,000000	20,369700
1779,000000	20,329200
1778,000000	20,274300
1777,000000	20,227600
1776,000000	20,171600
1775,000000	20,099800
1774,000000	20,027700
1773,000000	19,966100
1772,000000	19,914200
1771,000000	19,856600
1770,000000	19,783400
1769,000000	19,708100
1768,000000	19,622500
1767,000000	19,562500
1766,000000	19,511800
1765,000000	19,447000
1764,000000	19,411100
1763,000000	19,384800
1762,000000	19,370600
1761,000000	19,384100
1760,000000	19,421100
1759,000000	19,455200
1758,000000	19,488200
1757,000000	19,550800
1756,000000	19,603600
1755,000000	19,662400
1754,000000	19,723600
1753,000000	19,768200
1752,000000	19,800900
1751,000000	19,816500
1750,000000	19,829100
1749,000000	19,831300
1748,000000	19,826600
1747,000000	19,808900
1746,000000	19,789000
1745,000000	19,740800
1744,000000	19,682700
1743,000000	19,584100
1742,000000	19,487000
1741,000000	19,387400
1740,000000	19,274100
1739,000000	19,149900
1738,000000	19,006200
1737,000000	18,860700
1736,000000	18,734500
1735,000000	18,640700
1734,000000	18,566100
1733,000000	18,495000
1732,000000	18,470200
1731,000000	18,474200
1730,000000	18,499700
1729,000000	18,541400
1728,000000	18,603800
1727,000000	18,675400
1726,000000	18,756400
1725,000000	18,822900
1724,000000	18,895500
1723,000000	18,971600
1722,000000	19,013200
1721,000000	19,076300
1720,000000	19,147500
1719,000000	19,196100
1718,000000	19,259300
1717,000000	19,314100
1716,000000	19,386900
1715,000000	19,473900
1714,000000	19,540900
1713,000000	19,640200
1712,000000	19,720600
1711,000000	19,791500
1710,000000	19,829200
1709,000000	19,866500
1708,000000	19,881700
1707,000000	19,901700
1706,000000	19,872300
1705,000000	19,863300
1704,000000	19,834400
1703,000000	19,752400
1702,000000	19,700100
1701,000000	19,635100
1700,000000	19,522000
1699,000000	19,422800
1698,000000	19,296800
1697,000000	19,200200
1696,000000	19,116100
1695,000000	19,049700
1694,000000	19,001400
1693,000000	19,002000
1692,000000	19,058400
1691,000000	19,119300
1690,000000	19,199600
1689,000000	19,317200
1688,000000	19,421800
1687,000000	19,509900
1686,000000	19,599100
1685,000000	19,652100
1684,000000	19,732300
1683,000000	19,830100
1682,000000	19,976600
1681,000000	20,160500
1680,000000	20,451500
1679,000000	20,786900
1678,000000	21,132000
1677,000000	21,519500
1676,000000	21,887600
1675,000000	22,229100
1674,000000	22,556800
1673,000000	22,823900
1672,000000	23,086700
1671,000000	23,328900
1670,000000	23,503800
1669,000000	23,671700
1668,000000	23,839800
1667,000000	23,955500
1666,000000	24,086000
1665,000000	24,178500
1664,000000	24,258900
1663,000000	24,334200
1662,000000	24,401100
1661,000000	24,451300
1660,000000	24,521500
1659,000000	24,536100
1658,000000	24,574600
1657,000000	24,588600
1656,000000	24,619500
1655,000000	24,610200
1654,000000	24,630000
1653,000000	24,599700
1652,000000	24,590900
1651,000000	24,561100
1650,000000	24,540700
1649,000000	24,538200
1648,000000	24,482600
1647,000000	24,451900
1646,000000	24,393900
1645,000000	24,345000
1644,000000	24,295600
1643,000000	24,245000
1642,000000	24,210900
1641,000000	24,147300
1640,000000	24,111900
1639,000000	24,062200
1638,000000	24,008500
1637,000000	23,946800
1636,000000	23,884900
1635,000000	23,828600
1634,000000	23,771100
1633,000000	23,711800
1632,000000	23,628800
1631,000000	23,546200
1630,000000	23,485800
1629,000000	23,407200
1628,000000	23,349300
1627,000000	23,268700
1626,000000	23,190100
1625,000000	23,108700
1624,000000	23,013900
1623,000000	22,950600
1622,000000	22,883100
1621,000000	22,823400
1620,000000	22,744000
1619,000000	22,677700
1618,000000	22,623000
1617,000000	22,551700
1616,000000	22,487500
1615,000000	22,427600
1614,000000	22,340800
1613,000000	22,282400
1612,000000	22,196200
1611,000000	22,137200
1610,000000	22,078100
1609,000000	21,998500
1608,000000	21,929200
1607,000000	21,861000
1606,000000	21,811100
1605,000000	21,720700
1604,000000	21,661500
1603,000000	21,590200
1602,000000	21,513600
1601,000000	21,432500
1600,000000	21,367800
1599,000000	21,286500
1598,000000	21,210000
1597,000000	21,141100
1596,000000	21,076400
1595,000000	21,003400
1594,000000	20,936100
1593,000000	20,876500
1592,000000	20,817200
1591,000000	20,756100
1590,000000	20,701600
1589,000000	20,642900
1588,000000	20,573200
1587,000000	20,503400
1586,000000	20,448200
1585,000000	20,394900
1584,000000	20,335200
1583,000000	20,279000
1582,000000	20,235800
1581,000000	20,179100
1580,000000	20,129100
1579,000000	20,082200
1578,000000	20,049000
1577,000000	20,000300
1576,000000	19,960000
1575,000000	19,921300
1574,000000	19,885000
1573,000000	19,853000
1572,000000	19,809300
1571,000000	19,780600
1570,000000	19,753600
1569,000000	19,730500
1568,000000	19,716000
1567,000000	19,714100
1566,000000	19,682400
1565,000000	19,642300
1564,000000	19,621300
1563,000000	19,605300
1562,000000	19,589900
1561,000000	19,569800
1560,000000	19,540600
1559,000000	19,491800
1558,000000	19,469200
1557,000000	19,444900
1556,000000	19,418200
1555,000000	19,383100
1554,000000	19,333100
1553,000000	19,276300
1552,000000	19,233800
1551,000000	19,196900
1550,000000	19,156400
1549,000000	19,093500
1548,000000	19,045600
1547,000000	18,993900
1546,000000	18,940400
1545,000000	18,894900
1544,000000	18,856800
1543,000000	18,823500
1542,000000	18,782300
1541,000000	18,741200
1540,000000	18,698400
1539,000000	18,660900
1538,000000	18,632600
1537,000000	18,584700
1536,000000	18,538200
1535,000000	18,487900
1534,000000	18,438800
1533,000000	18,406600
1532,000000	18,363700
1531,000000	18,308500
1530,000000	18,256800
1529,000000	18,210600
1528,000000	18,159600
1527,000000	18,090700
1526,000000	18,027500
1525,000000	17,979600
1524,000000	17,930600
1523,000000	17,867100
1522,000000	17,810900
1521,000000	17,753400
1520,000000	17,692900
1519,000000	17,632800
1518,000000	17,569100
1517,000000	17,522400
1516,000000	17,446800
1515,000000	17,386100
1514,000000	17,328900
1513,000000	17,251200
1512,000000	17,195100
1511,000000	17,132900
1510,000000	17,065500
1509,000000	17,005400
1508,000000	16,924400
1507,000000	16,849000
1506,000000	16,785900
1505,000000	16,713200
1504,000000	16,647200
1503,000000	16,598000
1502,000000	16,531000
1501,000000	16,457100
1500,000000	16,384500
1499,000000	16,337000
1498,000000	16,286400
1497,000000	16,220400
1496,000000	16,160500
1495,000000	16,107200
1494,000000	16,059400
1493,000000	16,017400
1492,000000	15,969600
1491,000000	15,922500
1490,000000	15,884100
1489,000000	15,833000
1488,000000	15,802900
1487,000000	15,757000
1486,000000	15,712900
1485,000000	15,668200
1484,000000	15,641000
1483,000000	15,627800
1482,000000	15,591400
1481,000000	15,556000
1480,000000	15,518000
1479,000000	15,482300
1478,000000	15,461900
1477,000000	15,438300
1476,000000	15,410100
1475,000000	15,399500
1474,000000	15,403900
1473,000000	15,389000
1472,000000	15,362600
1471,000000	15,355000
1470,000000	15,358200
1469,000000	15,361100
1468,000000	15,348600
1467,000000	15,337500
1466,000000	15,326300
1465,000000	15,322800
1464,000000	15,327500
1463,000000	15,338500
1462,000000	15,342900
1461,000000	15,360100
1460,000000	15,390000
1459,000000	15,410700
1458,000000	15,431400
1457,000000	15,450900
1456,000000	15,499200
1455,000000	15,540200
1454,000000	15,579900
1453,000000	15,611500
1452,000000	15,677500
1451,000000	15,740400
1450,000000	15,790300
1449,000000	15,840900
1448,000000	15,876400
1447,000000	15,940700
1446,000000	16,005800
1445,000000	16,062800
1444,000000	16,113900
1443,000000	16,180500
1442,000000	16,251900
1441,000000	16,342700
1440,000000	16,402900
1439,000000	16,485700
1438,000000	16,561600
1437,000000	16,652300
1436,000000	16,729800
1435,000000	16,819700
1434,000000	16,950700
1433,000000	17,054600
1432,000000	17,146300
1431,000000	17,254000
1430,000000	17,369500
1429,000000	17,486200
1428,000000	17,616300
1427,000000	17,753600
1426,000000	17,889700
1425,000000	18,050300
1424,000000	18,214500
1423,000000	18,394400
1422,000000	18,576300
1421,000000	18,744400
1420,000000	18,954500
1419,000000	19,179200
1418,000000	19,381800
1417,000000	19,613800
1416,000000	19,828800
1415,000000	20,071400
1414,000000	20,325700
1413,000000	20,599400
1412,000000	20,892200
1411,000000	21,138300
1410,000000	21,446100
1409,000000	21,818200
1408,000000	22,166400
1407,000000	22,553100
1406,000000	22,891400
1405,000000	23,301200
1404,000000	23,686100
1403,000000	24,100200
1402,000000	24,490800
1401,000000	24,905100
1400,000000	25,408400
1399,000000	25,875200
1398,000000	26,234100
1397,000000	26,597400
1396,000000	27,055600
1395,000000	27,566600
1394,000000	28,029700
1393,000000	28,426400
1392,000000	28,865400
1391,000000	29,372800
1390,000000	29,878300
1389,000000	30,324700
1388,000000	30,901800
1387,000000	31,529700
1386,000000	32,096500
1385,000000	32,656000
1384,000000	33,277400
1383,000000	33,916400
1382,000000	34,547000
1381,000000	35,137500
1380,000000	35,642700
1379,000000	36,004300
1378,000000	36,355700
1377,000000	36,641900
1376,000000	36,934400
1375,000000	37,199500
1374,000000	37,450200
1373,000000	37,722100
1372,000000	38,067100
1371,000000	38,393000
1370,000000	38,746800
1369,000000	39,023400
1368,000000	39,331200
1367,000000	39,658900
1366,000000	39,889200
1365,000000	40,112100
1364,000000	40,347800
1363,000000	40,518500
1362,000000	40,713800
1361,000000	40,930400
1360,000000	41,105500
1359,000000	41,176400
1358,000000	41,296300
1357,000000	41,434900
1356,000000	41,563700
1355,000000	41,810000
1354,000000	42,093900
1353,000000	42,394500
1352,000000	42,681800
1351,000000	43,090500
1350,000000	43,491100
1349,000000	43,877300
1348,000000	44,233800
1347,000000	44,600500
1346,000000	44,952200
1345,000000	45,263200
1344,000000	45,580100
1343,000000	45,910100
1342,000000	46,225800
1341,000000	46,545800
1340,000000	46,845800
1339,000000	47,155300
1338,000000	47,460800
1337,000000	47,778200
1336,000000	48,059000
1335,000000	48,364500
1334,000000	48,670800
1333,000000	48,951600
1332,000000	49,241000
1331,000000	49,518100
1330,000000	49,812600
1329,000000	50,070700
1328,000000	50,328900
1327,000000	50,576000
1326,000000	50,828100
1325,000000	51,056200
1324,000000	51,300400
1323,000000	51,530400
1322,000000	51,749500
1321,000000	51,959900
1320,000000	52,150700
1319,000000	52,372100
1318,000000	52,545500
1317,000000	52,740100
1316,000000	52,910700
1315,000000	53,100100
1314,000000	53,263700
1313,000000	53,430100
1312,000000	53,587600
1311,000000	53,727800
1310,000000	53,873500
1309,000000	54,012800
1308,000000	54,131100
1307,000000	54,255700
1306,000000	54,359400
1305,000000	54,478300
1304,000000	54,582700
1303,000000	54,670900
1302,000000	54,742700
1301,000000	54,816700
1300,000000	54,893100
1299,000000	54,957300
1298,000000	55,018700
1297,000000	55,060800
1296,000000	55,120900
1295,000000	55,160900
1294,000000	55,195900
1293,000000	55,235000
1292,000000	55,271600
1291,000000	55,298700
1290,000000	55,310900
1289,000000	55,335900
1288,000000	55,330500
1287,000000	55,314500
1286,000000	55,315800
1285,000000	55,306500
1284,000000	55,284400
1283,000000	55,258500
1282,000000	55,236000
1281,000000	55,196900
1280,000000	55,172000
1279,000000	55,149900
1278,000000	55,128500
1277,000000	55,096900
1276,000000	55,053400
1275,000000	55,026300
1274,000000	54,995700
1273,000000	54,980200
1272,000000	54,960900
1271,000000	54,932800
1270,000000	54,914400
1269,000000	54,897500
1268,000000	54,876700
1267,000000	54,849100
1266,000000	54,813100
1265,000000	54,782600
1264,000000	54,751400
1263,000000	54,717200
1262,000000	54,677300
1261,000000	54,633300
1260,000000	54,604200
1259,000000	54,575300
1258,000000	54,538300
1257,000000	54,497500
1256,000000	54,442300
1255,000000	54,390000
1254,000000	54,344500
1253,000000	54,278800
1252,000000	54,223500
1251,000000	54,161900
1250,000000	54,084500
1249,000000	54,017900
1248,000000	53,949700
1247,000000	53,858200
1246,000000	53,772200
1245,000000	53,692100
1244,000000	53,595800
1243,000000	53,495400
1242,000000	53,392600
1241,000000	53,287000
1240,000000	53,187300
1239,000000	53,086100
1238,000000	52,976100
1237,000000	52,864900
1236,000000	52,759000
1235,000000	52,648200
1234,000000	52,533700
1233,000000	52,402900
1232,000000	52,270700
1231,000000	52,145600
1230,000000	52,020500
1229,000000	51,879700
1228,000000	51,739800
1227,000000	51,607400
1226,000000	51,464700
1225,000000	51,319900
1224,000000	51,171200
1223,000000	51,023600
1222,000000	50,871700
1221,000000	50,724500
1220,000000	50,576800
1219,000000	50,426800
1218,000000	50,284900
1217,000000	50,144900
1216,000000	49,989700
1215,000000	49,850500
1214,000000	49,707600
1213,000000	49,578100
1212,000000	49,459500
1211,000000	49,330700
1210,000000	49,182500
1209,000000	49,050800
1208,000000	48,941700
1207,000000	48,823200
1206,000000	48,689000
1205,000000	48,590200
1204,000000	48,517900
1203,000000	48,443600
1202,000000	48,381700
1201,000000	48,326900
1200,000000	48,267800
1199,000000	48,197000
1198,000000	48,128100
1197,000000	48,033200
1196,000000	47,919500
1195,000000	47,775100
1194,000000	47,620500
1193,000000	47,413200
1192,000000	47,163500
1191,000000	46,873000
1190,000000	46,544300
1189,000000	46,221500
1188,000000	45,933900
1187,000000	45,693500
1186,000000	45,533200
1185,000000	45,456700
1184,000000	45,468900
1183,000000	45,592900
1182,000000	45,795800
1181,000000	46,103000
1180,000000	46,467600
1179,000000	46,873500
1178,000000	47,267000
1177,000000	47,635200
1176,000000	47,973900
1175,000000	48,286300
1174,000000	48,558100
1173,000000	48,833500
1172,000000	49,094700
1171,000000	49,347500
1170,000000	49,613700
1169,000000	49,893600
1168,000000	50,189600
1167,000000	50,492700
1166,000000	50,786600
1165,000000	51,092700
1164,000000	51,394700
1163,000000	51,699300
1162,000000	52,024400
1161,000000	52,352300
1160,000000	52,673100
1159,000000	53,004200
1158,000000	53,331300
1157,000000	53,641600
1156,000000	53,946200
1155,000000	54,233500
1154,000000	54,497300
1153,000000	54,737400
1152,000000	54,950300
1151,000000	55,121500
1150,000000	55,286200
1149,000000	55,445500
1148,000000	55,591900
1147,000000	55,750000
1146,000000	55,938400
1145,000000	56,160200
1144,000000	56,403100
1143,000000	56,689900
1142,000000	57,007700
1141,000000	57,356100
1140,000000	57,727800
1139,000000	58,122700
1138,000000	58,517800
1137,000000	58,940900
1136,000000	59,364700
1135,000000	59,833000
1134,000000	60,298100
1133,000000	60,707500
1132,000000	61,061000
1131,000000	61,389600
1130,000000	61,727200
1129,000000	62,010900
1128,000000	62,264400
1127,000000	62,449900
1126,000000	62,620800
1125,000000	62,753800
1124,000000	62,863300
1123,000000	62,992300
1122,000000	63,072900
1121,000000	63,144600
1120,000000	63,184300
1119,000000	63,246600
1118,000000	63,273800
1117,000000	63,296800
1116,000000	63,310200
1115,000000	63,339000
1114,000000	63,320200
1113,000000	63,322500
1112,000000	63,344900
1111,000000	63,327600
1110,000000	63,342500
1109,000000	63,325900
1108,000000	63,327800
1107,000000	63,338600
1106,000000	63,354400
1105,000000	63,363600
1104,000000	63,350100
1103,000000	63,340100
1102,000000	63,360000
1101,000000	63,355000
1100,000000	63,339600
1099,000000	63,328000
1098,000000	63,329500
1097,000000	63,329300
1096,000000	63,312900
1095,000000	63,310800
1094,000000	63,278600
1093,000000	63,267100
1092,000000	63,233500
1091,000000	63,211800
1090,000000	63,190700
1089,000000	63,142200
1088,000000	63,123200
1087,000000	63,109200
1086,000000	63,063600
1085,000000	63,007100
1084,000000	62,976400
1083,000000	62,937500
1082,000000	62,913700
1081,000000	62,865500
1080,000000	62,833000
1079,000000	62,766800
1078,000000	62,735200
1077,000000	62,710400
1076,000000	62,639300
1075,000000	62,602400
1074,000000	62,552800
1073,000000	62,525500
1072,000000	62,460200
1071,000000	62,409500
1070,000000	62,351900
1069,000000	62,313400
1068,000000	62,253700
1067,000000	62,207100
1066,000000	62,138100
1065,000000	62,100800
1064,000000	62,017100
1063,000000	61,974100
1062,000000	61,927400
1061,000000	61,856300
1060,000000	61,800900
1059,000000	61,742500
1058,000000	61,671700
1057,000000	61,622200
1056,000000	61,556900
1055,000000	61,480500
1054,000000	61,418500
1053,000000	61,352600
1052,000000	61,291400
1051,000000	61,224300
1050,000000	61,155500
1049,000000	61,092300
1048,000000	61,023900
1047,000000	60,970200
1046,000000	60,929800
1045,000000	60,858100
1044,000000	60,790900
1043,000000	60,733300
1042,000000	60,673900
1041,000000	60,614200
1040,000000	60,543800
1039,000000	60,488000
1038,000000	60,439300
1037,000000	60,378500
1036,000000	60,303500
1035,000000	60,239400
1034,000000	60,170600
1033,000000	60,100400
1032,000000	60,026400
1031,000000	59,944300
1030,000000	59,874000
1029,000000	59,808700
1028,000000	59,719000
1027,000000	59,656900
1026,000000	59,572800
1025,000000	59,497900
1024,000000	59,417200
1023,000000	59,326900
1022,000000	59,249400
1021,000000	59,178000
1020,000000	59,090600
1019,000000	59,016100
1018,000000	58,947300
1017,000000	58,868000
1016,000000	58,794300
1015,000000	58,721700
1014,000000	58,658100
1013,000000	58,601700
1012,000000	58,558000
1011,000000	58,532900
1010,000000	58,488000
1009,000000	58,451500
1008,000000	58,405300
1007,000000	58,375600
1006,000000	58,343700
1005,000000	58,324300
1004,000000	58,292500
1003,000000	58,257000
1002,000000	58,251300
1001,000000	58,247600
1000,000000	58,228100
999,000000	58,195200
998,000000	58,161000
997,000000	58,152200
996,000000	58,151300
995,000000	58,123900
994,000000	58,105500
993,000000	58,076300
992,000000	58,056500
991,000000	58,066500
990,000000	58,060100
989,000000	58,037200
988,000000	58,035800
987,000000	58,036600
986,000000	58,040200
985,000000	58,034200
984,000000	58,018900
983,000000	58,027300
982,000000	58,033300
981,000000	58,039700
980,000000	58,056100
979,000000	58,079100
978,000000	58,079000
977,000000	58,074400
976,000000	58,081900
975,000000	58,101600
974,000000	58,104400
973,000000	58,106900
972,000000	58,127500
971,000000	58,155400
970,000000	58,170900
969,000000	58,193000
968,000000	58,209200
967,000000	58,231200
966,000000	58,235600
965,000000	58,263900
964,000000	58,306200
963,000000	58,326500
962,000000	58,347900
961,000000	58,377500
960,000000	58,408500
959,000000	58,438300
958,000000	58,465500
957,000000	58,499600
956,000000	58,518400
955,000000	58,565700
954,000000	58,598300
953,000000	58,616400
952,000000	58,659800
951,000000	58,695100
950,000000	58,726500
949,000000	58,775000
948,000000	58,801200
947,000000	58,816000
946,000000	58,835300
945,000000	58,867500
944,000000	58,888900
943,000000	58,878600
942,000000	58,872200
941,000000	58,887400
940,000000	58,895800
939,000000	58,874400
938,000000	58,877900
937,000000	58,872100
936,000000	58,854800
935,000000	58,853900
934,000000	58,835500
933,000000	58,808700
932,000000	58,804400
931,000000	58,786300
930,000000	58,759600
929,000000	58,745100
928,000000	58,740100
927,000000	58,707900
926,000000	58,671500
925,000000	58,628000
924,000000	58,611800
923,000000	58,578300
922,000000	58,524800
921,000000	58,487400
920,000000	58,457500
919,000000	58,424400
918,000000	58,364100
917,000000	58,310900
916,000000	58,279100
915,000000	58,215800
914,000000	58,157600
913,000000	58,097400
912,000000	58,032800
911,000000	57,971900
910,000000	57,913100
909,000000	57,867200
908,000000	57,801600
907,000000	57,749800
906,000000	57,711600
905,000000	57,677500
904,000000	57,637300
903,000000	57,605100
902,000000	57,586500
901,000000	57,554400
900,000000	57,518900
899,000000	57,489200
898,000000	57,470000
897,000000	57,455300
896,000000	57,434700
895,000000	57,445300
894,000000	57,463400
893,000000	57,475800
892,000000	57,474800
891,000000	57,472000
890,000000	57,476700
889,000000	57,473300
888,000000	57,465500
887,000000	57,460500
886,000000	57,437700
885,000000	57,414200
884,000000	57,404600
883,000000	57,393500
882,000000	57,368900
881,000000	57,361300
880,000000	57,339100
879,000000	57,309500
878,000000	57,300900
877,000000	57,263400
876,000000	57,227300
875,000000	57,194800
874,000000	57,198800
873,000000	57,157700
872,000000	57,108700
871,000000	57,088300
870,000000	57,064400
869,000000	56,995100
868,000000	56,959200
867,000000	56,919400
866,000000	56,895800
865,000000	56,849200
864,000000	56,816800
863,000000	56,748200
862,000000	56,740700
861,000000	56,653800
860,000000	56,613400
859,000000	56,594000
858,000000	56,523700
857,000000	56,565400
856,000000	56,621400
855,000000	57,027900
854,000000	57,127400
853,000000	56,829600
852,000000	57,308800
851,000000	57,205400
850,000000	57,437800
849,000000	57,380400
848,000000	57,317200
847,000000	56,593400
846,000000	56,567800
845,000000	56,606700
844,000000	56,637600
843,000000	56,927400
842,000000	56,939200
841,000000	56,621800
840,000000	56,092600
839,000000	56,177200
838,000000	56,172200
837,000000	55,884100
836,000000	55,537900
835,000000	56,254700
834,000000	56,183200
833,000000	55,695200
832,000000	55,541000
831,000000	55,669400
830,000000	55,296100
829,000000	55,049700
828,000000	55,060700
827,000000	55,063100
826,000000	55,038200
825,000000	54,843400
824,000000	54,687900
823,000000	54,491000
822,000000	54,464700
821,000000	54,164700
820,000000	53,922900
819,000000	54,155700
818,000000	53,999300
817,000000	53,762300
816,000000	53,656900
815,000000	53,640000
814,000000	53,274300
813,000000	53,367800
812,000000	52,987900
811,000000	53,228500
810,000000	52,982100
809,000000	52,870800
808,000000	52,434400
807,000000	52,550900
806,000000	52,440400
805,000000	52,337100
804,000000	52,068400
803,000000	52,205200
802,000000	52,138500
801,000000	51,856900
800,000000	51,390700
799,000000	51,443900
798,000000	51,314200
797,000000	51,162400
796,000000	51,113800
795,000000	50,978300
794,000000	50,747500
793,000000	50,827800
792,000000	50,601000
791,000000	50,348500
790,000000	50,244000
789,000000	50,207500
788,000000	50,113400
787,000000	50,127700
786,000000	50,051000
785,000000	49,671300
784,000000	49,669900
783,000000	49,266300
782,000000	49,113800
781,000000	49,098700
780,000000	48,908500
779,000000	48,660400
778,000000	48,577800
777,000000	48,498100
776,000000	48,404300
775,000000	48,146600
774,000000	47,988500
773,000000	47,810700
772,000000	47,725100
771,000000	47,826100
770,000000	47,529900
769,000000	47,304700
768,000000	47,201700
767,000000	47,103400
766,000000	47,076800
765,000000	46,875300
764,000000	46,806300
763,000000	46,502100
762,000000	46,304200
761,000000	46,171800
760,000000	46,000000
759,000000	45,950100
758,000000	45,786600
757,000000	45,461900
756,000000	45,552300
755,000000	45,192900
754,000000	45,114400
753,000000	44,854200
752,000000	44,759900
751,000000	44,740700
750,000000	44,526300
749,000000	44,392700
748,000000	44,146500
747,000000	43,927800
746,000000	43,904700
745,000000	43,701000
744,000000	43,512500
743,000000	43,382200
742,000000	43,037800
741,000000	42,875900
740,000000	42,809700
739,000000	42,579900
738,000000	42,493100
737,000000	42,301100
736,000000	42,173200
735,000000	41,973600
734,000000	41,770100
733,000000	41,677500
732,000000	41,546800
731,000000	41,299200
730,000000	41,138400
729,000000	40,907600
728,000000	40,789000
727,000000	40,563500
726,000000	40,378100
725,000000	40,109500
724,000000	39,930200
723,000000	39,724800
722,000000	39,446800
721,000000	39,250700
720,000000	39,046000
719,000000	38,769400
718,000000	38,596200
717,000000	38,404100
716,000000	38,240000
715,000000	38,042400
714,000000	37,780000
713,000000	37,554400
712,000000	37,358300
711,000000	37,134700
710,000000	36,945700
709,000000	36,618400
708,000000	36,407100
707,000000	36,230500
706,000000	35,955800
705,000000	35,676600
704,000000	35,463800
703,000000	35,204200
702,000000	34,944300
701,000000	34,696600
700,000000	34,515300
699,000000	34,208200
698,000000	33,979600
697,000000	33,792700
696,000000	33,599000
695,000000	33,410500
694,000000	33,191200
693,000000	32,883700
692,000000	32,627900
691,000000	32,375800
690,000000	32,098500
689,000000	31,916600
688,000000	31,666800
687,000000	31,466100
686,000000	31,238500
685,000000	31,005600
684,000000	30,802300
683,000000	30,557800
682,000000	30,344300
681,000000	30,134700
680,000000	29,954000
679,000000	29,740300
678,000000	29,503400
677,000000	29,332000
676,000000	29,153300
675,000000	28,923700
674,000000	28,700800
673,000000	28,541000
672,000000	28,374500
671,000000	28,170200
670,000000	27,961600
669,000000	27,821800
668,000000	27,632600
667,000000	27,470700
666,000000	27,302200
665,000000	27,148800
664,000000	27,009500
663,000000	26,833800
662,000000	26,662000
661,000000	26,487300
660,000000	26,373800
659,000000	26,212900
658,000000	26,044500
657,000000	25,885500
656,000000	25,723600
655,000000	25,610600
654,000000	25,496900
653,000000	25,359900
652,000000	25,221600
651,000000	25,095600
650,000000	24,975800
649,000000	24,863100
648,000000	24,754700
647,000000	24,631300
646,000000	24,529600
645,000000	24,407800
644,000000	24,268300
643,000000	24,163900
642,000000	24,052900
641,000000	23,925500
640,000000	23,811100
639,000000	23,741700
638,000000	23,630400
637,000000	23,548700
636,000000	23,466000
635,000000	23,352700
634,000000	23,268200
633,000000	23,183800
632,000000	23,109400
631,000000	23,022000
630,000000	22,935800
629,000000	22,859400
628,000000	22,777300
627,000000	22,693600
626,000000	22,617700
625,000000	22,562500
624,000000	22,475500
623,000000	22,414000
622,000000	22,348900
621,000000	22,276000
620,000000	22,219800
619,000000	22,141300
618,000000	22,094500
617,000000	22,042900
616,000000	21,949600
615,000000	21,900800
614,000000	21,870700
613,000000	21,783200
612,000000	21,737600
611,000000	21,682600
610,000000	21,642500
609,000000	21,577200
608,000000	21,507400
607,000000	21,453300
606,000000	21,421800
605,000000	21,332500
604,000000	21,268500
603,000000	21,220500
602,000000	21,206400
601,000000	21,152800
600,000000	21,098300
599,000000	21,030300
598,000000	20,957700
597,000000	20,899000
596,000000	20,850300
595,000000	20,784700
594,000000	20,737500
593,000000	20,697000
592,000000	20,625400
591,000000	20,547100
590,000000	20,520200
589,000000	20,458500
588,000000	20,405500
587,000000	20,345000
586,000000	20,291300
585,000000	20,232700
584,000000	20,184900
583,000000	20,125400
582,000000	20,048800
581,000000	19,977700
580,000000	19,936100
579,000000	19,847900
578,000000	19,771600
577,000000	19,709300
576,000000	19,618300
575,000000	19,562600
574,000000	19,483700
573,000000	19,436700
572,000000	19,354700
571,000000	19,284200
570,000000	19,213600
569,000000	19,135800
568,000000	19,070700
567,000000	18,975900
566,000000	18,884500
565,000000	18,788400
564,000000	18,731700
563,000000	18,640300
562,000000	18,553100
561,000000	18,436900
560,000000	18,341800
559,000000	18,224900
558,000000	18,119600
557,000000	18,029600
556,000000	17,915200
555,000000	17,778100
554,000000	17,703300
553,000000	17,561400
552,000000	17,498100
551,000000	17,392000
550,000000	17,286800
549,000000	17,155100
548,000000	17,050000
547,000000	16,919300
546,000000	16,815500
545,000000	16,657500
544,000000	16,553300
543,000000	16,440200
542,000000	16,291400
541,000000	16,165400
540,000000	16,044400
539,000000	15,901000
538,000000	15,787700
537,000000	15,665500
536,000000	15,501300
535,000000	15,371900
534,000000	15,238200
533,000000	15,085700
532,000000	14,946700
531,000000	14,810400
530,000000	14,633700
529,000000	14,497200
528,000000	14,357500
527,000000	14,194700
526,000000	14,053200
525,000000	13,913300
524,000000	13,734900
523,000000	13,573600
522,000000	13,431100
521,000000	13,285200
520,000000	13,106600
519,000000	12,967900
518,000000	12,817800
517,000000	12,667400
516,000000	12,514900
515,000000	12,349900
514,000000	12,203700
513,000000	12,041700
512,000000	11,888700
511,000000	11,762500
510,000000	11,611000
509,000000	11,471100
508,000000	11,355300
507,000000	11,196900
506,000000	11,087300
505,000000	10,976300
504,000000	10,852400
503,000000	10,751900
502,000000	10,629100
501,000000	10,529500
500,000000	10,450600
499,000000	10,320800
498,000000	10,247900
497,000000	10,144900
496,000000	10,071000
495,000000	9,973900
494,000000	9,899100
493,000000	9,839000
492,000000	9,759300
491,000000	9,656100
490,000000	9,605700
489,000000	9,531800
488,000000	9,455600
487,000000	9,417900
486,000000	9,355000
485,000000	9,282100
484,000000	9,230300
483,000000	9,165600
482,000000	9,131000
481,000000	9,042500
480,000000	8,992300
479,000000	8,902800
478,000000	8,834900
477,000000	8,779000
476,000000	8,711000
475,000000	8,680800
474,000000	8,592500
473,000000	8,541800
472,000000	8,488300
471,000000	8,452800
470,000000	8,377200
469,000000	8,332100
468,000000	8,261800
467,000000	8,235300
466,000000	8,182400
465,000000	8,136900
464,000000	8,081400
463,000000	8,044200
462,000000	7,996400
461,000000	7,976300
460,000000	7,934900
459,000000	7,903000
458,000000	7,846400
457,000000	7,798400
456,000000	7,758400
455,000000	7,755500
454,000000	7,714100
453,000000	7,682400
452,000000	7,694200
451,000000	7,603000
450,000000	7,589100
449,000000	7,571600
448,000000	7,541000
447,000000	7,493000
446,000000	7,478400
445,000000	7,445400
444,000000	7,439500
443,000000	7,429700
442,000000	7,364900
441,000000	7,343900
440,000000	7,293600
439,000000	7,263800
438,000000	7,241900
437,000000	7,220300
436,000000	7,190700
435,000000	7,146800
434,000000	7,105800
433,000000	7,108900
432,000000	7,104000
431,000000	7,051400
430,000000	7,014200
429,000000	6,971300
428,000000	6,929000
427,000000	6,907000
426,000000	6,896400
425,000000	6,904300
424,000000	6,846000
423,000000	6,802100
422,000000	6,790000
421,000000	6,746600
420,000000	6,714400
419,000000	6,678800
418,000000	6,659800
417,000000	6,623400
416,000000	6,600300
415,000000	6,537500
414,000000	6,500100
413,000000	6,481700
412,000000	6,433900
411,000000	6,398300
410,000000	6,347700
409,000000	6,306300
408,000000	6,287600
407,000000	6,199300
406,000000	6,158500
405,000000	6,107100
404,000000	6,083100
403,000000	6,041500
402,000000	5,996200
401,000000	5,961900
400,000000	5,902900
399,000000	5,848600
398,000000	5,804000
397,000000	5,760200
396,000000	5,710400
395,000000	5,627500
394,000000	5,566900
393,000000	5,525000
392,000000	5,469100
391,000000	5,416000
390,000000	5,392400
389,000000	5,301700
388,000000	5,255600
387,000000	5,206400
386,000000	5,163300
385,000000	5,120800
384,000000	5,049100
383,000000	4,999100
382,000000	5,000200
381,000000	4,940500
380,000000	4,874500
379,000000	4,811700
378,000000	4,771800
377,000000	4,747200
376,000000	4,675800
375,000000	4,623000
374,000000	4,660000
373,000000	4,562800
372,000000	4,395200
371,000000	4,416000
370,000000	4,293200
369,000000	4,264800
368,000000	4,320900
367,000000	4,348000
366,000000	4,343700
365,000000	4,314700
364,000000	4,132400
363,000000	4,111900
362,000000	4,262100
361,000000	4,179500
360,000000	4,156900
359,000000	4,137900
358,000000	4,161800
357,000000	4,318700
356,000000	4,244200
355,000000	4,036000
354,000000	4,024300
353,000000	4,092700
352,000000	4,110800
351,000000	4,016800
350,000000	4,033200
349,000000	4,045900
348,000000	4,111100
347,000000	4,173100
346,000000	4,172200
345,000000	4,051000
344,000000	4,004700
343,000000	3,954000
342,000000	3,869400
341,000000	3,992100
340,000000	4,054000
339,000000	4,050200
338,000000	4,017300
337,000000	3,868900
336,000000	3,957700
335,000000	4,135600
334,000000	4,138100
333,000000	4,034500
332,000000	3,892100
331,000000	3,800600
330,000000	3,851600
329,000000	4,035000
328,000000	4,110000
327,000000	4,071800
326,000000	4,157000
325,000000	4,174400
324,000000	4,158400
323,000000	4,040000
322,000000	4,000100
321,000000	4,092800
320,000000	4,169700
319,000000	4,019100
318,000000	4,165300
317,000000	4,006300
316,000000	3,845000
315,000000	3,958600
314,000000	3,921600
313,000000	3,917800
312,000000	3,878400
311,000000	3,899500
310,000000	3,954000
309,000000	3,922600
308,000000	3,967200
307,000000	3,958300
306,000000	3,912800
305,000000	3,938300
304,000000	3,958800
303,000000	3,960600
302,000000	3,983500
301,000000	3,957700
300,000000	3,987100
299,000000	3,988200
298,000000	3,983500
297,000000	3,970200
296,000000	3,961300
295,000000	3,940200
294,000000	3,953100
293,000000	3,999100
292,000000	3,972500
291,000000	3,962400
290,000000	3,984400
289,000000	4,016400
288,000000	3,952500
287,000000	3,962400
286,000000	3,987300
285,000000	3,964200
284,000000	3,967700
283,000000	4,005900
282,000000	4,013700
281,000000	4,011800
280,000000	4,038200
279,000000	4,044500
278,000000	4,053500
277,000000	4,075200
276,000000	4,087300
275,000000	4,057700
274,000000	4,066200
273,000000	4,092200
272,000000	4,054800
271,000000	4,066100
270,000000	4,142400
269,000000	4,132800
268,000000	4,124700
267,000000	4,137900
266,000000	4,157100
265,000000	4,187400
264,000000	4,237400
263,000000	4,213000
262,000000	4,252500
261,000000	4,282900
260,000000	4,272900
259,000000	4,294900
258,000000	4,305500
257,000000	4,263900
256,000000	4,300000
255,000000	4,331900
254,000000	4,276300
253,000000	4,310600
252,000000	4,339400
251,000000	4,357400
250,000000	4,373200
