PE UV       SUBTECH     SPECTRUM    ASCII       PEDS        4.00        
   -1
CICIMAUCR0240-2.ASC
24/06/20
14:09:08.00
24/06/20
14:09:08.00
Vinicio Soto Monge
C. resplendens. Sex M. Ventral 
250,000000
1
Lambda 1050
1050L1511233
PerkinElmer UV WinLab 6.3.2.0749 / 2.02.05 Lambda 900 UV/VIS/NIR, Aug  7 2015 09:38:08

0
0
3350/servo 860,8/2
0
0
UV/VIS
1
1
1
DoubleDePol,CommonBeamDepol,RBeamAtt,SBeamAtt,60mm sphere, WB InGaAs Detector
0
0
0
0
Program
Program
3350/servo 860,8/2
3350/0,2 860,8/0,2
3350/0,2 860,8/0,2
0
15.00
 
 
 
0
 
860,8
319,2
860,8
Front
100
on
S:100 R:100
0
0
0
0
 
0
 
 
 
0
 
 
0
0
0
0
0
 
 
 
 
0
0


0
0
#HDR
-1
-1
#GR
nm
%R
1.0
0.0
2500,000000
-1,000000
2251
8
59,400000
4,430400
#DATA
2500,000000	6,034600
2499,000000	5,905900
2498,000000	5,858800
2497,000000	5,797800
2496,000000	5,876800
2495,000000	5,898400
2494,000000	5,838900
2493,000000	5,759400
2492,000000	5,783200
2491,000000	5,746600
2490,000000	5,725300
2489,000000	5,771000
2488,000000	5,787800
2487,000000	5,774700
2486,000000	5,749000
2485,000000	5,746600
2484,000000	5,720300
2483,000000	5,761200
2482,000000	5,716200
2481,000000	5,727700
2480,000000	5,651000
2479,000000	5,696500
2478,000000	5,659000
2477,000000	5,657400
2476,000000	5,587300
2475,000000	5,602600
2474,000000	5,687000
2473,000000	5,654900
2472,000000	5,627500
2471,000000	5,662400
2470,000000	5,692900
2469,000000	5,684000
2468,000000	5,664200
2467,000000	5,678700
2466,000000	5,684800
2465,000000	5,661000
2464,000000	5,654500
2463,000000	5,686900
2462,000000	5,658700
2461,000000	5,680700
2460,000000	5,725600
2459,000000	5,707400
2458,000000	5,729100
2457,000000	5,701000
2456,000000	5,716100
2455,000000	5,774400
2454,000000	5,804000
2453,000000	5,805900
2452,000000	5,818800
2451,000000	5,825500
2450,000000	5,866200
2449,000000	5,887000
2448,000000	5,881900
2447,000000	5,950200
2446,000000	5,984300
2445,000000	5,978000
2444,000000	6,012100
2443,000000	6,049900
2442,000000	6,061800
2441,000000	6,099700
2440,000000	6,099500
2439,000000	6,115300
2438,000000	6,153200
2437,000000	6,185300
2436,000000	6,203700
2435,000000	6,225200
2434,000000	6,256200
2433,000000	6,273200
2432,000000	6,275300
2431,000000	6,331000
2430,000000	6,353300
2429,000000	6,353500
2428,000000	6,372700
2427,000000	6,384300
2426,000000	6,398300
2425,000000	6,429400
2424,000000	6,446800
2423,000000	6,460400
2422,000000	6,490800
2421,000000	6,498100
2420,000000	6,519000
2419,000000	6,533500
2418,000000	6,563900
2417,000000	6,567500
2416,000000	6,571000
2415,000000	6,581800
2414,000000	6,617700
2413,000000	6,628300
2412,000000	6,631200
2411,000000	6,652400
2410,000000	6,666200
2409,000000	6,678700
2408,000000	6,683400
2407,000000	6,693200
2406,000000	6,712000
2405,000000	6,727000
2404,000000	6,730000
2403,000000	6,749500
2402,000000	6,754300
2401,000000	6,778600
2400,000000	6,773700
2399,000000	6,785200
2398,000000	6,816200
2397,000000	6,834400
2396,000000	6,858600
2395,000000	6,887300
2394,000000	6,910600
2393,000000	6,933900
2392,000000	6,954100
2391,000000	6,968000
2390,000000	6,974100
2389,000000	6,967300
2388,000000	6,980600
2387,000000	7,001100
2386,000000	7,017400
2385,000000	7,022000
2384,000000	7,024100
2383,000000	7,036500
2382,000000	7,040600
2381,000000	7,030300
2380,000000	7,033200
2379,000000	7,048900
2378,000000	7,048300
2377,000000	7,049800
2376,000000	7,066500
2375,000000	7,064300
2374,000000	7,056100
2373,000000	7,049500
2372,000000	7,047700
2371,000000	7,049500
2370,000000	7,053600
2369,000000	7,053900
2368,000000	7,051300
2367,000000	7,041200
2366,000000	7,027200
2365,000000	7,020100
2364,000000	7,007300
2363,000000	6,997300
2362,000000	6,997000
2361,000000	6,983200
2360,000000	6,973800
2359,000000	6,973100
2358,000000	6,960500
2357,000000	6,955500
2356,000000	6,943300
2355,000000	6,936100
2354,000000	6,930900
2353,000000	6,920300
2352,000000	6,915600
2351,000000	6,921400
2350,000000	6,933600
2349,000000	6,934600
2348,000000	6,937900
2347,000000	6,947600
2346,000000	6,952100
2345,000000	6,962400
2344,000000	6,977800
2343,000000	6,985100
2342,000000	6,991600
2341,000000	7,006600
2340,000000	7,017200
2339,000000	7,031100
2338,000000	7,047900
2337,000000	7,057700
2336,000000	7,069100
2335,000000	7,073500
2334,000000	7,074100
2333,000000	7,085800
2332,000000	7,086300
2331,000000	7,083100
2330,000000	7,071600
2329,000000	7,049500
2328,000000	7,047700
2327,000000	7,048300
2326,000000	7,034600
2325,000000	7,027100
2324,000000	7,019600
2323,000000	6,992300
2322,000000	6,972500
2321,000000	6,954700
2320,000000	6,932800
2319,000000	6,895500
2318,000000	6,867900
2317,000000	6,835800
2316,000000	6,814600
2315,000000	6,769900
2314,000000	6,723300
2313,000000	6,689400
2312,000000	6,672500
2311,000000	6,641800
2310,000000	6,602300
2309,000000	6,580000
2308,000000	6,560700
2307,000000	6,549700
2306,000000	6,529000
2305,000000	6,529200
2304,000000	6,513400
2303,000000	6,512900
2302,000000	6,529700
2301,000000	6,542700
2300,000000	6,558700
2299,000000	6,566100
2298,000000	6,585400
2297,000000	6,623100
2296,000000	6,643300
2295,000000	6,676000
2294,000000	6,693700
2293,000000	6,723400
2292,000000	6,756800
2291,000000	6,768900
2290,000000	6,803400
2289,000000	6,801800
2288,000000	6,821100
2287,000000	6,821800
2286,000000	6,835700
2285,000000	6,832000
2284,000000	6,819800
2283,000000	6,832200
2282,000000	6,819200
2281,000000	6,814700
2280,000000	6,812500
2279,000000	6,805400
2278,000000	6,776500
2277,000000	6,776100
2276,000000	6,756600
2275,000000	6,744600
2274,000000	6,719100
2273,000000	6,733600
2272,000000	6,732800
2271,000000	6,705600
2270,000000	6,708300
2269,000000	6,723500
2268,000000	6,744500
2267,000000	6,748300
2266,000000	6,777200
2265,000000	6,822900
2264,000000	6,858000
2263,000000	6,911800
2262,000000	6,961200
2261,000000	7,023500
2260,000000	7,089900
2259,000000	7,168900
2258,000000	7,224200
2257,000000	7,329100
2256,000000	7,409000
2255,000000	7,502700
2254,000000	7,607300
2253,000000	7,713100
2252,000000	7,815500
2251,000000	7,911400
2250,000000	7,975100
2249,000000	8,067600
2248,000000	8,158800
2247,000000	8,241600
2246,000000	8,329500
2245,000000	8,414500
2244,000000	8,470000
2243,000000	8,534200
2242,000000	8,574500
2241,000000	8,648200
2240,000000	8,696100
2239,000000	8,724700
2238,000000	8,768600
2237,000000	8,828600
2236,000000	8,848700
2235,000000	8,898100
2234,000000	8,900100
2233,000000	8,926700
2232,000000	8,943600
2231,000000	8,982100
2230,000000	9,003400
2229,000000	8,982200
2228,000000	8,987000
2227,000000	8,998800
2226,000000	9,001300
2225,000000	9,012400
2224,000000	9,005600
2223,000000	8,988900
2222,000000	8,951000
2221,000000	8,982100
2220,000000	8,937800
2219,000000	8,943900
2218,000000	8,912300
2217,000000	8,880000
2216,000000	8,888500
2215,000000	8,859300
2214,000000	8,845700
2213,000000	8,829400
2212,000000	8,790300
2211,000000	8,792200
2210,000000	8,764000
2209,000000	8,760200
2208,000000	8,721500
2207,000000	8,719000
2206,000000	8,718000
2205,000000	8,727000
2204,000000	8,702200
2203,000000	8,710800
2202,000000	8,679700
2201,000000	8,665000
2200,000000	8,659600
2199,000000	8,660900
2198,000000	8,649200
2197,000000	8,642100
2196,000000	8,631800
2195,000000	8,627600
2194,000000	8,627300
2193,000000	8,627700
2192,000000	8,636900
2191,000000	8,624700
2190,000000	8,603200
2189,000000	8,599600
2188,000000	8,604400
2187,000000	8,596800
2186,000000	8,597200
2185,000000	8,585200
2184,000000	8,565900
2183,000000	8,573000
2182,000000	8,557200
2181,000000	8,563300
2180,000000	8,539600
2179,000000	8,556100
2178,000000	8,536800
2177,000000	8,533100
2176,000000	8,531400
2175,000000	8,529200
2174,000000	8,522700
2173,000000	8,520300
2172,000000	8,530800
2171,000000	8,545000
2170,000000	8,532700
2169,000000	8,537700
2168,000000	8,537700
2167,000000	8,554800
2166,000000	8,545900
2165,000000	8,558700
2164,000000	8,579700
2163,000000	8,596200
2162,000000	8,596500
2161,000000	8,618900
2160,000000	8,623400
2159,000000	8,656000
2158,000000	8,659700
2157,000000	8,690800
2156,000000	8,708000
2155,000000	8,719100
2154,000000	8,747000
2153,000000	8,777200
2152,000000	8,781900
2151,000000	8,803700
2150,000000	8,829700
2149,000000	8,871700
2148,000000	8,892900
2147,000000	8,918100
2146,000000	8,936300
2145,000000	8,949100
2144,000000	8,972700
2143,000000	9,010000
2142,000000	9,030000
2141,000000	9,044100
2140,000000	9,077700
2139,000000	9,101800
2138,000000	9,116300
2137,000000	9,135900
2136,000000	9,153400
2135,000000	9,177100
2134,000000	9,183300
2133,000000	9,205200
2132,000000	9,212400
2131,000000	9,222100
2130,000000	9,244400
2129,000000	9,234900
2128,000000	9,256600
2127,000000	9,262500
2126,000000	9,267100
2125,000000	9,276700
2124,000000	9,280600
2123,000000	9,283500
2122,000000	9,278700
2121,000000	9,280200
2120,000000	9,273800
2119,000000	9,272100
2118,000000	9,275300
2117,000000	9,266000
2116,000000	9,261300
2115,000000	9,257500
2114,000000	9,244300
2113,000000	9,238200
2112,000000	9,233400
2111,000000	9,220500
2110,000000	9,197000
2109,000000	9,183600
2108,000000	9,192700
2107,000000	9,174900
2106,000000	9,154700
2105,000000	9,139700
2104,000000	9,144900
2103,000000	9,128400
2102,000000	9,116900
2101,000000	9,100000
2100,000000	9,090500
2099,000000	9,082800
2098,000000	9,064700
2097,000000	9,048800
2096,000000	9,057300
2095,000000	9,051000
2094,000000	9,042100
2093,000000	9,035600
2092,000000	9,033700
2091,000000	9,021600
2090,000000	9,011200
2089,000000	9,006300
2088,000000	8,986000
2087,000000	8,979600
2086,000000	8,984900
2085,000000	8,977900
2084,000000	8,962400
2083,000000	8,950400
2082,000000	8,937900
2081,000000	8,907500
2080,000000	8,889500
2079,000000	8,872500
2078,000000	8,870100
2077,000000	8,860200
2076,000000	8,834800
2075,000000	8,813600
2074,000000	8,779600
2073,000000	8,753000
2072,000000	8,739300
2071,000000	8,718700
2070,000000	8,685200
2069,000000	8,655000
2068,000000	8,619300
2067,000000	8,584500
2066,000000	8,568000
2065,000000	8,540600
2064,000000	8,504900
2063,000000	8,483600
2062,000000	8,468900
2061,000000	8,441200
2060,000000	8,413200
2059,000000	8,395800
2058,000000	8,371100
2057,000000	8,355800
2056,000000	8,350300
2055,000000	8,349600
2054,000000	8,354700
2053,000000	8,345300
2052,000000	8,347700
2051,000000	8,380700
2050,000000	8,389300
2049,000000	8,406500
2048,000000	8,442200
2047,000000	8,468900
2046,000000	8,507000
2045,000000	8,538900
2044,000000	8,565400
2043,000000	8,597300
2042,000000	8,638400
2041,000000	8,691100
2040,000000	8,726700
2039,000000	8,764700
2038,000000	8,810300
2037,000000	8,834400
2036,000000	8,861700
2035,000000	8,909300
2034,000000	8,936000
2033,000000	8,969000
2032,000000	8,993600
2031,000000	9,006600
2030,000000	9,029500
2029,000000	9,056400
2028,000000	9,077000
2027,000000	9,082800
2026,000000	9,072800
2025,000000	9,098300
2024,000000	9,120500
2023,000000	9,146800
2022,000000	9,151800
2021,000000	9,150400
2020,000000	9,160400
2019,000000	9,152600
2018,000000	9,165700
2017,000000	9,176600
2016,000000	9,149300
2015,000000	9,166900
2014,000000	9,159700
2013,000000	9,139200
2012,000000	9,155800
2011,000000	9,147300
2010,000000	9,129000
2009,000000	9,115800
2008,000000	9,104800
2007,000000	9,095900
2006,000000	9,062100
2005,000000	9,055300
2004,000000	9,039900
2003,000000	9,014300
2002,000000	8,983800
2001,000000	8,961600
2000,000000	8,949500
1999,000000	8,922300
1998,000000	8,880000
1997,000000	8,852400
1996,000000	8,816600
1995,000000	8,808400
1994,000000	8,780200
1993,000000	8,733700
1992,000000	8,685600
1991,000000	8,658800
1990,000000	8,628300
1989,000000	8,607300
1988,000000	8,557800
1987,000000	8,519100
1986,000000	8,492300
1985,000000	8,466700
1984,000000	8,397700
1983,000000	8,366900
1982,000000	8,346500
1981,000000	8,311300
1980,000000	8,264300
1979,000000	8,233900
1978,000000	8,200600
1977,000000	8,170700
1976,000000	8,119500
1975,000000	8,084000
1974,000000	8,028200
1973,000000	7,999400
1972,000000	7,978700
1971,000000	7,965100
1970,000000	7,917800
1969,000000	7,889600
1968,000000	7,838000
1967,000000	7,811100
1966,000000	7,765500
1965,000000	7,740900
1964,000000	7,699000
1963,000000	7,683200
1962,000000	7,667000
1961,000000	7,639000
1960,000000	7,592000
1959,000000	7,587200
1958,000000	7,553000
1957,000000	7,522300
1956,000000	7,490100
1955,000000	7,476300
1954,000000	7,439900
1953,000000	7,395600
1952,000000	7,381000
1951,000000	7,345700
1950,000000	7,331500
1949,000000	7,311200
1948,000000	7,287100
1947,000000	7,282000
1946,000000	7,252900
1945,000000	7,209100
1944,000000	7,210800
1943,000000	7,208200
1942,000000	7,171800
1941,000000	7,181500
1940,000000	7,158800
1939,000000	7,141300
1938,000000	7,126200
1937,000000	7,159700
1936,000000	7,147000
1935,000000	7,142600
1934,000000	7,141000
1933,000000	7,169700
1932,000000	7,164200
1931,000000	7,163100
1930,000000	7,184500
1929,000000	7,203300
1928,000000	7,222900
1927,000000	7,259300
1926,000000	7,270000
1925,000000	7,323600
1924,000000	7,373400
1923,000000	7,395700
1922,000000	7,419900
1921,000000	7,470500
1920,000000	7,536300
1919,000000	7,584100
1918,000000	7,645400
1917,000000	7,696900
1916,000000	7,772100
1915,000000	7,847100
1914,000000	7,891900
1913,000000	7,965000
1912,000000	8,078500
1911,000000	8,161200
1910,000000	8,234800
1909,000000	8,310400
1908,000000	8,408300
1907,000000	8,501800
1906,000000	8,603900
1905,000000	8,754800
1904,000000	8,881500
1903,000000	9,007500
1902,000000	9,129900
1901,000000	9,266900
1900,000000	9,427400
1899,000000	9,592400
1898,000000	9,750300
1897,000000	9,950000
1896,000000	10,132100
1895,000000	10,310500
1894,000000	10,470800
1893,000000	10,644600
1892,000000	10,864500
1891,000000	11,108700
1890,000000	11,368600
1889,000000	11,617800
1888,000000	11,850800
1887,000000	12,117900
1886,000000	12,377200
1885,000000	12,688900
1884,000000	12,972000
1883,000000	13,319400
1882,000000	13,671200
1881,000000	14,007300
1880,000000	14,346400
1879,000000	14,669300
1878,000000	14,991500
1877,000000	15,320200
1876,000000	15,633000
1875,000000	15,960800
1874,000000	16,294600
1873,000000	16,609800
1872,000000	16,932200
1871,000000	17,249700
1870,000000	17,546600
1869,000000	17,827900
1868,000000	18,114100
1867,000000	18,343300
1866,000000	18,523200
1865,000000	18,691700
1864,000000	18,843600
1863,000000	18,975300
1862,000000	19,093300
1861,000000	19,240600
1860,000000	19,396800
1859,000000	19,509400
1858,000000	19,650100
1857,000000	19,761100
1856,000000	19,846900
1855,000000	19,903200
1854,000000	19,967500
1853,000000	20,027600
1852,000000	20,067900
1851,000000	20,097800
1850,000000	20,111300
1849,000000	20,140100
1848,000000	20,173500
1847,000000	20,208700
1846,000000	20,232100
1845,000000	20,225200
1844,000000	20,188400
1843,000000	20,164600
1842,000000	20,159400
1841,000000	20,180900
1840,000000	20,188500
1839,000000	20,174300
1838,000000	20,161600
1837,000000	20,136200
1836,000000	20,136500
1835,000000	20,134900
1834,000000	20,107100
1833,000000	20,059600
1832,000000	19,994800
1831,000000	19,948700
1830,000000	19,927700
1829,000000	19,905700
1828,000000	19,857300
1827,000000	19,805700
1826,000000	19,771800
1825,000000	19,741500
1824,000000	19,693800
1823,000000	19,642700
1822,000000	19,615800
1821,000000	19,607600
1820,000000	19,599100
1819,000000	19,601800
1818,000000	19,573100
1817,000000	19,540800
1816,000000	19,520000
1815,000000	19,503300
1814,000000	19,502000
1813,000000	19,481000
1812,000000	19,459600
1811,000000	19,446100
1810,000000	19,424700
1809,000000	19,396500
1808,000000	19,369200
1807,000000	19,329700
1806,000000	19,297900
1805,000000	19,277900
1804,000000	19,242700
1803,000000	19,208800
1802,000000	19,165600
1801,000000	19,134200
1800,000000	19,102700
1799,000000	19,055000
1798,000000	19,014700
1797,000000	18,976400
1796,000000	18,936300
1795,000000	18,899300
1794,000000	18,867100
1793,000000	18,839300
1792,000000	18,819300
1791,000000	18,778500
1790,000000	18,731400
1789,000000	18,703000
1788,000000	18,662500
1787,000000	18,630600
1786,000000	18,611700
1785,000000	18,556900
1784,000000	18,499900
1783,000000	18,470600
1782,000000	18,439800
1781,000000	18,392600
1780,000000	18,347600
1779,000000	18,310200
1778,000000	18,256900
1777,000000	18,206000
1776,000000	18,158100
1775,000000	18,098700
1774,000000	18,031000
1773,000000	17,966800
1772,000000	17,905400
1771,000000	17,840700
1770,000000	17,786200
1769,000000	17,716900
1768,000000	17,636800
1767,000000	17,583400
1766,000000	17,525300
1765,000000	17,457900
1764,000000	17,417200
1763,000000	17,387000
1762,000000	17,374800
1761,000000	17,381400
1760,000000	17,388900
1759,000000	17,406800
1758,000000	17,452800
1757,000000	17,484100
1756,000000	17,530400
1755,000000	17,577100
1754,000000	17,607700
1753,000000	17,638500
1752,000000	17,661600
1751,000000	17,674700
1750,000000	17,689900
1749,000000	17,674800
1748,000000	17,659100
1747,000000	17,640300
1746,000000	17,613100
1745,000000	17,561500
1744,000000	17,511400
1743,000000	17,433600
1742,000000	17,331700
1741,000000	17,234700
1740,000000	17,124400
1739,000000	17,018700
1738,000000	16,884200
1737,000000	16,780400
1736,000000	16,678400
1735,000000	16,577900
1734,000000	16,496500
1733,000000	16,458500
1732,000000	16,434200
1731,000000	16,421300
1730,000000	16,427500
1729,000000	16,460500
1728,000000	16,526300
1727,000000	16,568400
1726,000000	16,608400
1725,000000	16,666300
1724,000000	16,728600
1723,000000	16,749600
1722,000000	16,794600
1721,000000	16,833200
1720,000000	16,896100
1719,000000	16,958300
1718,000000	17,022900
1717,000000	17,091500
1716,000000	17,159600
1715,000000	17,216200
1714,000000	17,292400
1713,000000	17,364000
1712,000000	17,437600
1711,000000	17,505300
1710,000000	17,539000
1709,000000	17,606100
1708,000000	17,632400
1707,000000	17,630800
1706,000000	17,629300
1705,000000	17,632800
1704,000000	17,605800
1703,000000	17,565300
1702,000000	17,517600
1701,000000	17,465100
1700,000000	17,392100
1699,000000	17,312900
1698,000000	17,210200
1697,000000	17,133700
1696,000000	17,068000
1695,000000	17,017100
1694,000000	16,990400
1693,000000	16,997500
1692,000000	17,021600
1691,000000	17,048300
1690,000000	17,142400
1689,000000	17,219500
1688,000000	17,307400
1687,000000	17,381200
1686,000000	17,425700
1685,000000	17,504100
1684,000000	17,566100
1683,000000	17,650700
1682,000000	17,788700
1681,000000	17,970600
1680,000000	18,204900
1679,000000	18,475900
1678,000000	18,799500
1677,000000	19,119900
1676,000000	19,463600
1675,000000	19,785600
1674,000000	20,043700
1673,000000	20,308800
1672,000000	20,541300
1671,000000	20,757200
1670,000000	20,944300
1669,000000	21,098200
1668,000000	21,249100
1667,000000	21,385600
1666,000000	21,486000
1665,000000	21,591300
1664,000000	21,699000
1663,000000	21,778000
1662,000000	21,848200
1661,000000	21,915400
1660,000000	21,960700
1659,000000	22,020500
1658,000000	22,079800
1657,000000	22,084300
1656,000000	22,129600
1655,000000	22,143200
1654,000000	22,151800
1653,000000	22,172200
1652,000000	22,169300
1651,000000	22,145900
1650,000000	22,142600
1649,000000	22,122900
1648,000000	22,094900
1647,000000	22,055700
1646,000000	22,031400
1645,000000	21,990400
1644,000000	21,938400
1643,000000	21,884900
1642,000000	21,865600
1641,000000	21,827000
1640,000000	21,780000
1639,000000	21,746700
1638,000000	21,718000
1637,000000	21,668100
1636,000000	21,618000
1635,000000	21,566800
1634,000000	21,513200
1633,000000	21,460300
1632,000000	21,396100
1631,000000	21,347800
1630,000000	21,263400
1629,000000	21,209900
1628,000000	21,170600
1627,000000	21,110600
1626,000000	21,046000
1625,000000	20,977400
1624,000000	20,900700
1623,000000	20,839100
1622,000000	20,779800
1621,000000	20,724100
1620,000000	20,662700
1619,000000	20,599700
1618,000000	20,550100
1617,000000	20,483500
1616,000000	20,430200
1615,000000	20,378400
1614,000000	20,327800
1613,000000	20,259900
1612,000000	20,199100
1611,000000	20,151100
1610,000000	20,092800
1609,000000	20,032800
1608,000000	19,968600
1607,000000	19,916400
1606,000000	19,852400
1605,000000	19,788300
1604,000000	19,725000
1603,000000	19,674600
1602,000000	19,613200
1601,000000	19,542100
1600,000000	19,489600
1599,000000	19,425700
1598,000000	19,364300
1597,000000	19,306400
1596,000000	19,240100
1595,000000	19,186600
1594,000000	19,136400
1593,000000	19,050000
1592,000000	19,015500
1591,000000	18,957300
1590,000000	18,913000
1589,000000	18,862500
1588,000000	18,832300
1587,000000	18,756700
1586,000000	18,726700
1585,000000	18,674900
1584,000000	18,641300
1583,000000	18,593300
1582,000000	18,545800
1581,000000	18,506500
1580,000000	18,472700
1579,000000	18,431400
1578,000000	18,386700
1577,000000	18,356100
1576,000000	18,323400
1575,000000	18,307300
1574,000000	18,292400
1573,000000	18,274100
1572,000000	18,254800
1571,000000	18,230100
1570,000000	18,208400
1569,000000	18,204000
1568,000000	18,189300
1567,000000	18,187000
1566,000000	18,183600
1565,000000	18,184900
1564,000000	18,193700
1563,000000	18,181200
1562,000000	18,173000
1561,000000	18,157100
1560,000000	18,144000
1559,000000	18,129300
1558,000000	18,113500
1557,000000	18,091500
1556,000000	18,064300
1555,000000	18,037100
1554,000000	18,016700
1553,000000	17,976500
1552,000000	17,955300
1551,000000	17,915900
1550,000000	17,870800
1549,000000	17,837500
1548,000000	17,813900
1547,000000	17,760100
1546,000000	17,713400
1545,000000	17,685700
1544,000000	17,654200
1543,000000	17,630000
1542,000000	17,601300
1541,000000	17,570800
1540,000000	17,540300
1539,000000	17,508100
1538,000000	17,483900
1537,000000	17,455000
1536,000000	17,423600
1535,000000	17,412600
1534,000000	17,369300
1533,000000	17,335000
1532,000000	17,291400
1531,000000	17,266400
1530,000000	17,241000
1529,000000	17,189800
1528,000000	17,157200
1527,000000	17,133100
1526,000000	17,097200
1525,000000	17,046800
1524,000000	17,000600
1523,000000	16,963400
1522,000000	16,912500
1521,000000	16,867300
1520,000000	16,833300
1519,000000	16,778800
1518,000000	16,725500
1517,000000	16,690900
1516,000000	16,651500
1515,000000	16,594200
1514,000000	16,536700
1513,000000	16,496500
1512,000000	16,446700
1511,000000	16,395900
1510,000000	16,352000
1509,000000	16,307600
1508,000000	16,248800
1507,000000	16,190700
1506,000000	16,138200
1505,000000	16,079900
1504,000000	16,030100
1503,000000	15,972900
1502,000000	15,929100
1501,000000	15,887000
1500,000000	15,832800
1499,000000	15,796800
1498,000000	15,751400
1497,000000	15,701900
1496,000000	15,668600
1495,000000	15,620400
1494,000000	15,581300
1493,000000	15,563800
1492,000000	15,533300
1491,000000	15,500600
1490,000000	15,472200
1489,000000	15,438000
1488,000000	15,409200
1487,000000	15,385200
1486,000000	15,359600
1485,000000	15,335000
1484,000000	15,311600
1483,000000	15,299500
1482,000000	15,287600
1481,000000	15,277800
1480,000000	15,248900
1479,000000	15,226600
1478,000000	15,223600
1477,000000	15,205400
1476,000000	15,191500
1475,000000	15,190200
1474,000000	15,184100
1473,000000	15,179200
1472,000000	15,178900
1471,000000	15,184200
1470,000000	15,192100
1469,000000	15,195900
1468,000000	15,184000
1467,000000	15,186700
1466,000000	15,199700
1465,000000	15,201600
1464,000000	15,213600
1463,000000	15,239200
1462,000000	15,248500
1461,000000	15,266200
1460,000000	15,300400
1459,000000	15,319200
1458,000000	15,339400
1457,000000	15,379500
1456,000000	15,407700
1455,000000	15,449200
1454,000000	15,499200
1453,000000	15,536100
1452,000000	15,570800
1451,000000	15,603500
1450,000000	15,686800
1449,000000	15,736400
1448,000000	15,769700
1447,000000	15,838900
1446,000000	15,901800
1445,000000	15,969300
1444,000000	16,021700
1443,000000	16,075700
1442,000000	16,144100
1441,000000	16,213600
1440,000000	16,283300
1439,000000	16,329900
1438,000000	16,410100
1437,000000	16,492400
1436,000000	16,584000
1435,000000	16,653500
1434,000000	16,739700
1433,000000	16,839200
1432,000000	16,931300
1431,000000	17,022200
1430,000000	17,131400
1429,000000	17,244600
1428,000000	17,355600
1427,000000	17,469600
1426,000000	17,610000
1425,000000	17,729400
1424,000000	17,870700
1423,000000	18,053800
1422,000000	18,193700
1421,000000	18,361700
1420,000000	18,536400
1419,000000	18,732900
1418,000000	18,918100
1417,000000	19,153600
1416,000000	19,313100
1415,000000	19,524000
1414,000000	19,758200
1413,000000	19,992900
1412,000000	20,234600
1411,000000	20,460300
1410,000000	20,722500
1409,000000	21,040700
1408,000000	21,358900
1407,000000	21,691300
1406,000000	22,017500
1405,000000	22,324000
1404,000000	22,738900
1403,000000	23,069400
1402,000000	23,426200
1401,000000	23,725100
1400,000000	24,194200
1399,000000	24,600700
1398,000000	24,960100
1397,000000	25,240500
1396,000000	25,576000
1395,000000	26,024000
1394,000000	26,441400
1393,000000	26,750600
1392,000000	27,087900
1391,000000	27,495400
1390,000000	27,936200
1389,000000	28,279800
1388,000000	28,759300
1387,000000	29,276400
1386,000000	29,765400
1385,000000	30,277500
1384,000000	30,783200
1383,000000	31,353900
1382,000000	31,922300
1381,000000	32,487300
1380,000000	32,960000
1379,000000	33,241000
1378,000000	33,595700
1377,000000	33,869100
1376,000000	34,082300
1375,000000	34,299300
1374,000000	34,545500
1373,000000	34,822100
1372,000000	35,080500
1371,000000	35,388500
1370,000000	35,758400
1369,000000	36,037000
1368,000000	36,326300
1367,000000	36,628900
1366,000000	36,872100
1365,000000	37,090100
1364,000000	37,322800
1363,000000	37,513400
1362,000000	37,696200
1361,000000	37,896100
1360,000000	38,096600
1359,000000	38,181100
1358,000000	38,283100
1357,000000	38,400200
1356,000000	38,553100
1355,000000	38,733300
1354,000000	39,020000
1353,000000	39,351200
1352,000000	39,649000
1351,000000	40,062300
1350,000000	40,474100
1349,000000	40,870100
1348,000000	41,249400
1347,000000	41,604300
1346,000000	41,961600
1345,000000	42,288000
1344,000000	42,631600
1343,000000	42,998800
1342,000000	43,277500
1341,000000	43,606500
1340,000000	43,922600
1339,000000	44,232300
1338,000000	44,524500
1337,000000	44,835600
1336,000000	45,153100
1335,000000	45,433800
1334,000000	45,722200
1333,000000	46,028300
1332,000000	46,317800
1331,000000	46,590400
1330,000000	46,863300
1329,000000	47,133100
1328,000000	47,390400
1327,000000	47,641800
1326,000000	47,879200
1325,000000	48,111700
1324,000000	48,342000
1323,000000	48,569500
1322,000000	48,776300
1321,000000	48,988300
1320,000000	49,179500
1319,000000	49,399300
1318,000000	49,556700
1317,000000	49,747000
1316,000000	49,913500
1315,000000	50,077000
1314,000000	50,253800
1313,000000	50,425100
1312,000000	50,569600
1311,000000	50,714400
1310,000000	50,843800
1309,000000	50,966700
1308,000000	51,091500
1307,000000	51,209600
1306,000000	51,324000
1305,000000	51,423200
1304,000000	51,494200
1303,000000	51,577700
1302,000000	51,640300
1301,000000	51,719600
1300,000000	51,784800
1299,000000	51,820000
1298,000000	51,881500
1297,000000	51,942700
1296,000000	51,974100
1295,000000	51,995300
1294,000000	52,035300
1293,000000	52,069100
1292,000000	52,082800
1291,000000	52,109100
1290,000000	52,113000
1289,000000	52,118600
1288,000000	52,110100
1287,000000	52,092800
1286,000000	52,076000
1285,000000	52,049700
1284,000000	52,037200
1283,000000	51,992500
1282,000000	51,965600
1281,000000	51,921700
1280,000000	51,875400
1279,000000	51,830000
1278,000000	51,782000
1277,000000	51,744500
1276,000000	51,724000
1275,000000	51,689400
1274,000000	51,657900
1273,000000	51,631400
1272,000000	51,605000
1271,000000	51,573200
1270,000000	51,557800
1269,000000	51,540700
1268,000000	51,522600
1267,000000	51,497500
1266,000000	51,474700
1265,000000	51,439300
1264,000000	51,403700
1263,000000	51,370600
1262,000000	51,329300
1261,000000	51,286200
1260,000000	51,241400
1259,000000	51,207600
1258,000000	51,172000
1257,000000	51,132500
1256,000000	51,071300
1255,000000	51,013000
1254,000000	50,957800
1253,000000	50,890400
1252,000000	50,825600
1251,000000	50,748300
1250,000000	50,660800
1249,000000	50,571700
1248,000000	50,486000
1247,000000	50,392300
1246,000000	50,286700
1245,000000	50,180800
1244,000000	50,080600
1243,000000	49,967500
1242,000000	49,846800
1241,000000	49,722800
1240,000000	49,612200
1239,000000	49,495400
1238,000000	49,368700
1237,000000	49,240300
1236,000000	49,109900
1235,000000	48,996400
1234,000000	48,880000
1233,000000	48,741500
1232,000000	48,604200
1231,000000	48,456100
1230,000000	48,298000
1229,000000	48,144500
1228,000000	47,993700
1227,000000	47,842900
1226,000000	47,679300
1225,000000	47,506000
1224,000000	47,342900
1223,000000	47,184800
1222,000000	47,013200
1221,000000	46,826900
1220,000000	46,651600
1219,000000	46,479900
1218,000000	46,310500
1217,000000	46,145100
1216,000000	45,980700
1215,000000	45,814700
1214,000000	45,663600
1213,000000	45,517900
1212,000000	45,376200
1211,000000	45,248300
1210,000000	45,098500
1209,000000	44,943500
1208,000000	44,814200
1207,000000	44,694900
1206,000000	44,570300
1205,000000	44,457500
1204,000000	44,372200
1203,000000	44,293400
1202,000000	44,219600
1201,000000	44,149000
1200,000000	44,082500
1199,000000	44,026600
1198,000000	43,943100
1197,000000	43,834800
1196,000000	43,721100
1195,000000	43,574300
1194,000000	43,389900
1193,000000	43,170000
1192,000000	42,920300
1191,000000	42,636000
1190,000000	42,316500
1189,000000	41,993000
1188,000000	41,688300
1187,000000	41,448100
1186,000000	41,276600
1185,000000	41,194500
1184,000000	41,202900
1183,000000	41,307600
1182,000000	41,523700
1181,000000	41,816800
1180,000000	42,176800
1179,000000	42,574100
1178,000000	42,957300
1177,000000	43,334600
1176,000000	43,678000
1175,000000	43,982600
1174,000000	44,264400
1173,000000	44,544000
1172,000000	44,798300
1171,000000	45,062800
1170,000000	45,336400
1169,000000	45,621000
1168,000000	45,895900
1167,000000	46,199200
1166,000000	46,494300
1165,000000	46,806800
1164,000000	47,139300
1163,000000	47,464400
1162,000000	47,811400
1161,000000	48,145800
1160,000000	48,468500
1159,000000	48,838800
1158,000000	49,163100
1157,000000	49,477900
1156,000000	49,782100
1155,000000	50,088200
1154,000000	50,363400
1153,000000	50,607100
1152,000000	50,801500
1151,000000	50,973800
1150,000000	51,124000
1149,000000	51,275800
1148,000000	51,422400
1147,000000	51,553500
1146,000000	51,724600
1145,000000	51,926600
1144,000000	52,160400
1143,000000	52,431400
1142,000000	52,761200
1141,000000	53,117300
1140,000000	53,486700
1139,000000	53,882900
1138,000000	54,272700
1137,000000	54,706300
1136,000000	55,149100
1135,000000	55,606700
1134,000000	56,100400
1133,000000	56,572000
1132,000000	56,964500
1131,000000	57,321900
1130,000000	57,675700
1129,000000	57,982600
1128,000000	58,250100
1127,000000	58,491500
1126,000000	58,682300
1125,000000	58,841800
1124,000000	58,954800
1123,000000	59,064700
1122,000000	59,163600
1121,000000	59,233800
1120,000000	59,285000
1119,000000	59,330600
1118,000000	59,348100
1117,000000	59,385200
1116,000000	59,399300
1115,000000	59,400000
1114,000000	59,391000
1113,000000	59,378900
1112,000000	59,367600
1111,000000	59,369500
1110,000000	59,366400
1109,000000	59,342000
1108,000000	59,344300
1107,000000	59,319400
1106,000000	59,293800
1105,000000	59,282600
1104,000000	59,272500
1103,000000	59,265400
1102,000000	59,233100
1101,000000	59,218900
1100,000000	59,200000
1099,000000	59,158500
1098,000000	59,135700
1097,000000	59,135300
1096,000000	59,120900
1095,000000	59,063600
1094,000000	59,030100
1093,000000	58,988400
1092,000000	58,960300
1091,000000	58,903300
1090,000000	58,862500
1089,000000	58,804300
1088,000000	58,765400
1087,000000	58,707600
1086,000000	58,645100
1085,000000	58,610000
1084,000000	58,533400
1083,000000	58,478000
1082,000000	58,426900
1081,000000	58,361100
1080,000000	58,276500
1079,000000	58,221000
1078,000000	58,159100
1077,000000	58,081700
1076,000000	58,027000
1075,000000	57,962300
1074,000000	57,885600
1073,000000	57,812500
1072,000000	57,745700
1071,000000	57,654600
1070,000000	57,561400
1069,000000	57,503900
1068,000000	57,425500
1067,000000	57,349700
1066,000000	57,280500
1065,000000	57,199000
1064,000000	57,097600
1063,000000	57,010300
1062,000000	56,932600
1061,000000	56,861000
1060,000000	56,781400
1059,000000	56,684500
1058,000000	56,591200
1057,000000	56,509800
1056,000000	56,420000
1055,000000	56,326000
1054,000000	56,229400
1053,000000	56,158400
1052,000000	56,078600
1051,000000	55,978700
1050,000000	55,894600
1049,000000	55,807700
1048,000000	55,727600
1047,000000	55,643600
1046,000000	55,573600
1045,000000	55,483100
1044,000000	55,395200
1043,000000	55,325300
1042,000000	55,232500
1041,000000	55,162500
1040,000000	55,058800
1039,000000	54,999000
1038,000000	54,903100
1037,000000	54,811400
1036,000000	54,753000
1035,000000	54,659900
1034,000000	54,541200
1033,000000	54,467300
1032,000000	54,353400
1031,000000	54,257600
1030,000000	54,180800
1029,000000	54,073800
1028,000000	53,984000
1027,000000	53,874800
1026,000000	53,766500
1025,000000	53,662200
1024,000000	53,546500
1023,000000	53,467200
1022,000000	53,350400
1021,000000	53,230700
1020,000000	53,137300
1019,000000	53,038400
1018,000000	52,931800
1017,000000	52,840700
1016,000000	52,735700
1015,000000	52,657300
1014,000000	52,567400
1013,000000	52,479400
1012,000000	52,391800
1011,000000	52,322200
1010,000000	52,254900
1009,000000	52,201700
1008,000000	52,154100
1007,000000	52,080500
1006,000000	52,023700
1005,000000	51,981300
1004,000000	51,920200
1003,000000	51,867700
1002,000000	51,800800
1001,000000	51,748100
1000,000000	51,709600
999,000000	51,653600
998,000000	51,590400
997,000000	51,531200
996,000000	51,475400
995,000000	51,424100
994,000000	51,377200
993,000000	51,329000
992,000000	51,282900
991,000000	51,217400
990,000000	51,178100
989,000000	51,134100
988,000000	51,107200
987,000000	51,056100
986,000000	50,989900
985,000000	50,956100
984,000000	50,929900
983,000000	50,891400
982,000000	50,834400
981,000000	50,802300
980,000000	50,777500
979,000000	50,738900
978,000000	50,691100
977,000000	50,649500
976,000000	50,637500
975,000000	50,595800
974,000000	50,545300
973,000000	50,521100
972,000000	50,497800
971,000000	50,483300
970,000000	50,445300
969,000000	50,401200
968,000000	50,375100
967,000000	50,338400
966,000000	50,311800
965,000000	50,293400
964,000000	50,266100
963,000000	50,253700
962,000000	50,228300
961,000000	50,214400
960,000000	50,195700
959,000000	50,162700
958,000000	50,149700
957,000000	50,145800
956,000000	50,113600
955,000000	50,088000
954,000000	50,067300
953,000000	50,050200
952,000000	50,031200
951,000000	50,000900
950,000000	49,994000
949,000000	49,977800
948,000000	49,942400
947,000000	49,918200
946,000000	49,893900
945,000000	49,851600
944,000000	49,807700
943,000000	49,780700
942,000000	49,745300
941,000000	49,685400
940,000000	49,616200
939,000000	49,566600
938,000000	49,522300
937,000000	49,464700
936,000000	49,404400
935,000000	49,340200
934,000000	49,288600
933,000000	49,234900
932,000000	49,178100
931,000000	49,115100
930,000000	49,056400
929,000000	49,013900
928,000000	48,945200
927,000000	48,854500
926,000000	48,799000
925,000000	48,739400
924,000000	48,662900
923,000000	48,583500
922,000000	48,505200
921,000000	48,428600
920,000000	48,339300
919,000000	48,267200
918,000000	48,224300
917,000000	48,138600
916,000000	48,040600
915,000000	47,971500
914,000000	47,883200
913,000000	47,783500
912,000000	47,687900
911,000000	47,605700
910,000000	47,523600
909,000000	47,446000
908,000000	47,365600
907,000000	47,298600
906,000000	47,216300
905,000000	47,167300
904,000000	47,120900
903,000000	47,060300
902,000000	47,003700
901,000000	46,959700
900,000000	46,921700
899,000000	46,891400
898,000000	46,850800
897,000000	46,811000
896,000000	46,750200
895,000000	46,694500
894,000000	46,669600
893,000000	46,614700
892,000000	46,539500
891,000000	46,477600
890,000000	46,416500
889,000000	46,342900
888,000000	46,279800
887,000000	46,200000
886,000000	46,102200
885,000000	46,016000
884,000000	45,905200
883,000000	45,823500
882,000000	45,730500
881,000000	45,632900
880,000000	45,511800
879,000000	45,406200
878,000000	45,285400
877,000000	45,153900
876,000000	44,962800
875,000000	44,776500
874,000000	44,564000
873,000000	44,365500
872,000000	44,149200
871,000000	43,950200
870,000000	43,877200
869,000000	43,873400
868,000000	43,893000
867,000000	43,923000
866,000000	43,908800
865,000000	43,910100
864,000000	43,905000
863,000000	43,900900
862,000000	43,900100
861,000000	43,904000
860,000000	43,897500
859,000000	43,913600
858,000000	43,895000
857,000000	48,216900
856,000000	49,304200
855,000000	49,305000
854,000000	49,403500
853,000000	49,373200
852,000000	49,350600
851,000000	49,358000
850,000000	49,403700
849,000000	49,083400
848,000000	49,471900
847,000000	49,375100
846,000000	49,239300
845,000000	49,630700
844,000000	49,265600
843,000000	49,155900
842,000000	49,656100
841,000000	49,503000
840,000000	49,665300
839,000000	49,346500
838,000000	49,442600
837,000000	49,336700
836,000000	49,539500
835,000000	49,373000
834,000000	49,423800
833,000000	49,576800
832,000000	49,272100
831,000000	49,348400
830,000000	49,343500
829,000000	49,298600
828,000000	49,271700
827,000000	49,253200
826,000000	49,317500
825,000000	49,273000
824,000000	49,318400
823,000000	49,175600
822,000000	49,216300
821,000000	49,181600
820,000000	49,090500
819,000000	49,145800
818,000000	49,166500
817,000000	49,099300
816,000000	49,081000
815,000000	48,927300
814,000000	48,928600
813,000000	48,772900
812,000000	48,853900
811,000000	48,817300
810,000000	48,837000
809,000000	48,728000
808,000000	48,635500
807,000000	48,722600
806,000000	48,570800
805,000000	48,689000
804,000000	48,477500
803,000000	48,476000
802,000000	48,443600
801,000000	48,420800
800,000000	48,604700
799,000000	48,451800
798,000000	48,327300
797,000000	48,246800
796,000000	48,185000
795,000000	48,096000
794,000000	48,080700
793,000000	48,031600
792,000000	47,968200
791,000000	48,021500
790,000000	47,973700
789,000000	47,810800
788,000000	47,897100
787,000000	47,776700
786,000000	47,713700
785,000000	47,763900
784,000000	47,677700
783,000000	47,590500
782,000000	47,532500
781,000000	47,439300
780,000000	47,305200
779,000000	47,326800
778,000000	47,321700
777,000000	47,297500
776,000000	47,226800
775,000000	47,048800
774,000000	47,037400
773,000000	46,926900
772,000000	46,908900
771,000000	46,834500
770,000000	46,783600
769,000000	46,766100
768,000000	46,752800
767,000000	46,643100
766,000000	46,642400
765,000000	46,499500
764,000000	46,423200
763,000000	46,429600
762,000000	46,309900
761,000000	46,258900
760,000000	46,093600
759,000000	46,058600
758,000000	46,032900
757,000000	45,918700
756,000000	45,821700
755,000000	45,770900
754,000000	45,606100
753,000000	45,618200
752,000000	45,617700
751,000000	45,490000
750,000000	45,324100
749,000000	45,247000
748,000000	45,226000
747,000000	45,108900
746,000000	45,049900
745,000000	45,011900
744,000000	44,881900
743,000000	44,771000
742,000000	44,683000
741,000000	44,473400
740,000000	44,460200
739,000000	44,287600
738,000000	44,285200
737,000000	44,161000
736,000000	44,046500
735,000000	44,025100
734,000000	43,856500
733,000000	43,796600
732,000000	43,706800
731,000000	43,550300
730,000000	43,494000
729,000000	43,358700
728,000000	43,256200
727,000000	43,099300
726,000000	42,998000
725,000000	42,912200
724,000000	42,799200
723,000000	42,612400
722,000000	42,475600
721,000000	42,415400
720,000000	42,302500
719,000000	42,099100
718,000000	41,992100
717,000000	41,942700
716,000000	41,808600
715,000000	41,677700
714,000000	41,545000
713,000000	41,430100
712,000000	41,295400
711,000000	41,161500
710,000000	41,026400
709,000000	40,896500
708,000000	40,729200
707,000000	40,630000
706,000000	40,520000
705,000000	40,343400
704,000000	40,180500
703,000000	40,012200
702,000000	39,933900
701,000000	39,778900
700,000000	39,583300
699,000000	39,414100
698,000000	39,275000
697,000000	39,140700
696,000000	38,927900
695,000000	38,770800
694,000000	38,670000
693,000000	38,472300
692,000000	38,319900
691,000000	38,099800
690,000000	37,943300
689,000000	37,761300
688,000000	37,557800
687,000000	37,369400
686,000000	37,209400
685,000000	37,022400
684,000000	36,821100
683,000000	36,639400
682,000000	36,436000
681,000000	36,249500
680,000000	36,080100
679,000000	35,868500
678,000000	35,691200
677,000000	35,515600
676,000000	35,316300
675,000000	35,154600
674,000000	34,952900
673,000000	34,754000
672,000000	34,562200
671,000000	34,352000
670,000000	34,118800
669,000000	33,910100
668,000000	33,724600
667,000000	33,519800
666,000000	33,338600
665,000000	33,169700
664,000000	32,977200
663,000000	32,794900
662,000000	32,633400
661,000000	32,453100
660,000000	32,285600
659,000000	32,122900
658,000000	31,946500
657,000000	31,747700
656,000000	31,570200
655,000000	31,437300
654,000000	31,276100
653,000000	31,072300
652,000000	30,918400
651,000000	30,793400
650,000000	30,634800
649,000000	30,491700
648,000000	30,357600
647,000000	30,212100
646,000000	30,072800
645,000000	29,924300
644,000000	29,780000
643,000000	29,655400
642,000000	29,536500
641,000000	29,406800
640,000000	29,293200
639,000000	29,187500
638,000000	29,082800
637,000000	28,986800
636,000000	28,884600
635,000000	28,777900
634,000000	28,668700
633,000000	28,565800
632,000000	28,474200
631,000000	28,375800
630,000000	28,280400
629,000000	28,198600
628,000000	28,109700
627,000000	28,054700
626,000000	27,966500
625,000000	27,878100
624,000000	27,834400
623,000000	27,768900
622,000000	27,695900
621,000000	27,649500
620,000000	27,609400
619,000000	27,553800
618,000000	27,494500
617,000000	27,469500
616,000000	27,447800
615,000000	27,423800
614,000000	27,399800
613,000000	27,395700
612,000000	27,392300
611,000000	27,386200
610,000000	27,396100
609,000000	27,407800
608,000000	27,423000
607,000000	27,450500
606,000000	27,485500
605,000000	27,519000
604,000000	27,556700
603,000000	27,617100
602,000000	27,659400
601,000000	27,726400
600,000000	27,774900
599,000000	27,862400
598,000000	27,942700
597,000000	28,001700
596,000000	28,091500
595,000000	28,181900
594,000000	28,252200
593,000000	28,343900
592,000000	28,431800
591,000000	28,525600
590,000000	28,626900
589,000000	28,705200
588,000000	28,794300
587,000000	28,880100
586,000000	28,982200
585,000000	29,061600
584,000000	29,137000
583,000000	29,232900
582,000000	29,318500
581,000000	29,375800
580,000000	29,422000
579,000000	29,495500
578,000000	29,553700
577,000000	29,602100
576,000000	29,651700
575,000000	29,691700
574,000000	29,727400
573,000000	29,781700
572,000000	29,803600
571,000000	29,819100
570,000000	29,835200
569,000000	29,840000
568,000000	29,830400
567,000000	29,829400
566,000000	29,831300
565,000000	29,828100
564,000000	29,796800
563,000000	29,769000
562,000000	29,715900
561,000000	29,669100
560,000000	29,614400
559,000000	29,572800
558,000000	29,512700
557,000000	29,436600
556,000000	29,356100
555,000000	29,280300
554,000000	29,164100
553,000000	29,052600
552,000000	28,941300
551,000000	28,829600
550,000000	28,711400
549,000000	28,566300
548,000000	28,414600
547,000000	28,264100
546,000000	28,119000
545,000000	27,947900
544,000000	27,769400
543,000000	27,579300
542,000000	27,372600
541,000000	27,168100
540,000000	26,958600
539,000000	26,748000
538,000000	26,522900
537,000000	26,271500
536,000000	26,044300
535,000000	25,801500
534,000000	25,537900
533,000000	25,253500
532,000000	24,974900
531,000000	24,699800
530,000000	24,423500
529,000000	24,146100
528,000000	23,838700
527,000000	23,525700
526,000000	23,206100
525,000000	22,882100
524,000000	22,551700
523,000000	22,231600
522,000000	21,881900
521,000000	21,563000
520,000000	21,223000
519,000000	20,905000
518,000000	20,557800
517,000000	20,226400
516,000000	19,902900
515,000000	19,578200
514,000000	19,266500
513,000000	18,933000
512,000000	18,614700
511,000000	18,325600
510,000000	18,011500
509,000000	17,707200
508,000000	17,435100
507,000000	17,159100
506,000000	16,874300
505,000000	16,625800
504,000000	16,401700
503,000000	16,131000
502,000000	15,891000
501,000000	15,671000
500,000000	15,456600
499,000000	15,239300
498,000000	15,023900
497,000000	14,833400
496,000000	14,649700
495,000000	14,480000
494,000000	14,293900
493,000000	14,143600
492,000000	13,990300
491,000000	13,854600
490,000000	13,692000
489,000000	13,552200
488,000000	13,431500
487,000000	13,306000
486,000000	13,186800
485,000000	13,070900
484,000000	12,953100
483,000000	12,852500
482,000000	12,734800
481,000000	12,599500
480,000000	12,484600
479,000000	12,353400
478,000000	12,262200
477,000000	12,136900
476,000000	12,027800
475,000000	11,933800
474,000000	11,832100
473,000000	11,735300
472,000000	11,634100
471,000000	11,543700
470,000000	11,450600
469,000000	11,372400
468,000000	11,300000
467,000000	11,200800
466,000000	11,137800
465,000000	11,073600
464,000000	11,012300
463,000000	10,934300
462,000000	10,879400
461,000000	10,816300
460,000000	10,779000
459,000000	10,704700
458,000000	10,643400
457,000000	10,587900
456,000000	10,536100
455,000000	10,484600
454,000000	10,445000
453,000000	10,392700
452,000000	10,346900
451,000000	10,297000
450,000000	10,235200
449,000000	10,177500
448,000000	10,139600
447,000000	10,094500
446,000000	10,043400
445,000000	10,009800
444,000000	9,961600
443,000000	9,900200
442,000000	9,832600
441,000000	9,786900
440,000000	9,741900
439,000000	9,682500
438,000000	9,613900
437,000000	9,562200
436,000000	9,503500
435,000000	9,444700
434,000000	9,381900
433,000000	9,318800
432,000000	9,261500
431,000000	9,209500
430,000000	9,131000
429,000000	9,072900
428,000000	9,016800
427,000000	8,948600
426,000000	8,890700
425,000000	8,816900
424,000000	8,735100
423,000000	8,681200
422,000000	8,612600
421,000000	8,549700
420,000000	8,491000
419,000000	8,402100
418,000000	8,348000
417,000000	8,284900
416,000000	8,202800
415,000000	8,130600
414,000000	8,057500
413,000000	7,982600
412,000000	7,893700
411,000000	7,813300
410,000000	7,732500
409,000000	7,672500
408,000000	7,582500
407,000000	7,495400
406,000000	7,414500
405,000000	7,367000
404,000000	7,264400
403,000000	7,196100
402,000000	7,105500
401,000000	7,010500
400,000000	6,948400
399,000000	6,885800
398,000000	6,791700
397,000000	6,724700
396,000000	6,645900
395,000000	6,552700
394,000000	6,494800
393,000000	6,416700
392,000000	6,332200
391,000000	6,248100
390,000000	6,182500
389,000000	6,101500
388,000000	6,039200
387,000000	5,972000
386,000000	5,909000
385,000000	5,836700
384,000000	5,774300
383,000000	5,704900
382,000000	5,644300
381,000000	5,595400
380,000000	5,529400
379,000000	5,485000
378,000000	5,429500
377,000000	5,386000
376,000000	5,292500
375,000000	5,100500
374,000000	4,956100
373,000000	4,835000
372,000000	4,677300
371,000000	4,693600
370,000000	4,740100
369,000000	4,776200
368,000000	4,725900
367,000000	4,740600
366,000000	4,768200
365,000000	4,786600
364,000000	4,801800
363,000000	4,792800
362,000000	4,823800
361,000000	4,792700
360,000000	4,756400
359,000000	4,744100
358,000000	4,599700
357,000000	4,591200
356,000000	4,657800
355,000000	4,670100
354,000000	4,715400
353,000000	4,756400
352,000000	4,815900
351,000000	4,764900
350,000000	4,692600
349,000000	4,705300
348,000000	4,655000
347,000000	4,430400
346,000000	4,491200
345,000000	4,581400
344,000000	4,624300
343,000000	4,710200
342,000000	4,665500
341,000000	4,568900
340,000000	4,511600
339,000000	4,542500
338,000000	4,641700
337,000000	4,595400
336,000000	4,790200
335,000000	4,789600
334,000000	4,504900
333,000000	4,542700
332,000000	4,540600
331,000000	4,767600
330,000000	5,128800
329,000000	5,102400
328,000000	5,246900
327,000000	4,896900
326,000000	4,764400
325,000000	5,074200
324,000000	5,106900
323,000000	5,335900
322,000000	4,801800
321,000000	4,684700
320,000000	4,982300
319,000000	5,054400
318,000000	5,258600
317,000000	5,303700
316,000000	4,823000
315,000000	4,483900
314,000000	4,476800
313,000000	4,477000
312,000000	4,486200
311,000000	4,466000
310,000000	4,485600
309,000000	4,476000
308,000000	4,488500
307,000000	4,523300
306,000000	4,511300
305,000000	4,481600
304,000000	4,482700
303,000000	4,489000
302,000000	4,475200
301,000000	4,509900
300,000000	4,519300
299,000000	4,518800
298,000000	4,511800
297,000000	4,497400
296,000000	4,503900
295,000000	4,510900
294,000000	4,523400
293,000000	4,512500
292,000000	4,497200
291,000000	4,535100
290,000000	4,521600
289,000000	4,502700
288,000000	4,492200
287,000000	4,488800
286,000000	4,528800
285,000000	4,519700
284,000000	4,531200
283,000000	4,552600
282,000000	4,546300
281,000000	4,495700
280,000000	4,492200
279,000000	4,516700
278,000000	4,559600
277,000000	4,562300
276,000000	4,548700
275,000000	4,564600
274,000000	4,594900
273,000000	4,617900
272,000000	4,604800
271,000000	4,625700
270,000000	4,622900
269,000000	4,685900
268,000000	4,713400
267,000000	4,669900
266,000000	4,660600
265,000000	4,682700
264,000000	4,704400
263,000000	4,732600
262,000000	4,792400
261,000000	4,791800
260,000000	4,800100
259,000000	4,799500
258,000000	4,781600
257,000000	4,867000
256,000000	4,900800
255,000000	4,867000
254,000000	4,857400
253,000000	4,850300
252,000000	4,877800
251,000000	4,882300
250,000000	4,859900
