PE UV       SUBTECH     SPECTRUM    ASCII       PEDS        4.00        
   -1
CICIMAUCR0225-1.ASC
24/05/30
14:22:50.00
24/05/30
14:22:50.00
Vinicio Soto Monge
C. resplendens, F Ventral
250,000000
1
Lambda 1050
1050L1511233
PerkinElmer UV WinLab 6.3.2.0749 / 2.02.05 Lambda 900 UV/VIS/NIR, Aug  7 2015 09:38:08

0
0
3350/servo 860,8/2
0
0
UV/VIS
1
1
1
DoubleDePol,CommonBeamDepol,RBeamAtt,SBeamAtt,60mm sphere, WB InGaAs Detector
0
0
0
0
Program
Program
3350/servo 860,8/2
3350/0,2 860,8/0,2
3350/0,2 860,8/0,2
0
15.00
 
 
 
0
 
860,8
319,2
860,8
Front
100
on
S:100 R:100
0
0
0
0
 
0
 
 
 
0
 
 
0
0
0
0
0
 
 
 
 
0
0


0
0
#HDR
-1
-1
#GR
nm
%R
1.0
0.0
2500,000000
-1,000000
2251
8
50,965100
3,714600
#DATA
2500,000000	4,567000
2499,000000	4,539500
2498,000000	4,469000
2497,000000	4,455800
2496,000000	4,366700
2495,000000	4,556300
2494,000000	4,451100
2493,000000	4,380700
2492,000000	4,519100
2491,000000	4,490300
2490,000000	4,409700
2489,000000	4,496600
2488,000000	4,460700
2487,000000	4,364000
2486,000000	4,423100
2485,000000	4,399900
2484,000000	4,332500
2483,000000	4,454100
2482,000000	4,433800
2481,000000	4,320400
2480,000000	4,341100
2479,000000	4,355300
2478,000000	4,315500
2477,000000	4,424900
2476,000000	4,308500
2475,000000	4,331500
2474,000000	4,305600
2473,000000	4,333600
2472,000000	4,283700
2471,000000	4,294300
2470,000000	4,285800
2469,000000	4,258100
2468,000000	4,274800
2467,000000	4,250300
2466,000000	4,255500
2465,000000	4,276100
2464,000000	4,266800
2463,000000	4,255600
2462,000000	4,270000
2461,000000	4,274100
2460,000000	4,281300
2459,000000	4,261300
2458,000000	4,284700
2457,000000	4,249700
2456,000000	4,290300
2455,000000	4,302800
2454,000000	4,294100
2453,000000	4,310900
2452,000000	4,326400
2451,000000	4,330700
2450,000000	4,314600
2449,000000	4,300700
2448,000000	4,322700
2447,000000	4,343800
2446,000000	4,362700
2445,000000	4,364500
2444,000000	4,396900
2443,000000	4,398900
2442,000000	4,396700
2441,000000	4,418300
2440,000000	4,412800
2439,000000	4,424000
2438,000000	4,447700
2437,000000	4,451000
2436,000000	4,464500
2435,000000	4,463000
2434,000000	4,445900
2433,000000	4,476400
2432,000000	4,495300
2431,000000	4,500400
2430,000000	4,509800
2429,000000	4,516400
2428,000000	4,523000
2427,000000	4,532800
2426,000000	4,548900
2425,000000	4,541900
2424,000000	4,548000
2423,000000	4,573500
2422,000000	4,584900
2421,000000	4,572900
2420,000000	4,565000
2419,000000	4,564200
2418,000000	4,582600
2417,000000	4,583500
2416,000000	4,590600
2415,000000	4,615800
2414,000000	4,623400
2413,000000	4,626200
2412,000000	4,616300
2411,000000	4,601700
2410,000000	4,599000
2409,000000	4,615000
2408,000000	4,630800
2407,000000	4,632400
2406,000000	4,649800
2405,000000	4,664200
2404,000000	4,658200
2403,000000	4,652000
2402,000000	4,645100
2401,000000	4,647300
2400,000000	4,671100
2399,000000	4,675700
2398,000000	4,684800
2397,000000	4,703400
2396,000000	4,716700
2395,000000	4,720200
2394,000000	4,728000
2393,000000	4,744500
2392,000000	4,739000
2391,000000	4,732400
2390,000000	4,732500
2389,000000	4,754900
2388,000000	4,757900
2387,000000	4,750400
2386,000000	4,756400
2385,000000	4,762700
2384,000000	4,763000
2383,000000	4,763600
2382,000000	4,775100
2381,000000	4,777500
2380,000000	4,769100
2379,000000	4,770100
2378,000000	4,773800
2377,000000	4,776400
2376,000000	4,760600
2375,000000	4,749200
2374,000000	4,741100
2373,000000	4,756900
2372,000000	4,760100
2371,000000	4,749900
2370,000000	4,744700
2369,000000	4,737000
2368,000000	4,738100
2367,000000	4,731400
2366,000000	4,726000
2365,000000	4,719200
2364,000000	4,707400
2363,000000	4,707800
2362,000000	4,699900
2361,000000	4,689400
2360,000000	4,686000
2359,000000	4,663300
2358,000000	4,655500
2357,000000	4,644900
2356,000000	4,632400
2355,000000	4,633100
2354,000000	4,625700
2353,000000	4,619600
2352,000000	4,610000
2351,000000	4,605900
2350,000000	4,608800
2349,000000	4,612100
2348,000000	4,603700
2347,000000	4,610000
2346,000000	4,619500
2345,000000	4,613600
2344,000000	4,620400
2343,000000	4,631100
2342,000000	4,643200
2341,000000	4,642200
2340,000000	4,654300
2339,000000	4,653300
2338,000000	4,656100
2337,000000	4,671700
2336,000000	4,680300
2335,000000	4,689900
2334,000000	4,683600
2333,000000	4,666600
2332,000000	4,665500
2331,000000	4,686900
2330,000000	4,694000
2329,000000	4,674200
2328,000000	4,659600
2327,000000	4,654400
2326,000000	4,653800
2325,000000	4,634800
2324,000000	4,622300
2323,000000	4,616500
2322,000000	4,601300
2321,000000	4,582000
2320,000000	4,573100
2319,000000	4,563200
2318,000000	4,539600
2317,000000	4,523300
2316,000000	4,491900
2315,000000	4,453200
2314,000000	4,434500
2313,000000	4,426900
2312,000000	4,405400
2311,000000	4,369300
2310,000000	4,358400
2309,000000	4,358400
2308,000000	4,332600
2307,000000	4,312900
2306,000000	4,310200
2305,000000	4,316900
2304,000000	4,295400
2303,000000	4,297500
2302,000000	4,311600
2301,000000	4,320200
2300,000000	4,325800
2299,000000	4,348000
2298,000000	4,356600
2297,000000	4,364000
2296,000000	4,383100
2295,000000	4,390000
2294,000000	4,400900
2293,000000	4,412100
2292,000000	4,429000
2291,000000	4,452100
2290,000000	4,467800
2289,000000	4,450000
2288,000000	4,450700
2287,000000	4,455400
2286,000000	4,452800
2285,000000	4,458500
2284,000000	4,471800
2283,000000	4,466400
2282,000000	4,460200
2281,000000	4,463200
2280,000000	4,453800
2279,000000	4,457900
2278,000000	4,448900
2277,000000	4,455100
2276,000000	4,440100
2275,000000	4,448600
2274,000000	4,452500
2273,000000	4,441900
2272,000000	4,459800
2271,000000	4,460100
2270,000000	4,448900
2269,000000	4,454600
2268,000000	4,481200
2267,000000	4,491800
2266,000000	4,503300
2265,000000	4,533800
2264,000000	4,540000
2263,000000	4,575500
2262,000000	4,623200
2261,000000	4,630600
2260,000000	4,682100
2259,000000	4,724500
2258,000000	4,762800
2257,000000	4,790900
2256,000000	4,848900
2255,000000	4,914500
2254,000000	4,971400
2253,000000	5,021500
2252,000000	5,070500
2251,000000	5,102100
2250,000000	5,160100
2249,000000	5,203000
2248,000000	5,249900
2247,000000	5,307900
2246,000000	5,354600
2245,000000	5,390400
2244,000000	5,422900
2243,000000	5,477700
2242,000000	5,509000
2241,000000	5,535500
2240,000000	5,552300
2239,000000	5,597900
2238,000000	5,631200
2237,000000	5,662200
2236,000000	5,673900
2235,000000	5,701500
2234,000000	5,731100
2233,000000	5,730200
2232,000000	5,730700
2231,000000	5,764200
2230,000000	5,795800
2229,000000	5,802600
2228,000000	5,802800
2227,000000	5,786800
2226,000000	5,810800
2225,000000	5,800300
2224,000000	5,814800
2223,000000	5,803900
2222,000000	5,810100
2221,000000	5,805600
2220,000000	5,801300
2219,000000	5,778200
2218,000000	5,784800
2217,000000	5,790600
2216,000000	5,768100
2215,000000	5,760300
2214,000000	5,760800
2213,000000	5,783500
2212,000000	5,750600
2211,000000	5,730300
2210,000000	5,758300
2209,000000	5,749200
2208,000000	5,737900
2207,000000	5,737400
2206,000000	5,728300
2205,000000	5,718800
2204,000000	5,697300
2203,000000	5,715000
2202,000000	5,725800
2201,000000	5,692600
2200,000000	5,689000
2199,000000	5,683600
2198,000000	5,698200
2197,000000	5,655500
2196,000000	5,691400
2195,000000	5,695700
2194,000000	5,691200
2193,000000	5,667600
2192,000000	5,665000
2191,000000	5,672600
2190,000000	5,666800
2189,000000	5,673100
2188,000000	5,651100
2187,000000	5,639100
2186,000000	5,658500
2185,000000	5,665900
2184,000000	5,645800
2183,000000	5,660600
2182,000000	5,652200
2181,000000	5,637500
2180,000000	5,626900
2179,000000	5,635400
2178,000000	5,637100
2177,000000	5,629800
2176,000000	5,627500
2175,000000	5,631300
2174,000000	5,617900
2173,000000	5,630400
2172,000000	5,631300
2171,000000	5,657800
2170,000000	5,655000
2169,000000	5,648500
2168,000000	5,639100
2167,000000	5,652900
2166,000000	5,646200
2165,000000	5,668100
2164,000000	5,680500
2163,000000	5,692300
2162,000000	5,700800
2161,000000	5,707600
2160,000000	5,702500
2159,000000	5,710800
2158,000000	5,740900
2157,000000	5,749900
2156,000000	5,777900
2155,000000	5,785300
2154,000000	5,782100
2153,000000	5,795200
2152,000000	5,831700
2151,000000	5,823500
2150,000000	5,830600
2149,000000	5,857000
2148,000000	5,861600
2147,000000	5,882400
2146,000000	5,891100
2145,000000	5,904600
2144,000000	5,924200
2143,000000	5,935600
2142,000000	5,934300
2141,000000	5,944400
2140,000000	5,963400
2139,000000	5,961100
2138,000000	5,972000
2137,000000	5,980600
2136,000000	5,981900
2135,000000	5,996300
2134,000000	5,993300
2133,000000	6,005900
2132,000000	6,014700
2131,000000	6,009400
2130,000000	6,009400
2129,000000	6,015200
2128,000000	6,026600
2127,000000	6,021500
2126,000000	6,015700
2125,000000	6,014700
2124,000000	6,005000
2123,000000	6,007300
2122,000000	5,996200
2121,000000	5,979600
2120,000000	5,998000
2119,000000	5,996900
2118,000000	5,980300
2117,000000	5,969100
2116,000000	5,951500
2115,000000	5,944600
2114,000000	5,949700
2113,000000	5,936700
2112,000000	5,929200
2111,000000	5,923300
2110,000000	5,903600
2109,000000	5,902000
2108,000000	5,892800
2107,000000	5,885200
2106,000000	5,880300
2105,000000	5,879500
2104,000000	5,863600
2103,000000	5,843900
2102,000000	5,841500
2101,000000	5,843300
2100,000000	5,828800
2099,000000	5,810400
2098,000000	5,800300
2097,000000	5,789600
2096,000000	5,796200
2095,000000	5,797100
2094,000000	5,785100
2093,000000	5,785800
2092,000000	5,778300
2091,000000	5,774000
2090,000000	5,757300
2089,000000	5,749200
2088,000000	5,763700
2087,000000	5,752900
2086,000000	5,756200
2085,000000	5,754300
2084,000000	5,725700
2083,000000	5,714600
2082,000000	5,719400
2081,000000	5,716200
2080,000000	5,711600
2079,000000	5,699800
2078,000000	5,674900
2077,000000	5,680900
2076,000000	5,669900
2075,000000	5,655200
2074,000000	5,659100
2073,000000	5,650000
2072,000000	5,634600
2071,000000	5,607100
2070,000000	5,583300
2069,000000	5,586600
2068,000000	5,579300
2067,000000	5,549300
2066,000000	5,534800
2065,000000	5,533600
2064,000000	5,503300
2063,000000	5,501900
2062,000000	5,500200
2061,000000	5,475300
2060,000000	5,449500
2059,000000	5,436100
2058,000000	5,438800
2057,000000	5,433100
2056,000000	5,428000
2055,000000	5,422500
2054,000000	5,434800
2053,000000	5,433600
2052,000000	5,435500
2051,000000	5,443300
2050,000000	5,466700
2049,000000	5,484700
2048,000000	5,498000
2047,000000	5,512200
2046,000000	5,538100
2045,000000	5,565900
2044,000000	5,581800
2043,000000	5,601100
2042,000000	5,635600
2041,000000	5,652000
2040,000000	5,671700
2039,000000	5,703200
2038,000000	5,743400
2037,000000	5,763500
2036,000000	5,795200
2035,000000	5,829800
2034,000000	5,850400
2033,000000	5,854300
2032,000000	5,875100
2031,000000	5,890500
2030,000000	5,909800
2029,000000	5,928700
2028,000000	5,946600
2027,000000	5,972500
2026,000000	5,984000
2025,000000	5,981000
2024,000000	5,999100
2023,000000	6,008200
2022,000000	6,012100
2021,000000	6,014300
2020,000000	6,018000
2019,000000	6,046500
2018,000000	6,046100
2017,000000	6,052200
2016,000000	6,053500
2015,000000	6,055500
2014,000000	6,040300
2013,000000	6,055500
2012,000000	6,049700
2011,000000	6,052500
2010,000000	6,055900
2009,000000	6,038900
2008,000000	6,039000
2007,000000	6,030700
2006,000000	6,036300
2005,000000	6,014700
2004,000000	6,005300
2003,000000	5,992900
2002,000000	6,002800
2001,000000	5,965800
2000,000000	5,965400
1999,000000	5,955900
1998,000000	5,940800
1997,000000	5,923800
1996,000000	5,889400
1995,000000	5,873300
1994,000000	5,859500
1993,000000	5,869400
1992,000000	5,835700
1991,000000	5,800000
1990,000000	5,775700
1989,000000	5,747400
1988,000000	5,746400
1987,000000	5,721500
1986,000000	5,700900
1985,000000	5,687200
1984,000000	5,665500
1983,000000	5,641300
1982,000000	5,622700
1981,000000	5,593100
1980,000000	5,574900
1979,000000	5,551700
1978,000000	5,526900
1977,000000	5,510400
1976,000000	5,485900
1975,000000	5,454000
1974,000000	5,441200
1973,000000	5,444100
1972,000000	5,401300
1971,000000	5,391100
1970,000000	5,363800
1969,000000	5,338400
1968,000000	5,325500
1967,000000	5,318100
1966,000000	5,286300
1965,000000	5,262000
1964,000000	5,252400
1963,000000	5,248900
1962,000000	5,238800
1961,000000	5,220300
1960,000000	5,190500
1959,000000	5,200500
1958,000000	5,171500
1957,000000	5,157300
1956,000000	5,139700
1955,000000	5,122100
1954,000000	5,104300
1953,000000	5,085200
1952,000000	5,075000
1951,000000	5,081300
1950,000000	5,078700
1949,000000	5,055800
1948,000000	5,022300
1947,000000	5,015000
1946,000000	5,012900
1945,000000	5,001500
1944,000000	5,004300
1943,000000	5,012200
1942,000000	5,002000
1941,000000	4,995200
1940,000000	4,994900
1939,000000	4,970100
1938,000000	4,996100
1937,000000	5,005400
1936,000000	4,998700
1935,000000	4,979200
1934,000000	5,000800
1933,000000	4,995900
1932,000000	5,019600
1931,000000	5,014000
1930,000000	5,039600
1929,000000	5,041900
1928,000000	5,079500
1927,000000	5,081800
1926,000000	5,097900
1925,000000	5,127000
1924,000000	5,151900
1923,000000	5,161500
1922,000000	5,202200
1921,000000	5,249700
1920,000000	5,272800
1919,000000	5,296300
1918,000000	5,327800
1917,000000	5,359100
1916,000000	5,388700
1915,000000	5,428200
1914,000000	5,489700
1913,000000	5,506700
1912,000000	5,569200
1911,000000	5,628500
1910,000000	5,651700
1909,000000	5,702000
1908,000000	5,777100
1907,000000	5,820400
1906,000000	5,874900
1905,000000	5,967700
1904,000000	6,047300
1903,000000	6,138000
1902,000000	6,207800
1901,000000	6,275700
1900,000000	6,358300
1899,000000	6,461900
1898,000000	6,568900
1897,000000	6,638500
1896,000000	6,739600
1895,000000	6,826400
1894,000000	6,917400
1893,000000	7,035600
1892,000000	7,174100
1891,000000	7,308500
1890,000000	7,439800
1889,000000	7,583600
1888,000000	7,724700
1887,000000	7,882800
1886,000000	8,065200
1885,000000	8,247900
1884,000000	8,459800
1883,000000	8,719200
1882,000000	8,985900
1881,000000	9,253800
1880,000000	9,520300
1879,000000	9,789700
1878,000000	10,051200
1877,000000	10,327100
1876,000000	10,635300
1875,000000	10,916000
1874,000000	11,190800
1873,000000	11,475000
1872,000000	11,742200
1871,000000	11,973400
1870,000000	12,192700
1869,000000	12,375300
1868,000000	12,574800
1867,000000	12,744900
1866,000000	12,862200
1865,000000	12,977500
1864,000000	13,078100
1863,000000	13,169300
1862,000000	13,266000
1861,000000	13,354800
1860,000000	13,448500
1859,000000	13,517700
1858,000000	13,593900
1857,000000	13,639400
1856,000000	13,669700
1855,000000	13,698300
1854,000000	13,718800
1853,000000	13,725100
1852,000000	13,701700
1851,000000	13,691100
1850,000000	13,686800
1849,000000	13,681000
1848,000000	13,687700
1847,000000	13,672800
1846,000000	13,623300
1845,000000	13,576100
1844,000000	13,560200
1843,000000	13,528100
1842,000000	13,518000
1841,000000	13,531700
1840,000000	13,500700
1839,000000	13,476100
1838,000000	13,450900
1837,000000	13,417500
1836,000000	13,389700
1835,000000	13,353500
1834,000000	13,300700
1833,000000	13,255000
1832,000000	13,200400
1831,000000	13,153800
1830,000000	13,124300
1829,000000	13,071800
1828,000000	13,030000
1827,000000	12,965100
1826,000000	12,905100
1825,000000	12,856800
1824,000000	12,811000
1823,000000	12,775000
1822,000000	12,766600
1821,000000	12,769000
1820,000000	12,737400
1819,000000	12,701500
1818,000000	12,667300
1817,000000	12,655500
1816,000000	12,649700
1815,000000	12,640500
1814,000000	12,631700
1813,000000	12,624200
1812,000000	12,620300
1811,000000	12,603800
1810,000000	12,568100
1809,000000	12,540000
1808,000000	12,528400
1807,000000	12,498600
1806,000000	12,459900
1805,000000	12,433500
1804,000000	12,399900
1803,000000	12,365500
1802,000000	12,331800
1801,000000	12,294200
1800,000000	12,253000
1799,000000	12,214600
1798,000000	12,184300
1797,000000	12,150200
1796,000000	12,113900
1795,000000	12,075600
1794,000000	12,039700
1793,000000	12,013700
1792,000000	11,980000
1791,000000	11,946300
1790,000000	11,903400
1789,000000	11,859100
1788,000000	11,825300
1787,000000	11,790600
1786,000000	11,746900
1785,000000	11,685300
1784,000000	11,636500
1783,000000	11,596100
1782,000000	11,544400
1781,000000	11,491900
1780,000000	11,447200
1779,000000	11,386800
1778,000000	11,331500
1777,000000	11,275700
1776,000000	11,210700
1775,000000	11,146200
1774,000000	11,076700
1773,000000	10,994900
1772,000000	10,919000
1771,000000	10,846700
1770,000000	10,760800
1769,000000	10,683800
1768,000000	10,612900
1767,000000	10,529600
1766,000000	10,469700
1765,000000	10,431500
1764,000000	10,386200
1763,000000	10,345900
1762,000000	10,331800
1761,000000	10,340800
1760,000000	10,366500
1759,000000	10,414600
1758,000000	10,450200
1757,000000	10,477800
1756,000000	10,509100
1755,000000	10,542200
1754,000000	10,565300
1753,000000	10,593100
1752,000000	10,618100
1751,000000	10,607800
1750,000000	10,595100
1749,000000	10,578300
1748,000000	10,536600
1747,000000	10,504200
1746,000000	10,465200
1745,000000	10,398000
1744,000000	10,329100
1743,000000	10,237100
1742,000000	10,147300
1741,000000	10,029800
1740,000000	9,908100
1739,000000	9,766100
1738,000000	9,649400
1737,000000	9,531700
1736,000000	9,417500
1735,000000	9,333000
1734,000000	9,275000
1733,000000	9,236700
1732,000000	9,234800
1731,000000	9,249600
1730,000000	9,275000
1729,000000	9,335000
1728,000000	9,393200
1727,000000	9,435700
1726,000000	9,493600
1725,000000	9,555500
1724,000000	9,592900
1723,000000	9,640100
1722,000000	9,654700
1721,000000	9,679400
1720,000000	9,697600
1719,000000	9,730600
1718,000000	9,749400
1717,000000	9,767600
1716,000000	9,803400
1715,000000	9,856800
1714,000000	9,890700
1713,000000	9,936200
1712,000000	9,972000
1711,000000	10,017800
1710,000000	10,031300
1709,000000	10,045900
1708,000000	10,065400
1707,000000	10,053500
1706,000000	10,027900
1705,000000	10,025300
1704,000000	9,987000
1703,000000	9,955500
1702,000000	9,935300
1701,000000	9,852400
1700,000000	9,770000
1699,000000	9,695500
1698,000000	9,623600
1697,000000	9,531000
1696,000000	9,485400
1695,000000	9,446600
1694,000000	9,430100
1693,000000	9,447600
1692,000000	9,490100
1691,000000	9,586700
1690,000000	9,664400
1689,000000	9,756000
1688,000000	9,813500
1687,000000	9,862700
1686,000000	9,902900
1685,000000	9,902100
1684,000000	9,945700
1683,000000	10,002300
1682,000000	10,135800
1681,000000	10,324400
1680,000000	10,573900
1679,000000	10,888800
1678,000000	11,245000
1677,000000	11,570600
1676,000000	11,911800
1675,000000	12,220500
1674,000000	12,514400
1673,000000	12,778300
1672,000000	13,015400
1671,000000	13,178000
1670,000000	13,335300
1669,000000	13,495400
1668,000000	13,616100
1667,000000	13,778700
1666,000000	13,856800
1665,000000	13,938200
1664,000000	14,014000
1663,000000	14,079700
1662,000000	14,167900
1661,000000	14,198100
1660,000000	14,251100
1659,000000	14,284200
1658,000000	14,325900
1657,000000	14,356200
1656,000000	14,361200
1655,000000	14,384600
1654,000000	14,381500
1653,000000	14,388600
1652,000000	14,364700
1651,000000	14,370900
1650,000000	14,350000
1649,000000	14,298800
1648,000000	14,283600
1647,000000	14,271700
1646,000000	14,234600
1645,000000	14,189600
1644,000000	14,142200
1643,000000	14,109200
1642,000000	14,086100
1641,000000	14,031400
1640,000000	13,969200
1639,000000	13,944200
1638,000000	13,887800
1637,000000	13,853200
1636,000000	13,814200
1635,000000	13,730400
1634,000000	13,696200
1633,000000	13,643500
1632,000000	13,591500
1631,000000	13,519700
1630,000000	13,457100
1629,000000	13,409400
1628,000000	13,345100
1627,000000	13,302900
1626,000000	13,215400
1625,000000	13,154200
1624,000000	13,112200
1623,000000	13,048900
1622,000000	12,988600
1621,000000	12,926000
1620,000000	12,861100
1619,000000	12,823700
1618,000000	12,753200
1617,000000	12,708300
1616,000000	12,657500
1615,000000	12,619400
1614,000000	12,556700
1613,000000	12,526700
1612,000000	12,477000
1611,000000	12,421300
1610,000000	12,362200
1609,000000	12,292300
1608,000000	12,253100
1607,000000	12,223500
1606,000000	12,165400
1605,000000	12,103200
1604,000000	12,054800
1603,000000	12,012600
1602,000000	11,974500
1601,000000	11,922100
1600,000000	11,860900
1599,000000	11,819400
1598,000000	11,773000
1597,000000	11,716200
1596,000000	11,672700
1595,000000	11,647700
1594,000000	11,604200
1593,000000	11,568000
1592,000000	11,530100
1591,000000	11,480600
1590,000000	11,451400
1589,000000	11,410600
1588,000000	11,375300
1587,000000	11,362600
1586,000000	11,317800
1585,000000	11,289900
1584,000000	11,290700
1583,000000	11,249800
1582,000000	11,221500
1581,000000	11,197300
1580,000000	11,165900
1579,000000	11,140700
1578,000000	11,140600
1577,000000	11,125300
1576,000000	11,114800
1575,000000	11,113000
1574,000000	11,114600
1573,000000	11,110700
1572,000000	11,094800
1571,000000	11,098500
1570,000000	11,102800
1569,000000	11,114500
1568,000000	11,113500
1567,000000	11,114100
1566,000000	11,124300
1565,000000	11,141200
1564,000000	11,140200
1563,000000	11,155800
1562,000000	11,154800
1561,000000	11,162900
1560,000000	11,169200
1559,000000	11,171600
1558,000000	11,191400
1557,000000	11,189000
1556,000000	11,171100
1555,000000	11,166200
1554,000000	11,162900
1553,000000	11,152100
1552,000000	11,141100
1551,000000	11,125600
1550,000000	11,111700
1549,000000	11,100200
1548,000000	11,080300
1547,000000	11,073100
1546,000000	11,065900
1545,000000	11,042100
1544,000000	11,031900
1543,000000	11,022700
1542,000000	11,016500
1541,000000	10,997100
1540,000000	10,988100
1539,000000	10,993500
1538,000000	10,989700
1537,000000	10,970600
1536,000000	10,954800
1535,000000	10,940300
1534,000000	10,941700
1533,000000	10,931500
1532,000000	10,909300
1531,000000	10,892500
1530,000000	10,885700
1529,000000	10,869400
1528,000000	10,840400
1527,000000	10,810800
1526,000000	10,801800
1525,000000	10,781500
1524,000000	10,755900
1523,000000	10,729800
1522,000000	10,707900
1521,000000	10,687800
1520,000000	10,658000
1519,000000	10,638000
1518,000000	10,618500
1517,000000	10,590700
1516,000000	10,562100
1515,000000	10,542900
1514,000000	10,515700
1513,000000	10,480800
1512,000000	10,453600
1511,000000	10,425800
1510,000000	10,394800
1509,000000	10,367100
1508,000000	10,346300
1507,000000	10,314400
1506,000000	10,281500
1505,000000	10,255100
1504,000000	10,221500
1503,000000	10,189500
1502,000000	10,167100
1501,000000	10,148400
1500,000000	10,122400
1499,000000	10,092400
1498,000000	10,073100
1497,000000	10,055100
1496,000000	10,031600
1495,000000	10,015900
1494,000000	10,000800
1493,000000	9,983900
1492,000000	9,960300
1491,000000	9,945300
1490,000000	9,931100
1489,000000	9,916700
1488,000000	9,928100
1487,000000	9,933800
1486,000000	9,911400
1485,000000	9,890500
1484,000000	9,868100
1483,000000	9,869200
1482,000000	9,865400
1481,000000	9,854900
1480,000000	9,868700
1479,000000	9,869800
1478,000000	9,872800
1477,000000	9,882000
1476,000000	9,869200
1475,000000	9,865400
1474,000000	9,859700
1473,000000	9,879900
1472,000000	9,894100
1471,000000	9,901500
1470,000000	9,907300
1469,000000	9,904300
1468,000000	9,899900
1467,000000	9,919400
1466,000000	9,940000
1465,000000	9,956600
1464,000000	9,957900
1463,000000	9,965100
1462,000000	10,000700
1461,000000	10,012000
1460,000000	10,041200
1459,000000	10,076500
1458,000000	10,072300
1457,000000	10,102700
1456,000000	10,164400
1455,000000	10,205300
1454,000000	10,254200
1453,000000	10,301900
1452,000000	10,349700
1451,000000	10,411700
1450,000000	10,458500
1449,000000	10,510800
1448,000000	10,560800
1447,000000	10,614900
1446,000000	10,665900
1445,000000	10,734000
1444,000000	10,796400
1443,000000	10,845700
1442,000000	10,914900
1441,000000	11,002900
1440,000000	11,060800
1439,000000	11,128700
1438,000000	11,206300
1437,000000	11,258300
1436,000000	11,330100
1435,000000	11,416000
1434,000000	11,489100
1433,000000	11,571100
1432,000000	11,653100
1431,000000	11,738700
1430,000000	11,835300
1429,000000	11,927100
1428,000000	12,033200
1427,000000	12,129700
1426,000000	12,232000
1425,000000	12,371600
1424,000000	12,518000
1423,000000	12,664400
1422,000000	12,790200
1421,000000	12,954200
1420,000000	13,107000
1419,000000	13,271300
1418,000000	13,449900
1417,000000	13,610300
1416,000000	13,785300
1415,000000	13,950000
1414,000000	14,149900
1413,000000	14,363400
1412,000000	14,565200
1411,000000	14,734900
1410,000000	14,968800
1409,000000	15,245700
1408,000000	15,541100
1407,000000	15,847800
1406,000000	16,152700
1405,000000	16,462100
1404,000000	16,807100
1403,000000	17,165800
1402,000000	17,478700
1401,000000	17,803200
1400,000000	18,181200
1399,000000	18,532000
1398,000000	18,833100
1397,000000	19,068200
1396,000000	19,329800
1395,000000	19,654700
1394,000000	19,922800
1393,000000	20,146600
1392,000000	20,356200
1391,000000	20,631700
1390,000000	20,903800
1389,000000	21,191000
1388,000000	21,505900
1387,000000	21,897500
1386,000000	22,283300
1385,000000	22,733400
1384,000000	23,175300
1383,000000	23,712600
1382,000000	24,245200
1381,000000	24,754500
1380,000000	25,119900
1379,000000	25,432000
1378,000000	25,666000
1377,000000	25,840000
1376,000000	26,052800
1375,000000	26,231700
1374,000000	26,439900
1373,000000	26,742700
1372,000000	27,063200
1371,000000	27,437500
1370,000000	27,850200
1369,000000	28,167500
1368,000000	28,517400
1367,000000	28,834400
1366,000000	29,113600
1365,000000	29,347300
1364,000000	29,564300
1363,000000	29,770400
1362,000000	29,962100
1361,000000	30,154200
1360,000000	30,330800
1359,000000	30,388800
1358,000000	30,504000
1357,000000	30,629200
1356,000000	30,798100
1355,000000	31,077300
1354,000000	31,454500
1353,000000	31,952900
1352,000000	32,420500
1351,000000	33,007400
1350,000000	33,551900
1349,000000	34,049500
1348,000000	34,518100
1347,000000	34,948300
1346,000000	35,408400
1345,000000	35,761300
1344,000000	36,138400
1343,000000	36,553800
1342,000000	36,912200
1341,000000	37,251000
1340,000000	37,599900
1339,000000	37,937200
1338,000000	38,277600
1337,000000	38,580100
1336,000000	38,894000
1335,000000	39,198400
1334,000000	39,484300
1333,000000	39,786500
1332,000000	40,068900
1331,000000	40,349600
1330,000000	40,595400
1329,000000	40,865100
1328,000000	41,110200
1327,000000	41,302800
1326,000000	41,534900
1325,000000	41,751800
1324,000000	41,955600
1323,000000	42,166100
1322,000000	42,336900
1321,000000	42,517500
1320,000000	42,673000
1319,000000	42,829300
1318,000000	42,983800
1317,000000	43,144600
1316,000000	43,284600
1315,000000	43,430200
1314,000000	43,575700
1313,000000	43,693800
1312,000000	43,794900
1311,000000	43,918400
1310,000000	44,031000
1309,000000	44,127100
1308,000000	44,219600
1307,000000	44,302000
1306,000000	44,376100
1305,000000	44,462200
1304,000000	44,516100
1303,000000	44,561000
1302,000000	44,606700
1301,000000	44,643500
1300,000000	44,680900
1299,000000	44,699300
1298,000000	44,722300
1297,000000	44,749200
1296,000000	44,760100
1295,000000	44,780500
1294,000000	44,800800
1293,000000	44,787700
1292,000000	44,771900
1291,000000	44,764400
1290,000000	44,741600
1289,000000	44,729300
1288,000000	44,704800
1287,000000	44,677400
1286,000000	44,624700
1285,000000	44,560500
1284,000000	44,503900
1283,000000	44,453100
1282,000000	44,392800
1281,000000	44,323100
1280,000000	44,270000
1279,000000	44,188300
1278,000000	44,121800
1277,000000	44,061900
1276,000000	44,005500
1275,000000	43,954800
1274,000000	43,904700
1273,000000	43,858600
1272,000000	43,821200
1271,000000	43,774300
1270,000000	43,722700
1269,000000	43,682300
1268,000000	43,639900
1267,000000	43,592300
1266,000000	43,534300
1265,000000	43,473100
1264,000000	43,428600
1263,000000	43,383200
1262,000000	43,326600
1261,000000	43,266700
1260,000000	43,220400
1259,000000	43,169900
1258,000000	43,104500
1257,000000	43,057900
1256,000000	42,995200
1255,000000	42,914000
1254,000000	42,838500
1253,000000	42,781700
1252,000000	42,694900
1251,000000	42,598100
1250,000000	42,528500
1249,000000	42,427500
1248,000000	42,326500
1247,000000	42,217500
1246,000000	42,085400
1245,000000	41,957200
1244,000000	41,833000
1243,000000	41,697900
1242,000000	41,543800
1241,000000	41,383900
1240,000000	41,244800
1239,000000	41,086700
1238,000000	40,912600
1237,000000	40,756200
1236,000000	40,588000
1235,000000	40,415800
1234,000000	40,235900
1233,000000	40,047900
1232,000000	39,867000
1231,000000	39,666000
1230,000000	39,470200
1229,000000	39,283300
1228,000000	39,074300
1227,000000	38,862600
1226,000000	38,656400
1225,000000	38,437900
1224,000000	38,237900
1223,000000	38,042100
1222,000000	37,824300
1221,000000	37,622000
1220,000000	37,415500
1219,000000	37,206200
1218,000000	37,008500
1217,000000	36,814300
1216,000000	36,637400
1215,000000	36,469700
1214,000000	36,309700
1213,000000	36,154900
1212,000000	36,001400
1211,000000	35,858000
1210,000000	35,724300
1209,000000	35,587100
1208,000000	35,457500
1207,000000	35,345300
1206,000000	35,239600
1205,000000	35,156300
1204,000000	35,101600
1203,000000	35,044600
1202,000000	35,008200
1201,000000	34,961100
1200,000000	34,899200
1199,000000	34,854500
1198,000000	34,771900
1197,000000	34,650000
1196,000000	34,509200
1195,000000	34,319000
1194,000000	34,047000
1193,000000	33,718700
1192,000000	33,336900
1191,000000	32,902200
1190,000000	32,426300
1189,000000	31,971600
1188,000000	31,563000
1187,000000	31,263500
1186,000000	31,069800
1185,000000	30,994200
1184,000000	31,058100
1183,000000	31,269000
1182,000000	31,609600
1181,000000	32,052000
1180,000000	32,571000
1179,000000	33,115900
1178,000000	33,626000
1177,000000	34,114900
1176,000000	34,530800
1175,000000	34,903300
1174,000000	35,244100
1173,000000	35,576700
1172,000000	35,918700
1171,000000	36,268400
1170,000000	36,634800
1169,000000	36,996600
1168,000000	37,363200
1167,000000	37,748300
1166,000000	38,127000
1165,000000	38,538300
1164,000000	38,942200
1163,000000	39,325700
1162,000000	39,726000
1161,000000	40,158400
1160,000000	40,547900
1159,000000	40,948400
1158,000000	41,332900
1157,000000	41,695200
1156,000000	42,027200
1155,000000	42,335400
1154,000000	42,588100
1153,000000	42,789300
1152,000000	42,943000
1151,000000	43,040500
1150,000000	43,116900
1149,000000	43,178300
1148,000000	43,221100
1147,000000	43,288100
1146,000000	43,399900
1145,000000	43,572600
1144,000000	43,797500
1143,000000	44,091000
1142,000000	44,433400
1141,000000	44,808700
1140,000000	45,189200
1139,000000	45,595200
1138,000000	46,013300
1137,000000	46,452300
1136,000000	46,889100
1135,000000	47,339700
1134,000000	47,834800
1133,000000	48,254100
1132,000000	48,644700
1131,000000	49,006700
1130,000000	49,355100
1129,000000	49,643700
1128,000000	49,913900
1127,000000	50,124600
1126,000000	50,306500
1125,000000	50,455100
1124,000000	50,552200
1123,000000	50,638000
1122,000000	50,756800
1121,000000	50,811000
1120,000000	50,866400
1119,000000	50,900900
1118,000000	50,935200
1117,000000	50,952500
1116,000000	50,965100
1115,000000	50,957100
1114,000000	50,945300
1113,000000	50,946100
1112,000000	50,938300
1111,000000	50,924400
1110,000000	50,910300
1109,000000	50,891500
1108,000000	50,866800
1107,000000	50,843300
1106,000000	50,843900
1105,000000	50,835400
1104,000000	50,814800
1103,000000	50,803200
1102,000000	50,775300
1101,000000	50,749500
1100,000000	50,708500
1099,000000	50,684300
1098,000000	50,663500
1097,000000	50,629400
1096,000000	50,603300
1095,000000	50,559300
1094,000000	50,533700
1093,000000	50,470400
1092,000000	50,436500
1091,000000	50,375300
1090,000000	50,318000
1089,000000	50,277100
1088,000000	50,213300
1087,000000	50,177300
1086,000000	50,085400
1085,000000	50,057600
1084,000000	49,989700
1083,000000	49,924100
1082,000000	49,870800
1081,000000	49,763800
1080,000000	49,715600
1079,000000	49,655400
1078,000000	49,598700
1077,000000	49,533200
1076,000000	49,487800
1075,000000	49,405500
1074,000000	49,358100
1073,000000	49,275300
1072,000000	49,212100
1071,000000	49,164600
1070,000000	49,085400
1069,000000	49,016500
1068,000000	48,950800
1067,000000	48,877300
1066,000000	48,803000
1065,000000	48,749100
1064,000000	48,678200
1063,000000	48,608200
1062,000000	48,534100
1061,000000	48,466800
1060,000000	48,384000
1059,000000	48,298200
1058,000000	48,233300
1057,000000	48,153400
1056,000000	48,061700
1055,000000	47,981100
1054,000000	47,904500
1053,000000	47,819900
1052,000000	47,745700
1051,000000	47,643500
1050,000000	47,600800
1049,000000	47,521300
1048,000000	47,458000
1047,000000	47,382000
1046,000000	47,314000
1045,000000	47,266300
1044,000000	47,195200
1043,000000	47,111000
1042,000000	47,067600
1041,000000	46,985200
1040,000000	46,918300
1039,000000	46,831900
1038,000000	46,776000
1037,000000	46,712400
1036,000000	46,639500
1035,000000	46,561300
1034,000000	46,501700
1033,000000	46,414400
1032,000000	46,333100
1031,000000	46,231000
1030,000000	46,144200
1029,000000	46,064900
1028,000000	45,996100
1027,000000	45,917900
1026,000000	45,814200
1025,000000	45,708000
1024,000000	45,616700
1023,000000	45,521200
1022,000000	45,424900
1021,000000	45,332100
1020,000000	45,226400
1019,000000	45,119700
1018,000000	45,053700
1017,000000	44,961900
1016,000000	44,873600
1015,000000	44,804800
1014,000000	44,711100
1013,000000	44,632800
1012,000000	44,596100
1011,000000	44,534700
1010,000000	44,489600
1009,000000	44,460800
1008,000000	44,418000
1007,000000	44,390700
1006,000000	44,354600
1005,000000	44,326800
1004,000000	44,284100
1003,000000	44,252200
1002,000000	44,226800
1001,000000	44,192500
1000,000000	44,171200
999,000000	44,137200
998,000000	44,091600
997,000000	44,062000
996,000000	44,024800
995,000000	44,017600
994,000000	43,977700
993,000000	43,941400
992,000000	43,915500
991,000000	43,889900
990,000000	43,846600
989,000000	43,821000
988,000000	43,803100
987,000000	43,775900
986,000000	43,760800
985,000000	43,745600
984,000000	43,732000
983,000000	43,708500
982,000000	43,703400
981,000000	43,676200
980,000000	43,650200
979,000000	43,626700
978,000000	43,603400
977,000000	43,592000
976,000000	43,579800
975,000000	43,546300
974,000000	43,515100
973,000000	43,496500
972,000000	43,480400
971,000000	43,453600
970,000000	43,429300
969,000000	43,411800
968,000000	43,381100
967,000000	43,345800
966,000000	43,326700
965,000000	43,311800
964,000000	43,297000
963,000000	43,276500
962,000000	43,249300
961,000000	43,232200
960,000000	43,221800
959,000000	43,223700
958,000000	43,214700
957,000000	43,196900
956,000000	43,174500
955,000000	43,150300
954,000000	43,126700
953,000000	43,098200
952,000000	43,076300
951,000000	43,037400
950,000000	42,991100
949,000000	42,965800
948,000000	42,929700
947,000000	42,892400
946,000000	42,867200
945,000000	42,830600
944,000000	42,785200
943,000000	42,744400
942,000000	42,712000
941,000000	42,644800
940,000000	42,584900
939,000000	42,550900
938,000000	42,498800
937,000000	42,438700
936,000000	42,393800
935,000000	42,344400
934,000000	42,297400
933,000000	42,262800
932,000000	42,206500
931,000000	42,152600
930,000000	42,105000
929,000000	42,062300
928,000000	42,002100
927,000000	41,932900
926,000000	41,868100
925,000000	41,824400
924,000000	41,765300
923,000000	41,704200
922,000000	41,642100
921,000000	41,586000
920,000000	41,522100
919,000000	41,467600
918,000000	41,401100
917,000000	41,348800
916,000000	41,277600
915,000000	41,168500
914,000000	41,078300
913,000000	41,012900
912,000000	40,935000
911,000000	40,859000
910,000000	40,773700
909,000000	40,682600
908,000000	40,627000
907,000000	40,579700
906,000000	40,527300
905,000000	40,482800
904,000000	40,443700
903,000000	40,402500
902,000000	40,374800
901,000000	40,342800
900,000000	40,296900
899,000000	40,273900
898,000000	40,249200
897,000000	40,230100
896,000000	40,196300
895,000000	40,172800
894,000000	40,111100
893,000000	40,068700
892,000000	40,028700
891,000000	39,971400
890,000000	39,912000
889,000000	39,849900
888,000000	39,780300
887,000000	39,708700
886,000000	39,652300
885,000000	39,566800
884,000000	39,476600
883,000000	39,396400
882,000000	39,320000
881,000000	39,226100
880,000000	39,113400
879,000000	39,011700
878,000000	38,929100
877,000000	38,787900
876,000000	38,637400
875,000000	38,484600
874,000000	38,308700
873,000000	38,102000
872,000000	37,958500
871,000000	37,845200
870,000000	37,777800
869,000000	37,759600
868,000000	37,758700
867,000000	37,772600
866,000000	37,763800
865,000000	37,740800
864,000000	37,724400
863,000000	37,708000
862,000000	37,689900
861,000000	37,658500
860,000000	37,663000
859,000000	37,659500
858,000000	37,657600
857,000000	40,796100
856,000000	41,220800
855,000000	41,408800
854,000000	40,944400
853,000000	41,279100
852,000000	41,258800
851,000000	41,234600
850,000000	40,899300
849,000000	40,963600
848,000000	41,094200
847,000000	41,239200
846,000000	41,042800
845,000000	41,615100
844,000000	41,248600
843,000000	41,104000
842,000000	41,170900
841,000000	41,232900
840,000000	41,127500
839,000000	40,897200
838,000000	40,893600
837,000000	41,003400
836,000000	40,818800
835,000000	41,027900
834,000000	41,032700
833,000000	40,848800
832,000000	40,649900
831,000000	40,857700
830,000000	40,684400
829,000000	40,759900
828,000000	40,742800
827,000000	40,628300
826,000000	40,528200
825,000000	40,529500
824,000000	40,483200
823,000000	40,450000
822,000000	40,482200
821,000000	40,234300
820,000000	40,374200
819,000000	40,321200
818,000000	40,258800
817,000000	40,206500
816,000000	40,128800
815,000000	40,046700
814,000000	40,089200
813,000000	39,916400
812,000000	39,977300
811,000000	39,900900
810,000000	39,807600
809,000000	39,739200
808,000000	39,849900
807,000000	39,841200
806,000000	39,668800
805,000000	39,731800
804,000000	39,663500
803,000000	39,616900
802,000000	39,570500
801,000000	39,488900
800,000000	39,520700
799,000000	39,418400
798,000000	39,449500
797,000000	39,363800
796,000000	39,298000
795,000000	39,237300
794,000000	39,223700
793,000000	39,203500
792,000000	39,126100
791,000000	39,136200
790,000000	39,045500
789,000000	39,045700
788,000000	38,959100
787,000000	38,919100
786,000000	38,977600
785,000000	38,838400
784,000000	38,909600
783,000000	38,820400
782,000000	38,708000
781,000000	38,782400
780,000000	38,789200
779,000000	38,621300
778,000000	38,647400
777,000000	38,551000
776,000000	38,469600
775,000000	38,472900
774,000000	38,315700
773,000000	38,322100
772,000000	38,236300
771,000000	38,168500
770,000000	38,153700
769,000000	38,140200
768,000000	38,052600
767,000000	38,086200
766,000000	38,000000
765,000000	37,968600
764,000000	37,886900
763,000000	37,765000
762,000000	37,749700
761,000000	37,681500
760,000000	37,600400
759,000000	37,522200
758,000000	37,397800
757,000000	37,274200
756,000000	37,245000
755,000000	37,122000
754,000000	36,992100
753,000000	36,974800
752,000000	36,892700
751,000000	36,726200
750,000000	36,662600
749,000000	36,500800
748,000000	36,533500
747,000000	36,287300
746,000000	36,212400
745,000000	36,174600
744,000000	36,013800
743,000000	35,920100
742,000000	35,797800
741,000000	35,614000
740,000000	35,530900
739,000000	35,394500
738,000000	35,218000
737,000000	35,131800
736,000000	34,952400
735,000000	34,781300
734,000000	34,626100
733,000000	34,485000
732,000000	34,332200
731,000000	34,188000
730,000000	33,993500
729,000000	33,837500
728,000000	33,707800
727,000000	33,470800
726,000000	33,355100
725,000000	33,180500
724,000000	32,977800
723,000000	32,801300
722,000000	32,632300
721,000000	32,427500
720,000000	32,286100
719,000000	32,095300
718,000000	31,895600
717,000000	31,732900
716,000000	31,518000
715,000000	31,308900
714,000000	31,127200
713,000000	30,943600
712,000000	30,778600
711,000000	30,585800
710,000000	30,456700
709,000000	30,246100
708,000000	30,017600
707,000000	29,836800
706,000000	29,686400
705,000000	29,515300
704,000000	29,321400
703,000000	29,177900
702,000000	28,966000
701,000000	28,783500
700,000000	28,591900
699,000000	28,438000
698,000000	28,278800
697,000000	28,077300
696,000000	27,914400
695,000000	27,765400
694,000000	27,602100
693,000000	27,456400
692,000000	27,249100
691,000000	27,102300
690,000000	26,967800
689,000000	26,788300
688,000000	26,623800
687,000000	26,474600
686,000000	26,344400
685,000000	26,198700
684,000000	26,049800
683,000000	25,919300
682,000000	25,767800
681,000000	25,628000
680,000000	25,490800
679,000000	25,350000
678,000000	25,215600
677,000000	25,131100
676,000000	24,997100
675,000000	24,876900
674,000000	24,740500
673,000000	24,603100
672,000000	24,475900
671,000000	24,363900
670,000000	24,230100
669,000000	24,093500
668,000000	23,992600
667,000000	23,870400
666,000000	23,757100
665,000000	23,669000
664,000000	23,572900
663,000000	23,471700
662,000000	23,361900
661,000000	23,259700
660,000000	23,153000
659,000000	23,055100
658,000000	22,954000
657,000000	22,865000
656,000000	22,807900
655,000000	22,696000
654,000000	22,584400
653,000000	22,512200
652,000000	22,427500
651,000000	22,337500
650,000000	22,261900
649,000000	22,202100
648,000000	22,130000
647,000000	22,055100
646,000000	21,974300
645,000000	21,906400
644,000000	21,854600
643,000000	21,799000
642,000000	21,748100
641,000000	21,682600
640,000000	21,624700
639,000000	21,573200
638,000000	21,521600
637,000000	21,476700
636,000000	21,442200
635,000000	21,406700
634,000000	21,358800
633,000000	21,311900
632,000000	21,267000
631,000000	21,243500
630,000000	21,213900
629,000000	21,178700
628,000000	21,149400
627,000000	21,136300
626,000000	21,122300
625,000000	21,097900
624,000000	21,082400
623,000000	21,073400
622,000000	21,071200
621,000000	21,058000
620,000000	21,039800
619,000000	21,030800
618,000000	21,054000
617,000000	21,066100
616,000000	21,077300
615,000000	21,093900
614,000000	21,094600
613,000000	21,113700
612,000000	21,123500
611,000000	21,135700
610,000000	21,151800
609,000000	21,172100
608,000000	21,199700
607,000000	21,224900
606,000000	21,249700
605,000000	21,285700
604,000000	21,312000
603,000000	21,318900
602,000000	21,359100
601,000000	21,395600
600,000000	21,410600
599,000000	21,443900
598,000000	21,484500
597,000000	21,522400
596,000000	21,543500
595,000000	21,548600
594,000000	21,582200
593,000000	21,622200
592,000000	21,648100
591,000000	21,655900
590,000000	21,682000
589,000000	21,698700
588,000000	21,740800
587,000000	21,766000
586,000000	21,780000
585,000000	21,804400
584,000000	21,823300
583,000000	21,848500
582,000000	21,849300
581,000000	21,864300
580,000000	21,874500
579,000000	21,890100
578,000000	21,886500
577,000000	21,879300
576,000000	21,875000
575,000000	21,878300
574,000000	21,859500
573,000000	21,848400
572,000000	21,834200
571,000000	21,800000
570,000000	21,759700
569,000000	21,736100
568,000000	21,705600
567,000000	21,668500
566,000000	21,632100
565,000000	21,584200
564,000000	21,532200
563,000000	21,465700
562,000000	21,385100
561,000000	21,313200
560,000000	21,271200
559,000000	21,195300
558,000000	21,129300
557,000000	21,046900
556,000000	20,957300
555,000000	20,851200
554,000000	20,763600
553,000000	20,645700
552,000000	20,520800
551,000000	20,406100
550,000000	20,293500
549,000000	20,160500
548,000000	20,036600
547,000000	19,900600
546,000000	19,757400
545,000000	19,599300
544,000000	19,447100
543,000000	19,294700
542,000000	19,126200
541,000000	18,954900
540,000000	18,774900
539,000000	18,600100
538,000000	18,433500
537,000000	18,240000
536,000000	18,075700
535,000000	17,876100
534,000000	17,659600
533,000000	17,474200
532,000000	17,266700
531,000000	17,072100
530,000000	16,858000
529,000000	16,639300
528,000000	16,436300
527,000000	16,237500
526,000000	16,016200
525,000000	15,791500
524,000000	15,587600
523,000000	15,366400
522,000000	15,137000
521,000000	14,919800
520,000000	14,707100
519,000000	14,492600
518,000000	14,283700
517,000000	14,064700
516,000000	13,849600
515,000000	13,636700
514,000000	13,451700
513,000000	13,258800
512,000000	13,065300
511,000000	12,871200
510,000000	12,693000
509,000000	12,498700
508,000000	12,345100
507,000000	12,185800
506,000000	12,021400
505,000000	11,851300
504,000000	11,693900
503,000000	11,559900
502,000000	11,409000
501,000000	11,262200
500,000000	11,110500
499,000000	10,966800
498,000000	10,843600
497,000000	10,728800
496,000000	10,622200
495,000000	10,494000
494,000000	10,373200
493,000000	10,274100
492,000000	10,164800
491,000000	10,062900
490,000000	9,956200
489,000000	9,867800
488,000000	9,781000
487,000000	9,688700
486,000000	9,626100
485,000000	9,516000
484,000000	9,437200
483,000000	9,349200
482,000000	9,252800
481,000000	9,156500
480,000000	9,066000
479,000000	8,971700
478,000000	8,872600
477,000000	8,802100
476,000000	8,726200
475,000000	8,633100
474,000000	8,555200
473,000000	8,461500
472,000000	8,407000
471,000000	8,325200
470,000000	8,252500
469,000000	8,196600
468,000000	8,122500
467,000000	8,074400
466,000000	8,009000
465,000000	7,955200
464,000000	7,907200
463,000000	7,859200
462,000000	7,797900
461,000000	7,742400
460,000000	7,689400
459,000000	7,643600
458,000000	7,620700
457,000000	7,568200
456,000000	7,518000
455,000000	7,476300
454,000000	7,429600
453,000000	7,390300
452,000000	7,355500
451,000000	7,313300
450,000000	7,261800
449,000000	7,222900
448,000000	7,181500
447,000000	7,148600
446,000000	7,114700
445,000000	7,061100
444,000000	7,021200
443,000000	6,978900
442,000000	6,939900
441,000000	6,880000
440,000000	6,850100
439,000000	6,808500
438,000000	6,755200
437,000000	6,714600
436,000000	6,680300
435,000000	6,634300
434,000000	6,601300
433,000000	6,560800
432,000000	6,521500
431,000000	6,472000
430,000000	6,434700
429,000000	6,416200
428,000000	6,361600
427,000000	6,339700
426,000000	6,303400
425,000000	6,235900
424,000000	6,213100
423,000000	6,181900
422,000000	6,141400
421,000000	6,109100
420,000000	6,082600
419,000000	6,047000
418,000000	6,002100
417,000000	5,966000
416,000000	5,935800
415,000000	5,899800
414,000000	5,865600
413,000000	5,824600
412,000000	5,785100
411,000000	5,750600
410,000000	5,730500
409,000000	5,690200
408,000000	5,641700
407,000000	5,617700
406,000000	5,578500
405,000000	5,537100
404,000000	5,496100
403,000000	5,476800
402,000000	5,444000
401,000000	5,391900
400,000000	5,358400
399,000000	5,336300
398,000000	5,273200
397,000000	5,230600
396,000000	5,176800
395,000000	5,135700
394,000000	5,105900
393,000000	5,083800
392,000000	5,028500
391,000000	4,996500
390,000000	4,965600
389,000000	4,936200
388,000000	4,885300
387,000000	4,830700
386,000000	4,803900
385,000000	4,786900
384,000000	4,758900
383,000000	4,723600
382,000000	4,679400
381,000000	4,642900
380,000000	4,630800
379,000000	4,589100
378,000000	4,552500
377,000000	4,522400
376,000000	4,419900
375,000000	4,027300
374,000000	3,714600
373,000000	4,011000
372,000000	4,008000
371,000000	3,864100
370,000000	3,842300
369,000000	3,858300
368,000000	3,996600
367,000000	4,054400
366,000000	4,087600
365,000000	4,105900
364,000000	4,173700
363,000000	4,223000
362,000000	4,134100
361,000000	3,944100
360,000000	4,011500
359,000000	4,103200
358,000000	4,205300
357,000000	4,079500
356,000000	4,089400
355,000000	4,198100
354,000000	4,020700
353,000000	4,136700
352,000000	4,199400
351,000000	4,010600
350,000000	3,926800
349,000000	4,027600
348,000000	3,985300
347,000000	3,964200
346,000000	4,100500
345,000000	4,072000
344,000000	3,960700
343,000000	3,932200
342,000000	4,002900
341,000000	4,143200
340,000000	4,194200
339,000000	4,168600
338,000000	4,318100
337,000000	4,210100
336,000000	3,994100
335,000000	4,156500
334,000000	4,393900
333,000000	4,260800
332,000000	4,151400
331,000000	4,230000
330,000000	4,418000
329,000000	4,238200
328,000000	3,993000
327,000000	4,094300
326,000000	3,945400
325,000000	3,937500
324,000000	4,258100
323,000000	4,488000
322,000000	4,421600
321,000000	4,409400
320,000000	4,442800
319,000000	4,774800
318,000000	5,183900
317,000000	5,213200
316,000000	4,424000
315,000000	3,845800
314,000000	3,841600
313,000000	3,855600
312,000000	3,848100
311,000000	3,838000
310,000000	3,840400
309,000000	3,863100
308,000000	3,871000
307,000000	3,853500
306,000000	3,817900
305,000000	3,809400
304,000000	3,848500
303,000000	3,863800
302,000000	3,839500
301,000000	3,886000
300,000000	3,883500
299,000000	3,854900
298,000000	3,863100
297,000000	3,843600
296,000000	3,870600
295,000000	3,850900
294,000000	3,827900
293,000000	3,876800
292,000000	3,902700
291,000000	3,858500
290,000000	3,877000
289,000000	3,852200
288,000000	3,817100
287,000000	3,849400
286,000000	3,893400
285,000000	3,899700
284,000000	3,898300
283,000000	3,852900
282,000000	3,862900
281,000000	3,864400
280,000000	3,857500
279,000000	3,888300
278,000000	3,894000
277,000000	3,908000
276,000000	3,916700
275,000000	3,956100
274,000000	3,931900
273,000000	3,937700
272,000000	3,978400
271,000000	3,962300
270,000000	3,940000
269,000000	3,963300
268,000000	4,001300
267,000000	3,977300
266,000000	3,989900
265,000000	4,021000
264,000000	4,034000
263,000000	4,059400
262,000000	4,091100
261,000000	4,092500
260,000000	4,122800
259,000000	4,105100
258,000000	4,122700
257,000000	4,097300
256,000000	4,131700
255,000000	4,126500
254,000000	4,163800
253,000000	4,138700
252,000000	4,150200
251,000000	4,177900
250,000000	4,210200
