PE UV       SUBTECH     SPECTRUM    ASCII       PEDS        4.00        
   -1
CICIMAUCR0245-3.Sample.ASC
24/06/21
16:20:03.00
24/06/21
16:20:03.00
Vinicio Soto Monge
C. resplendens. Ventral. Sex M
250,000000
1
Lambda 1050
1050L1511233
PerkinElmer UV WinLab 6.3.2.0749 / 2.02.05 Lambda 900 UV/VIS/NIR, Aug  7 2015 09:38:08

0
0
3350/servo 860,8/2
0
0
UV/VIS
1
1
1
DoubleDePol,CommonBeamDepol,RBeamAtt,SBeamAtt,60mm sphere, WB InGaAs Detector
0
0
0
0
Program
Program
3350/servo 860,8/2
3350/0,2 860,8/0,2
3350/0,2 860,8/0,2
0
15.00
 
 
 
0
 
860,8
319,2
860,8
Front
100
on
S:100 R:100
0
0
0
0
 
0
 
 
 
0
 
 
0
0
0
0
0
 
 
 
 
0
0


0
0
#HDR
-1
-1
#GR
nm
%R
1.0
0.0
2500,000000
-1,000000
2251
8
54,501800
4,588600
#DATA
2500,000000	5,585400
2499,000000	5,580100
2498,000000	5,463600
2497,000000	5,583300
2496,000000	5,472900
2495,000000	5,409100
2494,000000	5,550400
2493,000000	5,499800
2492,000000	5,455500
2491,000000	5,384900
2490,000000	5,342400
2489,000000	5,448000
2488,000000	5,407500
2487,000000	5,330400
2486,000000	5,349200
2485,000000	5,377300
2484,000000	5,364100
2483,000000	5,426600
2482,000000	5,350100
2481,000000	5,305700
2480,000000	5,396300
2479,000000	5,317600
2478,000000	5,263600
2477,000000	5,298600
2476,000000	5,311400
2475,000000	5,276100
2474,000000	5,351400
2473,000000	5,305600
2472,000000	5,247300
2471,000000	5,298000
2470,000000	5,277100
2469,000000	5,246200
2468,000000	5,252900
2467,000000	5,270400
2466,000000	5,264300
2465,000000	5,276700
2464,000000	5,276600
2463,000000	5,316900
2462,000000	5,284800
2461,000000	5,276900
2460,000000	5,310300
2459,000000	5,304200
2458,000000	5,300900
2457,000000	5,323800
2456,000000	5,314200
2455,000000	5,336900
2454,000000	5,337000
2453,000000	5,362300
2452,000000	5,359100
2451,000000	5,405300
2450,000000	5,413400
2449,000000	5,442000
2448,000000	5,448200
2447,000000	5,470500
2446,000000	5,472800
2445,000000	5,469100
2444,000000	5,493600
2443,000000	5,535800
2442,000000	5,528300
2441,000000	5,552100
2440,000000	5,560600
2439,000000	5,591500
2438,000000	5,609000
2437,000000	5,630600
2436,000000	5,636700
2435,000000	5,666400
2434,000000	5,678400
2433,000000	5,703800
2432,000000	5,718800
2431,000000	5,732800
2430,000000	5,733000
2429,000000	5,745200
2428,000000	5,776400
2427,000000	5,786800
2426,000000	5,785500
2425,000000	5,789600
2424,000000	5,801100
2423,000000	5,811400
2422,000000	5,828100
2421,000000	5,825100
2420,000000	5,830400
2419,000000	5,834200
2418,000000	5,837700
2417,000000	5,873700
2416,000000	5,884800
2415,000000	5,883100
2414,000000	5,871300
2413,000000	5,895600
2412,000000	5,914900
2411,000000	5,918800
2410,000000	5,923100
2409,000000	5,913200
2408,000000	5,936900
2407,000000	5,957000
2406,000000	5,956000
2405,000000	5,963700
2404,000000	5,976300
2403,000000	5,981400
2402,000000	5,994300
2401,000000	6,007100
2400,000000	6,018000
2399,000000	6,012600
2398,000000	6,023900
2397,000000	6,034700
2396,000000	6,053300
2395,000000	6,057600
2394,000000	6,070000
2393,000000	6,070100
2392,000000	6,070600
2391,000000	6,087500
2390,000000	6,106500
2389,000000	6,113600
2388,000000	6,114500
2387,000000	6,130500
2386,000000	6,131600
2385,000000	6,127700
2384,000000	6,114000
2383,000000	6,125400
2382,000000	6,133400
2381,000000	6,132100
2380,000000	6,133000
2379,000000	6,135000
2378,000000	6,138100
2377,000000	6,139200
2376,000000	6,135800
2375,000000	6,139800
2374,000000	6,135300
2373,000000	6,118700
2372,000000	6,109200
2371,000000	6,101000
2370,000000	6,103700
2369,000000	6,086900
2368,000000	6,067600
2367,000000	6,054600
2366,000000	6,045400
2365,000000	6,040600
2364,000000	6,045000
2363,000000	6,023900
2362,000000	5,997200
2361,000000	5,992200
2360,000000	5,976500
2359,000000	5,958900
2358,000000	5,954700
2357,000000	5,950200
2356,000000	5,940100
2355,000000	5,914400
2354,000000	5,905900
2353,000000	5,903400
2352,000000	5,897900
2351,000000	5,895800
2350,000000	5,891400
2349,000000	5,901500
2348,000000	5,914200
2347,000000	5,919200
2346,000000	5,925000
2345,000000	5,931600
2344,000000	5,953200
2343,000000	5,966100
2342,000000	5,971800
2341,000000	5,980800
2340,000000	5,989100
2339,000000	5,995200
2338,000000	5,993100
2337,000000	5,997100
2336,000000	5,999000
2335,000000	6,002500
2334,000000	5,996500
2333,000000	5,993800
2332,000000	5,987200
2331,000000	5,979900
2330,000000	5,957400
2329,000000	5,939800
2328,000000	5,937300
2327,000000	5,932100
2326,000000	5,915800
2325,000000	5,894000
2324,000000	5,876300
2323,000000	5,857100
2322,000000	5,840400
2321,000000	5,822500
2320,000000	5,795800
2319,000000	5,747700
2318,000000	5,732700
2317,000000	5,721000
2316,000000	5,695100
2315,000000	5,668400
2314,000000	5,649600
2313,000000	5,607200
2312,000000	5,581500
2311,000000	5,564800
2310,000000	5,538900
2309,000000	5,526100
2308,000000	5,509100
2307,000000	5,494100
2306,000000	5,502300
2305,000000	5,493600
2304,000000	5,501900
2303,000000	5,493300
2302,000000	5,504400
2301,000000	5,517400
2300,000000	5,531900
2299,000000	5,551800
2298,000000	5,568900
2297,000000	5,598300
2296,000000	5,615400
2295,000000	5,615300
2294,000000	5,644800
2293,000000	5,643200
2292,000000	5,665000
2291,000000	5,697500
2290,000000	5,713400
2289,000000	5,718400
2288,000000	5,717600
2287,000000	5,715200
2286,000000	5,714200
2285,000000	5,715200
2284,000000	5,694300
2283,000000	5,700500
2282,000000	5,690300
2281,000000	5,674600
2280,000000	5,653500
2279,000000	5,662600
2278,000000	5,666000
2277,000000	5,640100
2276,000000	5,609400
2275,000000	5,621100
2274,000000	5,625700
2273,000000	5,623100
2272,000000	5,599600
2271,000000	5,594200
2270,000000	5,611700
2269,000000	5,614500
2268,000000	5,630500
2267,000000	5,630300
2266,000000	5,644300
2265,000000	5,681600
2264,000000	5,687500
2263,000000	5,736500
2262,000000	5,789800
2261,000000	5,835000
2260,000000	5,871500
2259,000000	5,916900
2258,000000	5,999300
2257,000000	6,052000
2256,000000	6,131300
2255,000000	6,205300
2254,000000	6,247200
2253,000000	6,340000
2252,000000	6,420700
2251,000000	6,452300
2250,000000	6,536600
2249,000000	6,612100
2248,000000	6,668100
2247,000000	6,724700
2246,000000	6,779700
2245,000000	6,849200
2244,000000	6,916200
2243,000000	6,950800
2242,000000	7,003000
2241,000000	7,041900
2240,000000	7,070500
2239,000000	7,129500
2238,000000	7,171900
2237,000000	7,181800
2236,000000	7,228300
2235,000000	7,256800
2234,000000	7,292300
2233,000000	7,314300
2232,000000	7,322400
2231,000000	7,353600
2230,000000	7,356000
2229,000000	7,382500
2228,000000	7,388300
2227,000000	7,408800
2226,000000	7,414400
2225,000000	7,400400
2224,000000	7,418700
2223,000000	7,418900
2222,000000	7,434300
2221,000000	7,415000
2220,000000	7,414400
2219,000000	7,418700
2218,000000	7,408700
2217,000000	7,401600
2216,000000	7,406900
2215,000000	7,386100
2214,000000	7,365000
2213,000000	7,369800
2212,000000	7,348900
2211,000000	7,358700
2210,000000	7,341300
2209,000000	7,334500
2208,000000	7,332800
2207,000000	7,327800
2206,000000	7,324900
2205,000000	7,325900
2204,000000	7,317600
2203,000000	7,293500
2202,000000	7,304500
2201,000000	7,280200
2200,000000	7,305000
2199,000000	7,298800
2198,000000	7,285400
2197,000000	7,278600
2196,000000	7,280300
2195,000000	7,291100
2194,000000	7,272500
2193,000000	7,279900
2192,000000	7,261300
2191,000000	7,286000
2190,000000	7,283500
2189,000000	7,265900
2188,000000	7,261000
2187,000000	7,266700
2186,000000	7,249900
2185,000000	7,259000
2184,000000	7,252900
2183,000000	7,269100
2182,000000	7,248200
2181,000000	7,227700
2180,000000	7,236300
2179,000000	7,255800
2178,000000	7,225900
2177,000000	7,227700
2176,000000	7,234900
2175,000000	7,215000
2174,000000	7,228800
2173,000000	7,227900
2172,000000	7,220100
2171,000000	7,235100
2170,000000	7,234600
2169,000000	7,245400
2168,000000	7,240900
2167,000000	7,242500
2166,000000	7,256500
2165,000000	7,263800
2164,000000	7,263900
2163,000000	7,257600
2162,000000	7,282200
2161,000000	7,296500
2160,000000	7,308600
2159,000000	7,306300
2158,000000	7,314800
2157,000000	7,320000
2156,000000	7,340600
2155,000000	7,343600
2154,000000	7,354200
2153,000000	7,384100
2152,000000	7,378700
2151,000000	7,395100
2150,000000	7,419900
2149,000000	7,430000
2148,000000	7,453000
2147,000000	7,464000
2146,000000	7,478000
2145,000000	7,490000
2144,000000	7,490300
2143,000000	7,511300
2142,000000	7,513700
2141,000000	7,528300
2140,000000	7,542400
2139,000000	7,557200
2138,000000	7,558200
2137,000000	7,569400
2136,000000	7,585300
2135,000000	7,592900
2134,000000	7,594100
2133,000000	7,595600
2132,000000	7,586700
2131,000000	7,598800
2130,000000	7,620400
2129,000000	7,618400
2128,000000	7,611600
2127,000000	7,610600
2126,000000	7,613900
2125,000000	7,623200
2124,000000	7,608300
2123,000000	7,596900
2122,000000	7,610200
2121,000000	7,611500
2120,000000	7,578900
2119,000000	7,571700
2118,000000	7,590900
2117,000000	7,577200
2116,000000	7,566100
2115,000000	7,550800
2114,000000	7,541900
2113,000000	7,535000
2112,000000	7,522700
2111,000000	7,517900
2110,000000	7,508800
2109,000000	7,499600
2108,000000	7,496000
2107,000000	7,482000
2106,000000	7,472500
2105,000000	7,455200
2104,000000	7,429400
2103,000000	7,424800
2102,000000	7,422700
2101,000000	7,419200
2100,000000	7,404300
2099,000000	7,387500
2098,000000	7,383400
2097,000000	7,370700
2096,000000	7,372700
2095,000000	7,356100
2094,000000	7,331100
2093,000000	7,332800
2092,000000	7,329200
2091,000000	7,326900
2090,000000	7,324100
2089,000000	7,319500
2088,000000	7,312000
2087,000000	7,312200
2086,000000	7,319000
2085,000000	7,300300
2084,000000	7,300000
2083,000000	7,295900
2082,000000	7,277900
2081,000000	7,274100
2080,000000	7,256800
2079,000000	7,249900
2078,000000	7,251100
2077,000000	7,222500
2076,000000	7,211700
2075,000000	7,213800
2074,000000	7,202600
2073,000000	7,190100
2072,000000	7,167000
2071,000000	7,155500
2070,000000	7,151400
2069,000000	7,139700
2068,000000	7,130000
2067,000000	7,121300
2066,000000	7,112200
2065,000000	7,092100
2064,000000	7,082000
2063,000000	7,080800
2062,000000	7,061300
2061,000000	7,046800
2060,000000	7,047200
2059,000000	7,043700
2058,000000	7,032400
2057,000000	7,023500
2056,000000	7,028100
2055,000000	7,032100
2054,000000	7,036600
2053,000000	7,046200
2052,000000	7,059100
2051,000000	7,080200
2050,000000	7,097900
2049,000000	7,110700
2048,000000	7,138500
2047,000000	7,168600
2046,000000	7,194000
2045,000000	7,223200
2044,000000	7,256900
2043,000000	7,281300
2042,000000	7,325000
2041,000000	7,341000
2040,000000	7,380400
2039,000000	7,419400
2038,000000	7,444000
2037,000000	7,471400
2036,000000	7,503400
2035,000000	7,521800
2034,000000	7,550000
2033,000000	7,575100
2032,000000	7,606200
2031,000000	7,622700
2030,000000	7,639800
2029,000000	7,667300
2028,000000	7,690300
2027,000000	7,698200
2026,000000	7,704500
2025,000000	7,727800
2024,000000	7,761400
2023,000000	7,760400
2022,000000	7,760100
2021,000000	7,772500
2020,000000	7,770300
2019,000000	7,777400
2018,000000	7,789200
2017,000000	7,804000
2016,000000	7,818000
2015,000000	7,803800
2014,000000	7,811500
2013,000000	7,807900
2012,000000	7,804400
2011,000000	7,799200
2010,000000	7,795800
2009,000000	7,777100
2008,000000	7,785800
2007,000000	7,772800
2006,000000	7,778400
2005,000000	7,768900
2004,000000	7,748700
2003,000000	7,733700
2002,000000	7,718700
2001,000000	7,699900
2000,000000	7,688500
1999,000000	7,661000
1998,000000	7,652800
1997,000000	7,623600
1996,000000	7,599600
1995,000000	7,590000
1994,000000	7,565300
1993,000000	7,531500
1992,000000	7,530700
1991,000000	7,492500
1990,000000	7,459400
1989,000000	7,443800
1988,000000	7,417200
1987,000000	7,377600
1986,000000	7,364400
1985,000000	7,337600
1984,000000	7,316400
1983,000000	7,261300
1982,000000	7,228000
1981,000000	7,220100
1980,000000	7,217300
1979,000000	7,189300
1978,000000	7,151600
1977,000000	7,086000
1976,000000	7,088600
1975,000000	7,040300
1974,000000	7,029700
1973,000000	7,007900
1972,000000	6,986100
1971,000000	6,945300
1970,000000	6,923700
1969,000000	6,906600
1968,000000	6,890800
1967,000000	6,854600
1966,000000	6,845900
1965,000000	6,823700
1964,000000	6,799400
1963,000000	6,761300
1962,000000	6,754300
1961,000000	6,739800
1960,000000	6,676800
1959,000000	6,686800
1958,000000	6,667000
1957,000000	6,637200
1956,000000	6,600100
1955,000000	6,625800
1954,000000	6,593000
1953,000000	6,568800
1952,000000	6,541400
1951,000000	6,519600
1950,000000	6,523200
1949,000000	6,488900
1948,000000	6,472400
1947,000000	6,469800
1946,000000	6,445600
1945,000000	6,438600
1944,000000	6,417700
1943,000000	6,422200
1942,000000	6,393800
1941,000000	6,382900
1940,000000	6,410500
1939,000000	6,372800
1938,000000	6,376900
1937,000000	6,377700
1936,000000	6,381700
1935,000000	6,409700
1934,000000	6,379400
1933,000000	6,375500
1932,000000	6,395900
1931,000000	6,402700
1930,000000	6,422700
1929,000000	6,445900
1928,000000	6,465600
1927,000000	6,500100
1926,000000	6,504400
1925,000000	6,537400
1924,000000	6,564500
1923,000000	6,589400
1922,000000	6,602300
1921,000000	6,646800
1920,000000	6,698600
1919,000000	6,761800
1918,000000	6,774800
1917,000000	6,846500
1916,000000	6,875600
1915,000000	6,912900
1914,000000	6,978000
1913,000000	7,024800
1912,000000	7,082200
1911,000000	7,159400
1910,000000	7,233400
1909,000000	7,291400
1908,000000	7,366900
1907,000000	7,428700
1906,000000	7,522200
1905,000000	7,611200
1904,000000	7,681600
1903,000000	7,808700
1902,000000	7,895200
1901,000000	7,970700
1900,000000	8,096900
1899,000000	8,216600
1898,000000	8,344800
1897,000000	8,444900
1896,000000	8,599200
1895,000000	8,711200
1894,000000	8,836700
1893,000000	8,956500
1892,000000	9,076200
1891,000000	9,255500
1890,000000	9,423000
1889,000000	9,586100
1888,000000	9,762300
1887,000000	9,944300
1886,000000	10,156900
1885,000000	10,372900
1884,000000	10,609200
1883,000000	10,913100
1882,000000	11,227900
1881,000000	11,519700
1880,000000	11,855800
1879,000000	12,124400
1878,000000	12,414800
1877,000000	12,740300
1876,000000	13,056600
1875,000000	13,351900
1874,000000	13,647800
1873,000000	13,929100
1872,000000	14,213800
1871,000000	14,479700
1870,000000	14,738800
1869,000000	14,974000
1868,000000	15,217000
1867,000000	15,395900
1866,000000	15,550400
1865,000000	15,693300
1864,000000	15,808100
1863,000000	15,909500
1862,000000	16,011600
1861,000000	16,112900
1860,000000	16,203500
1859,000000	16,302100
1858,000000	16,371700
1857,000000	16,430600
1856,000000	16,481500
1855,000000	16,502000
1854,000000	16,507400
1853,000000	16,542600
1852,000000	16,541600
1851,000000	16,532700
1850,000000	16,527300
1849,000000	16,501000
1848,000000	16,487300
1847,000000	16,507200
1846,000000	16,491500
1845,000000	16,453800
1844,000000	16,412500
1843,000000	16,369500
1842,000000	16,358300
1841,000000	16,357900
1840,000000	16,365900
1839,000000	16,336700
1838,000000	16,303700
1837,000000	16,294600
1836,000000	16,258100
1835,000000	16,240400
1834,000000	16,188800
1833,000000	16,144600
1832,000000	16,090000
1831,000000	16,036500
1830,000000	15,994200
1829,000000	15,949700
1828,000000	15,902000
1827,000000	15,841800
1826,000000	15,797900
1825,000000	15,754800
1824,000000	15,689300
1823,000000	15,655600
1822,000000	15,629700
1821,000000	15,610400
1820,000000	15,604800
1819,000000	15,588700
1818,000000	15,563600
1817,000000	15,507500
1816,000000	15,488200
1815,000000	15,498000
1814,000000	15,506700
1813,000000	15,488000
1812,000000	15,480100
1811,000000	15,469600
1810,000000	15,441300
1809,000000	15,423400
1808,000000	15,401500
1807,000000	15,364600
1806,000000	15,335000
1805,000000	15,297000
1804,000000	15,256600
1803,000000	15,223700
1802,000000	15,186000
1801,000000	15,149300
1800,000000	15,114500
1799,000000	15,078800
1798,000000	15,038000
1797,000000	15,000200
1796,000000	14,967100
1795,000000	14,933500
1794,000000	14,895800
1793,000000	14,855000
1792,000000	14,819500
1791,000000	14,786900
1790,000000	14,731800
1789,000000	14,684800
1788,000000	14,651000
1787,000000	14,617800
1786,000000	14,584400
1785,000000	14,528600
1784,000000	14,460900
1783,000000	14,402100
1782,000000	14,351600
1781,000000	14,316200
1780,000000	14,263500
1779,000000	14,187400
1778,000000	14,137400
1777,000000	14,075500
1776,000000	14,006600
1775,000000	13,945200
1774,000000	13,875500
1773,000000	13,804200
1772,000000	13,721400
1771,000000	13,639100
1770,000000	13,558700
1769,000000	13,478400
1768,000000	13,397100
1767,000000	13,322900
1766,000000	13,249200
1765,000000	13,191100
1764,000000	13,152100
1763,000000	13,121800
1762,000000	13,104700
1761,000000	13,113600
1760,000000	13,143100
1759,000000	13,168300
1758,000000	13,203800
1757,000000	13,267300
1756,000000	13,310300
1755,000000	13,340100
1754,000000	13,391000
1753,000000	13,414900
1752,000000	13,427100
1751,000000	13,435200
1750,000000	13,431000
1749,000000	13,409900
1748,000000	13,386800
1747,000000	13,362100
1746,000000	13,299100
1745,000000	13,246000
1744,000000	13,194000
1743,000000	13,090500
1742,000000	12,986400
1741,000000	12,873600
1740,000000	12,743200
1739,000000	12,595800
1738,000000	12,447600
1737,000000	12,307100
1736,000000	12,207200
1735,000000	12,120200
1734,000000	12,036600
1733,000000	12,001700
1732,000000	12,002500
1731,000000	12,018700
1730,000000	12,050000
1729,000000	12,096200
1728,000000	12,162000
1727,000000	12,222100
1726,000000	12,291800
1725,000000	12,352500
1724,000000	12,416900
1723,000000	12,459900
1722,000000	12,482900
1721,000000	12,518800
1720,000000	12,539900
1719,000000	12,548900
1718,000000	12,550600
1717,000000	12,591900
1716,000000	12,635700
1715,000000	12,654100
1714,000000	12,693100
1713,000000	12,748000
1712,000000	12,795200
1711,000000	12,827400
1710,000000	12,858800
1709,000000	12,876500
1708,000000	12,874400
1707,000000	12,892200
1706,000000	12,874400
1705,000000	12,854600
1704,000000	12,806600
1703,000000	12,761400
1702,000000	12,720500
1701,000000	12,661400
1700,000000	12,583400
1699,000000	12,500300
1698,000000	12,413500
1697,000000	12,313500
1696,000000	12,237000
1695,000000	12,194400
1694,000000	12,177500
1693,000000	12,195000
1692,000000	12,251900
1691,000000	12,329300
1690,000000	12,447100
1689,000000	12,556500
1688,000000	12,623000
1687,000000	12,694200
1686,000000	12,741400
1685,000000	12,752000
1684,000000	12,781500
1683,000000	12,832700
1682,000000	12,954800
1681,000000	13,155300
1680,000000	13,394000
1679,000000	13,726700
1678,000000	14,097500
1677,000000	14,464300
1676,000000	14,848600
1675,000000	15,163800
1674,000000	15,451000
1673,000000	15,715900
1672,000000	15,978400
1671,000000	16,171500
1670,000000	16,336700
1669,000000	16,503600
1668,000000	16,620000
1667,000000	16,751400
1666,000000	16,841500
1665,000000	16,929200
1664,000000	17,020300
1663,000000	17,096000
1662,000000	17,143200
1661,000000	17,188300
1660,000000	17,230500
1659,000000	17,280400
1658,000000	17,315700
1657,000000	17,349500
1656,000000	17,350500
1655,000000	17,376000
1654,000000	17,374100
1653,000000	17,382300
1652,000000	17,349900
1651,000000	17,361000
1650,000000	17,330000
1649,000000	17,316100
1648,000000	17,295400
1647,000000	17,262500
1646,000000	17,240100
1645,000000	17,200000
1644,000000	17,168900
1643,000000	17,095100
1642,000000	17,073800
1641,000000	17,016300
1640,000000	16,997600
1639,000000	16,947200
1638,000000	16,886500
1637,000000	16,832400
1636,000000	16,788700
1635,000000	16,731900
1634,000000	16,685900
1633,000000	16,620600
1632,000000	16,561500
1631,000000	16,510200
1630,000000	16,448100
1629,000000	16,378600
1628,000000	16,331800
1627,000000	16,277100
1626,000000	16,193800
1625,000000	16,146300
1624,000000	16,091300
1623,000000	16,020800
1622,000000	15,967500
1621,000000	15,903900
1620,000000	15,853000
1619,000000	15,802100
1618,000000	15,720400
1617,000000	15,657900
1616,000000	15,614200
1615,000000	15,565700
1614,000000	15,528900
1613,000000	15,468900
1612,000000	15,410500
1611,000000	15,373700
1610,000000	15,321300
1609,000000	15,246800
1608,000000	15,201400
1607,000000	15,162700
1606,000000	15,119600
1605,000000	15,069500
1604,000000	15,007400
1603,000000	14,966600
1602,000000	14,911200
1601,000000	14,863900
1600,000000	14,812100
1599,000000	14,766200
1598,000000	14,710200
1597,000000	14,670900
1596,000000	14,615200
1595,000000	14,572200
1594,000000	14,519300
1593,000000	14,477000
1592,000000	14,446500
1591,000000	14,407100
1590,000000	14,376900
1589,000000	14,334400
1588,000000	14,311000
1587,000000	14,287700
1586,000000	14,264200
1585,000000	14,214400
1584,000000	14,173900
1583,000000	14,151900
1582,000000	14,137400
1581,000000	14,106200
1580,000000	14,084200
1579,000000	14,070400
1578,000000	14,054100
1577,000000	14,035200
1576,000000	14,020500
1575,000000	14,006800
1574,000000	13,995100
1573,000000	13,989000
1572,000000	13,992700
1571,000000	13,997200
1570,000000	13,994600
1569,000000	13,998200
1568,000000	13,995100
1567,000000	13,999600
1566,000000	14,016400
1565,000000	14,010300
1564,000000	14,010500
1563,000000	14,028600
1562,000000	14,019600
1561,000000	14,035900
1560,000000	14,056700
1559,000000	14,060500
1558,000000	14,051800
1557,000000	14,046500
1556,000000	14,045900
1555,000000	14,033600
1554,000000	14,026500
1553,000000	14,020900
1552,000000	14,011500
1551,000000	14,007300
1550,000000	13,995300
1549,000000	13,968900
1548,000000	13,956500
1547,000000	13,947200
1546,000000	13,928600
1545,000000	13,932600
1544,000000	13,929000
1543,000000	13,902700
1542,000000	13,905800
1541,000000	13,900000
1540,000000	13,884400
1539,000000	13,877200
1538,000000	13,878500
1537,000000	13,862700
1536,000000	13,836300
1535,000000	13,830500
1534,000000	13,821300
1533,000000	13,807000
1532,000000	13,798600
1531,000000	13,777100
1530,000000	13,758800
1529,000000	13,739300
1528,000000	13,722900
1527,000000	13,712000
1526,000000	13,691500
1525,000000	13,664000
1524,000000	13,634300
1523,000000	13,611000
1522,000000	13,590000
1521,000000	13,563500
1520,000000	13,525200
1519,000000	13,493300
1518,000000	13,469000
1517,000000	13,445600
1516,000000	13,420100
1515,000000	13,391600
1514,000000	13,361300
1513,000000	13,328500
1512,000000	13,289800
1511,000000	13,255800
1510,000000	13,234400
1509,000000	13,191900
1508,000000	13,154900
1507,000000	13,127600
1506,000000	13,094500
1505,000000	13,056500
1504,000000	13,014900
1503,000000	12,998100
1502,000000	12,962500
1501,000000	12,929900
1500,000000	12,906000
1499,000000	12,879300
1498,000000	12,852400
1497,000000	12,817000
1496,000000	12,789600
1495,000000	12,764600
1494,000000	12,753000
1493,000000	12,744100
1492,000000	12,716400
1491,000000	12,687700
1490,000000	12,668800
1489,000000	12,672900
1488,000000	12,662200
1487,000000	12,613900
1486,000000	12,600100
1485,000000	12,594500
1484,000000	12,579100
1483,000000	12,569700
1482,000000	12,550000
1481,000000	12,553100
1480,000000	12,552500
1479,000000	12,537700
1478,000000	12,533400
1477,000000	12,531600
1476,000000	12,535700
1475,000000	12,538000
1474,000000	12,539600
1473,000000	12,543900
1472,000000	12,550200
1471,000000	12,575500
1470,000000	12,559100
1469,000000	12,575400
1468,000000	12,573500
1467,000000	12,563500
1466,000000	12,579100
1465,000000	12,595800
1464,000000	12,607900
1463,000000	12,613600
1462,000000	12,638000
1461,000000	12,655100
1460,000000	12,687100
1459,000000	12,711700
1458,000000	12,749600
1457,000000	12,785400
1456,000000	12,826000
1455,000000	12,870400
1454,000000	12,897300
1453,000000	12,933600
1452,000000	12,991200
1451,000000	13,058000
1450,000000	13,105700
1449,000000	13,163200
1448,000000	13,201600
1447,000000	13,262600
1446,000000	13,319800
1445,000000	13,385500
1444,000000	13,459600
1443,000000	13,522100
1442,000000	13,597100
1441,000000	13,648500
1440,000000	13,724800
1439,000000	13,810000
1438,000000	13,882100
1437,000000	13,938000
1436,000000	14,007800
1435,000000	14,084700
1434,000000	14,178200
1433,000000	14,268700
1432,000000	14,370600
1431,000000	14,442100
1430,000000	14,546800
1429,000000	14,631000
1428,000000	14,734300
1427,000000	14,856600
1426,000000	14,976200
1425,000000	15,101000
1424,000000	15,246600
1423,000000	15,377400
1422,000000	15,533000
1421,000000	15,687200
1420,000000	15,842400
1419,000000	16,022800
1418,000000	16,233600
1417,000000	16,394300
1416,000000	16,554300
1415,000000	16,746900
1414,000000	16,960700
1413,000000	17,171400
1412,000000	17,381200
1411,000000	17,556700
1410,000000	17,784200
1409,000000	18,079700
1408,000000	18,365700
1407,000000	18,669100
1406,000000	18,983700
1405,000000	19,280300
1404,000000	19,644200
1403,000000	19,967200
1402,000000	20,305100
1401,000000	20,618600
1400,000000	21,010400
1399,000000	21,396000
1398,000000	21,705500
1397,000000	21,906900
1396,000000	22,164000
1395,000000	22,536700
1394,000000	22,821200
1393,000000	23,042000
1392,000000	23,258400
1391,000000	23,526100
1390,000000	23,843100
1389,000000	24,111100
1388,000000	24,419800
1387,000000	24,826400
1386,000000	25,225800
1385,000000	25,638700
1384,000000	26,088400
1383,000000	26,620200
1382,000000	27,153600
1381,000000	27,654400
1380,000000	28,080200
1379,000000	28,325400
1378,000000	28,621400
1377,000000	28,814200
1376,000000	28,969500
1375,000000	29,174500
1374,000000	29,381300
1373,000000	29,657600
1372,000000	29,973600
1371,000000	30,293000
1370,000000	30,716500
1369,000000	31,045000
1368,000000	31,348900
1367,000000	31,662600
1366,000000	31,943600
1365,000000	32,188300
1364,000000	32,394800
1363,000000	32,613900
1362,000000	32,768600
1361,000000	32,960400
1360,000000	33,152600
1359,000000	33,234000
1358,000000	33,328000
1357,000000	33,441300
1356,000000	33,595300
1355,000000	33,839200
1354,000000	34,177300
1353,000000	34,654900
1352,000000	35,057400
1351,000000	35,601500
1350,000000	36,118200
1349,000000	36,619700
1348,000000	37,085100
1347,000000	37,507800
1346,000000	37,928800
1345,000000	38,293700
1344,000000	38,633700
1343,000000	39,018600
1342,000000	39,384700
1341,000000	39,704100
1340,000000	40,039800
1339,000000	40,378800
1338,000000	40,702500
1337,000000	41,011500
1336,000000	41,309400
1335,000000	41,620400
1334,000000	41,920600
1333,000000	42,212500
1332,000000	42,495200
1331,000000	42,768300
1330,000000	43,032400
1329,000000	43,278000
1328,000000	43,547100
1327,000000	43,771600
1326,000000	43,995500
1325,000000	44,216200
1324,000000	44,422800
1323,000000	44,628300
1322,000000	44,822600
1321,000000	45,003400
1320,000000	45,168000
1319,000000	45,354000
1318,000000	45,524400
1317,000000	45,676500
1316,000000	45,836100
1315,000000	45,974700
1314,000000	46,122500
1313,000000	46,243100
1312,000000	46,374600
1311,000000	46,496400
1310,000000	46,611300
1309,000000	46,734100
1308,000000	46,823800
1307,000000	46,920700
1306,000000	46,994900
1305,000000	47,061000
1304,000000	47,135800
1303,000000	47,196300
1302,000000	47,237600
1301,000000	47,278700
1300,000000	47,330700
1299,000000	47,368800
1298,000000	47,388000
1297,000000	47,409400
1296,000000	47,445000
1295,000000	47,474600
1294,000000	47,485900
1293,000000	47,483200
1292,000000	47,491400
1291,000000	47,478000
1290,000000	47,465400
1289,000000	47,453500
1288,000000	47,435100
1287,000000	47,417900
1286,000000	47,369700
1285,000000	47,321700
1284,000000	47,274800
1283,000000	47,228100
1282,000000	47,162200
1281,000000	47,103200
1280,000000	47,034900
1279,000000	46,963900
1278,000000	46,908900
1277,000000	46,866200
1276,000000	46,799500
1275,000000	46,748700
1274,000000	46,690200
1273,000000	46,641000
1272,000000	46,608600
1271,000000	46,569300
1270,000000	46,528300
1269,000000	46,491800
1268,000000	46,443100
1267,000000	46,389300
1266,000000	46,348000
1265,000000	46,297000
1264,000000	46,242500
1263,000000	46,186900
1262,000000	46,139400
1261,000000	46,095500
1260,000000	46,036600
1259,000000	45,977700
1258,000000	45,920700
1257,000000	45,866400
1256,000000	45,817000
1255,000000	45,756900
1254,000000	45,673600
1253,000000	45,610700
1252,000000	45,532600
1251,000000	45,434900
1250,000000	45,355900
1249,000000	45,266600
1248,000000	45,164100
1247,000000	45,053500
1246,000000	44,954400
1245,000000	44,837100
1244,000000	44,713900
1243,000000	44,583100
1242,000000	44,436400
1241,000000	44,283300
1240,000000	44,133000
1239,000000	43,985700
1238,000000	43,826900
1237,000000	43,667000
1236,000000	43,501300
1235,000000	43,343700
1234,000000	43,173200
1233,000000	42,980100
1232,000000	42,797500
1231,000000	42,611000
1230,000000	42,419600
1229,000000	42,233700
1228,000000	42,032100
1227,000000	41,829100
1226,000000	41,628600
1225,000000	41,411700
1224,000000	41,205000
1223,000000	40,990700
1222,000000	40,784900
1221,000000	40,591700
1220,000000	40,385600
1219,000000	40,191900
1218,000000	40,004100
1217,000000	39,817700
1216,000000	39,638700
1215,000000	39,454400
1214,000000	39,293700
1213,000000	39,144700
1212,000000	38,992300
1211,000000	38,832800
1210,000000	38,692200
1209,000000	38,584100
1208,000000	38,457700
1207,000000	38,335700
1206,000000	38,223400
1205,000000	38,142600
1204,000000	38,086800
1203,000000	38,041000
1202,000000	37,989500
1201,000000	37,957000
1200,000000	37,916000
1199,000000	37,859100
1198,000000	37,795200
1197,000000	37,692000
1196,000000	37,558000
1195,000000	37,393000
1194,000000	37,164100
1193,000000	36,847700
1192,000000	36,485400
1191,000000	36,069200
1190,000000	35,617900
1189,000000	35,177500
1188,000000	34,794100
1187,000000	34,468600
1186,000000	34,273500
1185,000000	34,193700
1184,000000	34,230300
1183,000000	34,404800
1182,000000	34,716600
1181,000000	35,148600
1180,000000	35,651700
1179,000000	36,174900
1178,000000	36,674200
1177,000000	37,159000
1176,000000	37,576400
1175,000000	37,943400
1174,000000	38,289700
1173,000000	38,619500
1172,000000	38,930000
1171,000000	39,261300
1170,000000	39,615800
1169,000000	39,967900
1168,000000	40,328000
1167,000000	40,713500
1166,000000	41,078100
1165,000000	41,460000
1164,000000	41,841700
1163,000000	42,232400
1162,000000	42,652100
1161,000000	43,060600
1160,000000	43,442900
1159,000000	43,829000
1158,000000	44,213200
1157,000000	44,606800
1156,000000	44,952600
1155,000000	45,263000
1154,000000	45,545200
1153,000000	45,754500
1152,000000	45,914600
1151,000000	46,041100
1150,000000	46,126700
1149,000000	46,219600
1148,000000	46,288100
1147,000000	46,374600
1146,000000	46,476600
1145,000000	46,634200
1144,000000	46,874000
1143,000000	47,160300
1142,000000	47,520400
1141,000000	47,919200
1140,000000	48,326800
1139,000000	48,723600
1138,000000	49,148300
1137,000000	49,586600
1136,000000	50,047200
1135,000000	50,524500
1134,000000	51,028000
1133,000000	51,512100
1132,000000	51,932400
1131,000000	52,344900
1130,000000	52,687400
1129,000000	53,015200
1128,000000	53,292300
1127,000000	53,532400
1126,000000	53,736000
1125,000000	53,903300
1124,000000	54,019000
1123,000000	54,127100
1122,000000	54,215900
1121,000000	54,301500
1120,000000	54,382200
1119,000000	54,430400
1118,000000	54,473900
1117,000000	54,491500
1116,000000	54,501800
1115,000000	54,493500
1114,000000	54,499800
1113,000000	54,493500
1112,000000	54,498100
1111,000000	54,488000
1110,000000	54,469800
1109,000000	54,477300
1108,000000	54,455700
1107,000000	54,457900
1106,000000	54,437400
1105,000000	54,426100
1104,000000	54,404200
1103,000000	54,399800
1102,000000	54,374900
1101,000000	54,356500
1100,000000	54,337900
1099,000000	54,337900
1098,000000	54,280700
1097,000000	54,258600
1096,000000	54,243400
1095,000000	54,189400
1094,000000	54,154100
1093,000000	54,129100
1092,000000	54,076400
1091,000000	54,034000
1090,000000	53,984100
1089,000000	53,935700
1088,000000	53,866900
1087,000000	53,825900
1086,000000	53,764100
1085,000000	53,714100
1084,000000	53,639300
1083,000000	53,569500
1082,000000	53,526400
1081,000000	53,449700
1080,000000	53,384000
1079,000000	53,328800
1078,000000	53,276300
1077,000000	53,211300
1076,000000	53,130400
1075,000000	53,090300
1074,000000	53,009400
1073,000000	52,968600
1072,000000	52,897600
1071,000000	52,843600
1070,000000	52,771600
1069,000000	52,705000
1068,000000	52,648200
1067,000000	52,589100
1066,000000	52,523300
1065,000000	52,441700
1064,000000	52,373000
1063,000000	52,316500
1062,000000	52,236000
1061,000000	52,145900
1060,000000	52,083100
1059,000000	52,008300
1058,000000	51,933200
1057,000000	51,848200
1056,000000	51,783500
1055,000000	51,705300
1054,000000	51,619100
1053,000000	51,531300
1052,000000	51,434500
1051,000000	51,370400
1050,000000	51,292400
1049,000000	51,246800
1048,000000	51,178300
1047,000000	51,099500
1046,000000	51,041600
1045,000000	50,975800
1044,000000	50,915900
1043,000000	50,863600
1042,000000	50,792000
1041,000000	50,728300
1040,000000	50,662700
1039,000000	50,602600
1038,000000	50,541300
1037,000000	50,471700
1036,000000	50,409800
1035,000000	50,347800
1034,000000	50,264100
1033,000000	50,172300
1032,000000	50,111200
1031,000000	50,023400
1030,000000	49,939800
1029,000000	49,870000
1028,000000	49,792600
1027,000000	49,705200
1026,000000	49,611200
1025,000000	49,526700
1024,000000	49,415900
1023,000000	49,336100
1022,000000	49,242700
1021,000000	49,159900
1020,000000	49,061400
1019,000000	48,975900
1018,000000	48,906300
1017,000000	48,819200
1016,000000	48,747800
1015,000000	48,672700
1014,000000	48,599200
1013,000000	48,540600
1012,000000	48,506800
1011,000000	48,454500
1010,000000	48,403400
1009,000000	48,379700
1008,000000	48,358100
1007,000000	48,352600
1006,000000	48,336600
1005,000000	48,317400
1004,000000	48,290900
1003,000000	48,271400
1002,000000	48,264000
1001,000000	48,258100
1000,000000	48,233500
999,000000	48,202300
998,000000	48,188800
997,000000	48,185200
996,000000	48,179000
995,000000	48,150400
994,000000	48,131600
993,000000	48,128400
992,000000	48,114700
991,000000	48,114400
990,000000	48,091200
989,000000	48,098600
988,000000	48,103700
987,000000	48,108000
986,000000	48,099700
985,000000	48,085200
984,000000	48,099700
983,000000	48,116500
982,000000	48,117300
981,000000	48,125500
980,000000	48,139600
979,000000	48,156200
978,000000	48,164800
977,000000	48,176500
976,000000	48,176800
975,000000	48,182600
974,000000	48,181600
973,000000	48,203200
972,000000	48,224000
971,000000	48,233100
970,000000	48,232300
969,000000	48,238600
968,000000	48,265800
967,000000	48,270300
966,000000	48,267900
965,000000	48,284000
964,000000	48,301100
963,000000	48,331400
962,000000	48,347700
961,000000	48,379000
960,000000	48,395300
959,000000	48,418700
958,000000	48,463100
957,000000	48,483300
956,000000	48,493200
955,000000	48,499500
954,000000	48,496200
953,000000	48,523000
952,000000	48,561300
951,000000	48,558100
950,000000	48,547600
949,000000	48,554100
948,000000	48,557800
947,000000	48,583900
946,000000	48,592000
945,000000	48,599600
944,000000	48,606000
943,000000	48,588600
942,000000	48,586300
941,000000	48,575400
940,000000	48,574700
939,000000	48,560500
938,000000	48,538300
937,000000	48,528400
936,000000	48,534500
935,000000	48,519900
934,000000	48,499000
933,000000	48,476100
932,000000	48,462400
931,000000	48,474200
930,000000	48,458200
929,000000	48,426000
928,000000	48,399600
927,000000	48,396500
926,000000	48,381100
925,000000	48,354900
924,000000	48,304700
923,000000	48,264400
922,000000	48,280000
921,000000	48,256500
920,000000	48,200600
919,000000	48,167100
918,000000	48,125400
917,000000	48,084100
916,000000	48,029900
915,000000	47,970000
914,000000	47,913600
913,000000	47,863100
912,000000	47,814400
911,000000	47,753300
910,000000	47,703000
909,000000	47,652300
908,000000	47,607800
907,000000	47,586800
906,000000	47,548200
905,000000	47,514000
904,000000	47,501200
903,000000	47,477200
902,000000	47,461100
901,000000	47,458100
900,000000	47,424100
899,000000	47,407500
898,000000	47,398800
897,000000	47,396900
896,000000	47,388200
895,000000	47,379700
894,000000	47,326700
893,000000	47,271100
892,000000	47,248300
891,000000	47,198000
890,000000	47,165700
889,000000	47,138300
888,000000	47,084600
887,000000	47,003600
886,000000	46,947100
885,000000	46,857200
884,000000	46,795100
883,000000	46,717200
882,000000	46,645800
881,000000	46,555000
880,000000	46,478800
879,000000	46,377700
878,000000	46,283800
877,000000	46,153100
876,000000	46,002600
875,000000	45,879400
874,000000	45,767900
873,000000	45,588300
872,000000	45,405300
871,000000	45,300200
870,000000	45,295800
869,000000	45,349500
868,000000	45,369700
867,000000	45,418400
866,000000	45,449800
865,000000	45,472000
864,000000	45,499400
863,000000	45,533900
862,000000	45,566600
861,000000	45,596500
860,000000	45,635100
859,000000	45,661900
858,000000	45,666300
857,000000	51,488300
856,000000	52,928600
855,000000	52,887600
854,000000	53,042300
853,000000	52,804000
852,000000	52,697200
851,000000	52,828800
850,000000	53,044500
849,000000	52,773200
848,000000	52,712200
847,000000	52,925300
846,000000	52,695900
845,000000	52,896200
844,000000	52,989200
843,000000	52,898500
842,000000	52,911900
841,000000	52,960400
840,000000	53,205500
839,000000	53,000200
838,000000	52,865400
837,000000	52,739000
836,000000	52,613300
835,000000	52,677200
834,000000	52,787300
833,000000	52,737100
832,000000	52,726800
831,000000	52,863700
830,000000	52,646600
829,000000	52,636600
828,000000	52,590000
827,000000	52,552400
826,000000	52,728000
825,000000	52,746300
824,000000	52,622200
823,000000	52,592900
822,000000	52,276400
821,000000	52,462200
820,000000	52,372000
819,000000	52,409300
818,000000	52,210100
817,000000	52,260900
816,000000	52,180800
815,000000	52,049000
814,000000	52,033900
813,000000	52,078100
812,000000	52,006500
811,000000	51,901900
810,000000	51,699200
809,000000	51,900900
808,000000	51,704900
807,000000	51,748600
806,000000	51,661100
805,000000	51,456100
804,000000	51,419600
803,000000	51,412300
802,000000	51,350000
801,000000	51,295100
800,000000	51,161600
799,000000	51,180000
798,000000	50,987700
797,000000	50,871300
796,000000	50,874500
795,000000	50,748500
794,000000	50,752900
793,000000	50,586800
792,000000	50,352300
791,000000	50,392500
790,000000	50,146700
789,000000	50,127900
788,000000	50,058900
787,000000	50,020600
786,000000	49,931700
785,000000	49,767300
784,000000	49,710300
783,000000	49,546900
782,000000	49,508400
781,000000	49,435900
780,000000	49,135300
779,000000	49,117400
778,000000	48,936000
777,000000	48,856000
776,000000	48,793100
775,000000	48,603100
774,000000	48,549000
773,000000	48,332100
772,000000	48,246600
771,000000	48,044200
770,000000	47,984400
769,000000	47,882300
768,000000	47,793800
767,000000	47,605800
766,000000	47,488900
765,000000	47,355700
764,000000	47,276700
763,000000	47,104900
762,000000	46,913000
761,000000	46,821900
760,000000	46,716300
759,000000	46,573300
758,000000	46,390000
757,000000	46,215600
756,000000	45,969200
755,000000	45,765400
754,000000	45,603700
753,000000	45,455600
752,000000	45,262100
751,000000	45,089700
750,000000	44,855900
749,000000	44,617900
748,000000	44,399400
747,000000	44,168100
746,000000	44,021200
745,000000	43,758500
744,000000	43,544700
743,000000	43,329000
742,000000	43,074700
741,000000	42,853700
740,000000	42,587200
739,000000	42,387600
738,000000	42,081900
737,000000	41,871100
736,000000	41,547200
735,000000	41,306600
734,000000	41,043900
733,000000	40,800300
732,000000	40,570900
731,000000	40,310100
730,000000	40,015500
729,000000	39,734600
728,000000	39,546000
727,000000	39,282300
726,000000	38,993800
725,000000	38,727800
724,000000	38,435700
723,000000	38,190200
722,000000	37,864500
721,000000	37,574400
720,000000	37,327700
719,000000	37,030600
718,000000	36,722100
717,000000	36,500100
716,000000	36,230400
715,000000	35,977400
714,000000	35,720500
713,000000	35,444900
712,000000	35,168800
711,000000	34,935600
710,000000	34,670100
709,000000	34,390500
708,000000	34,135900
707,000000	33,885600
706,000000	33,619600
705,000000	33,425800
704,000000	33,182900
703,000000	32,931700
702,000000	32,708900
701,000000	32,528400
700,000000	32,299300
699,000000	32,051200
698,000000	31,848200
697,000000	31,672000
696,000000	31,490200
695,000000	31,295300
694,000000	31,120500
693,000000	30,934900
692,000000	30,703200
691,000000	30,505600
690,000000	30,352500
689,000000	30,206600
688,000000	30,055300
687,000000	29,872700
686,000000	29,693300
685,000000	29,546200
684,000000	29,403200
683,000000	29,258000
682,000000	29,115500
681,000000	28,956600
680,000000	28,800500
679,000000	28,663200
678,000000	28,536200
677,000000	28,401300
676,000000	28,279900
675,000000	28,136400
674,000000	28,004100
673,000000	27,869000
672,000000	27,760100
671,000000	27,653500
670,000000	27,544600
669,000000	27,415000
668,000000	27,319000
667,000000	27,214800
666,000000	27,125300
665,000000	27,043100
664,000000	26,949800
663,000000	26,876300
662,000000	26,825800
661,000000	26,758500
660,000000	26,690100
659,000000	26,614600
658,000000	26,548600
657,000000	26,513700
656,000000	26,470400
655,000000	26,410700
654,000000	26,322200
653,000000	26,285600
652,000000	26,289000
651,000000	26,237200
650,000000	26,188700
649,000000	26,187800
648,000000	26,170200
647,000000	26,115900
646,000000	26,080900
645,000000	26,066200
644,000000	26,065900
643,000000	26,063500
642,000000	26,041600
641,000000	26,043800
640,000000	26,061600
639,000000	26,066400
638,000000	26,094200
637,000000	26,124900
636,000000	26,158200
635,000000	26,216900
634,000000	26,266400
633,000000	26,332600
632,000000	26,412500
631,000000	26,468500
630,000000	26,516600
629,000000	26,597600
628,000000	26,703300
627,000000	26,794000
626,000000	26,906500
625,000000	27,003200
624,000000	27,093500
623,000000	27,224700
622,000000	27,355500
621,000000	27,462700
620,000000	27,557900
619,000000	27,684600
618,000000	27,810300
617,000000	27,917800
616,000000	28,063100
615,000000	28,216900
614,000000	28,351300
613,000000	28,482800
612,000000	28,643900
611,000000	28,797500
610,000000	28,937000
609,000000	29,086400
608,000000	29,253400
607,000000	29,403300
606,000000	29,548300
605,000000	29,693900
604,000000	29,848600
603,000000	30,011500
602,000000	30,146300
601,000000	30,298500
600,000000	30,416100
599,000000	30,563300
598,000000	30,697300
597,000000	30,806300
596,000000	30,933100
595,000000	31,032900
594,000000	31,126700
593,000000	31,233200
592,000000	31,329700
591,000000	31,388500
590,000000	31,457800
589,000000	31,524000
588,000000	31,594700
587,000000	31,634900
586,000000	31,653000
585,000000	31,694700
584,000000	31,727900
583,000000	31,728000
582,000000	31,716900
581,000000	31,711800
580,000000	31,693500
579,000000	31,676300
578,000000	31,653000
577,000000	31,617600
576,000000	31,559500
575,000000	31,499100
574,000000	31,423800
573,000000	31,338200
572,000000	31,254700
571,000000	31,170600
570,000000	31,074400
569,000000	30,960500
568,000000	30,868900
567,000000	30,712800
566,000000	30,564300
565,000000	30,423300
564,000000	30,256600
563,000000	30,082100
562,000000	29,884700
561,000000	29,683700
560,000000	29,515100
559,000000	29,307100
558,000000	29,087400
557,000000	28,840400
556,000000	28,606100
555,000000	28,362100
554,000000	28,100400
553,000000	27,796900
552,000000	27,505500
551,000000	27,204700
550,000000	26,891100
549,000000	26,580100
548,000000	26,267100
547,000000	25,949700
546,000000	25,624300
545,000000	25,305900
544,000000	24,950600
543,000000	24,603300
542,000000	24,254300
541,000000	23,920300
540,000000	23,569100
539,000000	23,230000
538,000000	22,894700
537,000000	22,562700
536,000000	22,212900
535,000000	21,876700
534,000000	21,543100
533,000000	21,208700
532,000000	20,873100
531,000000	20,576900
530,000000	20,243200
529,000000	19,938000
528,000000	19,650300
527,000000	19,359100
526,000000	19,064300
525,000000	18,767800
524,000000	18,495200
523,000000	18,229900
522,000000	17,967100
521,000000	17,722100
520,000000	17,489400
519,000000	17,246000
518,000000	17,015200
517,000000	16,797400
516,000000	16,584500
515,000000	16,368400
514,000000	16,176800
513,000000	15,981300
512,000000	15,814800
511,000000	15,630600
510,000000	15,477200
509,000000	15,320200
508,000000	15,166200
507,000000	15,038000
506,000000	14,881800
505,000000	14,771600
504,000000	14,679400
503,000000	14,544400
502,000000	14,451000
501,000000	14,326000
500,000000	14,229000
499,000000	14,149900
498,000000	14,061400
497,000000	13,970100
496,000000	13,892200
495,000000	13,833500
494,000000	13,745000
493,000000	13,690800
492,000000	13,603100
491,000000	13,547300
490,000000	13,490400
489,000000	13,445100
488,000000	13,385700
487,000000	13,309100
486,000000	13,258300
485,000000	13,215600
484,000000	13,152000
483,000000	13,094800
482,000000	13,017000
481,000000	12,951500
480,000000	12,866400
479,000000	12,767700
478,000000	12,696600
477,000000	12,610300
476,000000	12,530500
475,000000	12,441600
474,000000	12,357200
473,000000	12,286400
472,000000	12,182200
471,000000	12,090900
470,000000	12,005300
469,000000	11,924200
468,000000	11,844400
467,000000	11,737300
466,000000	11,650300
465,000000	11,560800
464,000000	11,474900
463,000000	11,371500
462,000000	11,260800
461,000000	11,175300
460,000000	11,102300
459,000000	10,974900
458,000000	10,897800
457,000000	10,809300
456,000000	10,704100
455,000000	10,610400
454,000000	10,513500
453,000000	10,423200
452,000000	10,296700
451,000000	10,215400
450,000000	10,090300
449,000000	9,999700
448,000000	9,900700
447,000000	9,803300
446,000000	9,693100
445,000000	9,577100
444,000000	9,474000
443,000000	9,377900
442,000000	9,293600
441,000000	9,147200
440,000000	9,034300
439,000000	8,923800
438,000000	8,836100
437,000000	8,711000
436,000000	8,614400
435,000000	8,488100
434,000000	8,401400
433,000000	8,284100
432,000000	8,172200
431,000000	8,070600
430,000000	7,988600
429,000000	7,884900
428,000000	7,779900
427,000000	7,697200
426,000000	7,617700
425,000000	7,518000
424,000000	7,420200
423,000000	7,339000
422,000000	7,235000
421,000000	7,170800
420,000000	7,088400
419,000000	7,015200
418,000000	6,923600
417,000000	6,843800
416,000000	6,769800
415,000000	6,693700
414,000000	6,629900
413,000000	6,548800
412,000000	6,473000
411,000000	6,404000
410,000000	6,332800
409,000000	6,264900
408,000000	6,215200
407,000000	6,169900
406,000000	6,123500
405,000000	6,061500
404,000000	6,010900
403,000000	5,950400
402,000000	5,898100
401,000000	5,867800
400,000000	5,824100
399,000000	5,767800
398,000000	5,708600
397,000000	5,662500
396,000000	5,627600
395,000000	5,603700
394,000000	5,567500
393,000000	5,521800
392,000000	5,483600
391,000000	5,435100
390,000000	5,400300
389,000000	5,379300
388,000000	5,341900
387,000000	5,324100
386,000000	5,286800
385,000000	5,273300
384,000000	5,276600
383,000000	5,240400
382,000000	5,207100
381,000000	5,197000
380,000000	5,164400
379,000000	5,127700
378,000000	5,117000
377,000000	5,100900
376,000000	5,059500
375,000000	4,962400
374,000000	4,922800
373,000000	4,867100
372,000000	4,805900
371,000000	4,824500
370,000000	4,804600
369,000000	4,894200
368,000000	4,888900
367,000000	4,933300
366,000000	4,868200
365,000000	4,787400
364,000000	4,884800
363,000000	4,842900
362,000000	4,722100
361,000000	4,805400
360,000000	4,887700
359,000000	4,793100
358,000000	4,792700
357,000000	4,853300
356,000000	4,811400
355,000000	4,798900
354,000000	4,749700
353,000000	4,649100
352,000000	4,761800
351,000000	4,820200
350,000000	4,838000
349,000000	4,764800
348,000000	4,684200
347,000000	4,671800
346,000000	4,632300
345,000000	4,666000
344,000000	4,780500
343,000000	4,852800
342,000000	4,813000
341,000000	4,732900
340,000000	4,702300
339,000000	4,704100
338,000000	4,749700
337,000000	4,791700
336,000000	4,916200
335,000000	4,810500
334,000000	4,600700
333,000000	4,627200
332,000000	4,882600
331,000000	5,065400
330,000000	4,922100
329,000000	4,690400
328,000000	4,588600
327,000000	4,772300
326,000000	5,127300
325,000000	4,978500
324,000000	4,614000
323,000000	4,666500
322,000000	4,904300
321,000000	4,787500
320,000000	4,933600
319,000000	5,078100
318,000000	5,113200
317,000000	5,004300
316,000000	4,804800
315,000000	4,792800
314,000000	4,768900
313,000000	4,735700
312,000000	4,774400
311,000000	4,775500
310,000000	4,748400
309,000000	4,753100
308,000000	4,759400
307,000000	4,752500
306,000000	4,742600
305,000000	4,774400
304,000000	4,778100
303,000000	4,760300
302,000000	4,806300
301,000000	4,807400
300,000000	4,792700
299,000000	4,798300
298,000000	4,794300
297,000000	4,781100
296,000000	4,759600
295,000000	4,791800
294,000000	4,817600
293,000000	4,812100
292,000000	4,812900
291,000000	4,804100
290,000000	4,815600
289,000000	4,813800
288,000000	4,805500
287,000000	4,800000
286,000000	4,798800
285,000000	4,804700
284,000000	4,796900
283,000000	4,789800
282,000000	4,818400
281,000000	4,815300
280,000000	4,828800
279,000000	4,860600
278,000000	4,839200
277,000000	4,853100
276,000000	4,865900
275,000000	4,875700
274,000000	4,880600
273,000000	4,874600
272,000000	4,893100
271,000000	4,907200
270,000000	4,924300
269,000000	4,944500
268,000000	4,932300
267,000000	4,961400
266,000000	4,993300
265,000000	5,002400
264,000000	5,026700
263,000000	5,035500
262,000000	5,047500
261,000000	5,095300
260,000000	5,120700
259,000000	5,103400
258,000000	5,146100
257,000000	5,182700
256,000000	5,172100
255,000000	5,184800
254,000000	5,208400
253,000000	5,220600
252,000000	5,232000
251,000000	5,234900
250,000000	5,250600
