PE UV       SUBTECH     SPECTRUM    ASCII       PEDS        4.00        
   -1
CICIMAUCR0261-3.ASC
24/07/01
17:03:09.00
24/07/01
17:03:09.00
Vinicio Soto Monge
C. resplendens. Sex M. Ventral
250,000000
1
Lambda 1050
1050L1511233
PerkinElmer UV WinLab 6.3.2.0749 / 2.02.05 Lambda 900 UV/VIS/NIR, Aug  7 2015 09:38:08

0
0
3350/servo 860,8/2
0
0
UV/VIS
1
1
1
DoubleDePol,CommonBeamDepol,RBeamAtt,SBeamAtt,60mm sphere, WB InGaAs Detector
0
0
0
0
Program
Program
3350/servo 860,8/2
3350/0,2 860,8/0,2
3350/0,2 860,8/0,2
0
15.00
 
 
 
0
 
860,8
319,2
860,8
Front
100
on
S:100 R:100
0
0
0
0
 
0
 
 
 
0
 
 
0
0
0
0
0
 
 
 
 
0
0


0
0
#HDR
-1
-1
#GR
nm
%R
1.0
0.0
2500,000000
-1,000000
2251
8
46,448200
4,460900
#DATA
2500,000000	5,713500
2499,000000	5,640900
2498,000000	5,742400
2497,000000	5,788300
2496,000000	5,528500
2495,000000	5,520700
2494,000000	5,462300
2493,000000	5,429400
2492,000000	5,526500
2491,000000	5,492100
2490,000000	5,494600
2489,000000	5,510700
2488,000000	5,547900
2487,000000	5,515200
2486,000000	5,462200
2485,000000	5,453700
2484,000000	5,461000
2483,000000	5,450300
2482,000000	5,397100
2481,000000	5,378100
2480,000000	5,466700
2479,000000	5,453800
2478,000000	5,404700
2477,000000	5,430600
2476,000000	5,406200
2475,000000	5,417600
2474,000000	5,398600
2473,000000	5,416500
2472,000000	5,374300
2471,000000	5,405700
2470,000000	5,354500
2469,000000	5,351200
2468,000000	5,391000
2467,000000	5,361900
2466,000000	5,362200
2465,000000	5,375500
2464,000000	5,347100
2463,000000	5,357100
2462,000000	5,380400
2461,000000	5,372900
2460,000000	5,380000
2459,000000	5,340100
2458,000000	5,377300
2457,000000	5,389500
2456,000000	5,387200
2455,000000	5,411100
2454,000000	5,433800
2453,000000	5,415000
2452,000000	5,436800
2451,000000	5,437800
2450,000000	5,477400
2449,000000	5,477200
2448,000000	5,515100
2447,000000	5,515100
2446,000000	5,515900
2445,000000	5,549700
2444,000000	5,557800
2443,000000	5,564000
2442,000000	5,587700
2441,000000	5,582200
2440,000000	5,621500
2439,000000	5,634900
2438,000000	5,627800
2437,000000	5,645100
2436,000000	5,683000
2435,000000	5,702500
2434,000000	5,719200
2433,000000	5,707700
2432,000000	5,727000
2431,000000	5,734600
2430,000000	5,756400
2429,000000	5,758000
2428,000000	5,781300
2427,000000	5,799500
2426,000000	5,803600
2425,000000	5,811800
2424,000000	5,825800
2423,000000	5,853300
2422,000000	5,881800
2421,000000	5,886200
2420,000000	5,877800
2419,000000	5,890200
2418,000000	5,905700
2417,000000	5,907600
2416,000000	5,914000
2415,000000	5,929600
2414,000000	5,950100
2413,000000	5,966300
2412,000000	5,981600
2411,000000	5,988000
2410,000000	5,991700
2409,000000	5,991000
2408,000000	5,997900
2407,000000	6,013500
2406,000000	6,021800
2405,000000	6,024500
2404,000000	6,033700
2403,000000	6,043000
2402,000000	6,055600
2401,000000	6,063400
2400,000000	6,076300
2399,000000	6,067900
2398,000000	6,077800
2397,000000	6,084700
2396,000000	6,096900
2395,000000	6,110900
2394,000000	6,105600
2393,000000	6,124400
2392,000000	6,136800
2391,000000	6,145200
2390,000000	6,140400
2389,000000	6,137400
2388,000000	6,151700
2387,000000	6,170400
2386,000000	6,167000
2385,000000	6,168300
2384,000000	6,161700
2383,000000	6,159700
2382,000000	6,172500
2381,000000	6,162500
2380,000000	6,160900
2379,000000	6,175200
2378,000000	6,178500
2377,000000	6,175100
2376,000000	6,176400
2375,000000	6,176000
2374,000000	6,165700
2373,000000	6,153400
2372,000000	6,155200
2371,000000	6,158100
2370,000000	6,146800
2369,000000	6,135800
2368,000000	6,136000
2367,000000	6,126200
2366,000000	6,120100
2365,000000	6,117700
2364,000000	6,108900
2363,000000	6,113800
2362,000000	6,101100
2361,000000	6,069500
2360,000000	6,055600
2359,000000	6,051200
2358,000000	6,037700
2357,000000	6,017700
2356,000000	6,016000
2355,000000	6,016800
2354,000000	6,008300
2353,000000	6,001600
2352,000000	5,996300
2351,000000	5,989800
2350,000000	5,989500
2349,000000	5,982100
2348,000000	5,986200
2347,000000	5,995700
2346,000000	6,002700
2345,000000	6,013100
2344,000000	6,008800
2343,000000	6,021800
2342,000000	6,032700
2341,000000	6,027300
2340,000000	6,042900
2339,000000	6,047100
2338,000000	6,052600
2337,000000	6,066600
2336,000000	6,056700
2335,000000	6,043700
2334,000000	6,046600
2333,000000	6,072100
2332,000000	6,061300
2331,000000	6,031400
2330,000000	6,015000
2329,000000	6,002900
2328,000000	5,989900
2327,000000	5,980300
2326,000000	5,984900
2325,000000	5,962500
2324,000000	5,940900
2323,000000	5,928100
2322,000000	5,914400
2321,000000	5,893100
2320,000000	5,864400
2319,000000	5,839900
2318,000000	5,813600
2317,000000	5,796500
2316,000000	5,777900
2315,000000	5,736300
2314,000000	5,696600
2313,000000	5,666500
2312,000000	5,655400
2311,000000	5,635000
2310,000000	5,616400
2309,000000	5,592100
2308,000000	5,561000
2307,000000	5,561300
2306,000000	5,555200
2305,000000	5,538400
2304,000000	5,528900
2303,000000	5,528600
2302,000000	5,519100
2301,000000	5,536100
2300,000000	5,551600
2299,000000	5,554100
2298,000000	5,562500
2297,000000	5,581500
2296,000000	5,622000
2295,000000	5,643100
2294,000000	5,653700
2293,000000	5,651000
2292,000000	5,673600
2291,000000	5,691100
2290,000000	5,701400
2289,000000	5,716100
2288,000000	5,716100
2287,000000	5,726500
2286,000000	5,700900
2285,000000	5,718300
2284,000000	5,719700
2283,000000	5,705300
2282,000000	5,702900
2281,000000	5,698600
2280,000000	5,674100
2279,000000	5,655000
2278,000000	5,642700
2277,000000	5,641300
2276,000000	5,617600
2275,000000	5,603100
2274,000000	5,590300
2273,000000	5,582300
2272,000000	5,578000
2271,000000	5,574500
2270,000000	5,581400
2269,000000	5,577500
2268,000000	5,574300
2267,000000	5,603300
2266,000000	5,610500
2265,000000	5,630200
2264,000000	5,659600
2263,000000	5,694000
2262,000000	5,732500
2261,000000	5,776300
2260,000000	5,813500
2259,000000	5,858200
2258,000000	5,925800
2257,000000	5,981100
2256,000000	6,046800
2255,000000	6,118100
2254,000000	6,185100
2253,000000	6,269200
2252,000000	6,327800
2251,000000	6,383000
2250,000000	6,451700
2249,000000	6,523300
2248,000000	6,571500
2247,000000	6,649800
2246,000000	6,677000
2245,000000	6,776700
2244,000000	6,803400
2243,000000	6,873700
2242,000000	6,889600
2241,000000	6,913200
2240,000000	6,963500
2239,000000	6,999900
2238,000000	7,030400
2237,000000	7,062000
2236,000000	7,099600
2235,000000	7,123200
2234,000000	7,123300
2233,000000	7,144200
2232,000000	7,170900
2231,000000	7,195500
2230,000000	7,192600
2229,000000	7,226300
2228,000000	7,212200
2227,000000	7,224200
2226,000000	7,233700
2225,000000	7,225200
2224,000000	7,223900
2223,000000	7,211500
2222,000000	7,190800
2221,000000	7,217800
2220,000000	7,197800
2219,000000	7,181100
2218,000000	7,167200
2217,000000	7,159400
2216,000000	7,153300
2215,000000	7,121200
2214,000000	7,117100
2213,000000	7,116100
2212,000000	7,101300
2211,000000	7,103400
2210,000000	7,100300
2209,000000	7,088400
2208,000000	7,051200
2207,000000	7,068400
2206,000000	7,050500
2205,000000	7,039900
2204,000000	7,019100
2203,000000	7,025200
2202,000000	7,007900
2201,000000	7,030000
2200,000000	7,000100
2199,000000	7,005000
2198,000000	6,986300
2197,000000	6,990100
2196,000000	6,986700
2195,000000	6,976000
2194,000000	6,970900
2193,000000	6,967900
2192,000000	6,973900
2191,000000	6,949300
2190,000000	6,942300
2189,000000	6,941600
2188,000000	6,935300
2187,000000	6,936400
2186,000000	6,937700
2185,000000	6,928100
2184,000000	6,935800
2183,000000	6,908000
2182,000000	6,931400
2181,000000	6,922000
2180,000000	6,904500
2179,000000	6,906100
2178,000000	6,904300
2177,000000	6,892500
2176,000000	6,889800
2175,000000	6,901200
2174,000000	6,887400
2173,000000	6,905900
2172,000000	6,891900
2171,000000	6,888100
2170,000000	6,887300
2169,000000	6,892400
2168,000000	6,918100
2167,000000	6,907900
2166,000000	6,911500
2165,000000	6,905500
2164,000000	6,932200
2163,000000	6,957800
2162,000000	6,962900
2161,000000	6,967700
2160,000000	6,958400
2159,000000	6,974600
2158,000000	6,985600
2157,000000	7,003700
2156,000000	7,009600
2155,000000	7,031900
2154,000000	7,039100
2153,000000	7,051300
2152,000000	7,088900
2151,000000	7,099000
2150,000000	7,104200
2149,000000	7,108400
2148,000000	7,120400
2147,000000	7,166000
2146,000000	7,165000
2145,000000	7,173400
2144,000000	7,194500
2143,000000	7,215200
2142,000000	7,215900
2141,000000	7,227700
2140,000000	7,246300
2139,000000	7,263000
2138,000000	7,262600
2137,000000	7,285500
2136,000000	7,304600
2135,000000	7,312400
2134,000000	7,304200
2133,000000	7,306500
2132,000000	7,305700
2131,000000	7,311700
2130,000000	7,335300
2129,000000	7,344900
2128,000000	7,340100
2127,000000	7,328700
2126,000000	7,327200
2125,000000	7,319700
2124,000000	7,335800
2123,000000	7,324100
2122,000000	7,321400
2121,000000	7,328500
2120,000000	7,327400
2119,000000	7,314900
2118,000000	7,306500
2117,000000	7,289400
2116,000000	7,269700
2115,000000	7,277800
2114,000000	7,276200
2113,000000	7,256700
2112,000000	7,240400
2111,000000	7,235800
2110,000000	7,224900
2109,000000	7,221400
2108,000000	7,215200
2107,000000	7,209400
2106,000000	7,206000
2105,000000	7,200100
2104,000000	7,175900
2103,000000	7,152400
2102,000000	7,140700
2101,000000	7,129500
2100,000000	7,124600
2099,000000	7,121800
2098,000000	7,116600
2097,000000	7,115900
2096,000000	7,101300
2095,000000	7,078400
2094,000000	7,076000
2093,000000	7,068900
2092,000000	7,064100
2091,000000	7,064000
2090,000000	7,061900
2089,000000	7,062700
2088,000000	7,048300
2087,000000	7,038900
2086,000000	7,037600
2085,000000	7,028200
2084,000000	7,018800
2083,000000	7,013600
2082,000000	7,005900
2081,000000	6,990200
2080,000000	6,982500
2079,000000	6,976800
2078,000000	6,962200
2077,000000	6,938800
2076,000000	6,921500
2075,000000	6,913300
2074,000000	6,900900
2073,000000	6,878500
2072,000000	6,865000
2071,000000	6,854200
2070,000000	6,845100
2069,000000	6,829200
2068,000000	6,795200
2067,000000	6,780100
2066,000000	6,770400
2065,000000	6,756100
2064,000000	6,729700
2063,000000	6,720600
2062,000000	6,706700
2061,000000	6,685800
2060,000000	6,678100
2059,000000	6,667100
2058,000000	6,647900
2057,000000	6,628700
2056,000000	6,626900
2055,000000	6,629700
2054,000000	6,613300
2053,000000	6,612000
2052,000000	6,631700
2051,000000	6,642900
2050,000000	6,635500
2049,000000	6,653600
2048,000000	6,678200
2047,000000	6,691500
2046,000000	6,708400
2045,000000	6,721800
2044,000000	6,750900
2043,000000	6,779100
2042,000000	6,789800
2041,000000	6,813800
2040,000000	6,838600
2039,000000	6,859500
2038,000000	6,881300
2037,000000	6,900900
2036,000000	6,909500
2035,000000	6,934100
2034,000000	6,968100
2033,000000	6,974500
2032,000000	6,986000
2031,000000	6,996100
2030,000000	6,998600
2029,000000	7,013000
2028,000000	7,032000
2027,000000	7,016200
2026,000000	7,020000
2025,000000	7,033500
2024,000000	7,046300
2023,000000	7,053000
2022,000000	7,057700
2021,000000	7,044100
2020,000000	7,038600
2019,000000	7,054700
2018,000000	7,061800
2017,000000	7,054100
2016,000000	7,043800
2015,000000	7,032700
2014,000000	7,035700
2013,000000	7,037200
2012,000000	7,008300
2011,000000	7,021300
2010,000000	7,011900
2009,000000	7,011800
2008,000000	7,003500
2007,000000	6,983100
2006,000000	6,963900
2005,000000	6,944400
2004,000000	6,929500
2003,000000	6,930500
2002,000000	6,908900
2001,000000	6,887000
2000,000000	6,857700
1999,000000	6,845900
1998,000000	6,834600
1997,000000	6,818900
1996,000000	6,783500
1995,000000	6,770700
1994,000000	6,751000
1993,000000	6,699300
1992,000000	6,696900
1991,000000	6,682300
1990,000000	6,648100
1989,000000	6,623000
1988,000000	6,572900
1987,000000	6,561700
1986,000000	6,559000
1985,000000	6,522400
1984,000000	6,486800
1983,000000	6,478400
1982,000000	6,432100
1981,000000	6,435200
1980,000000	6,390300
1979,000000	6,363000
1978,000000	6,337800
1977,000000	6,321600
1976,000000	6,280100
1975,000000	6,277400
1974,000000	6,234100
1973,000000	6,201900
1972,000000	6,199400
1971,000000	6,183700
1970,000000	6,137300
1969,000000	6,133500
1968,000000	6,105100
1967,000000	6,089500
1966,000000	6,070100
1965,000000	6,033200
1964,000000	6,029900
1963,000000	6,010000
1962,000000	5,973500
1961,000000	5,966200
1960,000000	5,953800
1959,000000	5,950800
1958,000000	5,925000
1957,000000	5,922500
1956,000000	5,872100
1955,000000	5,843500
1954,000000	5,852200
1953,000000	5,841900
1952,000000	5,799000
1951,000000	5,796600
1950,000000	5,779500
1949,000000	5,779900
1948,000000	5,745600
1947,000000	5,740600
1946,000000	5,747100
1945,000000	5,743300
1944,000000	5,716600
1943,000000	5,713700
1942,000000	5,688300
1941,000000	5,677100
1940,000000	5,659000
1939,000000	5,684100
1938,000000	5,679300
1937,000000	5,667200
1936,000000	5,688800
1935,000000	5,700600
1934,000000	5,677500
1933,000000	5,685500
1932,000000	5,705800
1931,000000	5,700500
1930,000000	5,725800
1929,000000	5,727700
1928,000000	5,738100
1927,000000	5,758100
1926,000000	5,788700
1925,000000	5,796800
1924,000000	5,835800
1923,000000	5,834900
1922,000000	5,854900
1921,000000	5,895300
1920,000000	5,946600
1919,000000	5,988800
1918,000000	6,022200
1917,000000	6,056300
1916,000000	6,110400
1915,000000	6,109500
1914,000000	6,175700
1913,000000	6,230300
1912,000000	6,286800
1911,000000	6,350400
1910,000000	6,405100
1909,000000	6,461200
1908,000000	6,523000
1907,000000	6,563600
1906,000000	6,643800
1905,000000	6,720600
1904,000000	6,820500
1903,000000	6,885400
1902,000000	6,997100
1901,000000	7,080000
1900,000000	7,165400
1899,000000	7,310400
1898,000000	7,436100
1897,000000	7,558600
1896,000000	7,675100
1895,000000	7,793100
1894,000000	7,909600
1893,000000	8,064600
1892,000000	8,222600
1891,000000	8,400700
1890,000000	8,590200
1889,000000	8,803800
1888,000000	8,979500
1887,000000	9,211700
1886,000000	9,415200
1885,000000	9,675500
1884,000000	9,941700
1883,000000	10,231700
1882,000000	10,537300
1881,000000	10,850300
1880,000000	11,141300
1879,000000	11,449500
1878,000000	11,725900
1877,000000	12,047600
1876,000000	12,372100
1875,000000	12,645200
1874,000000	12,952300
1873,000000	13,221800
1872,000000	13,521400
1871,000000	13,810300
1870,000000	14,084900
1869,000000	14,336900
1868,000000	14,587200
1867,000000	14,779500
1866,000000	14,971500
1865,000000	15,134000
1864,000000	15,280700
1863,000000	15,432600
1862,000000	15,574900
1861,000000	15,691500
1860,000000	15,814800
1859,000000	15,936600
1858,000000	16,044200
1857,000000	16,135400
1856,000000	16,209600
1855,000000	16,283400
1854,000000	16,355000
1853,000000	16,404600
1852,000000	16,439700
1851,000000	16,470000
1850,000000	16,494800
1849,000000	16,532300
1848,000000	16,558700
1847,000000	16,565600
1846,000000	16,589500
1845,000000	16,585200
1844,000000	16,574900
1843,000000	16,563900
1842,000000	16,562000
1841,000000	16,568000
1840,000000	16,586100
1839,000000	16,573300
1838,000000	16,565000
1837,000000	16,549300
1836,000000	16,532100
1835,000000	16,504300
1834,000000	16,478700
1833,000000	16,455000
1832,000000	16,418000
1831,000000	16,386600
1830,000000	16,365700
1829,000000	16,333600
1828,000000	16,307100
1827,000000	16,259700
1826,000000	16,213800
1825,000000	16,185800
1824,000000	16,160100
1823,000000	16,139000
1822,000000	16,107600
1821,000000	16,094800
1820,000000	16,086900
1819,000000	16,061800
1818,000000	16,040900
1817,000000	16,015400
1816,000000	16,006900
1815,000000	16,001400
1814,000000	15,989900
1813,000000	15,977400
1812,000000	15,961000
1811,000000	15,960300
1810,000000	15,939300
1809,000000	15,897000
1808,000000	15,871700
1807,000000	15,843500
1806,000000	15,818900
1805,000000	15,797600
1804,000000	15,764400
1803,000000	15,737600
1802,000000	15,714200
1801,000000	15,687300
1800,000000	15,652900
1799,000000	15,613700
1798,000000	15,581400
1797,000000	15,543000
1796,000000	15,512600
1795,000000	15,495400
1794,000000	15,470000
1793,000000	15,429300
1792,000000	15,392800
1791,000000	15,355300
1790,000000	15,323400
1789,000000	15,291300
1788,000000	15,253000
1787,000000	15,225900
1786,000000	15,203300
1785,000000	15,171400
1784,000000	15,129300
1783,000000	15,084200
1782,000000	15,034100
1781,000000	14,991300
1780,000000	14,956900
1779,000000	14,920800
1778,000000	14,879500
1777,000000	14,828200
1776,000000	14,778500
1775,000000	14,727300
1774,000000	14,676500
1773,000000	14,618600
1772,000000	14,573300
1771,000000	14,507900
1770,000000	14,451500
1769,000000	14,400900
1768,000000	14,330200
1767,000000	14,264000
1766,000000	14,220800
1765,000000	14,169400
1764,000000	14,114400
1763,000000	14,095900
1762,000000	14,091800
1761,000000	14,098500
1760,000000	14,123700
1759,000000	14,154400
1758,000000	14,185200
1757,000000	14,224500
1756,000000	14,259700
1755,000000	14,304600
1754,000000	14,351800
1753,000000	14,378000
1752,000000	14,413300
1751,000000	14,430900
1750,000000	14,439600
1749,000000	14,432000
1748,000000	14,427000
1747,000000	14,405700
1746,000000	14,370400
1745,000000	14,330000
1744,000000	14,284300
1743,000000	14,230100
1742,000000	14,149700
1741,000000	14,059100
1740,000000	13,957900
1739,000000	13,830000
1738,000000	13,715600
1737,000000	13,597600
1736,000000	13,487800
1735,000000	13,402300
1734,000000	13,336800
1733,000000	13,296600
1732,000000	13,275400
1731,000000	13,271600
1730,000000	13,274600
1729,000000	13,324400
1728,000000	13,389200
1727,000000	13,423100
1726,000000	13,482600
1725,000000	13,551900
1724,000000	13,608900
1723,000000	13,657900
1722,000000	13,682100
1721,000000	13,719200
1720,000000	13,774500
1719,000000	13,788700
1718,000000	13,834300
1717,000000	13,885300
1716,000000	13,962400
1715,000000	14,020700
1714,000000	14,081800
1713,000000	14,143300
1712,000000	14,198800
1711,000000	14,249000
1710,000000	14,296700
1709,000000	14,316200
1708,000000	14,337500
1707,000000	14,342700
1706,000000	14,356000
1705,000000	14,325600
1704,000000	14,293600
1703,000000	14,259500
1702,000000	14,215000
1701,000000	14,153100
1700,000000	14,071200
1699,000000	14,002400
1698,000000	13,894000
1697,000000	13,811300
1696,000000	13,732000
1695,000000	13,677100
1694,000000	13,674000
1693,000000	13,667900
1692,000000	13,681800
1691,000000	13,756400
1690,000000	13,839000
1689,000000	13,913500
1688,000000	13,999100
1687,000000	14,080200
1686,000000	14,153700
1685,000000	14,168500
1684,000000	14,226000
1683,000000	14,310200
1682,000000	14,406300
1681,000000	14,565800
1680,000000	14,772200
1679,000000	15,065400
1678,000000	15,370600
1677,000000	15,683600
1676,000000	15,991800
1675,000000	16,278300
1674,000000	16,566900
1673,000000	16,784400
1672,000000	17,007300
1671,000000	17,185300
1670,000000	17,349500
1669,000000	17,489300
1668,000000	17,621600
1667,000000	17,759400
1666,000000	17,866300
1665,000000	17,951600
1664,000000	18,043000
1663,000000	18,098500
1662,000000	18,163000
1661,000000	18,230800
1660,000000	18,256000
1659,000000	18,322000
1658,000000	18,341700
1657,000000	18,396900
1656,000000	18,406700
1655,000000	18,428900
1654,000000	18,426600
1653,000000	18,434300
1652,000000	18,414300
1651,000000	18,423000
1650,000000	18,411800
1649,000000	18,369400
1648,000000	18,357100
1647,000000	18,342700
1646,000000	18,312500
1645,000000	18,269100
1644,000000	18,236700
1643,000000	18,226600
1642,000000	18,189700
1641,000000	18,134200
1640,000000	18,096000
1639,000000	18,055700
1638,000000	18,025300
1637,000000	17,985600
1636,000000	17,921300
1635,000000	17,882300
1634,000000	17,854600
1633,000000	17,795600
1632,000000	17,743200
1631,000000	17,687000
1630,000000	17,635200
1629,000000	17,572000
1628,000000	17,546300
1627,000000	17,490400
1626,000000	17,413800
1625,000000	17,358800
1624,000000	17,299900
1623,000000	17,225800
1622,000000	17,190100
1621,000000	17,144300
1620,000000	17,103500
1619,000000	17,040500
1618,000000	16,975600
1617,000000	16,929700
1616,000000	16,905400
1615,000000	16,849500
1614,000000	16,765600
1613,000000	16,734700
1612,000000	16,684200
1611,000000	16,634700
1610,000000	16,576800
1609,000000	16,529100
1608,000000	16,488000
1607,000000	16,434000
1606,000000	16,385200
1605,000000	16,327600
1604,000000	16,262200
1603,000000	16,203900
1602,000000	16,159000
1601,000000	16,095200
1600,000000	16,056000
1599,000000	15,997100
1598,000000	15,956600
1597,000000	15,894300
1596,000000	15,860300
1595,000000	15,800000
1594,000000	15,745500
1593,000000	15,699300
1592,000000	15,650000
1591,000000	15,603900
1590,000000	15,549300
1589,000000	15,524000
1588,000000	15,478200
1587,000000	15,424100
1586,000000	15,384500
1585,000000	15,352000
1584,000000	15,311800
1583,000000	15,271500
1582,000000	15,240100
1581,000000	15,187800
1580,000000	15,166500
1579,000000	15,144800
1578,000000	15,107800
1577,000000	15,085000
1576,000000	15,050700
1575,000000	15,022500
1574,000000	15,006100
1573,000000	14,982900
1572,000000	14,986300
1571,000000	14,983700
1570,000000	14,965000
1569,000000	14,930200
1568,000000	14,932700
1567,000000	14,917700
1566,000000	14,910200
1565,000000	14,906200
1564,000000	14,902400
1563,000000	14,901200
1562,000000	14,893100
1561,000000	14,878600
1560,000000	14,857600
1559,000000	14,847700
1558,000000	14,839500
1557,000000	14,825600
1556,000000	14,807700
1555,000000	14,801000
1554,000000	14,767600
1553,000000	14,744900
1552,000000	14,726000
1551,000000	14,701500
1550,000000	14,676200
1549,000000	14,647800
1548,000000	14,607000
1547,000000	14,569700
1546,000000	14,539600
1545,000000	14,520100
1544,000000	14,495300
1543,000000	14,474400
1542,000000	14,441900
1541,000000	14,427800
1540,000000	14,401000
1539,000000	14,387500
1538,000000	14,371900
1537,000000	14,347300
1536,000000	14,328700
1535,000000	14,282100
1534,000000	14,248600
1533,000000	14,227400
1532,000000	14,204600
1531,000000	14,182100
1530,000000	14,162900
1529,000000	14,125200
1528,000000	14,086100
1527,000000	14,047400
1526,000000	14,023900
1525,000000	13,991900
1524,000000	13,957800
1523,000000	13,915500
1522,000000	13,869100
1521,000000	13,832700
1520,000000	13,785900
1519,000000	13,732100
1518,000000	13,699600
1517,000000	13,665000
1516,000000	13,615200
1515,000000	13,565500
1514,000000	13,514800
1513,000000	13,467600
1512,000000	13,435200
1511,000000	13,394800
1510,000000	13,343200
1509,000000	13,293600
1508,000000	13,247800
1507,000000	13,209500
1506,000000	13,151300
1505,000000	13,103100
1504,000000	13,047000
1503,000000	12,988000
1502,000000	12,957900
1501,000000	12,911900
1500,000000	12,864600
1499,000000	12,816500
1498,000000	12,773300
1497,000000	12,746000
1496,000000	12,713900
1495,000000	12,678400
1494,000000	12,628800
1493,000000	12,589500
1492,000000	12,563700
1491,000000	12,544500
1490,000000	12,521900
1489,000000	12,492100
1488,000000	12,452300
1487,000000	12,431800
1486,000000	12,404800
1485,000000	12,378000
1484,000000	12,351700
1483,000000	12,322300
1482,000000	12,301300
1481,000000	12,276500
1480,000000	12,265100
1479,000000	12,249800
1478,000000	12,222700
1477,000000	12,218900
1476,000000	12,213600
1475,000000	12,196400
1474,000000	12,187200
1473,000000	12,188100
1472,000000	12,183200
1471,000000	12,178900
1470,000000	12,174600
1469,000000	12,176100
1468,000000	12,169000
1467,000000	12,172000
1466,000000	12,180700
1465,000000	12,191600
1464,000000	12,200500
1463,000000	12,196800
1462,000000	12,192100
1461,000000	12,218400
1460,000000	12,258300
1459,000000	12,275900
1458,000000	12,280000
1457,000000	12,322300
1456,000000	12,369300
1455,000000	12,388800
1454,000000	12,432400
1453,000000	12,465500
1452,000000	12,514400
1451,000000	12,552600
1450,000000	12,607600
1449,000000	12,637700
1448,000000	12,696200
1447,000000	12,737000
1446,000000	12,813500
1445,000000	12,857100
1444,000000	12,902200
1443,000000	12,961500
1442,000000	13,027300
1441,000000	13,093800
1440,000000	13,155900
1439,000000	13,223500
1438,000000	13,305800
1437,000000	13,378800
1436,000000	13,447900
1435,000000	13,532200
1434,000000	13,592300
1433,000000	13,681100
1432,000000	13,771800
1431,000000	13,876200
1430,000000	13,961600
1429,000000	14,056200
1428,000000	14,151600
1427,000000	14,278200
1426,000000	14,402500
1425,000000	14,518200
1424,000000	14,663800
1423,000000	14,806700
1422,000000	14,963000
1421,000000	15,120800
1420,000000	15,277900
1419,000000	15,452800
1418,000000	15,647100
1417,000000	15,839700
1416,000000	16,004300
1415,000000	16,223800
1414,000000	16,430000
1413,000000	16,681400
1412,000000	16,902400
1411,000000	17,103600
1410,000000	17,360400
1409,000000	17,656900
1408,000000	17,957400
1407,000000	18,260100
1406,000000	18,563200
1405,000000	18,907100
1404,000000	19,271400
1403,000000	19,596200
1402,000000	19,965100
1401,000000	20,281900
1400,000000	20,696100
1399,000000	21,109400
1398,000000	21,437700
1397,000000	21,711500
1396,000000	22,024700
1395,000000	22,457600
1394,000000	22,830500
1393,000000	23,151100
1392,000000	23,476500
1391,000000	23,878000
1390,000000	24,251000
1389,000000	24,617900
1388,000000	25,037300
1387,000000	25,538300
1386,000000	26,013400
1385,000000	26,486200
1384,000000	26,983400
1383,000000	27,505300
1382,000000	28,024600
1381,000000	28,534500
1380,000000	28,959000
1379,000000	29,279800
1378,000000	29,553100
1377,000000	29,761800
1376,000000	29,973500
1375,000000	30,197100
1374,000000	30,394100
1373,000000	30,645400
1372,000000	30,904900
1371,000000	31,178500
1370,000000	31,495700
1369,000000	31,755600
1368,000000	32,006000
1367,000000	32,254400
1366,000000	32,483500
1365,000000	32,675500
1364,000000	32,866200
1363,000000	33,049500
1362,000000	33,182500
1361,000000	33,349700
1360,000000	33,522000
1359,000000	33,594400
1358,000000	33,678300
1357,000000	33,759700
1356,000000	33,889400
1355,000000	34,028500
1354,000000	34,274700
1353,000000	34,567100
1352,000000	34,877300
1351,000000	35,182500
1350,000000	35,538200
1349,000000	35,874600
1348,000000	36,174200
1347,000000	36,490300
1346,000000	36,806600
1345,000000	37,040100
1344,000000	37,325400
1343,000000	37,629500
1342,000000	37,873100
1341,000000	38,116400
1340,000000	38,386500
1339,000000	38,647100
1338,000000	38,904900
1337,000000	39,144900
1336,000000	39,387300
1335,000000	39,619800
1334,000000	39,861900
1333,000000	40,079100
1332,000000	40,286000
1331,000000	40,514700
1330,000000	40,735100
1329,000000	40,936700
1328,000000	41,131400
1327,000000	41,315200
1326,000000	41,516100
1325,000000	41,684700
1324,000000	41,860900
1323,000000	42,010600
1322,000000	42,183300
1321,000000	42,335500
1320,000000	42,480500
1319,000000	42,618800
1318,000000	42,727600
1317,000000	42,854300
1316,000000	42,985000
1315,000000	43,106900
1314,000000	43,227100
1313,000000	43,335000
1312,000000	43,416500
1311,000000	43,515900
1310,000000	43,617900
1309,000000	43,706200
1308,000000	43,786200
1307,000000	43,871900
1306,000000	43,921200
1305,000000	43,978600
1304,000000	44,035000
1303,000000	44,087500
1302,000000	44,127200
1301,000000	44,151500
1300,000000	44,184100
1299,000000	44,202000
1298,000000	44,230300
1297,000000	44,248500
1296,000000	44,273300
1295,000000	44,287200
1294,000000	44,295200
1293,000000	44,298900
1292,000000	44,293700
1291,000000	44,298700
1290,000000	44,295700
1289,000000	44,282700
1288,000000	44,257800
1287,000000	44,223000
1286,000000	44,205600
1285,000000	44,187000
1284,000000	44,142000
1283,000000	44,098300
1282,000000	44,048300
1281,000000	44,016000
1280,000000	43,980400
1279,000000	43,923900
1278,000000	43,871500
1277,000000	43,825100
1276,000000	43,769400
1275,000000	43,729800
1274,000000	43,700800
1273,000000	43,663100
1272,000000	43,628100
1271,000000	43,593200
1270,000000	43,554300
1269,000000	43,522300
1268,000000	43,469700
1267,000000	43,415500
1266,000000	43,378700
1265,000000	43,354300
1264,000000	43,295800
1263,000000	43,247500
1262,000000	43,205000
1261,000000	43,159000
1260,000000	43,110400
1259,000000	43,058900
1258,000000	43,009100
1257,000000	42,961600
1256,000000	42,909800
1255,000000	42,857800
1254,000000	42,805700
1253,000000	42,741700
1252,000000	42,668800
1251,000000	42,591800
1250,000000	42,511200
1249,000000	42,435700
1248,000000	42,379200
1247,000000	42,296100
1246,000000	42,197300
1245,000000	42,104500
1244,000000	42,004900
1243,000000	41,901000
1242,000000	41,806500
1241,000000	41,706100
1240,000000	41,603600
1239,000000	41,504300
1238,000000	41,403100
1237,000000	41,295900
1236,000000	41,186500
1235,000000	41,077200
1234,000000	40,973400
1233,000000	40,845600
1232,000000	40,724500
1231,000000	40,602200
1230,000000	40,468800
1229,000000	40,344800
1228,000000	40,219800
1227,000000	40,090200
1226,000000	39,958200
1225,000000	39,824600
1224,000000	39,683300
1223,000000	39,538200
1222,000000	39,409500
1221,000000	39,267500
1220,000000	39,117900
1219,000000	38,975100
1218,000000	38,844700
1217,000000	38,715600
1216,000000	38,580800
1215,000000	38,447800
1214,000000	38,331600
1213,000000	38,209100
1212,000000	38,082900
1211,000000	37,964400
1210,000000	37,851200
1209,000000	37,720600
1208,000000	37,614000
1207,000000	37,520600
1206,000000	37,410100
1205,000000	37,316800
1204,000000	37,226900
1203,000000	37,159600
1202,000000	37,096000
1201,000000	37,009400
1200,000000	36,953700
1199,000000	36,890600
1198,000000	36,807800
1197,000000	36,722000
1196,000000	36,621800
1195,000000	36,502800
1194,000000	36,346300
1193,000000	36,155200
1192,000000	35,936300
1191,000000	35,684700
1190,000000	35,406500
1189,000000	35,137300
1188,000000	34,904000
1187,000000	34,704200
1186,000000	34,553100
1185,000000	34,450700
1184,000000	34,428500
1183,000000	34,495700
1182,000000	34,630300
1181,000000	34,825800
1180,000000	35,067900
1179,000000	35,335600
1178,000000	35,604000
1177,000000	35,851600
1176,000000	36,073700
1175,000000	36,258800
1174,000000	36,430000
1173,000000	36,602100
1172,000000	36,755400
1171,000000	36,892600
1170,000000	37,077700
1169,000000	37,240100
1168,000000	37,419000
1167,000000	37,587000
1166,000000	37,752300
1165,000000	37,941000
1164,000000	38,121100
1163,000000	38,318400
1162,000000	38,509400
1161,000000	38,702800
1160,000000	38,884300
1159,000000	39,079000
1158,000000	39,259600
1157,000000	39,436200
1156,000000	39,594000
1155,000000	39,749200
1154,000000	39,881400
1153,000000	39,994100
1152,000000	40,078000
1151,000000	40,150100
1150,000000	40,203500
1149,000000	40,230600
1148,000000	40,284900
1147,000000	40,328100
1146,000000	40,373700
1145,000000	40,459000
1144,000000	40,565500
1143,000000	40,664000
1142,000000	40,820500
1141,000000	40,978900
1140,000000	41,130300
1139,000000	41,300400
1138,000000	41,466700
1137,000000	41,664200
1136,000000	41,881600
1135,000000	42,093800
1134,000000	42,305700
1133,000000	42,479200
1132,000000	42,625400
1131,000000	42,768900
1130,000000	42,897500
1129,000000	43,014800
1128,000000	43,105000
1127,000000	43,177400
1126,000000	43,199600
1125,000000	43,242000
1124,000000	43,256700
1123,000000	43,249300
1122,000000	43,254500
1121,000000	43,236800
1120,000000	43,195600
1119,000000	43,175300
1118,000000	43,127600
1117,000000	43,068800
1116,000000	43,026400
1115,000000	42,974100
1114,000000	42,913500
1113,000000	42,848700
1112,000000	42,777100
1111,000000	42,732800
1110,000000	42,674300
1109,000000	42,615900
1108,000000	42,551100
1107,000000	42,488500
1106,000000	42,424000
1105,000000	42,359400
1104,000000	42,293300
1103,000000	42,238500
1102,000000	42,167900
1101,000000	42,095100
1100,000000	42,051300
1099,000000	41,973800
1098,000000	41,893900
1097,000000	41,815200
1096,000000	41,762400
1095,000000	41,670600
1094,000000	41,601900
1093,000000	41,527800
1092,000000	41,454200
1091,000000	41,371300
1090,000000	41,275400
1089,000000	41,205200
1088,000000	41,137400
1087,000000	41,027800
1086,000000	40,951200
1085,000000	40,865600
1084,000000	40,779000
1083,000000	40,685100
1082,000000	40,612700
1081,000000	40,506300
1080,000000	40,437200
1079,000000	40,353400
1078,000000	40,265900
1077,000000	40,176800
1076,000000	40,082400
1075,000000	40,014200
1074,000000	39,893400
1073,000000	39,818000
1072,000000	39,723500
1071,000000	39,638700
1070,000000	39,548800
1069,000000	39,477400
1068,000000	39,358500
1067,000000	39,274500
1066,000000	39,173600
1065,000000	39,077600
1064,000000	38,997700
1063,000000	38,911000
1062,000000	38,828800
1061,000000	38,735300
1060,000000	38,630500
1059,000000	38,522900
1058,000000	38,427400
1057,000000	38,345800
1056,000000	38,230600
1055,000000	38,176700
1054,000000	38,056200
1053,000000	37,954800
1052,000000	37,857900
1051,000000	37,772900
1050,000000	37,687300
1049,000000	37,594300
1048,000000	37,500600
1047,000000	37,399400
1046,000000	37,334900
1045,000000	37,245900
1044,000000	37,150500
1043,000000	37,042300
1042,000000	36,974300
1041,000000	36,890900
1040,000000	36,787800
1039,000000	36,710000
1038,000000	36,633900
1037,000000	36,550100
1036,000000	36,452400
1035,000000	36,380700
1034,000000	36,287100
1033,000000	36,205400
1032,000000	36,114900
1031,000000	36,038800
1030,000000	35,933000
1029,000000	35,839500
1028,000000	35,768700
1027,000000	35,684700
1026,000000	35,593200
1025,000000	35,496200
1024,000000	35,435700
1023,000000	35,342800
1022,000000	35,239800
1021,000000	35,171000
1020,000000	35,075100
1019,000000	34,990300
1018,000000	34,936500
1017,000000	34,857900
1016,000000	34,750400
1015,000000	34,683600
1014,000000	34,614500
1013,000000	34,563700
1012,000000	34,489400
1011,000000	34,421400
1010,000000	34,369600
1009,000000	34,323000
1008,000000	34,263800
1007,000000	34,210000
1006,000000	34,147300
1005,000000	34,111900
1004,000000	34,044500
1003,000000	34,006200
1002,000000	33,953700
1001,000000	33,907000
1000,000000	33,874100
999,000000	33,833000
998,000000	33,782900
997,000000	33,756600
996,000000	33,707600
995,000000	33,655100
994,000000	33,634400
993,000000	33,586000
992,000000	33,543800
991,000000	33,516300
990,000000	33,490900
989,000000	33,463400
988,000000	33,439100
987,000000	33,390800
986,000000	33,370800
985,000000	33,342700
984,000000	33,337200
983,000000	33,321400
982,000000	33,298000
981,000000	33,276400
980,000000	33,265300
979,000000	33,254200
978,000000	33,243400
977,000000	33,230800
976,000000	33,233100
975,000000	33,225600
974,000000	33,223000
973,000000	33,227700
972,000000	33,218600
971,000000	33,204800
970,000000	33,205700
969,000000	33,211600
968,000000	33,225500
967,000000	33,235800
966,000000	33,223100
965,000000	33,240500
964,000000	33,255600
963,000000	33,256300
962,000000	33,273200
961,000000	33,284100
960,000000	33,285700
959,000000	33,311600
958,000000	33,338300
957,000000	33,346500
956,000000	33,349200
955,000000	33,379000
954,000000	33,406200
953,000000	33,425900
952,000000	33,461100
951,000000	33,489200
950,000000	33,510300
949,000000	33,541000
948,000000	33,565500
947,000000	33,587500
946,000000	33,633800
945,000000	33,679600
944,000000	33,685600
943,000000	33,703600
942,000000	33,746100
941,000000	33,778000
940,000000	33,796200
939,000000	33,835100
938,000000	33,868900
937,000000	33,895300
936,000000	33,915000
935,000000	33,940200
934,000000	33,974000
933,000000	34,023900
932,000000	34,057200
931,000000	34,081500
930,000000	34,109300
929,000000	34,142100
928,000000	34,182600
927,000000	34,213200
926,000000	34,245200
925,000000	34,302300
924,000000	34,336600
923,000000	34,348800
922,000000	34,379900
921,000000	34,399000
920,000000	34,422100
919,000000	34,463200
918,000000	34,519700
917,000000	34,561200
916,000000	34,582300
915,000000	34,581600
914,000000	34,599900
913,000000	34,663000
912,000000	34,691200
911,000000	34,726500
910,000000	34,765700
909,000000	34,795300
908,000000	34,821400
907,000000	34,834900
906,000000	34,871700
905,000000	34,893600
904,000000	34,914900
903,000000	34,972900
902,000000	35,004800
901,000000	35,044100
900,000000	35,087900
899,000000	35,130700
898,000000	35,154500
897,000000	35,186200
896,000000	35,224600
895,000000	35,248900
894,000000	35,280900
893,000000	35,314200
892,000000	35,332500
891,000000	35,327600
890,000000	35,353300
889,000000	35,386900
888,000000	35,417800
887,000000	35,422200
886,000000	35,424300
885,000000	35,430700
884,000000	35,442100
883,000000	35,418000
882,000000	35,446600
881,000000	35,450300
880,000000	35,436800
879,000000	35,446800
878,000000	35,434400
877,000000	35,438800
876,000000	35,412300
875,000000	35,369400
874,000000	35,344600
873,000000	35,272400
872,000000	35,191000
871,000000	35,099300
870,000000	35,017700
869,000000	35,009700
868,000000	35,085900
867,000000	35,161600
866,000000	35,288600
865,000000	35,401300
864,000000	35,481100
863,000000	35,586100
862,000000	35,674700
861,000000	35,765700
860,000000	35,863900
859,000000	35,998300
858,000000	36,087800
857,000000	42,027200
856,000000	43,382200
855,000000	43,168400
854,000000	43,680300
853,000000	43,722700
852,000000	44,216300
851,000000	43,907200
850,000000	44,135400
849,000000	44,198200
848,000000	44,052200
847,000000	44,217600
846,000000	44,474900
845,000000	44,488600
844,000000	44,533000
843,000000	44,778900
842,000000	44,993900
841,000000	44,830800
840,000000	44,848200
839,000000	45,278100
838,000000	45,145700
837,000000	45,314700
836,000000	45,466100
835,000000	45,466400
834,000000	45,490400
833,000000	45,665400
832,000000	45,604600
831,000000	45,566100
830,000000	45,695800
829,000000	45,683200
828,000000	45,758600
827,000000	45,956600
826,000000	45,953000
825,000000	46,075500
824,000000	45,923700
823,000000	46,065600
822,000000	46,012600
821,000000	46,216500
820,000000	46,061000
819,000000	46,172100
818,000000	46,250700
817,000000	46,197100
816,000000	46,189300
815,000000	46,189600
814,000000	46,350400
813,000000	46,188300
812,000000	46,257400
811,000000	46,190300
810,000000	46,195100
809,000000	46,253500
808,000000	46,284300
807,000000	46,433800
806,000000	46,330200
805,000000	46,296400
804,000000	46,448200
803,000000	46,251500
802,000000	46,312100
801,000000	46,331300
800,000000	46,297500
799,000000	46,356500
798,000000	46,308600
797,000000	46,246300
796,000000	46,330300
795,000000	46,200100
794,000000	46,136400
793,000000	46,067800
792,000000	46,130900
791,000000	46,074600
790,000000	46,003300
789,000000	45,980300
788,000000	46,088700
787,000000	46,055100
786,000000	45,891900
785,000000	45,991500
784,000000	45,945400
783,000000	45,791400
782,000000	45,850000
781,000000	45,798800
780,000000	45,779100
779,000000	45,707400
778,000000	45,613200
777,000000	45,518200
776,000000	45,426300
775,000000	45,452500
774,000000	45,414400
773,000000	45,350200
772,000000	45,224700
771,000000	45,081400
770,000000	45,180900
769,000000	45,078200
768,000000	44,883800
767,000000	44,826500
766,000000	44,800000
765,000000	44,829700
764,000000	44,786600
763,000000	44,610300
762,000000	44,512500
761,000000	44,409800
760,000000	44,371400
759,000000	44,342200
758,000000	44,238000
757,000000	44,072400
756,000000	43,999500
755,000000	43,841800
754,000000	43,745000
753,000000	43,600500
752,000000	43,491900
751,000000	43,334500
750,000000	43,219400
749,000000	43,143500
748,000000	43,041500
747,000000	42,892400
746,000000	42,815300
745,000000	42,692800
744,000000	42,524900
743,000000	42,401200
742,000000	42,258100
741,000000	42,176000
740,000000	41,945300
739,000000	41,785100
738,000000	41,627200
737,000000	41,480000
736,000000	41,296100
735,000000	41,153300
734,000000	40,969700
733,000000	40,783600
732,000000	40,632400
731,000000	40,461800
730,000000	40,322600
729,000000	40,145100
728,000000	39,940900
727,000000	39,760300
726,000000	39,568800
725,000000	39,420800
724,000000	39,200700
723,000000	39,003400
722,000000	38,793400
721,000000	38,549500
720,000000	38,390600
719,000000	38,164000
718,000000	37,949900
717,000000	37,781300
716,000000	37,561900
715,000000	37,325200
714,000000	37,118800
713,000000	36,877500
712,000000	36,708200
711,000000	36,502400
710,000000	36,314200
709,000000	36,072400
708,000000	35,880000
707,000000	35,653900
706,000000	35,417200
705,000000	35,197500
704,000000	35,017400
703,000000	34,829100
702,000000	34,594700
701,000000	34,399000
700,000000	34,194000
699,000000	33,999500
698,000000	33,799200
697,000000	33,558300
696,000000	33,365100
695,000000	33,176100
694,000000	32,968500
693,000000	32,752100
692,000000	32,558700
691,000000	32,347100
690,000000	32,167800
689,000000	31,961200
688,000000	31,752000
687,000000	31,596400
686,000000	31,395500
685,000000	31,247100
684,000000	31,065000
683,000000	30,882200
682,000000	30,707600
681,000000	30,528600
680,000000	30,365900
679,000000	30,197100
678,000000	30,036900
677,000000	29,875500
676,000000	29,694300
675,000000	29,525300
674,000000	29,381100
673,000000	29,251200
672,000000	29,090500
671,000000	28,945300
670,000000	28,821900
669,000000	28,695000
668,000000	28,553600
667,000000	28,411300
666,000000	28,268200
665,000000	28,160100
664,000000	28,038800
663,000000	27,911000
662,000000	27,801900
661,000000	27,681900
660,000000	27,568100
659,000000	27,471000
658,000000	27,376100
657,000000	27,280200
656,000000	27,210700
655,000000	27,135100
654,000000	27,040100
653,000000	26,971900
652,000000	26,893900
651,000000	26,814000
650,000000	26,756400
649,000000	26,713400
648,000000	26,646900
647,000000	26,597100
646,000000	26,563200
645,000000	26,514600
644,000000	26,474700
643,000000	26,447300
642,000000	26,428600
641,000000	26,398400
640,000000	26,374900
639,000000	26,352500
638,000000	26,348200
637,000000	26,336700
636,000000	26,346800
635,000000	26,360700
634,000000	26,370300
633,000000	26,395500
632,000000	26,407300
631,000000	26,428300
630,000000	26,477100
629,000000	26,522700
628,000000	26,557900
627,000000	26,589000
626,000000	26,644800
625,000000	26,725000
624,000000	26,799800
623,000000	26,885800
622,000000	26,970000
621,000000	27,069600
620,000000	27,170200
619,000000	27,274600
618,000000	27,381900
617,000000	27,495600
616,000000	27,602600
615,000000	27,722300
614,000000	27,863800
613,000000	27,990400
612,000000	28,127100
611,000000	28,279800
610,000000	28,434900
609,000000	28,579500
608,000000	28,727200
607,000000	28,875900
606,000000	29,018400
605,000000	29,175000
604,000000	29,321800
603,000000	29,465900
602,000000	29,630200
601,000000	29,770700
600,000000	29,909000
599,000000	30,071900
598,000000	30,205800
597,000000	30,325400
596,000000	30,472500
595,000000	30,595600
594,000000	30,714300
593,000000	30,848600
592,000000	30,959900
591,000000	31,081800
590,000000	31,192900
589,000000	31,299900
588,000000	31,372800
587,000000	31,449200
586,000000	31,547300
585,000000	31,625800
584,000000	31,680800
583,000000	31,726300
582,000000	31,759100
581,000000	31,818500
580,000000	31,861200
579,000000	31,897900
578,000000	31,922800
577,000000	31,923000
576,000000	31,910400
575,000000	31,911300
574,000000	31,896200
573,000000	31,851000
572,000000	31,807300
571,000000	31,781200
570,000000	31,713300
569,000000	31,638000
568,000000	31,572800
567,000000	31,499600
566,000000	31,409100
565,000000	31,296200
564,000000	31,202400
563,000000	31,077200
562,000000	30,953100
561,000000	30,810500
560,000000	30,658000
559,000000	30,426400
558,000000	30,273400
557,000000	30,114500
556,000000	29,944400
555,000000	29,756000
554,000000	29,614500
553,000000	29,300800
552,000000	29,054400
551,000000	28,818300
550,000000	28,595500
549,000000	28,327200
548,000000	28,076400
547,000000	27,819300
546,000000	27,557600
545,000000	27,295700
544,000000	27,023600
543,000000	26,726100
542,000000	26,445900
541,000000	26,159800
540,000000	25,863900
539,000000	25,561200
538,000000	25,245100
537,000000	24,936600
536,000000	24,615300
535,000000	24,322600
534,000000	24,005700
533,000000	23,699000
532,000000	23,369300
531,000000	23,047200
530,000000	22,708000
529,000000	22,399200
528,000000	22,092700
527,000000	21,785700
526,000000	21,458100
525,000000	21,150800
524,000000	20,849600
523,000000	20,521400
522,000000	20,219800
521,000000	19,928300
520,000000	19,639300
519,000000	19,349000
518,000000	19,074900
517,000000	18,797400
516,000000	18,514000
515,000000	18,243300
514,000000	17,990200
513,000000	17,727300
512,000000	17,492600
511,000000	17,252100
510,000000	17,001200
509,000000	16,794800
508,000000	16,589600
507,000000	16,388500
506,000000	16,191000
505,000000	15,996200
504,000000	15,804400
503,000000	15,667000
502,000000	15,459800
501,000000	15,315800
500,000000	15,117600
499,000000	14,974800
498,000000	14,806500
497,000000	14,655100
496,000000	14,563500
495,000000	14,397200
494,000000	14,308200
493,000000	14,176700
492,000000	14,063900
491,000000	13,954900
490,000000	13,877000
489,000000	13,773800
488,000000	13,692200
487,000000	13,613800
486,000000	13,533400
485,000000	13,445200
484,000000	13,372300
483,000000	13,287400
482,000000	13,229900
481,000000	13,145800
480,000000	13,047100
479,000000	12,966600
478,000000	12,879600
477,000000	12,839700
476,000000	12,755500
475,000000	12,688900
474,000000	12,614100
473,000000	12,566700
472,000000	12,494100
471,000000	12,421900
470,000000	12,371100
469,000000	12,293400
468,000000	12,269100
467,000000	12,215300
466,000000	12,166000
465,000000	12,112800
464,000000	12,105300
463,000000	12,041300
462,000000	12,008800
461,000000	11,970900
460,000000	11,956500
459,000000	11,915800
458,000000	11,893300
457,000000	11,850000
456,000000	11,820400
455,000000	11,809900
454,000000	11,746100
453,000000	11,707000
452,000000	11,699800
451,000000	11,658200
450,000000	11,637200
449,000000	11,604100
448,000000	11,537100
447,000000	11,489900
446,000000	11,441300
445,000000	11,408300
444,000000	11,362200
443,000000	11,300900
442,000000	11,235400
441,000000	11,157400
440,000000	11,096800
439,000000	11,065200
438,000000	10,992600
437,000000	10,901600
436,000000	10,849300
435,000000	10,765400
434,000000	10,685100
433,000000	10,596400
432,000000	10,536200
431,000000	10,455000
430,000000	10,360300
429,000000	10,256800
428,000000	10,187500
427,000000	10,089200
426,000000	10,010700
425,000000	9,917100
424,000000	9,807400
423,000000	9,723500
422,000000	9,637000
421,000000	9,545400
420,000000	9,421600
419,000000	9,341400
418,000000	9,240500
417,000000	9,155300
416,000000	9,048500
415,000000	8,947800
414,000000	8,833100
413,000000	8,713200
412,000000	8,615700
411,000000	8,496800
410,000000	8,386800
409,000000	8,286500
408,000000	8,172400
407,000000	8,097500
406,000000	7,981900
405,000000	7,850100
404,000000	7,757900
403,000000	7,654800
402,000000	7,566500
401,000000	7,457500
400,000000	7,334800
399,000000	7,237900
398,000000	7,149900
397,000000	7,041100
396,000000	6,930800
395,000000	6,854300
394,000000	6,770700
393,000000	6,664300
392,000000	6,566900
391,000000	6,487400
390,000000	6,400200
389,000000	6,316000
388,000000	6,218500
387,000000	6,143400
386,000000	6,048900
385,000000	5,980300
384,000000	5,930300
383,000000	5,851700
382,000000	5,780200
381,000000	5,707700
380,000000	5,628500
379,000000	5,602400
378,000000	5,539700
377,000000	5,482000
376,000000	5,412700
375,000000	5,206100
374,000000	4,958700
373,000000	4,996700
372,000000	5,023000
371,000000	5,127800
370,000000	5,160200
369,000000	4,972600
368,000000	5,057700
367,000000	5,091000
366,000000	4,974400
365,000000	4,973800
364,000000	4,948400
363,000000	4,846700
362,000000	4,865700
361,000000	4,925700
360,000000	4,881200
359,000000	4,952700
358,000000	4,957700
357,000000	4,875900
356,000000	4,879100
355,000000	4,768000
354,000000	4,773300
353,000000	4,856200
352,000000	4,807400
351,000000	4,842800
350,000000	4,880700
349,000000	4,814500
348,000000	4,761800
347,000000	4,810400
346,000000	4,658700
345,000000	4,748200
344,000000	4,937200
343,000000	4,869500
342,000000	4,866000
341,000000	4,843200
340,000000	4,712400
339,000000	4,800400
338,000000	4,863600
337,000000	4,664600
336,000000	4,622500
335,000000	4,800700
334,000000	4,836200
333,000000	4,800600
332,000000	4,880200
331,000000	4,810600
330,000000	4,650100
329,000000	4,778900
328,000000	4,610100
327,000000	4,624400
326,000000	4,710200
325,000000	4,460900
324,000000	4,585700
323,000000	4,876300
322,000000	4,973500
321,000000	5,270200
320,000000	5,416200
319,000000	4,775000
318,000000	4,792600
317,000000	5,553100
316,000000	5,151400
315,000000	4,602800
314,000000	4,579700
313,000000	4,580800
312,000000	4,593300
311,000000	4,601400
310,000000	4,574900
309,000000	4,581500
308,000000	4,598100
307,000000	4,555100
306,000000	4,589300
305,000000	4,602900
304,000000	4,620000
303,000000	4,624800
302,000000	4,586700
301,000000	4,588900
300,000000	4,574700
299,000000	4,600000
298,000000	4,675700
297,000000	4,614500
296,000000	4,586700
295,000000	4,614600
294,000000	4,627000
293,000000	4,622100
292,000000	4,603400
291,000000	4,632600
290,000000	4,614800
289,000000	4,610200
288,000000	4,654400
287,000000	4,602500
286,000000	4,643100
285,000000	4,697000
284,000000	4,684400
283,000000	4,703800
282,000000	4,698300
281,000000	4,676100
280,000000	4,698300
279,000000	4,715000
278,000000	4,729700
277,000000	4,731500
276,000000	4,756400
275,000000	4,737700
274,000000	4,761600
273,000000	4,746000
272,000000	4,759300
271,000000	4,790900
270,000000	4,773400
269,000000	4,788600
268,000000	4,843500
267,000000	4,850500
266,000000	4,815700
265,000000	4,889500
264,000000	4,898900
263,000000	4,934700
262,000000	4,929900
261,000000	4,942200
260,000000	4,966000
259,000000	4,974200
258,000000	5,013400
257,000000	5,060700
256,000000	5,041100
255,000000	5,072400
254,000000	5,072600
253,000000	5,039600
252,000000	5,075400
251,000000	5,071300
250,000000	5,076200
