PE UV       SUBTECH     SPECTRUM    ASCII       PEDS        4.00        
   -1
CICIMAUCR0235-3.Sample.ASC
24/06/19
16:11:19.00
24/06/19
16:11:19.00
Vinicio Soto Monge
C. resplendens. Sex M. Ventral 
250,000000
1
Lambda 1050
1050L1511233
PerkinElmer UV WinLab 6.3.2.0749 / 2.02.05 Lambda 900 UV/VIS/NIR, Aug  7 2015 09:38:08

0
0
3350/servo 860,8/2
0
0
UV/VIS
1
1
1
DoubleDePol,CommonBeamDepol,RBeamAtt,SBeamAtt,60mm sphere, WB InGaAs Detector
0
0
0
0
Program
Program
3350/servo 860,8/2
3350/0,2 860,8/0,2
3350/0,2 860,8/0,2
0
15.00
 
 
 
0
 
860,8
319,2
860,8
Front
100
on
S:100 R:100
0
0
0
0
 
0
 
 
 
0
 
 
0
0
0
0
0
 
 
 
 
0
0


0
0
#HDR
-1
-1
#GR
nm
%R
1.0
0.0
2500,000000
-1,000000
2251
8
61,572500
4,349800
#DATA
2500,000000	5,853500
2499,000000	5,804600
2498,000000	5,889000
2497,000000	5,839700
2496,000000	5,836100
2495,000000	5,769900
2494,000000	5,800100
2493,000000	5,721700
2492,000000	5,761600
2491,000000	5,773300
2490,000000	5,785300
2489,000000	5,797300
2488,000000	5,783100
2487,000000	5,706100
2486,000000	5,726100
2485,000000	5,755700
2484,000000	5,690100
2483,000000	5,682000
2482,000000	5,647000
2481,000000	5,731300
2480,000000	5,676900
2479,000000	5,644700
2478,000000	5,631100
2477,000000	5,629000
2476,000000	5,674000
2475,000000	5,693900
2474,000000	5,681900
2473,000000	5,683700
2472,000000	5,699200
2471,000000	5,655600
2470,000000	5,641400
2469,000000	5,662000
2468,000000	5,625100
2467,000000	5,639600
2466,000000	5,691200
2465,000000	5,694100
2464,000000	5,676500
2463,000000	5,710500
2462,000000	5,708800
2461,000000	5,703500
2460,000000	5,747200
2459,000000	5,778900
2458,000000	5,769500
2457,000000	5,817800
2456,000000	5,818100
2455,000000	5,848500
2454,000000	5,843700
2453,000000	5,870800
2452,000000	5,908800
2451,000000	5,927600
2450,000000	5,939700
2449,000000	5,946900
2448,000000	5,993200
2447,000000	6,031500
2446,000000	6,075200
2445,000000	6,095100
2444,000000	6,116100
2443,000000	6,143900
2442,000000	6,163200
2441,000000	6,192700
2440,000000	6,235100
2439,000000	6,251700
2438,000000	6,288600
2437,000000	6,293700
2436,000000	6,335400
2435,000000	6,375800
2434,000000	6,382400
2433,000000	6,412000
2432,000000	6,448500
2431,000000	6,460700
2430,000000	6,480400
2429,000000	6,505300
2428,000000	6,551600
2427,000000	6,567700
2426,000000	6,583500
2425,000000	6,595200
2424,000000	6,599900
2423,000000	6,626000
2422,000000	6,644300
2421,000000	6,678500
2420,000000	6,684300
2419,000000	6,707900
2418,000000	6,722200
2417,000000	6,711900
2416,000000	6,733700
2415,000000	6,766600
2414,000000	6,788500
2413,000000	6,793400
2412,000000	6,801000
2411,000000	6,816900
2410,000000	6,832300
2409,000000	6,842300
2408,000000	6,861300
2407,000000	6,869000
2406,000000	6,873800
2405,000000	6,878400
2404,000000	6,886600
2403,000000	6,896500
2402,000000	6,919500
2401,000000	6,937800
2400,000000	6,955800
2399,000000	6,989400
2398,000000	7,001700
2397,000000	7,018800
2396,000000	7,020000
2395,000000	7,020000
2394,000000	7,058300
2393,000000	7,073700
2392,000000	7,070700
2391,000000	7,089400
2390,000000	7,110200
2389,000000	7,108600
2388,000000	7,117300
2387,000000	7,133700
2386,000000	7,139300
2385,000000	7,138000
2384,000000	7,145700
2383,000000	7,147900
2382,000000	7,142600
2381,000000	7,146300
2380,000000	7,143000
2379,000000	7,131900
2378,000000	7,153600
2377,000000	7,163500
2376,000000	7,138500
2375,000000	7,140500
2374,000000	7,133700
2373,000000	7,127000
2372,000000	7,124000
2371,000000	7,113800
2370,000000	7,106400
2369,000000	7,092300
2368,000000	7,084500
2367,000000	7,071800
2366,000000	7,058400
2365,000000	7,036300
2364,000000	7,016800
2363,000000	7,012500
2362,000000	6,990700
2361,000000	6,967500
2360,000000	6,958700
2359,000000	6,944800
2358,000000	6,923100
2357,000000	6,919500
2356,000000	6,899800
2355,000000	6,872100
2354,000000	6,872400
2353,000000	6,868400
2352,000000	6,863200
2351,000000	6,860200
2350,000000	6,862500
2349,000000	6,859600
2348,000000	6,872700
2347,000000	6,886700
2346,000000	6,894100
2345,000000	6,914600
2344,000000	6,916500
2343,000000	6,948000
2342,000000	6,976000
2341,000000	6,970200
2340,000000	6,968000
2339,000000	6,980700
2338,000000	6,999000
2337,000000	7,012100
2336,000000	7,016200
2335,000000	7,014200
2334,000000	7,013800
2333,000000	7,021000
2332,000000	7,033400
2331,000000	7,017900
2330,000000	7,002600
2329,000000	6,990600
2328,000000	6,975700
2327,000000	6,954800
2326,000000	6,935500
2325,000000	6,923300
2324,000000	6,904700
2323,000000	6,871500
2322,000000	6,857300
2321,000000	6,835700
2320,000000	6,798700
2319,000000	6,768200
2318,000000	6,730100
2317,000000	6,701000
2316,000000	6,664400
2315,000000	6,624100
2314,000000	6,602300
2313,000000	6,565500
2312,000000	6,531700
2311,000000	6,489300
2310,000000	6,469600
2309,000000	6,457300
2308,000000	6,434800
2307,000000	6,423600
2306,000000	6,409900
2305,000000	6,405300
2304,000000	6,405000
2303,000000	6,403300
2302,000000	6,420400
2301,000000	6,444400
2300,000000	6,458900
2299,000000	6,505700
2298,000000	6,517600
2297,000000	6,528200
2296,000000	6,578300
2295,000000	6,598400
2294,000000	6,634800
2293,000000	6,671500
2292,000000	6,690000
2291,000000	6,709900
2290,000000	6,739500
2289,000000	6,759900
2288,000000	6,760300
2287,000000	6,759100
2286,000000	6,755100
2285,000000	6,772900
2284,000000	6,775900
2283,000000	6,771100
2282,000000	6,738700
2281,000000	6,744700
2280,000000	6,737400
2279,000000	6,714800
2278,000000	6,690000
2277,000000	6,687200
2276,000000	6,687400
2275,000000	6,689700
2274,000000	6,671300
2273,000000	6,672600
2272,000000	6,662100
2271,000000	6,674900
2270,000000	6,668100
2269,000000	6,680300
2268,000000	6,708000
2267,000000	6,720700
2266,000000	6,753600
2265,000000	6,784900
2264,000000	6,836200
2263,000000	6,901700
2262,000000	6,959800
2261,000000	7,038600
2260,000000	7,105500
2259,000000	7,210500
2258,000000	7,287100
2257,000000	7,401200
2256,000000	7,504000
2255,000000	7,613100
2254,000000	7,727500
2253,000000	7,836100
2252,000000	7,946000
2251,000000	8,039900
2250,000000	8,143100
2249,000000	8,240100
2248,000000	8,350100
2247,000000	8,455900
2246,000000	8,532400
2245,000000	8,630700
2244,000000	8,707500
2243,000000	8,795700
2242,000000	8,868900
2241,000000	8,935800
2240,000000	8,990900
2239,000000	9,043000
2238,000000	9,108100
2237,000000	9,144900
2236,000000	9,191000
2235,000000	9,217000
2234,000000	9,269800
2233,000000	9,298800
2232,000000	9,333900
2231,000000	9,341200
2230,000000	9,355900
2229,000000	9,384400
2228,000000	9,377200
2227,000000	9,405300
2226,000000	9,384500
2225,000000	9,404100
2224,000000	9,397300
2223,000000	9,412600
2222,000000	9,365700
2221,000000	9,366600
2220,000000	9,340500
2219,000000	9,346600
2218,000000	9,316700
2217,000000	9,289400
2216,000000	9,267000
2215,000000	9,264500
2214,000000	9,234600
2213,000000	9,233400
2212,000000	9,214400
2211,000000	9,170100
2210,000000	9,175700
2209,000000	9,152600
2208,000000	9,150200
2207,000000	9,118900
2206,000000	9,113000
2205,000000	9,099600
2204,000000	9,096300
2203,000000	9,066600
2202,000000	9,062400
2201,000000	9,055100
2200,000000	9,031000
2199,000000	9,035100
2198,000000	9,025600
2197,000000	9,007700
2196,000000	9,008400
2195,000000	8,997700
2194,000000	9,006000
2193,000000	8,991000
2192,000000	8,991200
2191,000000	8,972900
2190,000000	8,976000
2189,000000	8,949400
2188,000000	8,962600
2187,000000	8,951700
2186,000000	8,932400
2185,000000	8,916900
2184,000000	8,916200
2183,000000	8,917300
2182,000000	8,878400
2181,000000	8,893400
2180,000000	8,896100
2179,000000	8,876200
2178,000000	8,870200
2177,000000	8,858100
2176,000000	8,844900
2175,000000	8,837800
2174,000000	8,845400
2173,000000	8,851600
2172,000000	8,836600
2171,000000	8,852900
2170,000000	8,860500
2169,000000	8,863000
2168,000000	8,862700
2167,000000	8,865300
2166,000000	8,893400
2165,000000	8,890700
2164,000000	8,884100
2163,000000	8,891400
2162,000000	8,897600
2161,000000	8,916300
2160,000000	8,937000
2159,000000	8,975900
2158,000000	8,992800
2157,000000	9,014200
2156,000000	9,039600
2155,000000	9,054300
2154,000000	9,073800
2153,000000	9,105700
2152,000000	9,134800
2151,000000	9,152300
2150,000000	9,173100
2149,000000	9,217600
2148,000000	9,245000
2147,000000	9,261700
2146,000000	9,295400
2145,000000	9,336600
2144,000000	9,354700
2143,000000	9,384300
2142,000000	9,419800
2141,000000	9,446400
2140,000000	9,465900
2139,000000	9,485400
2138,000000	9,518900
2137,000000	9,556000
2136,000000	9,583400
2135,000000	9,583500
2134,000000	9,588800
2133,000000	9,629700
2132,000000	9,655200
2131,000000	9,656100
2130,000000	9,664400
2129,000000	9,676200
2128,000000	9,705100
2127,000000	9,710600
2126,000000	9,714800
2125,000000	9,725900
2124,000000	9,736500
2123,000000	9,755700
2122,000000	9,752300
2121,000000	9,737900
2120,000000	9,740100
2119,000000	9,743100
2118,000000	9,738800
2117,000000	9,743900
2116,000000	9,740500
2115,000000	9,736700
2114,000000	9,728900
2113,000000	9,728600
2112,000000	9,717000
2111,000000	9,704500
2110,000000	9,695900
2109,000000	9,677300
2108,000000	9,676300
2107,000000	9,674800
2106,000000	9,653400
2105,000000	9,635300
2104,000000	9,620700
2103,000000	9,616000
2102,000000	9,604400
2101,000000	9,592000
2100,000000	9,582400
2099,000000	9,571100
2098,000000	9,554900
2097,000000	9,537700
2096,000000	9,526000
2095,000000	9,525000
2094,000000	9,518600
2093,000000	9,510800
2092,000000	9,502800
2091,000000	9,497000
2090,000000	9,487600
2089,000000	9,473600
2088,000000	9,480900
2087,000000	9,472000
2086,000000	9,458500
2085,000000	9,457100
2084,000000	9,451700
2083,000000	9,438900
2082,000000	9,422800
2081,000000	9,396200
2080,000000	9,385700
2079,000000	9,363300
2078,000000	9,318800
2077,000000	9,298000
2076,000000	9,285300
2075,000000	9,261700
2074,000000	9,234900
2073,000000	9,211400
2072,000000	9,185900
2071,000000	9,143500
2070,000000	9,107400
2069,000000	9,070700
2068,000000	9,047800
2067,000000	9,021400
2066,000000	8,979800
2065,000000	8,950200
2064,000000	8,923800
2063,000000	8,892500
2062,000000	8,864500
2061,000000	8,836300
2060,000000	8,805600
2059,000000	8,779000
2058,000000	8,761800
2057,000000	8,748200
2056,000000	8,747800
2055,000000	8,752400
2054,000000	8,761900
2053,000000	8,770700
2052,000000	8,778200
2051,000000	8,799300
2050,000000	8,822300
2049,000000	8,844900
2048,000000	8,895800
2047,000000	8,959400
2046,000000	8,995000
2045,000000	9,049300
2044,000000	9,105100
2043,000000	9,157700
2042,000000	9,221800
2041,000000	9,276700
2040,000000	9,331900
2039,000000	9,392800
2038,000000	9,442000
2037,000000	9,478900
2036,000000	9,539200
2035,000000	9,606700
2034,000000	9,652500
2033,000000	9,685800
2032,000000	9,730100
2031,000000	9,765600
2030,000000	9,820900
2029,000000	9,835800
2028,000000	9,881500
2027,000000	9,920800
2026,000000	9,934600
2025,000000	9,949200
2024,000000	9,970700
2023,000000	10,001800
2022,000000	10,028800
2021,000000	10,042900
2020,000000	10,060600
2019,000000	10,086400
2018,000000	10,086700
2017,000000	10,106900
2016,000000	10,108300
2015,000000	10,126300
2014,000000	10,115800
2013,000000	10,133300
2012,000000	10,123900
2011,000000	10,123600
2010,000000	10,121300
2009,000000	10,091400
2008,000000	10,108900
2007,000000	10,085700
2006,000000	10,069100
2005,000000	10,050700
2004,000000	10,031800
2003,000000	10,013100
2002,000000	10,006900
2001,000000	9,973800
2000,000000	9,943200
1999,000000	9,911400
1998,000000	9,867200
1997,000000	9,857200
1996,000000	9,818100
1995,000000	9,789600
1994,000000	9,762000
1993,000000	9,718500
1992,000000	9,688200
1991,000000	9,646700
1990,000000	9,607900
1989,000000	9,545300
1988,000000	9,509000
1987,000000	9,480000
1986,000000	9,437800
1985,000000	9,385300
1984,000000	9,352300
1983,000000	9,305500
1982,000000	9,273800
1981,000000	9,222300
1980,000000	9,190300
1979,000000	9,134000
1978,000000	9,077000
1977,000000	9,039600
1976,000000	8,999300
1975,000000	8,955800
1974,000000	8,909200
1973,000000	8,880800
1972,000000	8,843200
1971,000000	8,797600
1970,000000	8,758000
1969,000000	8,710300
1968,000000	8,709600
1967,000000	8,670900
1966,000000	8,610100
1965,000000	8,574100
1964,000000	8,562400
1963,000000	8,525400
1962,000000	8,475100
1961,000000	8,458200
1960,000000	8,411400
1959,000000	8,363500
1958,000000	8,341300
1957,000000	8,307600
1956,000000	8,276200
1955,000000	8,240700
1954,000000	8,199900
1953,000000	8,194900
1952,000000	8,164900
1951,000000	8,107100
1950,000000	8,086300
1949,000000	8,074500
1948,000000	8,033000
1947,000000	8,022200
1946,000000	7,993400
1945,000000	7,970900
1944,000000	7,941800
1943,000000	7,916000
1942,000000	7,921000
1941,000000	7,915000
1940,000000	7,901900
1939,000000	7,911800
1938,000000	7,899600
1937,000000	7,902200
1936,000000	7,894700
1935,000000	7,887200
1934,000000	7,895900
1933,000000	7,915900
1932,000000	7,950300
1931,000000	7,955900
1930,000000	7,956300
1929,000000	8,012300
1928,000000	8,045900
1927,000000	8,060800
1926,000000	8,095800
1925,000000	8,137300
1924,000000	8,208100
1923,000000	8,221000
1922,000000	8,283900
1921,000000	8,368000
1920,000000	8,419500
1919,000000	8,499700
1918,000000	8,571700
1917,000000	8,628000
1916,000000	8,723500
1915,000000	8,787700
1914,000000	8,881500
1913,000000	8,975400
1912,000000	9,107100
1911,000000	9,226700
1910,000000	9,313500
1909,000000	9,434200
1908,000000	9,531400
1907,000000	9,640000
1906,000000	9,800800
1905,000000	9,962500
1904,000000	10,124700
1903,000000	10,281800
1902,000000	10,444200
1901,000000	10,619700
1900,000000	10,799900
1899,000000	11,004200
1898,000000	11,211600
1897,000000	11,423000
1896,000000	11,626300
1895,000000	11,832200
1894,000000	12,020300
1893,000000	12,220500
1892,000000	12,470200
1891,000000	12,739200
1890,000000	13,027800
1889,000000	13,309600
1888,000000	13,576300
1887,000000	13,891000
1886,000000	14,184000
1885,000000	14,501700
1884,000000	14,826600
1883,000000	15,210500
1882,000000	15,629400
1881,000000	16,018000
1880,000000	16,416800
1879,000000	16,769000
1878,000000	17,131000
1877,000000	17,535200
1876,000000	17,892000
1875,000000	18,264800
1874,000000	18,630800
1873,000000	18,979100
1872,000000	19,330500
1871,000000	19,676800
1870,000000	20,000300
1869,000000	20,308100
1868,000000	20,611900
1867,000000	20,827300
1866,000000	21,037800
1865,000000	21,201500
1864,000000	21,364300
1863,000000	21,483300
1862,000000	21,610800
1861,000000	21,751900
1860,000000	21,886600
1859,000000	22,012300
1858,000000	22,147900
1857,000000	22,239400
1856,000000	22,311500
1855,000000	22,355300
1854,000000	22,405800
1853,000000	22,468700
1852,000000	22,483800
1851,000000	22,490800
1850,000000	22,494900
1849,000000	22,493900
1848,000000	22,512500
1847,000000	22,535600
1846,000000	22,528100
1845,000000	22,512200
1844,000000	22,469800
1843,000000	22,420300
1842,000000	22,402400
1841,000000	22,421900
1840,000000	22,435900
1839,000000	22,419500
1838,000000	22,371900
1837,000000	22,338300
1836,000000	22,315300
1835,000000	22,284200
1834,000000	22,246000
1833,000000	22,177900
1832,000000	22,115000
1831,000000	22,072000
1830,000000	22,025200
1829,000000	21,991900
1828,000000	21,940200
1827,000000	21,864000
1826,000000	21,807900
1825,000000	21,762400
1824,000000	21,713800
1823,000000	21,658100
1822,000000	21,625700
1821,000000	21,624400
1820,000000	21,615800
1819,000000	21,589100
1818,000000	21,567400
1817,000000	21,524500
1816,000000	21,501900
1815,000000	21,487300
1814,000000	21,479100
1813,000000	21,482100
1812,000000	21,465800
1811,000000	21,438400
1810,000000	21,410700
1809,000000	21,368800
1808,000000	21,321400
1807,000000	21,275300
1806,000000	21,243100
1805,000000	21,215300
1804,000000	21,170900
1803,000000	21,122600
1802,000000	21,076700
1801,000000	21,038800
1800,000000	20,997500
1799,000000	20,942900
1798,000000	20,897000
1797,000000	20,847600
1796,000000	20,800900
1795,000000	20,783400
1794,000000	20,743800
1793,000000	20,681600
1792,000000	20,633700
1791,000000	20,603800
1790,000000	20,567200
1789,000000	20,518300
1788,000000	20,466400
1787,000000	20,412600
1786,000000	20,372800
1785,000000	20,321800
1784,000000	20,264900
1783,000000	20,213600
1782,000000	20,141400
1781,000000	20,079700
1780,000000	20,029700
1779,000000	19,964100
1778,000000	19,903200
1777,000000	19,838300
1776,000000	19,756800
1775,000000	19,677900
1774,000000	19,586400
1773,000000	19,506100
1772,000000	19,423000
1771,000000	19,332800
1770,000000	19,235000
1769,000000	19,132600
1768,000000	19,029600
1767,000000	18,954600
1766,000000	18,876100
1765,000000	18,805100
1764,000000	18,736300
1763,000000	18,701700
1762,000000	18,684000
1761,000000	18,691100
1760,000000	18,717100
1759,000000	18,755000
1758,000000	18,806800
1757,000000	18,858300
1756,000000	18,892400
1755,000000	18,932500
1754,000000	18,975200
1753,000000	19,015100
1752,000000	19,016900
1751,000000	19,013600
1750,000000	19,016700
1749,000000	19,007800
1748,000000	18,969500
1747,000000	18,924100
1746,000000	18,869600
1745,000000	18,798200
1744,000000	18,705400
1743,000000	18,603600
1742,000000	18,469200
1741,000000	18,336000
1740,000000	18,177000
1739,000000	18,007400
1738,000000	17,857400
1737,000000	17,685700
1736,000000	17,551600
1735,000000	17,452700
1734,000000	17,363800
1733,000000	17,303100
1732,000000	17,282000
1731,000000	17,285400
1730,000000	17,304100
1729,000000	17,355400
1728,000000	17,425300
1727,000000	17,484900
1726,000000	17,548900
1725,000000	17,624200
1724,000000	17,664800
1723,000000	17,718400
1722,000000	17,765200
1721,000000	17,817000
1720,000000	17,862300
1719,000000	17,904100
1718,000000	17,964000
1717,000000	18,011700
1716,000000	18,087900
1715,000000	18,170100
1714,000000	18,267300
1713,000000	18,344400
1712,000000	18,420000
1711,000000	18,483600
1710,000000	18,539100
1709,000000	18,586600
1708,000000	18,582800
1707,000000	18,600000
1706,000000	18,607000
1705,000000	18,575000
1704,000000	18,552800
1703,000000	18,482500
1702,000000	18,437000
1701,000000	18,359300
1700,000000	18,256100
1699,000000	18,139000
1698,000000	18,045300
1697,000000	17,923900
1696,000000	17,844900
1695,000000	17,777700
1694,000000	17,757200
1693,000000	17,750300
1692,000000	17,808900
1691,000000	17,874300
1690,000000	17,977400
1689,000000	18,087900
1688,000000	18,173100
1687,000000	18,255500
1686,000000	18,324700
1685,000000	18,364400
1684,000000	18,428800
1683,000000	18,534100
1682,000000	18,680000
1681,000000	18,916800
1680,000000	19,245600
1679,000000	19,645400
1678,000000	20,032100
1677,000000	20,481100
1676,000000	20,868200
1675,000000	21,249000
1674,000000	21,571900
1673,000000	21,871000
1672,000000	22,147000
1671,000000	22,377000
1670,000000	22,606800
1669,000000	22,811300
1668,000000	22,976600
1667,000000	23,142700
1666,000000	23,280600
1665,000000	23,389400
1664,000000	23,496700
1663,000000	23,597000
1662,000000	23,691300
1661,000000	23,769300
1660,000000	23,840400
1659,000000	23,901700
1658,000000	23,967100
1657,000000	24,002900
1656,000000	24,025100
1655,000000	24,037400
1654,000000	24,062900
1653,000000	24,074700
1652,000000	24,077000
1651,000000	24,073500
1650,000000	24,049400
1649,000000	24,042200
1648,000000	24,014800
1647,000000	23,995500
1646,000000	23,939800
1645,000000	23,910400
1644,000000	23,851000
1643,000000	23,809500
1642,000000	23,785600
1641,000000	23,747600
1640,000000	23,682500
1639,000000	23,622500
1638,000000	23,584600
1637,000000	23,524900
1636,000000	23,470300
1635,000000	23,398300
1634,000000	23,347400
1633,000000	23,285000
1632,000000	23,190200
1631,000000	23,142100
1630,000000	23,082100
1629,000000	23,002800
1628,000000	22,946000
1627,000000	22,861600
1626,000000	22,775300
1625,000000	22,701600
1624,000000	22,627600
1623,000000	22,560500
1622,000000	22,482100
1621,000000	22,426900
1620,000000	22,355700
1619,000000	22,293000
1618,000000	22,218600
1617,000000	22,151400
1616,000000	22,094500
1615,000000	22,024700
1614,000000	21,969400
1613,000000	21,880500
1612,000000	21,835700
1611,000000	21,774600
1610,000000	21,705300
1609,000000	21,641200
1608,000000	21,570400
1607,000000	21,494600
1606,000000	21,454100
1605,000000	21,377600
1604,000000	21,309700
1603,000000	21,243000
1602,000000	21,160700
1601,000000	21,104400
1600,000000	21,018000
1599,000000	20,953400
1598,000000	20,898000
1597,000000	20,823800
1596,000000	20,753100
1595,000000	20,705500
1594,000000	20,651600
1593,000000	20,593500
1592,000000	20,538000
1591,000000	20,481700
1590,000000	20,417000
1589,000000	20,372800
1588,000000	20,318100
1587,000000	20,282300
1586,000000	20,234400
1585,000000	20,187200
1584,000000	20,130900
1583,000000	20,081700
1582,000000	20,047800
1581,000000	20,003700
1580,000000	19,977400
1579,000000	19,953000
1578,000000	19,917800
1577,000000	19,892300
1576,000000	19,877900
1575,000000	19,857700
1574,000000	19,831700
1573,000000	19,820500
1572,000000	19,815300
1571,000000	19,806400
1570,000000	19,794300
1569,000000	19,811500
1568,000000	19,806900
1567,000000	19,800200
1566,000000	19,800200
1565,000000	19,816100
1564,000000	19,818800
1563,000000	19,805700
1562,000000	19,809100
1561,000000	19,807400
1560,000000	19,812700
1559,000000	19,813400
1558,000000	19,806000
1557,000000	19,780700
1556,000000	19,744300
1555,000000	19,720200
1554,000000	19,707500
1553,000000	19,687500
1552,000000	19,659500
1551,000000	19,635900
1550,000000	19,603400
1549,000000	19,562400
1548,000000	19,515300
1547,000000	19,478100
1546,000000	19,444000
1545,000000	19,421800
1544,000000	19,399100
1543,000000	19,363200
1542,000000	19,353700
1541,000000	19,331800
1540,000000	19,301000
1539,000000	19,281000
1538,000000	19,261800
1537,000000	19,255700
1536,000000	19,236400
1535,000000	19,202100
1534,000000	19,177900
1533,000000	19,152700
1532,000000	19,118700
1531,000000	19,086100
1530,000000	19,065200
1529,000000	19,028800
1528,000000	18,980300
1527,000000	18,940200
1526,000000	18,895800
1525,000000	18,870800
1524,000000	18,842300
1523,000000	18,794900
1522,000000	18,751800
1521,000000	18,697300
1520,000000	18,663200
1519,000000	18,630100
1518,000000	18,573600
1517,000000	18,530000
1516,000000	18,488700
1515,000000	18,433300
1514,000000	18,383200
1513,000000	18,336600
1512,000000	18,283600
1511,000000	18,235400
1510,000000	18,184300
1509,000000	18,131000
1508,000000	18,093000
1507,000000	18,045600
1506,000000	17,990100
1505,000000	17,946000
1504,000000	17,898600
1503,000000	17,848500
1502,000000	17,797000
1501,000000	17,743600
1500,000000	17,695000
1499,000000	17,657200
1498,000000	17,617400
1497,000000	17,580700
1496,000000	17,563500
1495,000000	17,528500
1494,000000	17,500700
1493,000000	17,479800
1492,000000	17,447800
1491,000000	17,418400
1490,000000	17,392300
1489,000000	17,374500
1488,000000	17,357700
1487,000000	17,331800
1486,000000	17,321300
1485,000000	17,304800
1484,000000	17,298700
1483,000000	17,288600
1482,000000	17,277400
1481,000000	17,270500
1480,000000	17,268800
1479,000000	17,274600
1478,000000	17,271600
1477,000000	17,260200
1476,000000	17,254200
1475,000000	17,256200
1474,000000	17,273600
1473,000000	17,273900
1472,000000	17,300100
1471,000000	17,319600
1470,000000	17,332000
1469,000000	17,342000
1468,000000	17,339600
1467,000000	17,357500
1466,000000	17,383100
1465,000000	17,395700
1464,000000	17,417200
1463,000000	17,447200
1462,000000	17,468600
1461,000000	17,489000
1460,000000	17,537300
1459,000000	17,584900
1458,000000	17,619100
1457,000000	17,660900
1456,000000	17,709800
1455,000000	17,765600
1454,000000	17,830800
1453,000000	17,886900
1452,000000	17,944000
1451,000000	18,018700
1450,000000	18,100800
1449,000000	18,161700
1448,000000	18,218300
1447,000000	18,288800
1446,000000	18,369500
1445,000000	18,458800
1444,000000	18,534000
1443,000000	18,607200
1442,000000	18,696600
1441,000000	18,783100
1440,000000	18,870200
1439,000000	18,956900
1438,000000	19,058400
1437,000000	19,147000
1436,000000	19,241900
1435,000000	19,334900
1434,000000	19,431400
1433,000000	19,534600
1432,000000	19,660700
1431,000000	19,770800
1430,000000	19,894400
1429,000000	20,019500
1428,000000	20,177000
1427,000000	20,311100
1426,000000	20,459200
1425,000000	20,627800
1424,000000	20,788900
1423,000000	20,979400
1422,000000	21,165500
1421,000000	21,353700
1420,000000	21,526500
1419,000000	21,753600
1418,000000	21,987100
1417,000000	22,206800
1416,000000	22,407000
1415,000000	22,638100
1414,000000	22,903100
1413,000000	23,182500
1412,000000	23,457000
1411,000000	23,686500
1410,000000	23,983300
1409,000000	24,308300
1408,000000	24,655500
1407,000000	25,032900
1406,000000	25,380200
1405,000000	25,762900
1404,000000	26,153100
1403,000000	26,535000
1402,000000	26,927200
1401,000000	27,270400
1400,000000	27,737100
1399,000000	28,185800
1398,000000	28,520700
1397,000000	28,776300
1396,000000	29,115500
1395,000000	29,539300
1394,000000	29,949300
1393,000000	30,220100
1392,000000	30,515300
1391,000000	30,900400
1390,000000	31,284300
1389,000000	31,597000
1388,000000	32,045700
1387,000000	32,518000
1386,000000	33,031100
1385,000000	33,519100
1384,000000	34,019400
1383,000000	34,603100
1382,000000	35,187700
1381,000000	35,752500
1380,000000	36,223200
1379,000000	36,548400
1378,000000	36,811900
1377,000000	37,022200
1376,000000	37,247800
1375,000000	37,480200
1374,000000	37,711900
1373,000000	37,974200
1372,000000	38,283300
1371,000000	38,618400
1370,000000	39,014900
1369,000000	39,320500
1368,000000	39,615000
1367,000000	39,940600
1366,000000	40,223600
1365,000000	40,447900
1364,000000	40,677800
1363,000000	40,869700
1362,000000	41,066400
1361,000000	41,258700
1360,000000	41,443500
1359,000000	41,571600
1358,000000	41,648200
1357,000000	41,753300
1356,000000	41,897200
1355,000000	42,128500
1354,000000	42,489800
1353,000000	42,863100
1352,000000	43,195100
1351,000000	43,674600
1350,000000	44,150800
1349,000000	44,603400
1348,000000	44,984500
1347,000000	45,414000
1346,000000	45,775900
1345,000000	46,134800
1344,000000	46,487200
1343,000000	46,847500
1342,000000	47,148900
1341,000000	47,487200
1340,000000	47,815300
1339,000000	48,135500
1338,000000	48,470100
1337,000000	48,754400
1336,000000	49,043500
1335,000000	49,368100
1334,000000	49,637900
1333,000000	49,909500
1332,000000	50,197000
1331,000000	50,479800
1330,000000	50,742000
1329,000000	51,000100
1328,000000	51,226900
1327,000000	51,466800
1326,000000	51,714200
1325,000000	51,932400
1324,000000	52,139900
1323,000000	52,358700
1322,000000	52,526800
1321,000000	52,729900
1320,000000	52,902000
1319,000000	53,086300
1318,000000	53,251800
1317,000000	53,420700
1316,000000	53,576300
1315,000000	53,729000
1314,000000	53,890200
1313,000000	54,015800
1312,000000	54,137600
1311,000000	54,268300
1310,000000	54,391900
1309,000000	54,515700
1308,000000	54,619800
1307,000000	54,716400
1306,000000	54,813300
1305,000000	54,892400
1304,000000	54,964700
1303,000000	55,021700
1302,000000	55,080000
1301,000000	55,133500
1300,000000	55,184200
1299,000000	55,233000
1298,000000	55,270200
1297,000000	55,289800
1296,000000	55,331900
1295,000000	55,354400
1294,000000	55,380600
1293,000000	55,380000
1292,000000	55,391600
1291,000000	55,398600
1290,000000	55,405200
1289,000000	55,389600
1288,000000	55,378700
1287,000000	55,347300
1286,000000	55,313100
1285,000000	55,283700
1284,000000	55,252400
1283,000000	55,215900
1282,000000	55,172200
1281,000000	55,125900
1280,000000	55,072100
1279,000000	55,022500
1278,000000	54,961600
1277,000000	54,913300
1276,000000	54,867800
1275,000000	54,832600
1274,000000	54,792400
1273,000000	54,760800
1272,000000	54,731200
1271,000000	54,699700
1270,000000	54,664200
1269,000000	54,637000
1268,000000	54,611700
1267,000000	54,562100
1266,000000	54,529500
1265,000000	54,508100
1264,000000	54,462000
1263,000000	54,421400
1262,000000	54,375300
1261,000000	54,339100
1260,000000	54,286000
1259,000000	54,227100
1258,000000	54,182700
1257,000000	54,137400
1256,000000	54,082200
1255,000000	54,025400
1254,000000	53,972500
1253,000000	53,903800
1252,000000	53,830900
1251,000000	53,770000
1250,000000	53,698000
1249,000000	53,601000
1248,000000	53,511700
1247,000000	53,421200
1246,000000	53,310700
1245,000000	53,203100
1244,000000	53,100500
1243,000000	52,983300
1242,000000	52,867100
1241,000000	52,740300
1240,000000	52,626500
1239,000000	52,507500
1238,000000	52,370600
1237,000000	52,226400
1236,000000	52,083200
1235,000000	51,953700
1234,000000	51,815000
1233,000000	51,662800
1232,000000	51,518600
1231,000000	51,362900
1230,000000	51,202000
1229,000000	51,050100
1228,000000	50,882700
1227,000000	50,700200
1226,000000	50,526600
1225,000000	50,362000
1224,000000	50,193400
1223,000000	50,023500
1222,000000	49,839600
1221,000000	49,659700
1220,000000	49,476500
1219,000000	49,296900
1218,000000	49,136300
1217,000000	48,976900
1216,000000	48,810200
1215,000000	48,639000
1214,000000	48,494600
1213,000000	48,365700
1212,000000	48,217100
1211,000000	48,088900
1210,000000	47,954400
1209,000000	47,819400
1208,000000	47,703300
1207,000000	47,588700
1206,000000	47,478500
1205,000000	47,381000
1204,000000	47,312100
1203,000000	47,238600
1202,000000	47,178600
1201,000000	47,122700
1200,000000	47,069900
1199,000000	47,033300
1198,000000	46,959100
1197,000000	46,847100
1196,000000	46,716900
1195,000000	46,571500
1194,000000	46,368800
1193,000000	46,113700
1192,000000	45,819900
1191,000000	45,491500
1190,000000	45,111600
1189,000000	44,744600
1188,000000	44,409000
1187,000000	44,134900
1186,000000	43,972000
1185,000000	43,899900
1184,000000	43,928000
1183,000000	44,071300
1182,000000	44,326100
1181,000000	44,679800
1180,000000	45,079900
1179,000000	45,529800
1178,000000	45,969300
1177,000000	46,372100
1176,000000	46,728200
1175,000000	47,054000
1174,000000	47,345800
1173,000000	47,616800
1172,000000	47,915500
1171,000000	48,203600
1170,000000	48,489500
1169,000000	48,785000
1168,000000	49,092100
1167,000000	49,422600
1166,000000	49,734800
1165,000000	50,059900
1164,000000	50,397500
1163,000000	50,745700
1162,000000	51,097500
1161,000000	51,455300
1160,000000	51,792600
1159,000000	52,138500
1158,000000	52,463400
1157,000000	52,805300
1156,000000	53,114200
1155,000000	53,391600
1154,000000	53,631900
1153,000000	53,835500
1152,000000	54,000700
1151,000000	54,139500
1150,000000	54,258300
1149,000000	54,353000
1148,000000	54,444900
1147,000000	54,551000
1146,000000	54,675500
1145,000000	54,837500
1144,000000	55,049100
1143,000000	55,310300
1142,000000	55,603800
1141,000000	55,913800
1140,000000	56,252500
1139,000000	56,620000
1138,000000	56,993200
1137,000000	57,373000
1136,000000	57,785100
1135,000000	58,213600
1134,000000	58,636500
1133,000000	59,057000
1132,000000	59,391400
1131,000000	59,748100
1130,000000	60,069000
1129,000000	60,343200
1128,000000	60,576500
1127,000000	60,788100
1126,000000	60,955500
1125,000000	61,099200
1124,000000	61,193400
1123,000000	61,294300
1122,000000	61,377300
1121,000000	61,441400
1120,000000	61,474700
1119,000000	61,516200
1118,000000	61,516100
1117,000000	61,556600
1116,000000	61,572500
1115,000000	61,570400
1114,000000	61,553500
1113,000000	61,541700
1112,000000	61,533000
1111,000000	61,528700
1110,000000	61,516500
1109,000000	61,507200
1108,000000	61,487200
1107,000000	61,463500
1106,000000	61,450200
1105,000000	61,438100
1104,000000	61,426200
1103,000000	61,390600
1102,000000	61,364900
1101,000000	61,367300
1100,000000	61,333700
1099,000000	61,307300
1098,000000	61,284900
1097,000000	61,243600
1096,000000	61,229100
1095,000000	61,192300
1094,000000	61,151000
1093,000000	61,117100
1092,000000	61,061800
1091,000000	61,033300
1090,000000	60,979300
1089,000000	60,945500
1088,000000	60,886600
1087,000000	60,817700
1086,000000	60,790400
1085,000000	60,745800
1084,000000	60,680900
1083,000000	60,604200
1082,000000	60,566200
1081,000000	60,509600
1080,000000	60,441900
1079,000000	60,380300
1078,000000	60,315800
1077,000000	60,271900
1076,000000	60,198600
1075,000000	60,126300
1074,000000	60,070100
1073,000000	60,004800
1072,000000	59,951900
1071,000000	59,903300
1070,000000	59,832600
1069,000000	59,773600
1068,000000	59,703800
1067,000000	59,636400
1066,000000	59,573900
1065,000000	59,498000
1064,000000	59,450700
1063,000000	59,383900
1062,000000	59,329300
1061,000000	59,246500
1060,000000	59,177100
1059,000000	59,115500
1058,000000	59,034300
1057,000000	58,952700
1056,000000	58,895800
1055,000000	58,823200
1054,000000	58,747200
1053,000000	58,657000
1052,000000	58,587200
1051,000000	58,534400
1050,000000	58,458400
1049,000000	58,379800
1048,000000	58,321600
1047,000000	58,270600
1046,000000	58,204700
1045,000000	58,131600
1044,000000	58,094500
1043,000000	58,030300
1042,000000	57,962000
1041,000000	57,895700
1040,000000	57,846200
1039,000000	57,795100
1038,000000	57,728600
1037,000000	57,667100
1036,000000	57,602000
1035,000000	57,551700
1034,000000	57,466700
1033,000000	57,402300
1032,000000	57,346200
1031,000000	57,274700
1030,000000	57,183500
1029,000000	57,125700
1028,000000	57,060000
1027,000000	56,984600
1026,000000	56,888000
1025,000000	56,823400
1024,000000	56,731800
1023,000000	56,640700
1022,000000	56,596900
1021,000000	56,498800
1020,000000	56,431500
1019,000000	56,360200
1018,000000	56,292700
1017,000000	56,224200
1016,000000	56,164000
1015,000000	56,103000
1014,000000	56,049300
1013,000000	56,004700
1012,000000	55,953900
1011,000000	55,896500
1010,000000	55,863000
1009,000000	55,846200
1008,000000	55,823400
1007,000000	55,796400
1006,000000	55,782600
1005,000000	55,751700
1004,000000	55,717000
1003,000000	55,704500
1002,000000	55,678400
1001,000000	55,666100
1000,000000	55,639500
999,000000	55,605400
998,000000	55,590800
997,000000	55,577400
996,000000	55,563900
995,000000	55,545900
994,000000	55,521700
993,000000	55,507200
992,000000	55,502900
991,000000	55,480100
990,000000	55,450000
989,000000	55,455900
988,000000	55,429300
987,000000	55,424200
986,000000	55,401900
985,000000	55,387900
984,000000	55,386000
983,000000	55,402100
982,000000	55,396200
981,000000	55,379000
980,000000	55,370400
979,000000	55,368700
978,000000	55,370000
977,000000	55,378600
976,000000	55,370200
975,000000	55,375700
974,000000	55,365200
973,000000	55,361600
972,000000	55,344600
971,000000	55,343700
970,000000	55,354200
969,000000	55,344700
968,000000	55,332500
967,000000	55,338600
966,000000	55,336400
965,000000	55,331900
964,000000	55,334800
963,000000	55,331600
962,000000	55,350700
961,000000	55,347100
960,000000	55,329000
959,000000	55,350100
958,000000	55,376800
957,000000	55,367100
956,000000	55,353500
955,000000	55,359100
954,000000	55,367700
953,000000	55,362900
952,000000	55,340100
951,000000	55,339000
950,000000	55,344900
949,000000	55,341800
948,000000	55,334700
947,000000	55,326000
946,000000	55,309500
945,000000	55,286900
944,000000	55,282800
943,000000	55,272600
942,000000	55,239400
941,000000	55,225000
940,000000	55,214700
939,000000	55,179200
938,000000	55,126900
937,000000	55,104500
936,000000	55,086500
935,000000	55,049600
934,000000	55,015800
933,000000	54,968100
932,000000	54,932200
931,000000	54,917900
930,000000	54,872300
929,000000	54,814500
928,000000	54,792700
927,000000	54,747600
926,000000	54,696000
925,000000	54,650100
924,000000	54,602400
923,000000	54,571800
922,000000	54,526000
921,000000	54,465900
920,000000	54,420000
919,000000	54,363700
918,000000	54,288800
917,000000	54,232300
916,000000	54,167200
915,000000	54,098400
914,000000	54,023900
913,000000	53,948000
912,000000	53,869300
911,000000	53,785100
910,000000	53,715300
909,000000	53,635400
908,000000	53,578700
907,000000	53,514600
906,000000	53,439800
905,000000	53,380000
904,000000	53,330700
903,000000	53,275700
902,000000	53,224400
901,000000	53,162700
900,000000	53,088700
899,000000	53,020500
898,000000	52,976700
897,000000	52,930700
896,000000	52,887900
895,000000	52,828400
894,000000	52,727200
893,000000	52,660800
892,000000	52,587300
891,000000	52,504700
890,000000	52,430400
889,000000	52,354600
888,000000	52,270000
887,000000	52,174100
886,000000	52,082300
885,000000	51,965500
884,000000	51,858100
883,000000	51,741700
882,000000	51,630000
881,000000	51,503900
880,000000	51,382800
879,000000	51,241300
878,000000	51,135300
877,000000	50,978600
876,000000	50,838900
875,000000	50,662200
874,000000	50,440600
873,000000	50,207300
872,000000	49,945200
871,000000	49,736000
870,000000	49,616000
869,000000	49,579700
868,000000	49,585700
867,000000	49,565700
866,000000	49,545900
865,000000	49,542000
864,000000	49,524800
863,000000	49,499700
862,000000	49,473000
861,000000	49,462400
860,000000	49,438200
859,000000	49,436500
858,000000	49,401500
857,000000	53,070900
856,000000	54,261100
855,000000	54,005600
854,000000	54,261100
853,000000	53,766100
852,000000	53,716700
851,000000	54,155100
850,000000	53,970300
849,000000	53,957000
848,000000	53,863900
847,000000	53,770200
846,000000	53,812900
845,000000	53,517100
844,000000	53,461900
843,000000	53,494200
842,000000	53,743200
841,000000	53,332300
840,000000	53,180000
839,000000	53,501500
838,000000	53,100700
837,000000	53,292500
836,000000	52,988400
835,000000	52,932500
834,000000	52,933100
833,000000	52,979200
832,000000	52,776800
831,000000	52,757700
830,000000	52,673900
829,000000	52,397700
828,000000	52,475700
827,000000	52,322700
826,000000	52,305600
825,000000	52,236700
824,000000	52,213900
823,000000	51,888400
822,000000	51,960400
821,000000	51,895100
820,000000	51,727500
819,000000	51,494500
818,000000	51,411800
817,000000	51,209400
816,000000	51,348500
815,000000	51,225800
814,000000	51,078800
813,000000	50,765700
812,000000	50,836100
811,000000	50,974300
810,000000	50,683200
809,000000	50,404400
808,000000	50,555100
807,000000	50,378300
806,000000	50,275000
805,000000	50,084400
804,000000	49,992800
803,000000	49,905200
802,000000	49,878800
801,000000	49,636900
800,000000	49,624800
799,000000	49,505200
798,000000	49,247100
797,000000	49,377900
796,000000	49,161600
795,000000	49,039700
794,000000	49,002900
793,000000	48,872500
792,000000	48,632000
791,000000	48,509300
790,000000	48,540500
789,000000	48,550800
788,000000	48,223800
787,000000	48,159600
786,000000	47,897100
785,000000	47,794900
784,000000	47,653700
783,000000	47,492200
782,000000	47,439000
781,000000	47,448000
780,000000	47,234100
779,000000	47,056200
778,000000	46,939200
777,000000	46,756800
776,000000	46,674900
775,000000	46,472200
774,000000	46,402900
773,000000	46,284200
772,000000	46,065400
771,000000	45,951200
770,000000	45,747800
769,000000	45,751300
768,000000	45,560000
767,000000	45,450600
766,000000	45,289400
765,000000	45,080200
764,000000	44,983100
763,000000	44,883400
762,000000	44,691400
761,000000	44,522900
760,000000	44,426400
759,000000	44,286100
758,000000	44,009800
757,000000	43,881800
756,000000	43,761500
755,000000	43,572100
754,000000	43,417500
753,000000	43,269000
752,000000	43,081700
751,000000	42,968400
750,000000	42,758300
749,000000	42,588100
748,000000	42,543000
747,000000	42,269800
746,000000	42,097800
745,000000	41,977500
744,000000	41,781900
743,000000	41,562000
742,000000	41,418100
741,000000	41,257300
740,000000	41,036800
739,000000	40,855100
738,000000	40,569500
737,000000	40,416600
736,000000	40,246300
735,000000	40,036000
734,000000	39,849000
733,000000	39,666100
732,000000	39,406600
731,000000	39,220800
730,000000	38,992700
729,000000	38,783700
728,000000	38,570500
727,000000	38,362000
726,000000	38,146200
725,000000	37,978400
724,000000	37,781300
723,000000	37,552400
722,000000	37,308500
721,000000	37,060700
720,000000	36,755100
719,000000	36,526900
718,000000	36,299200
717,000000	36,095800
716,000000	35,862900
715,000000	35,604200
714,000000	35,371300
713,000000	35,154000
712,000000	34,914900
711,000000	34,629200
710,000000	34,389000
709,000000	34,151900
708,000000	33,908100
707,000000	33,660100
706,000000	33,383500
705,000000	33,127200
704,000000	32,932900
703,000000	32,666800
702,000000	32,420500
701,000000	32,163100
700,000000	31,927000
699,000000	31,670000
698,000000	31,427700
697,000000	31,188900
696,000000	30,982400
695,000000	30,738100
694,000000	30,531100
693,000000	30,329100
692,000000	30,066000
691,000000	29,835500
690,000000	29,615500
689,000000	29,380300
688,000000	29,191600
687,000000	28,990200
686,000000	28,764000
685,000000	28,534900
684,000000	28,335900
683,000000	28,135000
682,000000	27,950600
681,000000	27,725200
680,000000	27,526200
679,000000	27,359700
678,000000	27,165400
677,000000	26,978200
676,000000	26,800600
675,000000	26,595900
674,000000	26,442100
673,000000	26,290800
672,000000	26,111600
671,000000	25,969600
670,000000	25,798900
669,000000	25,633800
668,000000	25,470400
667,000000	25,337600
666,000000	25,196400
665,000000	25,055600
664,000000	24,914900
663,000000	24,780100
662,000000	24,663200
661,000000	24,536100
660,000000	24,395700
659,000000	24,270700
658,000000	24,146100
657,000000	24,014100
656,000000	23,900100
655,000000	23,794900
654,000000	23,684400
653,000000	23,577700
652,000000	23,483300
651,000000	23,390600
650,000000	23,292400
649,000000	23,214900
648,000000	23,144000
647,000000	23,049800
646,000000	22,967100
645,000000	22,899700
644,000000	22,824600
643,000000	22,756600
642,000000	22,676100
641,000000	22,598100
640,000000	22,556000
639,000000	22,503300
638,000000	22,450800
637,000000	22,413400
636,000000	22,365000
635,000000	22,338900
634,000000	22,303300
633,000000	22,267700
632,000000	22,240600
631,000000	22,226000
630,000000	22,231500
629,000000	22,230800
628,000000	22,214700
627,000000	22,189000
626,000000	22,187500
625,000000	22,193600
624,000000	22,210500
623,000000	22,235600
622,000000	22,255800
621,000000	22,263900
620,000000	22,289500
619,000000	22,342800
618,000000	22,381400
617,000000	22,416700
616,000000	22,467700
615,000000	22,501900
614,000000	22,538600
613,000000	22,593200
612,000000	22,655300
611,000000	22,709800
610,000000	22,784200
609,000000	22,842900
608,000000	22,890500
607,000000	22,960900
606,000000	23,037200
605,000000	23,102800
604,000000	23,182000
603,000000	23,263000
602,000000	23,335900
601,000000	23,402100
600,000000	23,485500
599,000000	23,564100
598,000000	23,636600
597,000000	23,714700
596,000000	23,798800
595,000000	23,902000
594,000000	23,980500
593,000000	24,048200
592,000000	24,123300
591,000000	24,198000
590,000000	24,281400
589,000000	24,346600
588,000000	24,410800
587,000000	24,489400
586,000000	24,562400
585,000000	24,638200
584,000000	24,699400
583,000000	24,763700
582,000000	24,820800
581,000000	24,870800
580,000000	24,922100
579,000000	24,981100
578,000000	25,039900
577,000000	25,078300
576,000000	25,123400
575,000000	25,152000
574,000000	25,167100
573,000000	25,210200
572,000000	25,225500
571,000000	25,234400
570,000000	25,254200
569,000000	25,253700
568,000000	25,234300
567,000000	25,222700
566,000000	25,232600
565,000000	25,218200
564,000000	25,173000
563,000000	25,146700
562,000000	25,110800
561,000000	25,079100
560,000000	25,033600
559,000000	24,893500
558,000000	24,808000
557,000000	24,735500
556,000000	24,674900
555,000000	24,588700
554,000000	24,494400
553,000000	24,382400
552,000000	24,272400
551,000000	24,140300
550,000000	24,036900
549,000000	23,899700
548,000000	23,754900
547,000000	23,623500
546,000000	23,471400
545,000000	23,339500
544,000000	23,149100
543,000000	22,970500
542,000000	22,785500
541,000000	22,619400
540,000000	22,399100
539,000000	22,219600
538,000000	22,011700
537,000000	21,814400
536,000000	21,583600
535,000000	21,374100
534,000000	21,149800
533,000000	20,904800
532,000000	20,657100
531,000000	20,409900
530,000000	20,166600
529,000000	19,920700
528,000000	19,664600
527,000000	19,393300
526,000000	19,132100
525,000000	18,860000
524,000000	18,602200
523,000000	18,329700
522,000000	18,031200
521,000000	17,769800
520,000000	17,502900
519,000000	17,216400
518,000000	16,962900
517,000000	16,678400
516,000000	16,401200
515,000000	16,139700
514,000000	15,874600
513,000000	15,633000
512,000000	15,388200
511,000000	15,151700
510,000000	14,891000
509,000000	14,691200
508,000000	14,457000
507,000000	14,228600
506,000000	14,027100
505,000000	13,834300
504,000000	13,646000
503,000000	13,445900
502,000000	13,273300
501,000000	13,089300
500,000000	12,936900
499,000000	12,775400
498,000000	12,639100
497,000000	12,500100
496,000000	12,353900
495,000000	12,223800
494,000000	12,116500
493,000000	12,006900
492,000000	11,889200
491,000000	11,784700
490,000000	11,700800
489,000000	11,602100
488,000000	11,538900
487,000000	11,445900
486,000000	11,362700
485,000000	11,295100
484,000000	11,227800
483,000000	11,160900
482,000000	11,094500
481,000000	11,021200
480,000000	10,957500
479,000000	10,871200
478,000000	10,804500
477,000000	10,729400
476,000000	10,674600
475,000000	10,609800
474,000000	10,540300
473,000000	10,482300
472,000000	10,425800
471,000000	10,385100
470,000000	10,323200
469,000000	10,268500
468,000000	10,212400
467,000000	10,165700
466,000000	10,123600
465,000000	10,102600
464,000000	10,043300
463,000000	10,015100
462,000000	9,980500
461,000000	9,923100
460,000000	9,894100
459,000000	9,863700
458,000000	9,826600
457,000000	9,799300
456,000000	9,769900
455,000000	9,733000
454,000000	9,712500
453,000000	9,698900
452,000000	9,639000
451,000000	9,617300
450,000000	9,583800
449,000000	9,560900
448,000000	9,530100
447,000000	9,516200
446,000000	9,468600
445,000000	9,436500
444,000000	9,417100
443,000000	9,379900
442,000000	9,347700
441,000000	9,313000
440,000000	9,269400
439,000000	9,251700
438,000000	9,215300
437,000000	9,165700
436,000000	9,143200
435,000000	9,120300
434,000000	9,060300
433,000000	9,030800
432,000000	8,988300
431,000000	8,961400
430,000000	8,909300
429,000000	8,881800
428,000000	8,853400
427,000000	8,811700
426,000000	8,778100
425,000000	8,738300
424,000000	8,695300
423,000000	8,680000
422,000000	8,625300
421,000000	8,596100
420,000000	8,557900
419,000000	8,515900
418,000000	8,443500
417,000000	8,390300
416,000000	8,356600
415,000000	8,322600
414,000000	8,270200
413,000000	8,221000
412,000000	8,173000
411,000000	8,134400
410,000000	8,075100
409,000000	8,018800
408,000000	7,957500
407,000000	7,907300
406,000000	7,841000
405,000000	7,783900
404,000000	7,726500
403,000000	7,655400
402,000000	7,593000
401,000000	7,544200
400,000000	7,476000
399,000000	7,409800
398,000000	7,321000
397,000000	7,250600
396,000000	7,183300
395,000000	7,095600
394,000000	7,041000
393,000000	6,964000
392,000000	6,877800
391,000000	6,804500
390,000000	6,729500
389,000000	6,657900
388,000000	6,569400
387,000000	6,507200
386,000000	6,429300
385,000000	6,339300
384,000000	6,267500
383,000000	6,201300
382,000000	6,118500
381,000000	6,043700
380,000000	5,999700
379,000000	5,934800
378,000000	5,867200
377,000000	5,783300
376,000000	5,702900
375,000000	5,519500
374,000000	5,231800
373,000000	5,187700
372,000000	5,276000
371,000000	5,096500
370,000000	5,113100
369,000000	5,093900
368,000000	5,084300
367,000000	5,072400
366,000000	4,932000
365,000000	4,931500
364,000000	4,977500
363,000000	4,993800
362,000000	4,921700
361,000000	4,882300
360,000000	4,912400
359,000000	4,808800
358,000000	4,751900
357,000000	4,737400
356,000000	4,700900
355,000000	4,658900
354,000000	4,733900
353,000000	4,814000
352,000000	4,712300
351,000000	4,721100
350,000000	4,823800
349,000000	4,860500
348,000000	4,772600
347,000000	4,689800
346,000000	4,634400
345,000000	4,522900
344,000000	4,553900
343,000000	4,621200
342,000000	4,674500
341,000000	4,703700
340,000000	4,650100
339,000000	4,542600
338,000000	4,542700
337,000000	4,633400
336,000000	4,349800
335,000000	4,487800
334,000000	4,660700
333,000000	4,461800
332,000000	4,564900
331,000000	4,719000
330,000000	4,860200
329,000000	4,757400
328,000000	4,632900
327,000000	4,887400
326,000000	5,100200
325,000000	4,843700
324,000000	4,610800
323,000000	4,773800
322,000000	4,997100
321,000000	5,169100
320,000000	5,313500
319,000000	5,074200
318,000000	5,154100
317,000000	5,369800
316,000000	4,830000
315,000000	4,410300
314,000000	4,427300
313,000000	4,438400
312,000000	4,426100
311,000000	4,398500
310,000000	4,437900
309,000000	4,432400
308,000000	4,437800
307,000000	4,474200
306,000000	4,483600
305,000000	4,457500
304,000000	4,468000
303,000000	4,458200
302,000000	4,431100
301,000000	4,426000
300,000000	4,465700
299,000000	4,458500
298,000000	4,432500
297,000000	4,452100
296,000000	4,470200
295,000000	4,467400
294,000000	4,422100
293,000000	4,435400
292,000000	4,461600
291,000000	4,464700
290,000000	4,462100
289,000000	4,457800
288,000000	4,433900
287,000000	4,444200
286,000000	4,454000
285,000000	4,448200
284,000000	4,470000
283,000000	4,473100
282,000000	4,477400
281,000000	4,494900
280,000000	4,519900
279,000000	4,484900
278,000000	4,492100
277,000000	4,494200
276,000000	4,478500
275,000000	4,527500
274,000000	4,515900
273,000000	4,526700
272,000000	4,525700
271,000000	4,558100
270,000000	4,580700
269,000000	4,577300
268,000000	4,581900
267,000000	4,613000
266,000000	4,609200
265,000000	4,622400
264,000000	4,655700
263,000000	4,642400
262,000000	4,682300
261,000000	4,745900
260,000000	4,736400
259,000000	4,735600
258,000000	4,739100
257,000000	4,809300
256,000000	4,757100
255,000000	4,762900
254,000000	4,801600
253,000000	4,812800
252,000000	4,835100
251,000000	4,795200
250,000000	4,852900
