PE UV       SUBTECH     SPECTRUM    ASCII       PEDS        4.00        
   -1
CICIMAUCR0242-1.Sample.ASC
24/06/21
13:33:23.00
24/06/21
13:33:23.00
Vinicio Soto Monge
C. cupreomarginata. Ventral. Sex M
250,000000
1
Lambda 1050
1050L1511233
PerkinElmer UV WinLab 6.3.2.0749 / 2.02.05 Lambda 900 UV/VIS/NIR, Aug  7 2015 09:38:08

0
0
3350/servo 860,8/2
0
0
UV/VIS
1
1
1
DoubleDePol,CommonBeamDepol,RBeamAtt,SBeamAtt,60mm sphere, WB InGaAs Detector
0
0
0
0
Program
Program
3350/servo 860,8/2
3350/0,2 860,8/0,2
3350/0,2 860,8/0,2
0
15.00
 
 
 
0
 
860,8
319,2
860,8
Front
100
on
S:100 R:100
0
0
0
0
 
0
 
 
 
0
 
 
0
0
0
0
0
 
 
 
 
0
0


0
0
#HDR
-1
-1
#GR
nm
%R
1.0
0.0
2500,000000
-1,000000
2251
8
53,395800
3,911100
#DATA
2500,000000	5,495600
2499,000000	5,512400
2498,000000	5,515400
2497,000000	5,411700
2496,000000	5,344200
2495,000000	5,412100
2494,000000	5,340100
2493,000000	5,385800
2492,000000	5,278500
2491,000000	5,334300
2490,000000	5,353100
2489,000000	5,273600
2488,000000	5,345000
2487,000000	5,218400
2486,000000	5,287500
2485,000000	5,270800
2484,000000	5,238600
2483,000000	5,268600
2482,000000	5,249600
2481,000000	5,229100
2480,000000	5,264600
2479,000000	5,156600
2478,000000	5,203200
2477,000000	5,216000
2476,000000	5,228000
2475,000000	5,199600
2474,000000	5,167800
2473,000000	5,226500
2472,000000	5,203300
2471,000000	5,144500
2470,000000	5,164900
2469,000000	5,174400
2468,000000	5,185200
2467,000000	5,209500
2466,000000	5,168200
2465,000000	5,191600
2464,000000	5,150800
2463,000000	5,165500
2462,000000	5,212000
2461,000000	5,202100
2460,000000	5,183800
2459,000000	5,172300
2458,000000	5,196000
2457,000000	5,196200
2456,000000	5,190600
2455,000000	5,216900
2454,000000	5,261100
2453,000000	5,251200
2452,000000	5,248000
2451,000000	5,259300
2450,000000	5,259700
2449,000000	5,312600
2448,000000	5,302700
2447,000000	5,296300
2446,000000	5,336800
2445,000000	5,324800
2444,000000	5,348100
2443,000000	5,389500
2442,000000	5,391800
2441,000000	5,427800
2440,000000	5,449600
2439,000000	5,442100
2438,000000	5,451200
2437,000000	5,479800
2436,000000	5,486100
2435,000000	5,509500
2434,000000	5,500800
2433,000000	5,530400
2432,000000	5,558400
2431,000000	5,543200
2430,000000	5,572400
2429,000000	5,579600
2428,000000	5,593800
2427,000000	5,616600
2426,000000	5,616200
2425,000000	5,634100
2424,000000	5,629700
2423,000000	5,623000
2422,000000	5,660600
2421,000000	5,669500
2420,000000	5,688900
2419,000000	5,692800
2418,000000	5,690500
2417,000000	5,682700
2416,000000	5,694600
2415,000000	5,712200
2414,000000	5,729100
2413,000000	5,737200
2412,000000	5,732800
2411,000000	5,741000
2410,000000	5,758200
2409,000000	5,759100
2408,000000	5,767800
2407,000000	5,771500
2406,000000	5,769800
2405,000000	5,779100
2404,000000	5,786500
2403,000000	5,797300
2402,000000	5,806700
2401,000000	5,818600
2400,000000	5,822300
2399,000000	5,824100
2398,000000	5,836400
2397,000000	5,851000
2396,000000	5,859100
2395,000000	5,867100
2394,000000	5,871900
2393,000000	5,880300
2392,000000	5,897900
2391,000000	5,893900
2390,000000	5,895400
2389,000000	5,905900
2388,000000	5,900600
2387,000000	5,905600
2386,000000	5,906500
2385,000000	5,912100
2384,000000	5,915800
2383,000000	5,919300
2382,000000	5,919600
2381,000000	5,922000
2380,000000	5,913600
2379,000000	5,902900
2378,000000	5,900100
2377,000000	5,900500
2376,000000	5,896300
2375,000000	5,880500
2374,000000	5,889600
2373,000000	5,880200
2372,000000	5,863800
2371,000000	5,866400
2370,000000	5,854400
2369,000000	5,852600
2368,000000	5,860100
2367,000000	5,850700
2366,000000	5,812000
2365,000000	5,792500
2364,000000	5,806000
2363,000000	5,789100
2362,000000	5,771000
2361,000000	5,752000
2360,000000	5,736200
2359,000000	5,740300
2358,000000	5,724900
2357,000000	5,707100
2356,000000	5,688100
2355,000000	5,674900
2354,000000	5,680500
2353,000000	5,666300
2352,000000	5,647400
2351,000000	5,662800
2350,000000	5,672200
2349,000000	5,656400
2348,000000	5,646300
2347,000000	5,651900
2346,000000	5,664900
2345,000000	5,669900
2344,000000	5,679500
2343,000000	5,690200
2342,000000	5,697100
2341,000000	5,697900
2340,000000	5,688400
2339,000000	5,697500
2338,000000	5,696700
2337,000000	5,703900
2336,000000	5,695300
2335,000000	5,678400
2334,000000	5,681800
2333,000000	5,678800
2332,000000	5,672400
2331,000000	5,658700
2330,000000	5,646400
2329,000000	5,626100
2328,000000	5,627200
2327,000000	5,605700
2326,000000	5,576600
2325,000000	5,558800
2324,000000	5,541300
2323,000000	5,515600
2322,000000	5,499000
2321,000000	5,480400
2320,000000	5,465900
2319,000000	5,442800
2318,000000	5,409300
2317,000000	5,376900
2316,000000	5,354200
2315,000000	5,321700
2314,000000	5,278500
2313,000000	5,269400
2312,000000	5,246100
2311,000000	5,241500
2310,000000	5,216100
2309,000000	5,192000
2308,000000	5,169400
2307,000000	5,164600
2306,000000	5,160300
2305,000000	5,158000
2304,000000	5,160600
2303,000000	5,165300
2302,000000	5,169500
2301,000000	5,165900
2300,000000	5,181300
2299,000000	5,174000
2298,000000	5,191600
2297,000000	5,206200
2296,000000	5,225700
2295,000000	5,228600
2294,000000	5,249800
2293,000000	5,262000
2292,000000	5,287500
2291,000000	5,287000
2290,000000	5,275700
2289,000000	5,297200
2288,000000	5,300900
2287,000000	5,285600
2286,000000	5,287200
2285,000000	5,289900
2284,000000	5,275400
2283,000000	5,254400
2282,000000	5,248600
2281,000000	5,228000
2280,000000	5,239400
2279,000000	5,232200
2278,000000	5,218500
2277,000000	5,197800
2276,000000	5,201000
2275,000000	5,198000
2274,000000	5,201400
2273,000000	5,182000
2272,000000	5,162800
2271,000000	5,173900
2270,000000	5,168700
2269,000000	5,167300
2268,000000	5,168600
2267,000000	5,179300
2266,000000	5,209700
2265,000000	5,221400
2264,000000	5,234200
2263,000000	5,270900
2262,000000	5,327700
2261,000000	5,350900
2260,000000	5,391600
2259,000000	5,427800
2258,000000	5,481100
2257,000000	5,548100
2256,000000	5,614000
2255,000000	5,662200
2254,000000	5,723600
2253,000000	5,769800
2252,000000	5,838400
2251,000000	5,919900
2250,000000	5,994900
2249,000000	6,027600
2248,000000	6,087400
2247,000000	6,138800
2246,000000	6,180000
2245,000000	6,229800
2244,000000	6,314200
2243,000000	6,336200
2242,000000	6,373700
2241,000000	6,408800
2240,000000	6,447100
2239,000000	6,483600
2238,000000	6,517900
2237,000000	6,558400
2236,000000	6,582000
2235,000000	6,594500
2234,000000	6,611000
2233,000000	6,638100
2232,000000	6,646000
2231,000000	6,665400
2230,000000	6,672500
2229,000000	6,703300
2228,000000	6,702100
2227,000000	6,710400
2226,000000	6,708500
2225,000000	6,703000
2224,000000	6,700400
2223,000000	6,725300
2222,000000	6,714200
2221,000000	6,702400
2220,000000	6,704100
2219,000000	6,674100
2218,000000	6,672300
2217,000000	6,679600
2216,000000	6,677000
2215,000000	6,664100
2214,000000	6,637600
2213,000000	6,617700
2212,000000	6,638100
2211,000000	6,634900
2210,000000	6,614200
2209,000000	6,611300
2208,000000	6,608000
2207,000000	6,610600
2206,000000	6,602900
2205,000000	6,574700
2204,000000	6,586000
2203,000000	6,575600
2202,000000	6,582800
2201,000000	6,566300
2200,000000	6,560100
2199,000000	6,548700
2198,000000	6,550500
2197,000000	6,554300
2196,000000	6,544300
2195,000000	6,542600
2194,000000	6,518100
2193,000000	6,513900
2192,000000	6,504400
2191,000000	6,518900
2190,000000	6,515100
2189,000000	6,507500
2188,000000	6,505800
2187,000000	6,508300
2186,000000	6,496100
2185,000000	6,470000
2184,000000	6,478600
2183,000000	6,484300
2182,000000	6,467600
2181,000000	6,477000
2180,000000	6,488400
2179,000000	6,483500
2178,000000	6,479500
2177,000000	6,463800
2176,000000	6,461500
2175,000000	6,461000
2174,000000	6,460100
2173,000000	6,465100
2172,000000	6,473900
2171,000000	6,478000
2170,000000	6,474200
2169,000000	6,480000
2168,000000	6,478000
2167,000000	6,490700
2166,000000	6,497900
2165,000000	6,500500
2164,000000	6,513400
2163,000000	6,533800
2162,000000	6,534700
2161,000000	6,548800
2160,000000	6,549100
2159,000000	6,566400
2158,000000	6,567800
2157,000000	6,577300
2156,000000	6,610600
2155,000000	6,629200
2154,000000	6,628600
2153,000000	6,651800
2152,000000	6,665400
2151,000000	6,666700
2150,000000	6,693500
2149,000000	6,716900
2148,000000	6,744900
2147,000000	6,726400
2146,000000	6,742700
2145,000000	6,765900
2144,000000	6,780200
2143,000000	6,803300
2142,000000	6,798600
2141,000000	6,805600
2140,000000	6,814700
2139,000000	6,824500
2138,000000	6,828900
2137,000000	6,841600
2136,000000	6,852700
2135,000000	6,869500
2134,000000	6,874500
2133,000000	6,876500
2132,000000	6,878800
2131,000000	6,871600
2130,000000	6,867200
2129,000000	6,877800
2128,000000	6,892200
2127,000000	6,877300
2126,000000	6,877000
2125,000000	6,871300
2124,000000	6,871000
2123,000000	6,864300
2122,000000	6,861200
2121,000000	6,839800
2120,000000	6,831700
2119,000000	6,830800
2118,000000	6,815200
2117,000000	6,803700
2116,000000	6,795800
2115,000000	6,778700
2114,000000	6,759400
2113,000000	6,764100
2112,000000	6,741300
2111,000000	6,723600
2110,000000	6,718500
2109,000000	6,711300
2108,000000	6,705200
2107,000000	6,690800
2106,000000	6,677400
2105,000000	6,653600
2104,000000	6,628700
2103,000000	6,623300
2102,000000	6,618300
2101,000000	6,613400
2100,000000	6,604800
2099,000000	6,585300
2098,000000	6,578900
2097,000000	6,567200
2096,000000	6,564200
2095,000000	6,552200
2094,000000	6,543700
2093,000000	6,534900
2092,000000	6,519200
2091,000000	6,512900
2090,000000	6,504200
2089,000000	6,489200
2088,000000	6,477900
2087,000000	6,464700
2086,000000	6,467000
2085,000000	6,457400
2084,000000	6,438500
2083,000000	6,422500
2082,000000	6,416000
2081,000000	6,414600
2080,000000	6,405600
2079,000000	6,391300
2078,000000	6,371400
2077,000000	6,353800
2076,000000	6,341800
2075,000000	6,332900
2074,000000	6,310600
2073,000000	6,285400
2072,000000	6,280800
2071,000000	6,271900
2070,000000	6,257100
2069,000000	6,234800
2068,000000	6,212800
2067,000000	6,205900
2066,000000	6,175000
2065,000000	6,166600
2064,000000	6,161800
2063,000000	6,142800
2062,000000	6,124400
2061,000000	6,114200
2060,000000	6,101700
2059,000000	6,079300
2058,000000	6,072400
2057,000000	6,080200
2056,000000	6,073500
2055,000000	6,079700
2054,000000	6,097700
2053,000000	6,103600
2052,000000	6,092100
2051,000000	6,101600
2050,000000	6,113200
2049,000000	6,120500
2048,000000	6,126800
2047,000000	6,151300
2046,000000	6,175100
2045,000000	6,199800
2044,000000	6,229300
2043,000000	6,252100
2042,000000	6,281400
2041,000000	6,305700
2040,000000	6,314300
2039,000000	6,330700
2038,000000	6,353900
2037,000000	6,381800
2036,000000	6,411300
2035,000000	6,427600
2034,000000	6,441900
2033,000000	6,463500
2032,000000	6,481700
2031,000000	6,489000
2030,000000	6,511800
2029,000000	6,513900
2028,000000	6,517500
2027,000000	6,528300
2026,000000	6,531100
2025,000000	6,549500
2024,000000	6,555000
2023,000000	6,560800
2022,000000	6,571200
2021,000000	6,568300
2020,000000	6,583200
2019,000000	6,592300
2018,000000	6,595600
2017,000000	6,596900
2016,000000	6,584000
2015,000000	6,583800
2014,000000	6,584600
2013,000000	6,567000
2012,000000	6,562800
2011,000000	6,569800
2010,000000	6,561300
2009,000000	6,556200
2008,000000	6,534100
2007,000000	6,537400
2006,000000	6,511800
2005,000000	6,490600
2004,000000	6,475300
2003,000000	6,476000
2002,000000	6,450200
2001,000000	6,446100
2000,000000	6,426000
1999,000000	6,398700
1998,000000	6,361600
1997,000000	6,365800
1996,000000	6,336600
1995,000000	6,309500
1994,000000	6,286400
1993,000000	6,268500
1992,000000	6,253100
1991,000000	6,237000
1990,000000	6,208200
1989,000000	6,185400
1988,000000	6,158300
1987,000000	6,147100
1986,000000	6,132800
1985,000000	6,113700
1984,000000	6,067200
1983,000000	6,034200
1982,000000	6,031300
1981,000000	6,000800
1980,000000	5,975100
1979,000000	5,950500
1978,000000	5,912100
1977,000000	5,895000
1976,000000	5,871900
1975,000000	5,853900
1974,000000	5,832100
1973,000000	5,828500
1972,000000	5,794300
1971,000000	5,777900
1970,000000	5,763800
1969,000000	5,737400
1968,000000	5,717700
1967,000000	5,698600
1966,000000	5,672400
1965,000000	5,659400
1964,000000	5,658100
1963,000000	5,630300
1962,000000	5,610000
1961,000000	5,585000
1960,000000	5,565200
1959,000000	5,558500
1958,000000	5,539100
1957,000000	5,523100
1956,000000	5,514800
1955,000000	5,492300
1954,000000	5,486900
1953,000000	5,479600
1952,000000	5,451800
1951,000000	5,432900
1950,000000	5,429200
1949,000000	5,415700
1948,000000	5,422000
1947,000000	5,372800
1946,000000	5,380200
1945,000000	5,348000
1944,000000	5,359300
1943,000000	5,349700
1942,000000	5,349800
1941,000000	5,324600
1940,000000	5,334500
1939,000000	5,334900
1938,000000	5,333400
1937,000000	5,334800
1936,000000	5,362700
1935,000000	5,324700
1934,000000	5,338700
1933,000000	5,352300
1932,000000	5,360800
1931,000000	5,367100
1930,000000	5,362400
1929,000000	5,358900
1928,000000	5,394800
1927,000000	5,417800
1926,000000	5,440400
1925,000000	5,461400
1924,000000	5,470600
1923,000000	5,489500
1922,000000	5,518300
1921,000000	5,527800
1920,000000	5,595700
1919,000000	5,605000
1918,000000	5,663600
1917,000000	5,662200
1916,000000	5,702300
1915,000000	5,740300
1914,000000	5,769300
1913,000000	5,837600
1912,000000	5,895600
1911,000000	5,955700
1910,000000	5,986900
1909,000000	6,039300
1908,000000	6,065000
1907,000000	6,112000
1906,000000	6,195600
1905,000000	6,268300
1904,000000	6,371900
1903,000000	6,428300
1902,000000	6,518800
1901,000000	6,590700
1900,000000	6,672800
1899,000000	6,768600
1898,000000	6,896500
1897,000000	7,007000
1896,000000	7,112900
1895,000000	7,192700
1894,000000	7,276100
1893,000000	7,380300
1892,000000	7,510200
1891,000000	7,669900
1890,000000	7,816000
1889,000000	7,993900
1888,000000	8,167000
1887,000000	8,312800
1886,000000	8,475900
1885,000000	8,714300
1884,000000	8,937800
1883,000000	9,196600
1882,000000	9,521700
1881,000000	9,788100
1880,000000	10,074800
1879,000000	10,343700
1878,000000	10,628000
1877,000000	10,940100
1876,000000	11,237100
1875,000000	11,553700
1874,000000	11,844600
1873,000000	12,148300
1872,000000	12,478300
1871,000000	12,794800
1870,000000	13,101600
1869,000000	13,393500
1868,000000	13,665200
1867,000000	13,838100
1866,000000	14,017000
1865,000000	14,134700
1864,000000	14,257800
1863,000000	14,344700
1862,000000	14,440300
1861,000000	14,560500
1860,000000	14,674300
1859,000000	14,809400
1858,000000	14,933500
1857,000000	15,014800
1856,000000	15,071000
1855,000000	15,107900
1854,000000	15,146600
1853,000000	15,199200
1852,000000	15,212700
1851,000000	15,203900
1850,000000	15,198300
1849,000000	15,166200
1848,000000	15,192800
1847,000000	15,245300
1846,000000	15,268000
1845,000000	15,242900
1844,000000	15,179500
1843,000000	15,105600
1842,000000	15,070200
1841,000000	15,084900
1840,000000	15,112300
1839,000000	15,119400
1838,000000	15,112200
1837,000000	15,074200
1836,000000	15,057000
1835,000000	15,054600
1834,000000	15,004300
1833,000000	14,943600
1832,000000	14,869700
1831,000000	14,800000
1830,000000	14,769800
1829,000000	14,733600
1828,000000	14,682100
1827,000000	14,639200
1826,000000	14,587300
1825,000000	14,530600
1824,000000	14,465900
1823,000000	14,409900
1822,000000	14,369400
1821,000000	14,343600
1820,000000	14,335000
1819,000000	14,339700
1818,000000	14,321000
1817,000000	14,283900
1816,000000	14,255400
1815,000000	14,233600
1814,000000	14,233500
1813,000000	14,227200
1812,000000	14,212300
1811,000000	14,202600
1810,000000	14,171400
1809,000000	14,142200
1808,000000	14,107700
1807,000000	14,071100
1806,000000	14,040700
1805,000000	14,015400
1804,000000	13,968300
1803,000000	13,916600
1802,000000	13,873900
1801,000000	13,833700
1800,000000	13,799100
1799,000000	13,764800
1798,000000	13,728300
1797,000000	13,679400
1796,000000	13,637200
1795,000000	13,592300
1794,000000	13,552700
1793,000000	13,533200
1792,000000	13,491400
1791,000000	13,449100
1790,000000	13,415500
1789,000000	13,372400
1788,000000	13,316800
1787,000000	13,263800
1786,000000	13,212500
1785,000000	13,162200
1784,000000	13,122800
1783,000000	13,071600
1782,000000	13,016400
1781,000000	12,960100
1780,000000	12,898900
1779,000000	12,854600
1778,000000	12,812900
1777,000000	12,759700
1776,000000	12,694900
1775,000000	12,638800
1774,000000	12,571900
1773,000000	12,498800
1772,000000	12,417600
1771,000000	12,327800
1770,000000	12,258500
1769,000000	12,173600
1768,000000	12,083200
1767,000000	12,004900
1766,000000	11,957400
1765,000000	11,892600
1764,000000	11,842200
1763,000000	11,814800
1762,000000	11,822300
1761,000000	11,824600
1760,000000	11,837000
1759,000000	11,884200
1758,000000	11,934800
1757,000000	11,976200
1756,000000	12,016200
1755,000000	12,065100
1754,000000	12,108700
1753,000000	12,129500
1752,000000	12,141800
1751,000000	12,162600
1750,000000	12,157300
1749,000000	12,150300
1748,000000	12,115400
1747,000000	12,082400
1746,000000	12,042500
1745,000000	11,990300
1744,000000	11,931100
1743,000000	11,847800
1742,000000	11,744000
1741,000000	11,630500
1740,000000	11,501300
1739,000000	11,381200
1738,000000	11,237500
1737,000000	11,099600
1736,000000	10,980100
1735,000000	10,904000
1734,000000	10,828700
1733,000000	10,781200
1732,000000	10,772600
1731,000000	10,790700
1730,000000	10,831400
1729,000000	10,889700
1728,000000	10,952000
1727,000000	11,002100
1726,000000	11,062900
1725,000000	11,153100
1724,000000	11,202000
1723,000000	11,241200
1722,000000	11,276400
1721,000000	11,315500
1720,000000	11,329300
1719,000000	11,355500
1718,000000	11,367500
1717,000000	11,391000
1716,000000	11,435200
1715,000000	11,483000
1714,000000	11,517500
1713,000000	11,571100
1712,000000	11,605300
1711,000000	11,640100
1710,000000	11,673600
1709,000000	11,704700
1708,000000	11,690100
1707,000000	11,660500
1706,000000	11,666600
1705,000000	11,645100
1704,000000	11,612300
1703,000000	11,589400
1702,000000	11,498500
1701,000000	11,447800
1700,000000	11,365100
1699,000000	11,277300
1698,000000	11,186400
1697,000000	11,078000
1696,000000	11,002800
1695,000000	10,942700
1694,000000	10,924300
1693,000000	10,942000
1692,000000	11,006600
1691,000000	11,071600
1690,000000	11,165200
1689,000000	11,269500
1688,000000	11,356800
1687,000000	11,440900
1686,000000	11,481200
1685,000000	11,492200
1684,000000	11,528500
1683,000000	11,596800
1682,000000	11,716500
1681,000000	11,889800
1680,000000	12,142700
1679,000000	12,462400
1678,000000	12,838100
1677,000000	13,212900
1676,000000	13,561400
1675,000000	13,905500
1674,000000	14,218600
1673,000000	14,490900
1672,000000	14,718700
1671,000000	14,921700
1670,000000	15,090100
1669,000000	15,269700
1668,000000	15,408500
1667,000000	15,546900
1666,000000	15,635600
1665,000000	15,738400
1664,000000	15,812500
1663,000000	15,861100
1662,000000	15,920100
1661,000000	15,990600
1660,000000	16,022500
1659,000000	16,078900
1658,000000	16,085400
1657,000000	16,113500
1656,000000	16,138800
1655,000000	16,132100
1654,000000	16,140600
1653,000000	16,125000
1652,000000	16,123300
1651,000000	16,122300
1650,000000	16,087200
1649,000000	16,058900
1648,000000	16,049300
1647,000000	15,987300
1646,000000	15,960600
1645,000000	15,921700
1644,000000	15,864700
1643,000000	15,833200
1642,000000	15,771400
1641,000000	15,748900
1640,000000	15,677800
1639,000000	15,634600
1638,000000	15,582300
1637,000000	15,537700
1636,000000	15,476700
1635,000000	15,418200
1634,000000	15,368300
1633,000000	15,281200
1632,000000	15,238400
1631,000000	15,177800
1630,000000	15,113800
1629,000000	15,050000
1628,000000	15,001300
1627,000000	14,920100
1626,000000	14,848600
1625,000000	14,794700
1624,000000	14,728100
1623,000000	14,650800
1622,000000	14,609100
1621,000000	14,555800
1620,000000	14,487400
1619,000000	14,409600
1618,000000	14,349100
1617,000000	14,303300
1616,000000	14,242600
1615,000000	14,177300
1614,000000	14,126300
1613,000000	14,067700
1612,000000	14,013800
1611,000000	13,959100
1610,000000	13,908600
1609,000000	13,861300
1608,000000	13,797700
1607,000000	13,737400
1606,000000	13,682700
1605,000000	13,640300
1604,000000	13,587700
1603,000000	13,520900
1602,000000	13,474400
1601,000000	13,431000
1600,000000	13,375700
1599,000000	13,330800
1598,000000	13,271400
1597,000000	13,208800
1596,000000	13,168700
1595,000000	13,125300
1594,000000	13,078400
1593,000000	13,021000
1592,000000	12,980400
1591,000000	12,938000
1590,000000	12,904500
1589,000000	12,862900
1588,000000	12,814600
1587,000000	12,782000
1586,000000	12,733900
1585,000000	12,689900
1584,000000	12,669000
1583,000000	12,642900
1582,000000	12,612100
1581,000000	12,568800
1580,000000	12,559400
1579,000000	12,540800
1578,000000	12,518200
1577,000000	12,491200
1576,000000	12,470100
1575,000000	12,467100
1574,000000	12,441400
1573,000000	12,418900
1572,000000	12,414300
1571,000000	12,402200
1570,000000	12,395300
1569,000000	12,387300
1568,000000	12,399600
1567,000000	12,391600
1566,000000	12,389400
1565,000000	12,379400
1564,000000	12,380700
1563,000000	12,371900
1562,000000	12,369900
1561,000000	12,374700
1560,000000	12,353000
1559,000000	12,355900
1558,000000	12,366600
1557,000000	12,364800
1556,000000	12,350000
1555,000000	12,329000
1554,000000	12,321000
1553,000000	12,318200
1552,000000	12,296600
1551,000000	12,276300
1550,000000	12,265800
1549,000000	12,234700
1548,000000	12,215100
1547,000000	12,195100
1546,000000	12,174200
1545,000000	12,155300
1544,000000	12,144800
1543,000000	12,138300
1542,000000	12,116900
1541,000000	12,096600
1540,000000	12,083000
1539,000000	12,066500
1538,000000	12,059000
1537,000000	12,048400
1536,000000	12,026700
1535,000000	12,014800
1534,000000	11,973100
1533,000000	11,953300
1532,000000	11,947500
1531,000000	11,922100
1530,000000	11,895700
1529,000000	11,873100
1528,000000	11,850400
1527,000000	11,820400
1526,000000	11,780600
1525,000000	11,761800
1524,000000	11,728100
1523,000000	11,688000
1522,000000	11,660000
1521,000000	11,635800
1520,000000	11,607200
1519,000000	11,565200
1518,000000	11,530200
1517,000000	11,492800
1516,000000	11,451700
1515,000000	11,427500
1514,000000	11,392200
1513,000000	11,361900
1512,000000	11,333200
1511,000000	11,291600
1510,000000	11,245800
1509,000000	11,212700
1508,000000	11,182600
1507,000000	11,134000
1506,000000	11,107300
1505,000000	11,084700
1504,000000	11,040000
1503,000000	10,981000
1502,000000	10,943200
1501,000000	10,909700
1500,000000	10,873900
1499,000000	10,827900
1498,000000	10,800000
1497,000000	10,798500
1496,000000	10,765000
1495,000000	10,741100
1494,000000	10,713600
1493,000000	10,673900
1492,000000	10,645600
1491,000000	10,632400
1490,000000	10,621000
1489,000000	10,596700
1488,000000	10,578900
1487,000000	10,549500
1486,000000	10,537200
1485,000000	10,526000
1484,000000	10,496100
1483,000000	10,475700
1482,000000	10,460000
1481,000000	10,451500
1480,000000	10,443000
1479,000000	10,429700
1478,000000	10,423900
1477,000000	10,424900
1476,000000	10,414900
1475,000000	10,395900
1474,000000	10,385400
1473,000000	10,386900
1472,000000	10,388100
1471,000000	10,379300
1470,000000	10,390200
1469,000000	10,391400
1468,000000	10,385200
1467,000000	10,386700
1466,000000	10,389600
1465,000000	10,393000
1464,000000	10,399100
1463,000000	10,417700
1462,000000	10,439900
1461,000000	10,437700
1460,000000	10,448300
1459,000000	10,467700
1458,000000	10,476200
1457,000000	10,507700
1456,000000	10,541600
1455,000000	10,574900
1454,000000	10,616600
1453,000000	10,652700
1452,000000	10,690100
1451,000000	10,729400
1450,000000	10,780800
1449,000000	10,829100
1448,000000	10,876900
1447,000000	10,910600
1446,000000	10,973400
1445,000000	11,022600
1444,000000	11,084600
1443,000000	11,132800
1442,000000	11,194900
1441,000000	11,241600
1440,000000	11,312100
1439,000000	11,350100
1438,000000	11,420500
1437,000000	11,490500
1436,000000	11,551500
1435,000000	11,627400
1434,000000	11,698500
1433,000000	11,790400
1432,000000	11,862000
1431,000000	11,957000
1430,000000	12,040900
1429,000000	12,121800
1428,000000	12,196000
1427,000000	12,321800
1426,000000	12,417800
1425,000000	12,559200
1424,000000	12,681000
1423,000000	12,820600
1422,000000	12,985400
1421,000000	13,102400
1420,000000	13,225800
1419,000000	13,406300
1418,000000	13,598300
1417,000000	13,752600
1416,000000	13,916300
1415,000000	14,088200
1414,000000	14,289600
1413,000000	14,538600
1412,000000	14,741400
1411,000000	14,913100
1410,000000	15,144700
1409,000000	15,447100
1408,000000	15,753200
1407,000000	16,042100
1406,000000	16,323900
1405,000000	16,637800
1404,000000	17,014600
1403,000000	17,346700
1402,000000	17,671300
1401,000000	17,959400
1400,000000	18,367000
1399,000000	18,798100
1398,000000	19,125800
1397,000000	19,341200
1396,000000	19,620000
1395,000000	20,003300
1394,000000	20,366100
1393,000000	20,635100
1392,000000	20,907900
1391,000000	21,243000
1390,000000	21,608700
1389,000000	21,892500
1388,000000	22,267500
1387,000000	22,738900
1386,000000	23,213300
1385,000000	23,683000
1384,000000	24,171000
1383,000000	24,738700
1382,000000	25,330300
1381,000000	25,927000
1380,000000	26,422100
1379,000000	26,777500
1378,000000	27,057000
1377,000000	27,251700
1376,000000	27,461400
1375,000000	27,685500
1374,000000	27,939600
1373,000000	28,187000
1372,000000	28,516200
1371,000000	28,869000
1370,000000	29,299800
1369,000000	29,638900
1368,000000	29,950000
1367,000000	30,285700
1366,000000	30,582200
1365,000000	30,812200
1364,000000	31,053100
1363,000000	31,253400
1362,000000	31,439400
1361,000000	31,622700
1360,000000	31,880700
1359,000000	31,982200
1358,000000	32,066400
1357,000000	32,176300
1356,000000	32,305600
1355,000000	32,571900
1354,000000	32,906200
1353,000000	33,344900
1352,000000	33,771600
1351,000000	34,270300
1350,000000	34,798400
1349,000000	35,280100
1348,000000	35,714000
1347,000000	36,152400
1346,000000	36,583000
1345,000000	36,927800
1344,000000	37,290100
1343,000000	37,660900
1342,000000	38,005800
1341,000000	38,361000
1340,000000	38,701300
1339,000000	39,068500
1338,000000	39,398000
1337,000000	39,718300
1336,000000	40,045500
1335,000000	40,360200
1334,000000	40,676000
1333,000000	40,985500
1332,000000	41,285800
1331,000000	41,581800
1330,000000	41,873200
1329,000000	42,160400
1328,000000	42,424000
1327,000000	42,688000
1326,000000	42,915700
1325,000000	43,185100
1324,000000	43,407400
1323,000000	43,635100
1322,000000	43,844000
1321,000000	44,043500
1320,000000	44,241000
1319,000000	44,444000
1318,000000	44,612600
1317,000000	44,804800
1316,000000	44,979200
1315,000000	45,138800
1314,000000	45,300500
1313,000000	45,449000
1312,000000	45,587700
1311,000000	45,731100
1310,000000	45,856400
1309,000000	45,980800
1308,000000	46,086400
1307,000000	46,198800
1306,000000	46,322400
1305,000000	46,396800
1304,000000	46,468400
1303,000000	46,530400
1302,000000	46,601000
1301,000000	46,660200
1300,000000	46,704800
1299,000000	46,733900
1298,000000	46,775900
1297,000000	46,831200
1296,000000	46,863400
1295,000000	46,894000
1294,000000	46,909400
1293,000000	46,920600
1292,000000	46,938200
1291,000000	46,928800
1290,000000	46,937600
1289,000000	46,927400
1288,000000	46,915600
1287,000000	46,887500
1286,000000	46,852200
1285,000000	46,806900
1284,000000	46,754500
1283,000000	46,712400
1282,000000	46,658600
1281,000000	46,603000
1280,000000	46,547400
1279,000000	46,502700
1278,000000	46,455500
1277,000000	46,397300
1276,000000	46,337500
1275,000000	46,292300
1274,000000	46,235000
1273,000000	46,180200
1272,000000	46,144800
1271,000000	46,107600
1270,000000	46,063400
1269,000000	46,017300
1268,000000	45,971700
1267,000000	45,918000
1266,000000	45,870000
1265,000000	45,822100
1264,000000	45,772000
1263,000000	45,732700
1262,000000	45,677900
1261,000000	45,606600
1260,000000	45,546900
1259,000000	45,497900
1258,000000	45,425700
1257,000000	45,355400
1256,000000	45,303800
1255,000000	45,232200
1254,000000	45,147000
1253,000000	45,068300
1252,000000	44,981700
1251,000000	44,889500
1250,000000	44,807500
1249,000000	44,713900
1248,000000	44,614200
1247,000000	44,512200
1246,000000	44,407600
1245,000000	44,285400
1244,000000	44,152000
1243,000000	44,031900
1242,000000	43,888400
1241,000000	43,745600
1240,000000	43,602900
1239,000000	43,446900
1238,000000	43,294200
1237,000000	43,138900
1236,000000	42,982500
1235,000000	42,821700
1234,000000	42,645200
1233,000000	42,473100
1232,000000	42,296300
1231,000000	42,108900
1230,000000	41,920500
1229,000000	41,733100
1228,000000	41,527500
1227,000000	41,306700
1226,000000	41,098400
1225,000000	40,907600
1224,000000	40,698500
1223,000000	40,473700
1222,000000	40,274100
1221,000000	40,073100
1220,000000	39,849500
1219,000000	39,647200
1218,000000	39,455300
1217,000000	39,254500
1216,000000	39,066200
1215,000000	38,891300
1214,000000	38,720100
1213,000000	38,546400
1212,000000	38,368300
1211,000000	38,217100
1210,000000	38,075900
1209,000000	37,934800
1208,000000	37,778900
1207,000000	37,657200
1206,000000	37,551100
1205,000000	37,443200
1204,000000	37,363400
1203,000000	37,304200
1202,000000	37,258700
1201,000000	37,207200
1200,000000	37,155800
1199,000000	37,098900
1198,000000	37,015300
1197,000000	36,919100
1196,000000	36,784300
1195,000000	36,614400
1194,000000	36,378800
1193,000000	36,074600
1192,000000	35,728900
1191,000000	35,323700
1190,000000	34,878000
1189,000000	34,442000
1188,000000	34,041000
1187,000000	33,712700
1186,000000	33,503000
1185,000000	33,393500
1184,000000	33,418900
1183,000000	33,592800
1182,000000	33,889900
1181,000000	34,320300
1180,000000	34,803800
1179,000000	35,313300
1178,000000	35,830800
1177,000000	36,280900
1176,000000	36,698800
1175,000000	37,064200
1174,000000	37,411900
1173,000000	37,739800
1172,000000	38,046600
1171,000000	38,385200
1170,000000	38,729900
1169,000000	39,060700
1168,000000	39,422000
1167,000000	39,769900
1166,000000	40,135000
1165,000000	40,500600
1164,000000	40,864100
1163,000000	41,240900
1162,000000	41,643700
1161,000000	42,042500
1160,000000	42,404200
1159,000000	42,789000
1158,000000	43,169800
1157,000000	43,513300
1156,000000	43,876200
1155,000000	44,189400
1154,000000	44,461500
1153,000000	44,684900
1152,000000	44,843900
1151,000000	44,979000
1150,000000	45,089700
1149,000000	45,194700
1148,000000	45,273600
1147,000000	45,361500
1146,000000	45,474800
1145,000000	45,665200
1144,000000	45,903400
1143,000000	46,200400
1142,000000	46,552800
1141,000000	46,934300
1140,000000	47,337100
1139,000000	47,753300
1138,000000	48,192500
1137,000000	48,627900
1136,000000	49,085400
1135,000000	49,578300
1134,000000	50,099200
1133,000000	50,576600
1132,000000	50,975300
1131,000000	51,378200
1130,000000	51,724000
1129,000000	52,038500
1128,000000	52,319500
1127,000000	52,547200
1126,000000	52,724300
1125,000000	52,878400
1124,000000	52,989000
1123,000000	53,096400
1122,000000	53,177800
1121,000000	53,264400
1120,000000	53,335100
1119,000000	53,348300
1118,000000	53,373800
1117,000000	53,383500
1116,000000	53,395800
1115,000000	53,389000
1114,000000	53,378500
1113,000000	53,352000
1112,000000	53,334400
1111,000000	53,314200
1110,000000	53,296600
1109,000000	53,284300
1108,000000	53,261500
1107,000000	53,234000
1106,000000	53,212500
1105,000000	53,204200
1104,000000	53,158600
1103,000000	53,135100
1102,000000	53,106400
1101,000000	53,068100
1100,000000	53,034600
1099,000000	53,001800
1098,000000	52,971900
1097,000000	52,944500
1096,000000	52,899600
1095,000000	52,847700
1094,000000	52,808600
1093,000000	52,762700
1092,000000	52,710800
1091,000000	52,637900
1090,000000	52,582800
1089,000000	52,536700
1088,000000	52,455700
1087,000000	52,392600
1086,000000	52,325100
1085,000000	52,262500
1084,000000	52,185900
1083,000000	52,111200
1082,000000	52,036900
1081,000000	51,963500
1080,000000	51,884600
1079,000000	51,797200
1078,000000	51,717200
1077,000000	51,652400
1076,000000	51,584200
1075,000000	51,506200
1074,000000	51,420300
1073,000000	51,360100
1072,000000	51,270900
1071,000000	51,180400
1070,000000	51,099800
1069,000000	51,019500
1068,000000	50,909400
1067,000000	50,843100
1066,000000	50,759300
1065,000000	50,662000
1064,000000	50,578500
1063,000000	50,495400
1062,000000	50,404900
1061,000000	50,312600
1060,000000	50,213700
1059,000000	50,112100
1058,000000	50,023700
1057,000000	49,927500
1056,000000	49,804900
1055,000000	49,718800
1054,000000	49,604800
1053,000000	49,501600
1052,000000	49,404800
1051,000000	49,302400
1050,000000	49,209200
1049,000000	49,119700
1048,000000	49,006700
1047,000000	48,937100
1046,000000	48,844000
1045,000000	48,751800
1044,000000	48,640200
1043,000000	48,546200
1042,000000	48,475300
1041,000000	48,388700
1040,000000	48,286400
1039,000000	48,188400
1038,000000	48,090700
1037,000000	47,996400
1036,000000	47,895600
1035,000000	47,790200
1034,000000	47,683300
1033,000000	47,591900
1032,000000	47,484400
1031,000000	47,378700
1030,000000	47,268600
1029,000000	47,144400
1028,000000	47,023900
1027,000000	46,912000
1026,000000	46,784700
1025,000000	46,670500
1024,000000	46,542500
1023,000000	46,402900
1022,000000	46,299600
1021,000000	46,156400
1020,000000	46,018900
1019,000000	45,898800
1018,000000	45,762800
1017,000000	45,640600
1016,000000	45,551500
1015,000000	45,438600
1014,000000	45,316200
1013,000000	45,222800
1012,000000	45,118800
1011,000000	45,047200
1010,000000	44,971100
1009,000000	44,891500
1008,000000	44,832200
1007,000000	44,743800
1006,000000	44,671800
1005,000000	44,610400
1004,000000	44,543500
1003,000000	44,468700
1002,000000	44,389000
1001,000000	44,325100
1000,000000	44,255300
999,000000	44,198300
998,000000	44,131700
997,000000	44,065600
996,000000	43,994900
995,000000	43,927700
994,000000	43,878300
993,000000	43,804900
992,000000	43,742700
991,000000	43,682000
990,000000	43,618200
989,000000	43,556000
988,000000	43,487400
987,000000	43,425000
986,000000	43,357200
985,000000	43,300800
984,000000	43,267400
983,000000	43,209900
982,000000	43,144800
981,000000	43,082400
980,000000	43,033300
979,000000	43,005700
978,000000	42,952100
977,000000	42,878300
976,000000	42,820800
975,000000	42,770300
974,000000	42,719700
973,000000	42,649000
972,000000	42,592200
971,000000	42,544800
970,000000	42,486200
969,000000	42,427100
968,000000	42,372400
967,000000	42,312700
966,000000	42,241800
965,000000	42,186600
964,000000	42,145800
963,000000	42,102000
962,000000	42,040000
961,000000	41,991000
960,000000	41,952000
959,000000	41,923900
958,000000	41,883000
957,000000	41,821200
956,000000	41,768500
955,000000	41,719700
954,000000	41,669800
953,000000	41,598900
952,000000	41,528300
951,000000	41,483100
950,000000	41,431300
949,000000	41,356200
948,000000	41,290800
947,000000	41,214800
946,000000	41,126400
945,000000	41,065300
944,000000	41,004500
943,000000	40,910900
942,000000	40,814400
941,000000	40,740500
940,000000	40,649600
939,000000	40,544000
938,000000	40,451600
937,000000	40,358100
936,000000	40,265600
935,000000	40,172500
934,000000	40,086300
933,000000	40,002500
932,000000	39,909700
931,000000	39,836200
930,000000	39,735200
929,000000	39,626900
928,000000	39,516900
927,000000	39,426900
926,000000	39,329200
925,000000	39,220700
924,000000	39,114300
923,000000	39,007600
922,000000	38,912300
921,000000	38,804200
920,000000	38,694700
919,000000	38,586600
918,000000	38,475300
917,000000	38,358800
916,000000	38,245700
915,000000	38,124500
914,000000	38,003900
913,000000	37,891300
912,000000	37,781700
911,000000	37,665400
910,000000	37,557600
909,000000	37,452000
908,000000	37,350900
907,000000	37,258900
906,000000	37,175400
905,000000	37,094100
904,000000	37,026400
903,000000	36,968700
902,000000	36,910800
901,000000	36,869400
900,000000	36,835700
899,000000	36,799900
898,000000	36,751200
897,000000	36,708900
896,000000	36,673600
895,000000	36,626600
894,000000	36,583300
893,000000	36,545700
892,000000	36,508100
891,000000	36,471100
890,000000	36,413500
889,000000	36,367100
888,000000	36,305700
887,000000	36,263200
886,000000	36,221200
885,000000	36,174200
884,000000	36,121000
883,000000	36,057500
882,000000	35,996200
881,000000	35,923600
880,000000	35,851900
879,000000	35,808400
878,000000	35,730000
877,000000	35,629800
876,000000	35,541100
875,000000	35,435500
874,000000	35,305000
873,000000	35,169700
872,000000	35,010000
871,000000	34,932600
870,000000	34,915500
869,000000	34,894000
868,000000	34,911200
867,000000	34,898300
866,000000	34,893800
865,000000	34,871300
864,000000	34,852800
863,000000	34,840200
862,000000	34,844400
861,000000	34,844500
860,000000	34,851700
859,000000	34,869800
858,000000	34,876000
857,000000	36,736400
856,000000	37,152600
855,000000	37,337700
854,000000	37,318700
853,000000	37,596500
852,000000	37,409100
851,000000	37,073400
850,000000	37,516300
849,000000	37,528500
848,000000	37,601300
847,000000	37,786100
846,000000	37,884600
845,000000	37,900200
844,000000	37,964000
843,000000	38,016400
842,000000	38,126500
841,000000	38,154400
840,000000	38,290500
839,000000	38,427100
838,000000	38,465900
837,000000	38,505400
836,000000	38,488900
835,000000	38,565500
834,000000	38,736100
833,000000	38,841800
832,000000	38,864000
831,000000	38,769100
830,000000	39,047200
829,000000	39,032900
828,000000	39,224500
827,000000	39,384400
826,000000	39,290500
825,000000	39,521000
824,000000	39,584600
823,000000	39,376100
822,000000	39,432300
821,000000	39,529300
820,000000	39,812300
819,000000	39,912400
818,000000	39,736700
817,000000	40,009500
816,000000	39,980000
815,000000	39,968200
814,000000	40,001700
813,000000	40,175400
812,000000	40,010500
811,000000	40,286500
810,000000	40,421900
809,000000	40,287500
808,000000	40,416700
807,000000	40,434300
806,000000	40,469400
805,000000	40,602700
804,000000	40,627900
803,000000	40,695200
802,000000	40,696500
801,000000	40,748700
800,000000	40,673300
799,000000	40,885100
798,000000	40,876500
797,000000	40,916300
796,000000	40,955100
795,000000	40,953600
794,000000	40,923700
793,000000	40,996600
792,000000	41,064300
791,000000	41,095900
790,000000	40,883000
789,000000	40,979700
788,000000	41,008600
787,000000	40,980200
786,000000	41,067600
785,000000	41,188900
784,000000	41,061100
783,000000	41,024800
782,000000	41,102800
781,000000	41,142400
780,000000	41,055000
779,000000	41,062400
778,000000	40,956600
777,000000	41,008200
776,000000	40,970000
775,000000	40,888100
774,000000	40,923500
773,000000	40,771500
772,000000	40,925500
771,000000	40,930500
770,000000	40,782700
769,000000	40,752600
768,000000	40,743600
767,000000	40,756600
766,000000	40,640900
765,000000	40,622000
764,000000	40,552400
763,000000	40,573500
762,000000	40,541400
761,000000	40,490100
760,000000	40,430900
759,000000	40,308800
758,000000	40,318100
757,000000	40,251200
756,000000	40,215300
755,000000	40,104900
754,000000	40,018600
753,000000	39,924500
752,000000	39,953900
751,000000	39,885600
750,000000	39,799400
749,000000	39,731100
748,000000	39,640900
747,000000	39,570100
746,000000	39,517500
745,000000	39,409700
744,000000	39,330700
743,000000	39,252000
742,000000	39,030400
741,000000	39,021400
740,000000	38,939300
739,000000	38,839900
738,000000	38,802500
737,000000	38,610900
736,000000	38,583300
735,000000	38,455300
734,000000	38,394600
733,000000	38,235400
732,000000	38,148600
731,000000	38,003000
730,000000	37,904400
729,000000	37,783900
728,000000	37,648400
727,000000	37,518600
726,000000	37,394100
725,000000	37,263900
724,000000	37,152000
723,000000	36,976400
722,000000	36,810500
721,000000	36,702000
720,000000	36,598000
719,000000	36,460700
718,000000	36,271200
717,000000	36,135700
716,000000	36,002000
715,000000	35,851200
714,000000	35,690700
713,000000	35,517800
712,000000	35,337000
711,000000	35,167900
710,000000	35,014500
709,000000	34,856500
708,000000	34,666000
707,000000	34,480600
706,000000	34,289400
705,000000	34,080600
704,000000	33,922600
703,000000	33,715400
702,000000	33,479200
701,000000	33,320500
700,000000	33,119000
699,000000	32,909000
698,000000	32,712500
697,000000	32,470800
696,000000	32,293500
695,000000	32,069400
694,000000	31,865100
693,000000	31,650300
692,000000	31,470200
691,000000	31,235800
690,000000	31,018900
689,000000	30,819800
688,000000	30,580900
687,000000	30,343000
686,000000	30,143700
685,000000	29,922700
684,000000	29,698100
683,000000	29,489300
682,000000	29,262000
681,000000	29,008100
680,000000	28,784100
679,000000	28,577000
678,000000	28,359300
677,000000	28,153500
676,000000	27,927400
675,000000	27,717000
674,000000	27,499900
673,000000	27,320100
672,000000	27,072000
671,000000	26,813400
670,000000	26,617700
669,000000	26,377300
668,000000	26,166900
667,000000	25,965800
666,000000	25,788400
665,000000	25,610300
664,000000	25,434000
663,000000	25,252900
662,000000	25,064100
661,000000	24,914700
660,000000	24,761200
659,000000	24,608100
658,000000	24,452100
657,000000	24,324400
656,000000	24,187800
655,000000	24,042500
654,000000	23,930100
653,000000	23,813500
652,000000	23,701700
651,000000	23,626500
650,000000	23,554400
649,000000	23,501600
648,000000	23,476000
647,000000	23,442800
646,000000	23,387400
645,000000	23,373000
644,000000	23,365100
643,000000	23,335200
642,000000	23,315800
641,000000	23,309000
640,000000	23,330500
639,000000	23,352400
638,000000	23,380700
637,000000	23,431800
636,000000	23,492700
635,000000	23,546600
634,000000	23,580500
633,000000	23,637500
632,000000	23,705900
631,000000	23,764400
630,000000	23,801500
629,000000	23,852200
628,000000	23,932600
627,000000	24,023100
626,000000	24,095700
625,000000	24,162300
624,000000	24,250500
623,000000	24,342700
622,000000	24,431400
621,000000	24,506200
620,000000	24,593800
619,000000	24,659700
618,000000	24,732100
617,000000	24,814400
616,000000	24,891300
615,000000	24,983800
614,000000	25,063100
613,000000	25,130500
612,000000	25,203600
611,000000	25,272800
610,000000	25,333800
609,000000	25,394600
608,000000	25,470600
607,000000	25,520400
606,000000	25,586600
605,000000	25,619900
604,000000	25,674100
603,000000	25,741800
602,000000	25,795700
601,000000	25,839500
600,000000	25,886900
599,000000	25,903800
598,000000	25,945300
597,000000	25,969700
596,000000	25,994700
595,000000	26,019500
594,000000	26,032400
593,000000	26,066900
592,000000	26,077000
591,000000	26,076800
590,000000	26,073500
589,000000	26,061000
588,000000	26,077100
587,000000	26,070000
586,000000	26,044500
585,000000	26,037900
584,000000	26,016900
583,000000	25,978300
582,000000	25,965800
581,000000	25,927000
580,000000	25,907300
579,000000	25,868600
578,000000	25,825600
577,000000	25,769000
576,000000	25,719700
575,000000	25,669400
574,000000	25,612800
573,000000	25,552100
572,000000	25,490400
571,000000	25,416300
570,000000	25,326800
569,000000	25,252800
568,000000	25,175800
567,000000	25,080800
566,000000	24,985200
565,000000	24,877000
564,000000	24,780400
563,000000	24,666400
562,000000	24,547900
561,000000	24,430900
560,000000	24,308900
559,000000	24,161300
558,000000	24,057800
557,000000	23,922500
556,000000	23,789200
555,000000	23,666100
554,000000	23,531800
553,000000	23,395500
552,000000	23,264200
551,000000	23,124400
550,000000	22,980900
549,000000	22,842800
548,000000	22,691900
547,000000	22,557700
546,000000	22,415200
545,000000	22,245300
544,000000	22,101200
543,000000	21,928500
542,000000	21,796200
541,000000	21,610400
540,000000	21,459100
539,000000	21,290100
538,000000	21,118500
537,000000	20,951600
536,000000	20,774600
535,000000	20,580500
534,000000	20,393100
533,000000	20,211100
532,000000	20,022200
531,000000	19,832300
530,000000	19,626900
529,000000	19,420800
528,000000	19,208300
527,000000	19,012200
526,000000	18,793400
525,000000	18,567900
524,000000	18,353400
523,000000	18,111300
522,000000	17,885400
521,000000	17,645600
520,000000	17,415700
519,000000	17,179800
518,000000	16,941300
517,000000	16,716100
516,000000	16,478600
515,000000	16,233500
514,000000	16,007500
513,000000	15,794800
512,000000	15,594400
511,000000	15,378100
510,000000	15,154400
509,000000	14,953100
508,000000	14,764400
507,000000	14,575800
506,000000	14,394100
505,000000	14,226100
504,000000	14,041900
503,000000	13,883300
502,000000	13,709000
501,000000	13,541900
500,000000	13,396700
499,000000	13,236400
498,000000	13,109100
497,000000	12,986700
496,000000	12,834400
495,000000	12,720600
494,000000	12,609600
493,000000	12,477800
492,000000	12,359500
491,000000	12,238900
490,000000	12,155100
489,000000	12,071800
488,000000	11,985700
487,000000	11,888000
486,000000	11,800100
485,000000	11,730900
484,000000	11,663000
483,000000	11,565800
482,000000	11,493400
481,000000	11,406700
480,000000	11,307800
479,000000	11,212700
478,000000	11,125000
477,000000	11,045300
476,000000	10,956800
475,000000	10,874800
474,000000	10,806200
473,000000	10,746400
472,000000	10,660200
471,000000	10,605400
470,000000	10,533700
469,000000	10,469100
468,000000	10,426700
467,000000	10,373000
466,000000	10,323400
465,000000	10,275000
464,000000	10,222300
463,000000	10,193500
462,000000	10,140100
461,000000	10,073700
460,000000	10,055100
459,000000	10,006600
458,000000	9,946300
457,000000	9,917500
456,000000	9,878900
455,000000	9,832400
454,000000	9,779300
453,000000	9,727300
452,000000	9,664000
451,000000	9,609700
450,000000	9,563600
449,000000	9,490400
448,000000	9,442400
447,000000	9,378500
446,000000	9,303900
445,000000	9,247100
444,000000	9,165400
443,000000	9,084600
442,000000	9,019100
441,000000	8,925900
440,000000	8,841300
439,000000	8,740900
438,000000	8,640500
437,000000	8,558000
436,000000	8,464600
435,000000	8,385600
434,000000	8,289900
433,000000	8,195200
432,000000	8,106600
431,000000	7,996800
430,000000	7,917700
429,000000	7,846100
428,000000	7,741800
427,000000	7,659500
426,000000	7,572100
425,000000	7,471600
424,000000	7,372600
423,000000	7,298400
422,000000	7,199900
421,000000	7,106900
420,000000	7,007200
419,000000	6,915600
418,000000	6,837300
417,000000	6,761600
416,000000	6,656100
415,000000	6,563100
414,000000	6,479500
413,000000	6,403600
412,000000	6,309200
411,000000	6,227300
410,000000	6,131500
409,000000	6,048200
408,000000	5,978200
407,000000	5,902500
406,000000	5,807100
405,000000	5,734900
404,000000	5,669500
403,000000	5,582500
402,000000	5,515300
401,000000	5,456100
400,000000	5,392000
399,000000	5,313900
398,000000	5,260100
397,000000	5,205600
396,000000	5,151300
395,000000	5,076900
394,000000	5,016200
393,000000	4,973300
392,000000	4,906800
391,000000	4,868900
390,000000	4,844200
389,000000	4,792800
388,000000	4,730300
387,000000	4,701000
386,000000	4,668900
385,000000	4,642300
384,000000	4,584300
383,000000	4,550000
382,000000	4,528000
381,000000	4,501400
380,000000	4,466500
379,000000	4,456300
378,000000	4,456200
377,000000	4,399000
376,000000	4,313700
375,000000	4,120400
374,000000	4,028400
373,000000	4,056700
372,000000	3,998000
371,000000	4,116000
370,000000	4,119800
369,000000	4,145400
368,000000	4,123600
367,000000	4,075300
366,000000	4,042000
365,000000	4,067700
364,000000	4,095700
363,000000	4,035800
362,000000	4,086600
361,000000	4,047900
360,000000	4,045200
359,000000	4,104600
358,000000	4,095800
357,000000	4,053100
356,000000	3,989900
355,000000	4,007600
354,000000	4,077900
353,000000	4,109000
352,000000	4,159200
351,000000	4,146700
350,000000	4,151500
349,000000	4,226900
348,000000	4,179900
347,000000	4,094600
346,000000	4,049200
345,000000	4,166200
344,000000	4,191400
343,000000	4,163400
342,000000	4,113600
341,000000	4,064600
340,000000	4,045800
339,000000	3,921900
338,000000	3,911100
337,000000	4,049000
336,000000	4,068100
335,000000	4,010100
334,000000	3,955500
333,000000	4,063600
332,000000	4,213200
331,000000	4,099800
330,000000	4,211600
329,000000	4,250800
328,000000	4,113200
327,000000	4,257300
326,000000	4,163000
325,000000	4,025200
324,000000	4,206200
323,000000	4,104500
322,000000	4,196100
321,000000	4,554200
320,000000	4,607800
319,000000	4,449700
318,000000	4,431000
317,000000	4,473400
316,000000	4,235300
315,000000	4,046800
314,000000	4,036000
313,000000	4,057700
312,000000	4,059700
311,000000	4,062800
310,000000	4,058000
309,000000	4,058600
308,000000	4,075900
307,000000	4,051000
306,000000	4,045800
305,000000	4,062300
304,000000	4,064500
303,000000	4,032700
302,000000	4,045300
301,000000	4,080000
300,000000	4,063900
299,000000	4,059000
298,000000	4,072400
297,000000	4,044100
296,000000	4,049500
295,000000	4,076500
294,000000	4,021700
293,000000	4,035300
292,000000	4,043900
291,000000	4,066400
290,000000	4,061000
289,000000	4,022700
288,000000	4,019200
287,000000	4,068000
286,000000	4,064100
285,000000	4,059200
284,000000	4,060200
283,000000	4,076300
282,000000	4,083000
281,000000	4,081200
280,000000	4,103200
279,000000	4,100300
278,000000	4,098500
277,000000	4,097900
276,000000	4,068000
275,000000	4,115700
274,000000	4,119000
273,000000	4,128800
272,000000	4,145200
271,000000	4,126700
270,000000	4,154900
269,000000	4,171500
268,000000	4,210600
267,000000	4,230000
266,000000	4,237500
265,000000	4,269900
264,000000	4,260700
263,000000	4,275500
262,000000	4,299100
261,000000	4,275700
260,000000	4,294400
259,000000	4,324900
258,000000	4,315600
257,000000	4,379300
256,000000	4,409800
255,000000	4,445000
254,000000	4,438700
253,000000	4,454600
252,000000	4,458900
251,000000	4,502600
250,000000	4,491400
