PE UV       SUBTECH     SPECTRUM    ASCII       PEDS        4.00        
   -1
CICIMAUCR0258-3.ASC
24/07/01
16:22:41.00
24/07/01
16:22:41.00
Vinicio Soto Monge
C. resplendens. Sex M. Ventral
250,000000
1
Lambda 1050
1050L1511233
PerkinElmer UV WinLab 6.3.2.0749 / 2.02.05 Lambda 900 UV/VIS/NIR, Aug  7 2015 09:38:08

0
0
3350/servo 860,8/2
0
0
UV/VIS
1
1
1
DoubleDePol,CommonBeamDepol,RBeamAtt,SBeamAtt,60mm sphere, WB InGaAs Detector
0
0
0
0
Program
Program
3350/servo 860,8/2
3350/0,2 860,8/0,2
3350/0,2 860,8/0,2
0
15.00
 
 
 
0
 
860,8
319,2
860,8
Front
100
on
S:100 R:100
0
0
0
0
 
0
 
 
 
0
 
 
0
0
0
0
0
 
 
 
 
0
0


0
0
#HDR
-1
-1
#GR
nm
%R
1.0
0.0
2500,000000
-1,000000
2251
8
58,614300
3,808100
#DATA
2500,000000	6,113400
2499,000000	6,056600
2498,000000	5,956400
2497,000000	5,998100
2496,000000	5,913500
2495,000000	5,928800
2494,000000	5,987400
2493,000000	5,945400
2492,000000	5,863000
2491,000000	5,889700
2490,000000	5,955600
2489,000000	5,879100
2488,000000	5,879200
2487,000000	5,867300
2486,000000	5,842500
2485,000000	5,921900
2484,000000	5,907600
2483,000000	5,889400
2482,000000	5,869600
2481,000000	5,894900
2480,000000	5,861600
2479,000000	5,850300
2478,000000	5,873400
2477,000000	5,880000
2476,000000	5,854000
2475,000000	5,883800
2474,000000	5,821800
2473,000000	5,804500
2472,000000	5,815800
2471,000000	5,820400
2470,000000	5,820900
2469,000000	5,894600
2468,000000	5,869300
2467,000000	5,905700
2466,000000	5,845600
2465,000000	5,860300
2464,000000	5,884800
2463,000000	5,927100
2462,000000	5,983300
2461,000000	5,952700
2460,000000	5,957500
2459,000000	5,984900
2458,000000	5,991900
2457,000000	6,020100
2456,000000	6,050600
2455,000000	6,042100
2454,000000	6,096700
2453,000000	6,106500
2452,000000	6,132700
2451,000000	6,148700
2450,000000	6,202700
2449,000000	6,272200
2448,000000	6,254000
2447,000000	6,300400
2446,000000	6,346600
2445,000000	6,361300
2444,000000	6,399200
2443,000000	6,416300
2442,000000	6,486600
2441,000000	6,501700
2440,000000	6,529100
2439,000000	6,557600
2438,000000	6,593900
2437,000000	6,623700
2436,000000	6,647000
2435,000000	6,680400
2434,000000	6,709100
2433,000000	6,738900
2432,000000	6,790100
2431,000000	6,816800
2430,000000	6,828100
2429,000000	6,868400
2428,000000	6,900800
2427,000000	6,901000
2426,000000	6,940800
2425,000000	6,983500
2424,000000	7,007900
2423,000000	7,030700
2422,000000	7,054900
2421,000000	7,080600
2420,000000	7,097900
2419,000000	7,111600
2418,000000	7,143300
2417,000000	7,156800
2416,000000	7,159300
2415,000000	7,183100
2414,000000	7,213600
2413,000000	7,239300
2412,000000	7,253000
2411,000000	7,275600
2410,000000	7,289500
2409,000000	7,303800
2408,000000	7,331000
2407,000000	7,344000
2406,000000	7,347600
2405,000000	7,359600
2404,000000	7,399900
2403,000000	7,441300
2402,000000	7,462700
2401,000000	7,492600
2400,000000	7,507900
2399,000000	7,516900
2398,000000	7,531400
2397,000000	7,544100
2396,000000	7,567100
2395,000000	7,592800
2394,000000	7,600000
2393,000000	7,604100
2392,000000	7,611700
2391,000000	7,635200
2390,000000	7,645400
2389,000000	7,649900
2388,000000	7,669100
2387,000000	7,684000
2386,000000	7,705200
2385,000000	7,712200
2384,000000	7,711800
2383,000000	7,708000
2382,000000	7,712500
2381,000000	7,726700
2380,000000	7,728800
2379,000000	7,722600
2378,000000	7,735900
2377,000000	7,740100
2376,000000	7,728400
2375,000000	7,728000
2374,000000	7,729500
2373,000000	7,736400
2372,000000	7,721500
2371,000000	7,715200
2370,000000	7,730500
2369,000000	7,715400
2368,000000	7,708700
2367,000000	7,702900
2366,000000	7,687800
2365,000000	7,679800
2364,000000	7,683300
2363,000000	7,682400
2362,000000	7,676900
2361,000000	7,657200
2360,000000	7,633400
2359,000000	7,619400
2358,000000	7,612400
2357,000000	7,613700
2356,000000	7,602200
2355,000000	7,575300
2354,000000	7,566000
2353,000000	7,568100
2352,000000	7,554600
2351,000000	7,549500
2350,000000	7,544300
2349,000000	7,542000
2348,000000	7,548700
2347,000000	7,556100
2346,000000	7,552800
2345,000000	7,559600
2344,000000	7,585700
2343,000000	7,593000
2342,000000	7,606400
2341,000000	7,630400
2340,000000	7,647000
2339,000000	7,654500
2338,000000	7,671200
2337,000000	7,665900
2336,000000	7,668900
2335,000000	7,697000
2334,000000	7,716500
2333,000000	7,722600
2332,000000	7,727500
2331,000000	7,719800
2330,000000	7,715900
2329,000000	7,719800
2328,000000	7,711200
2327,000000	7,714400
2326,000000	7,712700
2325,000000	7,685500
2324,000000	7,668500
2323,000000	7,655700
2322,000000	7,641200
2321,000000	7,618100
2320,000000	7,581200
2319,000000	7,550000
2318,000000	7,522000
2317,000000	7,480900
2316,000000	7,442300
2315,000000	7,420700
2314,000000	7,371100
2313,000000	7,328200
2312,000000	7,298200
2311,000000	7,249200
2310,000000	7,209500
2309,000000	7,163900
2308,000000	7,154000
2307,000000	7,133100
2306,000000	7,105000
2305,000000	7,108400
2304,000000	7,096200
2303,000000	7,094500
2302,000000	7,097700
2301,000000	7,104800
2300,000000	7,116400
2299,000000	7,144500
2298,000000	7,169400
2297,000000	7,201300
2296,000000	7,229900
2295,000000	7,259300
2294,000000	7,307600
2293,000000	7,335800
2292,000000	7,357400
2291,000000	7,388300
2290,000000	7,407400
2289,000000	7,437600
2288,000000	7,434200
2287,000000	7,450400
2286,000000	7,484400
2285,000000	7,496100
2284,000000	7,499400
2283,000000	7,494400
2282,000000	7,497100
2281,000000	7,494200
2280,000000	7,503000
2279,000000	7,482700
2278,000000	7,480900
2277,000000	7,478100
2276,000000	7,454800
2275,000000	7,443500
2274,000000	7,445600
2273,000000	7,432700
2272,000000	7,444800
2271,000000	7,448700
2270,000000	7,447600
2269,000000	7,448200
2268,000000	7,466000
2267,000000	7,495200
2266,000000	7,523800
2265,000000	7,583100
2264,000000	7,641800
2263,000000	7,699200
2262,000000	7,739300
2261,000000	7,826500
2260,000000	7,901800
2259,000000	8,008000
2258,000000	8,089800
2257,000000	8,193800
2256,000000	8,290100
2255,000000	8,389700
2254,000000	8,510000
2253,000000	8,604400
2252,000000	8,740200
2251,000000	8,837900
2250,000000	8,963200
2249,000000	9,060700
2248,000000	9,143100
2247,000000	9,239900
2246,000000	9,340600
2245,000000	9,415100
2244,000000	9,486500
2243,000000	9,560100
2242,000000	9,638600
2241,000000	9,698200
2240,000000	9,748900
2239,000000	9,813100
2238,000000	9,868100
2237,000000	9,879200
2236,000000	9,927200
2235,000000	9,957900
2234,000000	10,006200
2233,000000	10,007900
2232,000000	10,042700
2231,000000	10,064900
2230,000000	10,066300
2229,000000	10,085500
2228,000000	10,084700
2227,000000	10,075300
2226,000000	10,056400
2225,000000	10,075500
2224,000000	10,051200
2223,000000	10,059000
2222,000000	10,047500
2221,000000	10,025900
2220,000000	9,993600
2219,000000	9,973400
2218,000000	9,920300
2217,000000	9,910200
2216,000000	9,883400
2215,000000	9,853300
2214,000000	9,839200
2213,000000	9,806600
2212,000000	9,776000
2211,000000	9,760500
2210,000000	9,740700
2209,000000	9,712400
2208,000000	9,709100
2207,000000	9,665300
2206,000000	9,668600
2205,000000	9,653000
2204,000000	9,631200
2203,000000	9,619000
2202,000000	9,606600
2201,000000	9,600900
2200,000000	9,586200
2199,000000	9,545200
2198,000000	9,542100
2197,000000	9,549500
2196,000000	9,541000
2195,000000	9,534300
2194,000000	9,512600
2193,000000	9,501100
2192,000000	9,496600
2191,000000	9,480400
2190,000000	9,466000
2189,000000	9,479700
2188,000000	9,479300
2187,000000	9,436200
2186,000000	9,433700
2185,000000	9,432400
2184,000000	9,406100
2183,000000	9,409700
2182,000000	9,399600
2181,000000	9,389200
2180,000000	9,363500
2179,000000	9,363900
2178,000000	9,366200
2177,000000	9,356200
2176,000000	9,348400
2175,000000	9,334000
2174,000000	9,353400
2173,000000	9,345000
2172,000000	9,336400
2171,000000	9,341300
2170,000000	9,330900
2169,000000	9,352300
2168,000000	9,367100
2167,000000	9,365300
2166,000000	9,367700
2165,000000	9,374100
2164,000000	9,384700
2163,000000	9,397300
2162,000000	9,410100
2161,000000	9,434000
2160,000000	9,458500
2159,000000	9,472300
2158,000000	9,497900
2157,000000	9,527800
2156,000000	9,546600
2155,000000	9,580100
2154,000000	9,610600
2153,000000	9,642700
2152,000000	9,686800
2151,000000	9,709300
2150,000000	9,722300
2149,000000	9,759700
2148,000000	9,798400
2147,000000	9,826900
2146,000000	9,883200
2145,000000	9,911200
2144,000000	9,948000
2143,000000	9,980200
2142,000000	10,003500
2141,000000	10,022200
2140,000000	10,065600
2139,000000	10,097900
2138,000000	10,118900
2137,000000	10,143900
2136,000000	10,173700
2135,000000	10,199000
2134,000000	10,242400
2133,000000	10,263300
2132,000000	10,268800
2131,000000	10,282900
2130,000000	10,294300
2129,000000	10,303500
2128,000000	10,325500
2127,000000	10,349600
2126,000000	10,360900
2125,000000	10,358700
2124,000000	10,376900
2123,000000	10,377800
2122,000000	10,376700
2121,000000	10,388700
2120,000000	10,400600
2119,000000	10,399000
2118,000000	10,383000
2117,000000	10,389500
2116,000000	10,394500
2115,000000	10,368800
2114,000000	10,359000
2113,000000	10,359000
2112,000000	10,354000
2111,000000	10,350700
2110,000000	10,325000
2109,000000	10,319000
2108,000000	10,319700
2107,000000	10,316100
2106,000000	10,310400
2105,000000	10,296300
2104,000000	10,283300
2103,000000	10,259900
2102,000000	10,237700
2101,000000	10,233700
2100,000000	10,233500
2099,000000	10,213000
2098,000000	10,199000
2097,000000	10,188800
2096,000000	10,184700
2095,000000	10,171000
2094,000000	10,154400
2093,000000	10,154200
2092,000000	10,157500
2091,000000	10,135700
2090,000000	10,121300
2089,000000	10,122600
2088,000000	10,116200
2087,000000	10,106400
2086,000000	10,102400
2085,000000	10,088000
2084,000000	10,064000
2083,000000	10,050200
2082,000000	10,030100
2081,000000	10,025300
2080,000000	10,023200
2079,000000	9,990400
2078,000000	9,952600
2077,000000	9,925900
2076,000000	9,891600
2075,000000	9,856700
2074,000000	9,828300
2073,000000	9,795600
2072,000000	9,739600
2071,000000	9,689100
2070,000000	9,657800
2069,000000	9,617400
2068,000000	9,569500
2067,000000	9,540300
2066,000000	9,498900
2065,000000	9,443300
2064,000000	9,400400
2063,000000	9,360000
2062,000000	9,320800
2061,000000	9,276700
2060,000000	9,240800
2059,000000	9,212700
2058,000000	9,178900
2057,000000	9,162200
2056,000000	9,142100
2055,000000	9,117500
2054,000000	9,112300
2053,000000	9,110300
2052,000000	9,115200
2051,000000	9,122100
2050,000000	9,133400
2049,000000	9,174800
2048,000000	9,211600
2047,000000	9,233400
2046,000000	9,269000
2045,000000	9,313600
2044,000000	9,359900
2043,000000	9,409100
2042,000000	9,459600
2041,000000	9,501000
2040,000000	9,547500
2039,000000	9,595600
2038,000000	9,646800
2037,000000	9,685900
2036,000000	9,728000
2035,000000	9,770700
2034,000000	9,813200
2033,000000	9,850700
2032,000000	9,872200
2031,000000	9,911000
2030,000000	9,942000
2029,000000	9,973300
2028,000000	9,994200
2027,000000	10,018100
2026,000000	10,030500
2025,000000	10,053500
2024,000000	10,077700
2023,000000	10,079900
2022,000000	10,095400
2021,000000	10,098700
2020,000000	10,114700
2019,000000	10,120400
2018,000000	10,119600
2017,000000	10,116000
2016,000000	10,101600
2015,000000	10,116100
2014,000000	10,116600
2013,000000	10,110100
2012,000000	10,083400
2011,000000	10,091500
2010,000000	10,073800
2009,000000	10,066900
2008,000000	10,056900
2007,000000	10,038300
2006,000000	10,012600
2005,000000	9,995000
2004,000000	9,963600
2003,000000	9,923300
2002,000000	9,913400
2001,000000	9,898900
2000,000000	9,873100
1999,000000	9,841000
1998,000000	9,789500
1997,000000	9,759700
1996,000000	9,723900
1995,000000	9,690900
1994,000000	9,654900
1993,000000	9,621700
1992,000000	9,564700
1991,000000	9,517700
1990,000000	9,487500
1989,000000	9,425500
1988,000000	9,380900
1987,000000	9,340600
1986,000000	9,283500
1985,000000	9,263200
1984,000000	9,196300
1983,000000	9,133800
1982,000000	9,120300
1981,000000	9,075300
1980,000000	9,022400
1979,000000	8,982800
1978,000000	8,928500
1977,000000	8,884900
1976,000000	8,854500
1975,000000	8,795600
1974,000000	8,771500
1973,000000	8,725100
1972,000000	8,665900
1971,000000	8,642400
1970,000000	8,585700
1969,000000	8,548100
1968,000000	8,502300
1967,000000	8,469100
1966,000000	8,436800
1965,000000	8,417600
1964,000000	8,368400
1963,000000	8,311700
1962,000000	8,282200
1961,000000	8,245900
1960,000000	8,201600
1959,000000	8,180900
1958,000000	8,116700
1957,000000	8,111100
1956,000000	8,054000
1955,000000	8,026700
1954,000000	8,011300
1953,000000	7,966300
1952,000000	7,918100
1951,000000	7,887600
1950,000000	7,872700
1949,000000	7,839100
1948,000000	7,815600
1947,000000	7,778600
1946,000000	7,785200
1945,000000	7,739600
1944,000000	7,726500
1943,000000	7,710400
1942,000000	7,677200
1941,000000	7,650100
1940,000000	7,654400
1939,000000	7,647000
1938,000000	7,661000
1937,000000	7,639300
1936,000000	7,643100
1935,000000	7,656300
1934,000000	7,658200
1933,000000	7,651800
1932,000000	7,668700
1931,000000	7,675100
1930,000000	7,701500
1929,000000	7,750100
1928,000000	7,749400
1927,000000	7,806900
1926,000000	7,836400
1925,000000	7,884800
1924,000000	7,934100
1923,000000	7,959000
1922,000000	8,011500
1921,000000	8,050800
1920,000000	8,154900
1919,000000	8,212900
1918,000000	8,275000
1917,000000	8,353400
1916,000000	8,426900
1915,000000	8,496200
1914,000000	8,588600
1913,000000	8,695800
1912,000000	8,808300
1911,000000	8,937700
1910,000000	9,030200
1909,000000	9,129000
1908,000000	9,227000
1907,000000	9,350700
1906,000000	9,497900
1905,000000	9,678200
1904,000000	9,848400
1903,000000	10,057200
1902,000000	10,209500
1901,000000	10,378200
1900,000000	10,574400
1899,000000	10,786500
1898,000000	11,013500
1897,000000	11,263100
1896,000000	11,510000
1895,000000	11,696200
1894,000000	11,912400
1893,000000	12,156000
1892,000000	12,407800
1891,000000	12,728600
1890,000000	13,070000
1889,000000	13,388400
1888,000000	13,689800
1887,000000	13,998800
1886,000000	14,309000
1885,000000	14,665500
1884,000000	15,002600
1883,000000	15,390900
1882,000000	15,794500
1881,000000	16,145400
1880,000000	16,498800
1879,000000	16,859800
1878,000000	17,201700
1877,000000	17,543800
1876,000000	17,904600
1875,000000	18,221300
1874,000000	18,556100
1873,000000	18,877100
1872,000000	19,242700
1871,000000	19,582500
1870,000000	19,910300
1869,000000	20,209300
1868,000000	20,501400
1867,000000	20,737100
1866,000000	20,944500
1865,000000	21,119400
1864,000000	21,298700
1863,000000	21,437700
1862,000000	21,562600
1861,000000	21,721700
1860,000000	21,894900
1859,000000	22,049400
1858,000000	22,196100
1857,000000	22,331600
1856,000000	22,431300
1855,000000	22,501200
1854,000000	22,586100
1853,000000	22,656300
1852,000000	22,715500
1851,000000	22,750200
1850,000000	22,790800
1849,000000	22,792000
1848,000000	22,836400
1847,000000	22,918100
1846,000000	22,965500
1845,000000	22,965900
1844,000000	22,918900
1843,000000	22,880700
1842,000000	22,863300
1841,000000	22,911800
1840,000000	22,947000
1839,000000	22,946600
1838,000000	22,921600
1837,000000	22,907100
1836,000000	22,906100
1835,000000	22,888600
1834,000000	22,864300
1833,000000	22,818500
1832,000000	22,756400
1831,000000	22,730800
1830,000000	22,709900
1829,000000	22,667700
1828,000000	22,637100
1827,000000	22,606800
1826,000000	22,572700
1825,000000	22,544400
1824,000000	22,493500
1823,000000	22,446100
1822,000000	22,427500
1821,000000	22,428000
1820,000000	22,425400
1819,000000	22,423900
1818,000000	22,386600
1817,000000	22,340500
1816,000000	22,325000
1815,000000	22,329100
1814,000000	22,305000
1813,000000	22,276700
1812,000000	22,261400
1811,000000	22,231500
1810,000000	22,216300
1809,000000	22,200300
1808,000000	22,161500
1807,000000	22,128300
1806,000000	22,101000
1805,000000	22,060700
1804,000000	22,014500
1803,000000	21,972300
1802,000000	21,944600
1801,000000	21,920200
1800,000000	21,891800
1799,000000	21,848700
1798,000000	21,797700
1797,000000	21,755200
1796,000000	21,720400
1795,000000	21,682500
1794,000000	21,661300
1793,000000	21,635300
1792,000000	21,589200
1791,000000	21,553900
1790,000000	21,517500
1789,000000	21,470200
1788,000000	21,442700
1787,000000	21,425600
1786,000000	21,390700
1785,000000	21,351400
1784,000000	21,319400
1783,000000	21,276000
1782,000000	21,243400
1781,000000	21,212500
1780,000000	21,161700
1779,000000	21,125800
1778,000000	21,092500
1777,000000	21,046700
1776,000000	20,995900
1775,000000	20,944200
1774,000000	20,882700
1773,000000	20,825400
1772,000000	20,770500
1771,000000	20,709000
1770,000000	20,646500
1769,000000	20,584000
1768,000000	20,524100
1767,000000	20,455700
1766,000000	20,390200
1765,000000	20,342600
1764,000000	20,312500
1763,000000	20,288200
1762,000000	20,265700
1761,000000	20,252700
1760,000000	20,260800
1759,000000	20,284100
1758,000000	20,313300
1757,000000	20,366200
1756,000000	20,410800
1755,000000	20,452700
1754,000000	20,505200
1753,000000	20,523000
1752,000000	20,532400
1751,000000	20,562400
1750,000000	20,570600
1749,000000	20,567000
1748,000000	20,558300
1747,000000	20,539200
1746,000000	20,499800
1745,000000	20,456500
1744,000000	20,399300
1743,000000	20,340200
1742,000000	20,248600
1741,000000	20,164500
1740,000000	20,073800
1739,000000	19,954700
1738,000000	19,826600
1737,000000	19,726000
1736,000000	19,611100
1735,000000	19,506800
1734,000000	19,446300
1733,000000	19,393500
1732,000000	19,350100
1731,000000	19,320000
1730,000000	19,323900
1729,000000	19,322300
1728,000000	19,351100
1727,000000	19,379600
1726,000000	19,424100
1725,000000	19,482100
1724,000000	19,511100
1723,000000	19,555400
1722,000000	19,621000
1721,000000	19,665500
1720,000000	19,726500
1719,000000	19,812600
1718,000000	19,892200
1717,000000	19,971100
1716,000000	20,058800
1715,000000	20,184500
1714,000000	20,296700
1713,000000	20,391700
1712,000000	20,483700
1711,000000	20,575600
1710,000000	20,623300
1709,000000	20,687200
1708,000000	20,742400
1707,000000	20,782600
1706,000000	20,788400
1705,000000	20,783400
1704,000000	20,766800
1703,000000	20,754300
1702,000000	20,726600
1701,000000	20,668500
1700,000000	20,601900
1699,000000	20,545600
1698,000000	20,466300
1697,000000	20,396000
1696,000000	20,319900
1695,000000	20,247100
1694,000000	20,213200
1693,000000	20,188300
1692,000000	20,208000
1691,000000	20,243100
1690,000000	20,285300
1689,000000	20,356800
1688,000000	20,410100
1687,000000	20,502500
1686,000000	20,574200
1685,000000	20,650300
1684,000000	20,738100
1683,000000	20,818900
1682,000000	21,012200
1681,000000	21,187800
1680,000000	21,412500
1679,000000	21,688200
1678,000000	21,960500
1677,000000	22,278200
1676,000000	22,597000
1675,000000	22,871400
1674,000000	23,131900
1673,000000	23,386100
1672,000000	23,601100
1671,000000	23,818800
1670,000000	23,983100
1669,000000	24,144800
1668,000000	24,327800
1667,000000	24,474500
1666,000000	24,581200
1665,000000	24,688000
1664,000000	24,771500
1663,000000	24,875100
1662,000000	24,961700
1661,000000	25,028100
1660,000000	25,095400
1659,000000	25,165500
1658,000000	25,222300
1657,000000	25,258900
1656,000000	25,306500
1655,000000	25,323500
1654,000000	25,344600
1653,000000	25,345800
1652,000000	25,351500
1651,000000	25,341000
1650,000000	25,339600
1649,000000	25,316200
1648,000000	25,317900
1647,000000	25,287400
1646,000000	25,237400
1645,000000	25,230000
1644,000000	25,195100
1643,000000	25,139200
1642,000000	25,108800
1641,000000	25,094600
1640,000000	25,039100
1639,000000	24,997100
1638,000000	24,972800
1637,000000	24,943000
1636,000000	24,885000
1635,000000	24,840500
1634,000000	24,799100
1633,000000	24,740900
1632,000000	24,659200
1631,000000	24,621200
1630,000000	24,569500
1629,000000	24,516300
1628,000000	24,447800
1627,000000	24,375200
1626,000000	24,314000
1625,000000	24,265900
1624,000000	24,191200
1623,000000	24,115500
1622,000000	24,050500
1621,000000	23,993100
1620,000000	23,944500
1619,000000	23,866200
1618,000000	23,804600
1617,000000	23,746900
1616,000000	23,692000
1615,000000	23,624800
1614,000000	23,564700
1613,000000	23,511000
1612,000000	23,450900
1611,000000	23,391200
1610,000000	23,319400
1609,000000	23,262600
1608,000000	23,208200
1607,000000	23,151900
1606,000000	23,079600
1605,000000	22,994600
1604,000000	22,917100
1603,000000	22,858800
1602,000000	22,782300
1601,000000	22,713200
1600,000000	22,649400
1599,000000	22,565100
1598,000000	22,495300
1597,000000	22,441100
1596,000000	22,393100
1595,000000	22,309300
1594,000000	22,233900
1593,000000	22,181200
1592,000000	22,129200
1591,000000	22,071400
1590,000000	22,017900
1589,000000	21,964200
1588,000000	21,898900
1587,000000	21,833500
1586,000000	21,790700
1585,000000	21,730700
1584,000000	21,697700
1583,000000	21,634700
1582,000000	21,566100
1581,000000	21,526900
1580,000000	21,475600
1579,000000	21,419600
1578,000000	21,400100
1577,000000	21,360500
1576,000000	21,321700
1575,000000	21,298900
1574,000000	21,266400
1573,000000	21,240400
1572,000000	21,205000
1571,000000	21,190400
1570,000000	21,163300
1569,000000	21,158900
1568,000000	21,134300
1567,000000	21,119300
1566,000000	21,113600
1565,000000	21,100500
1564,000000	21,086900
1563,000000	21,075500
1562,000000	21,053400
1561,000000	21,030400
1560,000000	21,016800
1559,000000	20,992900
1558,000000	20,957600
1557,000000	20,928200
1556,000000	20,895300
1555,000000	20,858400
1554,000000	20,822600
1553,000000	20,768000
1552,000000	20,728500
1551,000000	20,674000
1550,000000	20,625100
1549,000000	20,576600
1548,000000	20,526700
1547,000000	20,461500
1546,000000	20,410700
1545,000000	20,348300
1544,000000	20,317000
1543,000000	20,272300
1542,000000	20,229000
1541,000000	20,186900
1540,000000	20,153900
1539,000000	20,122900
1538,000000	20,085000
1537,000000	20,047500
1536,000000	20,012700
1535,000000	19,980100
1534,000000	19,928500
1533,000000	19,886400
1532,000000	19,844500
1531,000000	19,793500
1530,000000	19,746300
1529,000000	19,715100
1528,000000	19,671700
1527,000000	19,610000
1526,000000	19,561400
1525,000000	19,507800
1524,000000	19,447800
1523,000000	19,392600
1522,000000	19,339000
1521,000000	19,280900
1520,000000	19,227600
1519,000000	19,182600
1518,000000	19,124800
1517,000000	19,055400
1516,000000	18,989600
1515,000000	18,926800
1514,000000	18,870000
1513,000000	18,818400
1512,000000	18,753500
1511,000000	18,686900
1510,000000	18,616300
1509,000000	18,543800
1508,000000	18,488900
1507,000000	18,424900
1506,000000	18,368200
1505,000000	18,316600
1504,000000	18,253700
1503,000000	18,204700
1502,000000	18,147900
1501,000000	18,081900
1500,000000	18,032200
1499,000000	17,970600
1498,000000	17,912100
1497,000000	17,868700
1496,000000	17,812400
1495,000000	17,763000
1494,000000	17,719700
1493,000000	17,676200
1492,000000	17,659100
1491,000000	17,635800
1490,000000	17,599600
1489,000000	17,570200
1488,000000	17,537100
1487,000000	17,502600
1486,000000	17,478900
1485,000000	17,447200
1484,000000	17,420100
1483,000000	17,389900
1482,000000	17,372200
1481,000000	17,365100
1480,000000	17,342900
1479,000000	17,326500
1478,000000	17,303900
1477,000000	17,299700
1476,000000	17,296700
1475,000000	17,279700
1474,000000	17,271900
1473,000000	17,282500
1472,000000	17,290100
1471,000000	17,302800
1470,000000	17,313500
1469,000000	17,307300
1468,000000	17,286700
1467,000000	17,300700
1466,000000	17,317500
1465,000000	17,329200
1464,000000	17,344100
1463,000000	17,385200
1462,000000	17,406700
1461,000000	17,432600
1460,000000	17,455100
1459,000000	17,485500
1458,000000	17,515200
1457,000000	17,544500
1456,000000	17,596900
1455,000000	17,640100
1454,000000	17,690100
1453,000000	17,735900
1452,000000	17,783300
1451,000000	17,846700
1450,000000	17,904300
1449,000000	17,953600
1448,000000	17,995700
1447,000000	18,046400
1446,000000	18,110600
1445,000000	18,207700
1444,000000	18,265300
1443,000000	18,311000
1442,000000	18,364600
1441,000000	18,451500
1440,000000	18,515000
1439,000000	18,599200
1438,000000	18,683100
1437,000000	18,753600
1436,000000	18,853200
1435,000000	18,937400
1434,000000	19,032100
1433,000000	19,121500
1432,000000	19,229700
1431,000000	19,341700
1430,000000	19,447800
1429,000000	19,559000
1428,000000	19,676300
1427,000000	19,824400
1426,000000	19,938600
1425,000000	20,091200
1424,000000	20,254100
1423,000000	20,428500
1422,000000	20,608900
1421,000000	20,757000
1420,000000	20,947900
1419,000000	21,153600
1418,000000	21,379300
1417,000000	21,583600
1416,000000	21,771000
1415,000000	21,993000
1414,000000	22,245800
1413,000000	22,510900
1412,000000	22,787100
1411,000000	23,014400
1410,000000	23,297800
1409,000000	23,631000
1408,000000	23,981000
1407,000000	24,335700
1406,000000	24,640800
1405,000000	24,993400
1404,000000	25,398400
1403,000000	25,765800
1402,000000	26,125800
1401,000000	26,465500
1400,000000	26,950600
1399,000000	27,408900
1398,000000	27,772300
1397,000000	28,036800
1396,000000	28,389600
1395,000000	28,892200
1394,000000	29,370700
1393,000000	29,712000
1392,000000	30,074200
1391,000000	30,546400
1390,000000	30,998400
1389,000000	31,380900
1388,000000	31,903000
1387,000000	32,449300
1386,000000	32,953700
1385,000000	33,478600
1384,000000	34,001900
1383,000000	34,528600
1382,000000	35,057100
1381,000000	35,601600
1380,000000	36,064600
1379,000000	36,404900
1378,000000	36,710200
1377,000000	36,950500
1376,000000	37,203100
1375,000000	37,436300
1374,000000	37,679900
1373,000000	37,880500
1372,000000	38,157900
1371,000000	38,422400
1370,000000	38,766800
1369,000000	39,013100
1368,000000	39,240000
1367,000000	39,511500
1366,000000	39,756800
1365,000000	39,902900
1364,000000	40,120200
1363,000000	40,321100
1362,000000	40,480700
1361,000000	40,640300
1360,000000	40,845600
1359,000000	40,955400
1358,000000	40,998900
1357,000000	41,129800
1356,000000	41,260800
1355,000000	41,435000
1354,000000	41,654900
1353,000000	41,927300
1352,000000	42,144800
1351,000000	42,483700
1350,000000	42,825700
1349,000000	43,156200
1348,000000	43,474900
1347,000000	43,774300
1346,000000	44,073100
1345,000000	44,361600
1344,000000	44,644900
1343,000000	44,946800
1342,000000	45,218200
1341,000000	45,487300
1340,000000	45,772700
1339,000000	46,030800
1338,000000	46,301600
1337,000000	46,562100
1336,000000	46,840000
1335,000000	47,106000
1334,000000	47,361300
1333,000000	47,608300
1332,000000	47,863400
1331,000000	48,107000
1330,000000	48,344900
1329,000000	48,567700
1328,000000	48,796100
1327,000000	49,023600
1326,000000	49,235100
1325,000000	49,447900
1324,000000	49,640600
1323,000000	49,828200
1322,000000	50,033800
1321,000000	50,204900
1320,000000	50,379000
1319,000000	50,554000
1318,000000	50,710700
1317,000000	50,890400
1316,000000	51,037000
1315,000000	51,184300
1314,000000	51,313500
1313,000000	51,470500
1312,000000	51,615200
1311,000000	51,725500
1310,000000	51,855200
1309,000000	51,984700
1308,000000	52,089300
1307,000000	52,187300
1306,000000	52,291000
1305,000000	52,396200
1304,000000	52,463200
1303,000000	52,537800
1302,000000	52,616500
1301,000000	52,693500
1300,000000	52,744800
1299,000000	52,816300
1298,000000	52,855900
1297,000000	52,898600
1296,000000	52,940200
1295,000000	52,973300
1294,000000	53,010200
1293,000000	53,032300
1292,000000	53,059700
1291,000000	53,077200
1290,000000	53,088900
1289,000000	53,107400
1288,000000	53,106100
1287,000000	53,104300
1286,000000	53,092700
1285,000000	53,076000
1284,000000	53,072900
1283,000000	53,051600
1282,000000	53,025200
1281,000000	52,989300
1280,000000	52,951800
1279,000000	52,927200
1278,000000	52,893700
1277,000000	52,872100
1276,000000	52,842500
1275,000000	52,816400
1274,000000	52,787400
1273,000000	52,764100
1272,000000	52,743700
1271,000000	52,728200
1270,000000	52,713600
1269,000000	52,690300
1268,000000	52,668500
1267,000000	52,660600
1266,000000	52,636300
1265,000000	52,612400
1264,000000	52,575000
1263,000000	52,543400
1262,000000	52,520800
1261,000000	52,501300
1260,000000	52,458600
1259,000000	52,421200
1258,000000	52,385500
1257,000000	52,338500
1256,000000	52,297400
1255,000000	52,263800
1254,000000	52,219000
1253,000000	52,167000
1252,000000	52,095200
1251,000000	52,030500
1250,000000	51,981700
1249,000000	51,917200
1248,000000	51,837900
1247,000000	51,746900
1246,000000	51,674200
1245,000000	51,598500
1244,000000	51,494300
1243,000000	51,401700
1242,000000	51,301200
1241,000000	51,205200
1240,000000	51,106900
1239,000000	51,013200
1238,000000	50,931300
1237,000000	50,839500
1236,000000	50,732800
1235,000000	50,623900
1234,000000	50,526800
1233,000000	50,426900
1232,000000	50,323400
1231,000000	50,214800
1230,000000	50,098800
1229,000000	49,979900
1228,000000	49,855700
1227,000000	49,732500
1226,000000	49,604600
1225,000000	49,476600
1224,000000	49,348200
1223,000000	49,211100
1222,000000	49,073800
1221,000000	48,930500
1220,000000	48,792500
1219,000000	48,664500
1218,000000	48,538500
1217,000000	48,416300
1216,000000	48,293500
1215,000000	48,153400
1214,000000	48,030300
1213,000000	47,915300
1212,000000	47,795100
1211,000000	47,690300
1210,000000	47,558700
1209,000000	47,425600
1208,000000	47,301700
1207,000000	47,198600
1206,000000	47,099400
1205,000000	46,992100
1204,000000	46,908500
1203,000000	46,818500
1202,000000	46,738400
1201,000000	46,680300
1200,000000	46,618200
1199,000000	46,545600
1198,000000	46,469200
1197,000000	46,394900
1196,000000	46,289600
1195,000000	46,183400
1194,000000	46,044800
1193,000000	45,862600
1192,000000	45,670200
1191,000000	45,447200
1190,000000	45,214000
1189,000000	44,981700
1188,000000	44,758800
1187,000000	44,552200
1186,000000	44,414400
1185,000000	44,334800
1184,000000	44,321700
1183,000000	44,390100
1182,000000	44,538100
1181,000000	44,727600
1180,000000	44,974200
1179,000000	45,283400
1178,000000	45,578100
1177,000000	45,871500
1176,000000	46,131600
1175,000000	46,366500
1174,000000	46,587800
1173,000000	46,797100
1172,000000	46,988100
1171,000000	47,189500
1170,000000	47,406000
1169,000000	47,602300
1168,000000	47,808600
1167,000000	48,038200
1166,000000	48,278600
1165,000000	48,523500
1164,000000	48,766900
1163,000000	49,008900
1162,000000	49,273400
1161,000000	49,549500
1160,000000	49,822100
1159,000000	50,078600
1158,000000	50,331600
1157,000000	50,603000
1156,000000	50,853000
1155,000000	51,105300
1154,000000	51,323000
1153,000000	51,536500
1152,000000	51,708500
1151,000000	51,866200
1150,000000	52,012200
1149,000000	52,170700
1148,000000	52,297300
1147,000000	52,436300
1146,000000	52,604800
1145,000000	52,782300
1144,000000	53,007500
1143,000000	53,237400
1142,000000	53,468800
1141,000000	53,762100
1140,000000	54,043900
1139,000000	54,367400
1138,000000	54,697300
1137,000000	55,030200
1136,000000	55,359400
1135,000000	55,735200
1134,000000	56,128500
1133,000000	56,503500
1132,000000	56,793200
1131,000000	57,055800
1130,000000	57,335800
1129,000000	57,569600
1128,000000	57,784800
1127,000000	57,962500
1126,000000	58,090000
1125,000000	58,226400
1124,000000	58,297200
1123,000000	58,396900
1122,000000	58,466400
1121,000000	58,505000
1120,000000	58,550700
1119,000000	58,574500
1118,000000	58,575900
1117,000000	58,577800
1116,000000	58,614300
1115,000000	58,591500
1114,000000	58,589700
1113,000000	58,572900
1112,000000	58,582900
1111,000000	58,564200
1110,000000	58,557100
1109,000000	58,533400
1108,000000	58,496100
1107,000000	58,495000
1106,000000	58,480100
1105,000000	58,462700
1104,000000	58,437100
1103,000000	58,420600
1102,000000	58,418700
1101,000000	58,404800
1100,000000	58,380500
1099,000000	58,347200
1098,000000	58,345700
1097,000000	58,311900
1096,000000	58,275900
1095,000000	58,252500
1094,000000	58,215300
1093,000000	58,187300
1092,000000	58,145400
1091,000000	58,086400
1090,000000	58,065600
1089,000000	58,022400
1088,000000	57,979700
1087,000000	57,914400
1086,000000	57,880800
1085,000000	57,806700
1084,000000	57,747000
1083,000000	57,706800
1082,000000	57,664500
1081,000000	57,590800
1080,000000	57,547000
1079,000000	57,469400
1078,000000	57,412900
1077,000000	57,367400
1076,000000	57,295300
1075,000000	57,241600
1074,000000	57,183900
1073,000000	57,105800
1072,000000	57,054700
1071,000000	56,992600
1070,000000	56,909000
1069,000000	56,848500
1068,000000	56,788500
1067,000000	56,715600
1066,000000	56,658500
1065,000000	56,578500
1064,000000	56,499400
1063,000000	56,430300
1062,000000	56,376500
1061,000000	56,301200
1060,000000	56,227000
1059,000000	56,149400
1058,000000	56,054300
1057,000000	55,993400
1056,000000	55,905600
1055,000000	55,829600
1054,000000	55,738000
1053,000000	55,669300
1052,000000	55,598600
1051,000000	55,507700
1050,000000	55,433800
1049,000000	55,372600
1048,000000	55,282000
1047,000000	55,195300
1046,000000	55,148600
1045,000000	55,064100
1044,000000	54,989800
1043,000000	54,927900
1042,000000	54,833200
1041,000000	54,749600
1040,000000	54,693000
1039,000000	54,625100
1038,000000	54,540300
1037,000000	54,486400
1036,000000	54,397100
1035,000000	54,313100
1034,000000	54,236400
1033,000000	54,163800
1032,000000	54,074500
1031,000000	53,976300
1030,000000	53,903900
1029,000000	53,818600
1028,000000	53,731000
1027,000000	53,661300
1026,000000	53,566000
1025,000000	53,469300
1024,000000	53,393900
1023,000000	53,308400
1022,000000	53,220800
1021,000000	53,122500
1020,000000	53,032700
1019,000000	52,972500
1018,000000	52,894600
1017,000000	52,803100
1016,000000	52,716600
1015,000000	52,634100
1014,000000	52,572400
1013,000000	52,527300
1012,000000	52,467600
1011,000000	52,398700
1010,000000	52,313700
1009,000000	52,266800
1008,000000	52,221900
1007,000000	52,181100
1006,000000	52,121800
1005,000000	52,069700
1004,000000	52,043000
1003,000000	52,015300
1002,000000	51,956900
1001,000000	51,889600
1000,000000	51,840000
999,000000	51,795400
998,000000	51,772200
997,000000	51,729600
996,000000	51,672600
995,000000	51,628800
994,000000	51,607500
993,000000	51,582900
992,000000	51,539100
991,000000	51,502100
990,000000	51,469900
989,000000	51,432100
988,000000	51,399000
987,000000	51,358700
986,000000	51,348800
985,000000	51,325300
984,000000	51,313700
983,000000	51,277000
982,000000	51,239200
981,000000	51,234500
980,000000	51,225800
979,000000	51,194200
978,000000	51,170100
977,000000	51,141200
976,000000	51,128500
975,000000	51,115400
974,000000	51,099100
973,000000	51,053400
972,000000	51,026900
971,000000	51,035400
970,000000	51,019600
969,000000	50,982900
968,000000	50,964900
967,000000	50,951300
966,000000	50,932100
965,000000	50,940000
964,000000	50,923100
963,000000	50,910600
962,000000	50,926000
961,000000	50,914500
960,000000	50,885100
959,000000	50,871300
958,000000	50,871100
957,000000	50,885300
956,000000	50,899100
955,000000	50,881200
954,000000	50,858200
953,000000	50,853500
952,000000	50,870900
951,000000	50,887000
950,000000	50,866300
949,000000	50,839700
948,000000	50,832200
947,000000	50,816200
946,000000	50,803400
945,000000	50,797100
944,000000	50,769100
943,000000	50,740400
942,000000	50,719800
941,000000	50,688100
940,000000	50,632600
939,000000	50,583800
938,000000	50,547500
937,000000	50,529400
936,000000	50,495000
935,000000	50,426400
934,000000	50,381000
933,000000	50,360400
932,000000	50,311800
931,000000	50,255000
930,000000	50,213500
929,000000	50,148300
928,000000	50,105500
927,000000	50,042400
926,000000	49,969900
925,000000	49,903900
924,000000	49,861200
923,000000	49,788900
922,000000	49,716600
921,000000	49,638000
920,000000	49,557500
919,000000	49,485100
918,000000	49,405600
917,000000	49,325900
916,000000	49,247000
915,000000	49,203400
914,000000	49,127400
913,000000	49,017800
912,000000	48,917900
911,000000	48,818300
910,000000	48,733200
909,000000	48,679300
908,000000	48,601600
907,000000	48,522500
906,000000	48,435100
905,000000	48,362800
904,000000	48,289700
903,000000	48,224600
902,000000	48,165100
901,000000	48,107600
900,000000	48,054900
899,000000	47,997000
898,000000	47,917000
897,000000	47,824900
896,000000	47,773800
895,000000	47,720000
894,000000	47,662500
893,000000	47,601500
892,000000	47,532600
891,000000	47,451400
890,000000	47,387400
889,000000	47,302300
888,000000	47,232800
887,000000	47,168700
886,000000	47,090500
885,000000	47,014900
884,000000	46,925000
883,000000	46,841700
882,000000	46,779300
881,000000	46,663300
880,000000	46,574900
879,000000	46,491300
878,000000	46,400700
877,000000	46,296400
876,000000	46,186900
875,000000	46,073800
874,000000	45,940400
873,000000	45,775200
872,000000	45,624900
871,000000	45,446200
870,000000	45,289100
869,000000	45,182600
868,000000	45,127000
867,000000	45,102100
866,000000	45,084200
865,000000	45,082700
864,000000	45,063800
863,000000	45,021600
862,000000	45,010500
861,000000	44,967800
860,000000	44,956500
859,000000	44,915000
858,000000	44,883200
857,000000	48,713800
856,000000	49,555900
855,000000	49,644400
854,000000	49,829200
853,000000	50,006300
852,000000	49,828300
851,000000	49,953300
850,000000	49,745000
849,000000	49,448900
848,000000	49,640100
847,000000	49,748900
846,000000	49,508300
845,000000	49,465800
844,000000	49,643900
843,000000	49,402200
842,000000	49,124700
841,000000	49,381300
840,000000	49,057400
839,000000	49,187000
838,000000	49,136400
837,000000	48,939700
836,000000	48,874000
835,000000	48,903800
834,000000	48,888800
833,000000	48,647300
832,000000	48,598900
831,000000	48,631000
830,000000	48,495100
829,000000	48,391600
828,000000	48,263500
827,000000	48,349200
826,000000	48,196500
825,000000	47,996300
824,000000	48,192900
823,000000	47,923200
822,000000	47,861900
821,000000	47,808400
820,000000	47,798400
819,000000	47,699700
818,000000	47,694800
817,000000	47,392900
816,000000	47,419100
815,000000	47,268100
814,000000	47,322800
813,000000	47,058800
812,000000	47,121200
811,000000	47,023400
810,000000	47,033000
809,000000	46,837100
808,000000	46,830600
807,000000	46,779300
806,000000	46,704300
805,000000	46,840000
804,000000	46,401100
803,000000	46,335800
802,000000	46,279300
801,000000	46,130600
800,000000	46,134400
799,000000	46,083000
798,000000	45,967000
797,000000	45,793300
796,000000	45,734600
795,000000	45,759700
794,000000	45,540600
793,000000	45,470700
792,000000	45,203800
791,000000	45,391300
790,000000	45,166900
789,000000	45,200200
788,000000	44,906500
787,000000	44,997000
786,000000	44,734400
785,000000	44,620500
784,000000	44,500700
783,000000	44,516300
782,000000	44,262000
781,000000	44,139100
780,000000	44,058400
779,000000	43,940600
778,000000	43,839900
777,000000	43,743900
776,000000	43,619600
775,000000	43,524600
774,000000	43,458000
773,000000	43,253200
772,000000	43,082300
771,000000	43,054000
770,000000	42,865800
769,000000	42,823900
768,000000	42,648000
767,000000	42,545100
766,000000	42,456200
765,000000	42,286900
764,000000	42,240200
763,000000	42,085100
762,000000	41,966600
761,000000	41,801700
760,000000	41,650800
759,000000	41,554500
758,000000	41,428900
757,000000	41,302100
756,000000	41,135200
755,000000	41,019300
754,000000	40,914400
753,000000	40,764100
752,000000	40,646000
751,000000	40,483600
750,000000	40,335300
749,000000	40,195700
748,000000	40,059900
747,000000	39,946100
746,000000	39,710800
745,000000	39,629700
744,000000	39,458000
743,000000	39,298300
742,000000	39,136500
741,000000	38,952400
740,000000	38,829900
739,000000	38,634400
738,000000	38,503300
737,000000	38,316200
736,000000	38,139200
735,000000	37,982300
734,000000	37,778800
733,000000	37,610400
732,000000	37,411400
731,000000	37,237500
730,000000	37,042300
729,000000	36,864300
728,000000	36,651200
727,000000	36,472200
726,000000	36,245600
725,000000	36,050100
724,000000	35,875300
723,000000	35,672900
722,000000	35,470000
721,000000	35,273100
720,000000	35,043000
719,000000	34,823700
718,000000	34,618900
717,000000	34,441500
716,000000	34,262200
715,000000	34,051200
714,000000	33,824900
713,000000	33,618700
712,000000	33,422200
711,000000	33,206700
710,000000	33,035800
709,000000	32,794300
708,000000	32,565700
707,000000	32,403600
706,000000	32,197800
705,000000	31,998900
704,000000	31,830100
703,000000	31,620800
702,000000	31,433200
701,000000	31,219300
700,000000	31,027100
699,000000	30,865900
698,000000	30,680200
697,000000	30,485300
696,000000	30,329200
695,000000	30,156100
694,000000	29,991000
693,000000	29,799500
692,000000	29,626800
691,000000	29,455300
690,000000	29,304400
689,000000	29,145800
688,000000	29,011900
687,000000	28,816300
686,000000	28,643300
685,000000	28,493500
684,000000	28,326700
683,000000	28,197100
682,000000	28,048400
681,000000	27,886600
680,000000	27,720600
679,000000	27,591900
678,000000	27,464700
677,000000	27,333800
676,000000	27,211000
675,000000	27,077500
674,000000	26,931800
673,000000	26,817500
672,000000	26,690100
671,000000	26,538300
670,000000	26,419800
669,000000	26,336300
668,000000	26,216800
667,000000	26,110100
666,000000	25,975400
665,000000	25,871400
664,000000	25,780200
663,000000	25,677000
662,000000	25,593400
661,000000	25,507800
660,000000	25,408400
659,000000	25,312200
658,000000	25,225700
657,000000	25,157000
656,000000	25,064000
655,000000	24,990700
654,000000	24,916800
653,000000	24,824500
652,000000	24,764600
651,000000	24,703200
650,000000	24,641400
649,000000	24,593700
648,000000	24,513500
647,000000	24,452800
646,000000	24,418900
645,000000	24,369600
644,000000	24,302300
643,000000	24,251400
642,000000	24,209100
641,000000	24,141200
640,000000	24,086200
639,000000	24,054400
638,000000	24,015100
637,000000	23,974900
636,000000	23,946300
635,000000	23,911100
634,000000	23,868900
633,000000	23,853400
632,000000	23,840600
631,000000	23,799900
630,000000	23,789400
629,000000	23,775200
628,000000	23,747600
627,000000	23,732000
626,000000	23,723300
625,000000	23,737500
624,000000	23,734600
623,000000	23,726300
622,000000	23,707700
621,000000	23,704100
620,000000	23,715600
619,000000	23,716500
618,000000	23,710400
617,000000	23,719000
616,000000	23,731700
615,000000	23,742300
614,000000	23,751500
613,000000	23,752600
612,000000	23,743600
611,000000	23,743000
610,000000	23,746000
609,000000	23,737600
608,000000	23,737800
607,000000	23,740600
606,000000	23,746100
605,000000	23,731100
604,000000	23,731200
603,000000	23,752600
602,000000	23,736900
601,000000	23,725600
600,000000	23,733300
599,000000	23,715500
598,000000	23,700100
597,000000	23,711500
596,000000	23,704900
595,000000	23,687700
594,000000	23,686000
593,000000	23,676200
592,000000	23,654000
591,000000	23,643200
590,000000	23,645600
589,000000	23,631900
588,000000	23,595100
587,000000	23,579200
586,000000	23,546500
585,000000	23,526900
584,000000	23,499700
583,000000	23,445200
582,000000	23,412500
581,000000	23,384700
580,000000	23,359000
579,000000	23,318400
578,000000	23,263700
577,000000	23,190800
576,000000	23,144400
575,000000	23,079900
574,000000	23,012900
573,000000	22,942800
572,000000	22,877700
571,000000	22,799200
570,000000	22,720900
569,000000	22,634900
568,000000	22,543400
567,000000	22,447400
566,000000	22,380400
565,000000	22,266000
564,000000	22,149800
563,000000	22,048300
562,000000	21,941600
561,000000	21,825900
560,000000	21,678700
559,000000	21,551500
558,000000	21,424900
557,000000	21,288600
556,000000	21,170000
555,000000	21,027000
554,000000	20,859000
553,000000	20,724100
552,000000	20,567400
551,000000	20,411800
550,000000	20,269200
549,000000	20,111500
548,000000	19,943500
547,000000	19,777800
546,000000	19,617600
545,000000	19,449100
544,000000	19,277100
543,000000	19,095500
542,000000	18,913500
541,000000	18,738600
540,000000	18,551400
539,000000	18,370300
538,000000	18,189100
537,000000	18,000200
536,000000	17,813600
535,000000	17,621100
534,000000	17,418300
533,000000	17,239400
532,000000	17,048500
531,000000	16,865600
530,000000	16,656500
529,000000	16,467600
528,000000	16,278800
527,000000	16,080000
526,000000	15,886900
525,000000	15,685000
524,000000	15,503000
523,000000	15,314000
522,000000	15,124400
521,000000	14,937300
520,000000	14,744900
519,000000	14,554400
518,000000	14,387800
517,000000	14,208400
516,000000	14,036600
515,000000	13,862000
514,000000	13,709200
513,000000	13,543400
512,000000	13,407100
511,000000	13,238600
510,000000	13,129200
509,000000	12,975600
508,000000	12,835000
507,000000	12,724600
506,000000	12,606300
505,000000	12,479600
504,000000	12,364100
503,000000	12,279600
502,000000	12,160500
501,000000	12,075700
500,000000	11,979800
499,000000	11,873000
498,000000	11,813600
497,000000	11,717400
496,000000	11,650600
495,000000	11,581900
494,000000	11,508500
493,000000	11,438300
492,000000	11,369100
491,000000	11,319200
490,000000	11,262300
489,000000	11,191500
488,000000	11,132700
487,000000	11,075000
486,000000	11,037600
485,000000	10,984600
484,000000	10,933500
483,000000	10,878500
482,000000	10,802900
481,000000	10,730600
480,000000	10,663600
479,000000	10,593200
478,000000	10,523400
477,000000	10,457600
476,000000	10,381700
475,000000	10,322000
474,000000	10,257600
473,000000	10,187700
472,000000	10,126400
471,000000	10,068300
470,000000	10,005800
469,000000	9,956300
468,000000	9,903700
467,000000	9,843300
466,000000	9,811900
465,000000	9,766600
464,000000	9,730000
463,000000	9,663100
462,000000	9,627400
461,000000	9,585400
460,000000	9,536700
459,000000	9,498500
458,000000	9,458500
457,000000	9,434100
456,000000	9,397800
455,000000	9,381600
454,000000	9,328200
453,000000	9,300200
452,000000	9,269800
451,000000	9,244500
450,000000	9,217000
449,000000	9,204600
448,000000	9,180800
447,000000	9,127600
446,000000	9,106100
445,000000	9,083400
444,000000	9,066700
443,000000	9,041400
442,000000	9,022400
441,000000	8,988700
440,000000	8,955900
439,000000	8,925500
438,000000	8,902300
437,000000	8,860700
436,000000	8,822600
435,000000	8,785300
434,000000	8,747100
433,000000	8,693700
432,000000	8,667800
431,000000	8,612100
430,000000	8,568200
429,000000	8,531500
428,000000	8,506700
427,000000	8,455700
426,000000	8,400200
425,000000	8,343200
424,000000	8,302100
423,000000	8,254600
422,000000	8,185200
421,000000	8,114400
420,000000	8,054900
419,000000	7,996200
418,000000	7,947000
417,000000	7,877300
416,000000	7,806400
415,000000	7,749900
414,000000	7,676100
413,000000	7,600600
412,000000	7,532100
411,000000	7,453300
410,000000	7,361500
409,000000	7,287500
408,000000	7,215100
407,000000	7,129500
406,000000	7,074200
405,000000	6,983800
404,000000	6,889300
403,000000	6,792600
402,000000	6,721300
401,000000	6,643500
400,000000	6,546300
399,000000	6,462500
398,000000	6,377800
397,000000	6,313300
396,000000	6,225700
395,000000	6,144200
394,000000	6,060900
393,000000	5,956900
392,000000	5,886600
391,000000	5,803900
390,000000	5,718600
389,000000	5,637400
388,000000	5,545100
387,000000	5,473500
386,000000	5,416300
385,000000	5,337700
384,000000	5,260600
383,000000	5,189000
382,000000	5,142700
381,000000	5,066500
380,000000	5,006300
379,000000	4,927500
378,000000	4,872600
377,000000	4,833500
376,000000	4,733900
375,000000	4,615200
374,000000	4,566000
373,000000	4,511600
372,000000	4,493900
371,000000	4,412900
370,000000	4,371800
369,000000	4,362500
368,000000	4,290200
367,000000	4,252700
366,000000	4,261000
365,000000	4,250900
364,000000	4,249300
363,000000	4,207200
362,000000	4,193500
361,000000	4,223900
360,000000	4,186700
359,000000	4,052500
358,000000	4,070300
357,000000	4,072500
356,000000	4,018800
355,000000	3,980400
354,000000	3,998700
353,000000	3,999800
352,000000	3,973500
351,000000	4,022200
350,000000	3,987600
349,000000	4,000800
348,000000	4,026900
347,000000	3,970900
346,000000	3,960300
345,000000	4,000900
344,000000	3,992300
343,000000	3,934100
342,000000	3,944800
341,000000	3,931300
340,000000	3,887600
339,000000	3,838700
338,000000	3,852900
337,000000	3,861800
336,000000	3,919300
335,000000	3,948800
334,000000	3,878300
333,000000	3,886200
332,000000	3,949600
331,000000	3,892500
330,000000	3,880600
329,000000	3,899000
328,000000	3,881700
327,000000	3,826300
326,000000	3,819900
325,000000	3,867100
324,000000	3,892900
323,000000	3,912700
322,000000	3,921100
321,000000	3,912700
320,000000	3,903300
319,000000	3,944100
318,000000	3,865500
317,000000	3,808100
316,000000	3,883400
315,000000	3,921800
314,000000	3,909800
313,000000	3,927300
312,000000	3,920300
311,000000	3,921800
310,000000	3,932600
309,000000	3,932300
308,000000	3,942000
307,000000	3,945700
306,000000	3,977400
305,000000	3,948900
304,000000	3,917000
303,000000	3,946900
302,000000	3,960600
301,000000	3,961300
300,000000	3,970300
299,000000	3,976300
298,000000	3,970100
297,000000	3,959100
296,000000	3,969900
295,000000	3,964300
294,000000	3,972300
293,000000	3,961700
292,000000	3,967400
291,000000	3,970400
290,000000	3,982300
289,000000	3,979200
288,000000	3,971400
287,000000	3,993800
286,000000	3,985700
285,000000	3,988500
284,000000	3,996800
283,000000	4,011700
282,000000	4,007100
281,000000	4,018400
280,000000	4,028600
279,000000	4,024200
278,000000	4,009400
277,000000	4,010700
276,000000	4,016100
275,000000	4,038200
274,000000	4,039100
273,000000	4,042100
272,000000	4,047000
271,000000	4,060800
270,000000	4,084000
269,000000	4,098900
268,000000	4,090400
267,000000	4,098600
266,000000	4,130400
265,000000	4,135100
264,000000	4,127500
263,000000	4,145700
262,000000	4,174800
261,000000	4,191800
260,000000	4,216400
259,000000	4,228800
258,000000	4,239300
257,000000	4,222500
256,000000	4,216000
255,000000	4,226000
254,000000	4,268600
253,000000	4,229400
252,000000	4,246900
251,000000	4,285600
250,000000	4,252000
