PE UV       SUBTECH     SPECTRUM    ASCII       PEDS        4.00        
   -1
CICIMAUCR0205-1.ASC
24/06/06
12:36:51.00
24/06/06
12:36:51.00
Vinicio Soto Monge
C. cupreomarginata. Sex F. Ventral
250,000000
1
Lambda 1050
1050L1511233
PerkinElmer UV WinLab 6.3.2.0749 / 2.02.05 Lambda 900 UV/VIS/NIR, Aug  7 2015 09:38:08

0
0
3350/servo 860,8/2
0
0
UV/VIS
1
1
1
DoubleDePol,CommonBeamDepol,RBeamAtt,SBeamAtt,60mm sphere, WB InGaAs Detector
0
0
0
0
Program
Program
3350/servo 860,8/2
3350/0,2 860,8/0,2
3350/0,2 860,8/0,2
0
15.00
 
 
 
0
 
860,8
319,2
860,8
Front
100
on
S:100 R:100
0
0
0
0
 
0
 
 
 
0
 
 
0
0
0
0
0
 
 
 
 
0
0


0
0
#HDR
-1
-1
#GR
nm
%R
1.0
0.0
2500,000000
-1,000000
2251
8
55,959800
4,070400
#DATA
2500,000000	8,517600
2499,000000	8,523300
2498,000000	8,473200
2497,000000	8,510300
2496,000000	8,525900
2495,000000	8,450400
2494,000000	8,388500
2493,000000	8,491400
2492,000000	8,414000
2491,000000	8,416500
2490,000000	8,409300
2489,000000	8,438000
2488,000000	8,335000
2487,000000	8,394600
2486,000000	8,317500
2485,000000	8,306200
2484,000000	8,351800
2483,000000	8,318100
2482,000000	8,316800
2481,000000	8,324100
2480,000000	8,378200
2479,000000	8,284100
2478,000000	8,356100
2477,000000	8,418700
2476,000000	8,282200
2475,000000	8,331100
2474,000000	8,421600
2473,000000	8,406500
2472,000000	8,388800
2471,000000	8,412300
2470,000000	8,379600
2469,000000	8,386700
2468,000000	8,429600
2467,000000	8,462900
2466,000000	8,449000
2465,000000	8,520600
2464,000000	8,521300
2463,000000	8,513500
2462,000000	8,516000
2461,000000	8,567400
2460,000000	8,613200
2459,000000	8,625700
2458,000000	8,648200
2457,000000	8,673900
2456,000000	8,725200
2455,000000	8,749500
2454,000000	8,814300
2453,000000	8,845000
2452,000000	8,865900
2451,000000	8,913800
2450,000000	8,962200
2449,000000	9,015700
2448,000000	9,029200
2447,000000	9,098400
2446,000000	9,141900
2445,000000	9,192300
2444,000000	9,250500
2443,000000	9,293300
2442,000000	9,323300
2441,000000	9,396000
2440,000000	9,471500
2439,000000	9,503600
2438,000000	9,552300
2437,000000	9,602600
2436,000000	9,640700
2435,000000	9,694700
2434,000000	9,744900
2433,000000	9,796200
2432,000000	9,842700
2431,000000	9,867600
2430,000000	9,929800
2429,000000	9,986300
2428,000000	10,022700
2427,000000	10,054400
2426,000000	10,091800
2425,000000	10,128400
2424,000000	10,168800
2423,000000	10,216100
2422,000000	10,244700
2421,000000	10,290900
2420,000000	10,313300
2419,000000	10,350400
2418,000000	10,383700
2417,000000	10,418900
2416,000000	10,453800
2415,000000	10,471600
2414,000000	10,494000
2413,000000	10,532900
2412,000000	10,558400
2411,000000	10,580400
2410,000000	10,610100
2409,000000	10,630700
2408,000000	10,662700
2407,000000	10,683900
2406,000000	10,694800
2405,000000	10,701600
2404,000000	10,714400
2403,000000	10,723900
2402,000000	10,755900
2401,000000	10,778400
2400,000000	10,802100
2399,000000	10,813900
2398,000000	10,832400
2397,000000	10,840000
2396,000000	10,867700
2395,000000	10,886400
2394,000000	10,897200
2393,000000	10,899600
2392,000000	10,900700
2391,000000	10,909400
2390,000000	10,911500
2389,000000	10,919100
2388,000000	10,929700
2387,000000	10,934200
2386,000000	10,924100
2385,000000	10,925500
2384,000000	10,927400
2383,000000	10,924900
2382,000000	10,933700
2381,000000	10,922600
2380,000000	10,915900
2379,000000	10,914000
2378,000000	10,899500
2377,000000	10,901800
2376,000000	10,895000
2375,000000	10,879000
2374,000000	10,887200
2373,000000	10,873400
2372,000000	10,852600
2371,000000	10,860900
2370,000000	10,859000
2369,000000	10,858100
2368,000000	10,844400
2367,000000	10,846400
2366,000000	10,840200
2365,000000	10,823300
2364,000000	10,813000
2363,000000	10,810300
2362,000000	10,805300
2361,000000	10,796300
2360,000000	10,803600
2359,000000	10,803500
2358,000000	10,782800
2357,000000	10,775000
2356,000000	10,766600
2355,000000	10,753500
2354,000000	10,753900
2353,000000	10,735700
2352,000000	10,718700
2351,000000	10,723400
2350,000000	10,709900
2349,000000	10,699100
2348,000000	10,700000
2347,000000	10,695000
2346,000000	10,698700
2345,000000	10,703300
2344,000000	10,694300
2343,000000	10,689600
2342,000000	10,687700
2341,000000	10,690800
2340,000000	10,694200
2339,000000	10,680000
2338,000000	10,668100
2337,000000	10,669200
2336,000000	10,677100
2335,000000	10,680400
2334,000000	10,684800
2333,000000	10,688600
2332,000000	10,693900
2331,000000	10,707100
2330,000000	10,721800
2329,000000	10,724900
2328,000000	10,729600
2327,000000	10,747200
2326,000000	10,741200
2325,000000	10,738100
2324,000000	10,752600
2323,000000	10,777300
2322,000000	10,769700
2321,000000	10,770000
2320,000000	10,770000
2319,000000	10,763700
2318,000000	10,757000
2317,000000	10,757200
2316,000000	10,724300
2315,000000	10,697600
2314,000000	10,685700
2313,000000	10,688900
2312,000000	10,666400
2311,000000	10,640100
2310,000000	10,615100
2309,000000	10,586400
2308,000000	10,574400
2307,000000	10,556900
2306,000000	10,528400
2305,000000	10,515900
2304,000000	10,515400
2303,000000	10,485000
2302,000000	10,489000
2301,000000	10,483800
2300,000000	10,480700
2299,000000	10,474900
2298,000000	10,461700
2297,000000	10,475700
2296,000000	10,487400
2295,000000	10,486900
2294,000000	10,511500
2293,000000	10,512700
2292,000000	10,518900
2291,000000	10,549100
2290,000000	10,564400
2289,000000	10,573200
2288,000000	10,576900
2287,000000	10,608500
2286,000000	10,636500
2285,000000	10,637600
2284,000000	10,682500
2283,000000	10,705700
2282,000000	10,716700
2281,000000	10,748500
2280,000000	10,766600
2279,000000	10,787100
2278,000000	10,789500
2277,000000	10,808700
2276,000000	10,834400
2275,000000	10,867900
2274,000000	10,879300
2273,000000	10,899900
2272,000000	10,927000
2271,000000	10,948900
2270,000000	10,959900
2269,000000	10,987200
2268,000000	11,019700
2267,000000	11,054900
2266,000000	11,070400
2265,000000	11,122200
2264,000000	11,163400
2263,000000	11,208700
2262,000000	11,275000
2261,000000	11,326700
2260,000000	11,383000
2259,000000	11,462200
2258,000000	11,529400
2257,000000	11,611500
2256,000000	11,693200
2255,000000	11,776600
2254,000000	11,858500
2253,000000	11,938000
2252,000000	12,052300
2251,000000	12,136800
2250,000000	12,236600
2249,000000	12,309000
2248,000000	12,379000
2247,000000	12,465000
2246,000000	12,549800
2245,000000	12,647600
2244,000000	12,680600
2243,000000	12,754900
2242,000000	12,812200
2241,000000	12,852800
2240,000000	12,899300
2239,000000	12,947800
2238,000000	12,976700
2237,000000	12,991400
2236,000000	13,039700
2235,000000	13,049900
2234,000000	13,049200
2233,000000	13,053200
2232,000000	13,070200
2231,000000	13,078200
2230,000000	13,054400
2229,000000	13,041400
2228,000000	13,025900
2227,000000	13,009000
2226,000000	13,015400
2225,000000	12,972400
2224,000000	12,917600
2223,000000	12,917200
2222,000000	12,867300
2221,000000	12,839800
2220,000000	12,777900
2219,000000	12,743800
2218,000000	12,699400
2217,000000	12,661400
2216,000000	12,613100
2215,000000	12,573100
2214,000000	12,531400
2213,000000	12,504900
2212,000000	12,453300
2211,000000	12,423400
2210,000000	12,409200
2209,000000	12,353800
2208,000000	12,316000
2207,000000	12,299100
2206,000000	12,282000
2205,000000	12,263200
2204,000000	12,240400
2203,000000	12,205000
2202,000000	12,184300
2201,000000	12,182000
2200,000000	12,163100
2199,000000	12,144800
2198,000000	12,130200
2197,000000	12,115000
2196,000000	12,085300
2195,000000	12,069600
2194,000000	12,071300
2193,000000	12,044100
2192,000000	12,021600
2191,000000	12,029700
2190,000000	12,034700
2189,000000	12,008500
2188,000000	11,983900
2187,000000	11,990900
2186,000000	11,983500
2185,000000	11,959000
2184,000000	11,950400
2183,000000	11,946100
2182,000000	11,924500
2181,000000	11,921800
2180,000000	11,905100
2179,000000	11,879400
2178,000000	11,891000
2177,000000	11,890400
2176,000000	11,888500
2175,000000	11,878900
2174,000000	11,880100
2173,000000	11,865900
2172,000000	11,875900
2171,000000	11,881700
2170,000000	11,889900
2169,000000	11,895400
2168,000000	11,908500
2167,000000	11,913000
2166,000000	11,941000
2165,000000	11,950600
2164,000000	11,966700
2163,000000	11,983600
2162,000000	12,018800
2161,000000	12,053000
2160,000000	12,087000
2159,000000	12,112900
2158,000000	12,155500
2157,000000	12,193100
2156,000000	12,253200
2155,000000	12,299700
2154,000000	12,359800
2153,000000	12,399000
2152,000000	12,469600
2151,000000	12,528000
2150,000000	12,575400
2149,000000	12,628900
2148,000000	12,681200
2147,000000	12,748900
2146,000000	12,813500
2145,000000	12,868400
2144,000000	12,924000
2143,000000	12,973000
2142,000000	13,018300
2141,000000	13,100800
2140,000000	13,152500
2139,000000	13,205800
2138,000000	13,267000
2137,000000	13,323800
2136,000000	13,371600
2135,000000	13,412400
2134,000000	13,466600
2133,000000	13,517500
2132,000000	13,557000
2131,000000	13,599400
2130,000000	13,647000
2129,000000	13,682700
2128,000000	13,730700
2127,000000	13,761800
2126,000000	13,793400
2125,000000	13,816700
2124,000000	13,834200
2123,000000	13,860100
2122,000000	13,899700
2121,000000	13,926800
2120,000000	13,958300
2119,000000	13,983900
2118,000000	13,993000
2117,000000	14,003200
2116,000000	14,019900
2115,000000	14,042000
2114,000000	14,058900
2113,000000	14,061300
2112,000000	14,063500
2111,000000	14,079500
2110,000000	14,082600
2109,000000	14,083900
2108,000000	14,083600
2107,000000	14,098000
2106,000000	14,107700
2105,000000	14,118200
2104,000000	14,108900
2103,000000	14,093500
2102,000000	14,098900
2101,000000	14,102200
2100,000000	14,099100
2099,000000	14,094900
2098,000000	14,095000
2097,000000	14,098100
2096,000000	14,100800
2095,000000	14,109300
2094,000000	14,107100
2093,000000	14,109300
2092,000000	14,107900
2091,000000	14,104700
2090,000000	14,125200
2089,000000	14,126100
2088,000000	14,119700
2087,000000	14,117900
2086,000000	14,106700
2085,000000	14,113200
2084,000000	14,106500
2083,000000	14,083100
2082,000000	14,062400
2081,000000	14,038300
2080,000000	13,999700
2079,000000	13,962000
2078,000000	13,933300
2077,000000	13,890400
2076,000000	13,835800
2075,000000	13,786900
2074,000000	13,736400
2073,000000	13,673400
2072,000000	13,615600
2071,000000	13,548600
2070,000000	13,472200
2069,000000	13,413200
2068,000000	13,349400
2067,000000	13,278900
2066,000000	13,221600
2065,000000	13,163200
2064,000000	13,086700
2063,000000	13,012700
2062,000000	12,952900
2061,000000	12,907900
2060,000000	12,864800
2059,000000	12,806600
2058,000000	12,758500
2057,000000	12,720500
2056,000000	12,695700
2055,000000	12,674700
2054,000000	12,674400
2053,000000	12,696700
2052,000000	12,711000
2051,000000	12,733400
2050,000000	12,765300
2049,000000	12,819600
2048,000000	12,879100
2047,000000	12,937200
2046,000000	12,987800
2045,000000	13,068300
2044,000000	13,160300
2043,000000	13,231000
2042,000000	13,309600
2041,000000	13,388900
2040,000000	13,452600
2039,000000	13,525100
2038,000000	13,606300
2037,000000	13,687600
2036,000000	13,753000
2035,000000	13,803400
2034,000000	13,864000
2033,000000	13,910800
2032,000000	13,958400
2031,000000	14,014000
2030,000000	14,069100
2029,000000	14,096000
2028,000000	14,134600
2027,000000	14,165000
2026,000000	14,206600
2025,000000	14,238500
2024,000000	14,261300
2023,000000	14,278100
2022,000000	14,287000
2021,000000	14,318200
2020,000000	14,342900
2019,000000	14,363800
2018,000000	14,359800
2017,000000	14,378400
2016,000000	14,390500
2015,000000	14,379700
2014,000000	14,368500
2013,000000	14,375600
2012,000000	14,376900
2011,000000	14,353500
2010,000000	14,347300
2009,000000	14,331100
2008,000000	14,313000
2007,000000	14,298900
2006,000000	14,272200
2005,000000	14,241700
2004,000000	14,217300
2003,000000	14,187000
2002,000000	14,133100
2001,000000	14,095000
2000,000000	14,056400
1999,000000	14,013000
1998,000000	13,960200
1997,000000	13,923600
1996,000000	13,889100
1995,000000	13,819900
1994,000000	13,759100
1993,000000	13,715900
1992,000000	13,668400
1991,000000	13,605800
1990,000000	13,540100
1989,000000	13,482500
1988,000000	13,441500
1987,000000	13,383200
1986,000000	13,325500
1985,000000	13,255100
1984,000000	13,187600
1983,000000	13,131200
1982,000000	13,072400
1981,000000	13,008300
1980,000000	12,957600
1979,000000	12,902900
1978,000000	12,834300
1977,000000	12,789800
1976,000000	12,717900
1975,000000	12,669700
1974,000000	12,601400
1973,000000	12,557200
1972,000000	12,518200
1971,000000	12,451900
1970,000000	12,392200
1969,000000	12,364000
1968,000000	12,300900
1967,000000	12,258000
1966,000000	12,200200
1965,000000	12,170300
1964,000000	12,115000
1963,000000	12,071100
1962,000000	12,022700
1961,000000	11,983900
1960,000000	11,917200
1959,000000	11,877400
1958,000000	11,821800
1957,000000	11,752600
1956,000000	11,705600
1955,000000	11,673800
1954,000000	11,630300
1953,000000	11,578400
1952,000000	11,533500
1951,000000	11,479000
1950,000000	11,450800
1949,000000	11,420500
1948,000000	11,357300
1947,000000	11,321500
1946,000000	11,296800
1945,000000	11,244700
1944,000000	11,230200
1943,000000	11,183900
1942,000000	11,139100
1941,000000	11,138100
1940,000000	11,119500
1939,000000	11,110000
1938,000000	11,091700
1937,000000	11,115100
1936,000000	11,104100
1935,000000	11,105800
1934,000000	11,087800
1933,000000	11,097400
1932,000000	11,130000
1931,000000	11,139400
1930,000000	11,163900
1929,000000	11,217700
1928,000000	11,245500
1927,000000	11,291600
1926,000000	11,326800
1925,000000	11,409500
1924,000000	11,468300
1923,000000	11,502200
1922,000000	11,598700
1921,000000	11,686000
1920,000000	11,809000
1919,000000	11,901000
1918,000000	12,016300
1917,000000	12,129900
1916,000000	12,195200
1915,000000	12,303700
1914,000000	12,451100
1913,000000	12,634100
1912,000000	12,829500
1911,000000	12,986400
1910,000000	13,143800
1909,000000	13,309400
1908,000000	13,443600
1907,000000	13,642600
1906,000000	13,908100
1905,000000	14,201300
1904,000000	14,500700
1903,000000	14,772000
1902,000000	15,069100
1901,000000	15,356900
1900,000000	15,686800
1899,000000	16,069500
1898,000000	16,457300
1897,000000	16,873300
1896,000000	17,194100
1895,000000	17,508800
1894,000000	17,834600
1893,000000	18,204500
1892,000000	18,660500
1891,000000	19,175400
1890,000000	19,628100
1889,000000	20,050600
1888,000000	20,493300
1887,000000	20,882100
1886,000000	21,273000
1885,000000	21,675900
1884,000000	22,108000
1883,000000	22,549000
1882,000000	22,926900
1881,000000	23,282600
1880,000000	23,599800
1879,000000	23,864100
1878,000000	24,161700
1877,000000	24,464800
1876,000000	24,740200
1875,000000	25,023600
1874,000000	25,301300
1873,000000	25,582200
1872,000000	25,865000
1871,000000	26,113300
1870,000000	26,368300
1869,000000	26,608300
1868,000000	26,816700
1867,000000	26,943700
1866,000000	27,043700
1865,000000	27,104100
1864,000000	27,173300
1863,000000	27,213600
1862,000000	27,279500
1861,000000	27,394800
1860,000000	27,504500
1859,000000	27,620600
1858,000000	27,728100
1857,000000	27,798800
1856,000000	27,840900
1855,000000	27,865300
1854,000000	27,927300
1853,000000	27,993600
1852,000000	28,010000
1851,000000	27,988900
1850,000000	27,955700
1849,000000	27,975300
1848,000000	28,038100
1847,000000	28,152200
1846,000000	28,180300
1845,000000	28,108000
1844,000000	28,027400
1843,000000	27,944500
1842,000000	27,943400
1841,000000	27,996700
1840,000000	28,004100
1839,000000	27,981100
1838,000000	27,948400
1837,000000	27,909600
1836,000000	27,899800
1835,000000	27,884700
1834,000000	27,838200
1833,000000	27,754500
1832,000000	27,669500
1831,000000	27,640000
1830,000000	27,629700
1829,000000	27,610200
1828,000000	27,581900
1827,000000	27,549400
1826,000000	27,522700
1825,000000	27,494000
1824,000000	27,435400
1823,000000	27,370800
1822,000000	27,331100
1821,000000	27,372000
1820,000000	27,419700
1819,000000	27,431200
1818,000000	27,395300
1817,000000	27,339400
1816,000000	27,293400
1815,000000	27,279600
1814,000000	27,264600
1813,000000	27,238600
1812,000000	27,212500
1811,000000	27,202200
1810,000000	27,189800
1809,000000	27,152800
1808,000000	27,096300
1807,000000	27,062000
1806,000000	27,051400
1805,000000	27,027600
1804,000000	26,995000
1803,000000	26,960800
1802,000000	26,926900
1801,000000	26,918900
1800,000000	26,896400
1799,000000	26,854800
1798,000000	26,819200
1797,000000	26,803300
1796,000000	26,778300
1795,000000	26,741900
1794,000000	26,725700
1793,000000	26,709300
1792,000000	26,692600
1791,000000	26,677900
1790,000000	26,648700
1789,000000	26,632000
1788,000000	26,622100
1787,000000	26,610700
1786,000000	26,603200
1785,000000	26,603900
1784,000000	26,591100
1783,000000	26,566900
1782,000000	26,545600
1781,000000	26,525200
1780,000000	26,501900
1779,000000	26,472200
1778,000000	26,433800
1777,000000	26,389900
1776,000000	26,352800
1775,000000	26,312200
1774,000000	26,249300
1773,000000	26,181700
1772,000000	26,131100
1771,000000	26,071600
1770,000000	26,013300
1769,000000	25,942100
1768,000000	25,881500
1767,000000	25,825200
1766,000000	25,754300
1765,000000	25,691100
1764,000000	25,646500
1763,000000	25,608500
1762,000000	25,564300
1761,000000	25,540000
1760,000000	25,539200
1759,000000	25,521300
1758,000000	25,523000
1757,000000	25,518300
1756,000000	25,503000
1755,000000	25,490100
1754,000000	25,474000
1753,000000	25,459200
1752,000000	25,449100
1751,000000	25,437500
1750,000000	25,431700
1749,000000	25,399800
1748,000000	25,357600
1747,000000	25,329300
1746,000000	25,293000
1745,000000	25,235700
1744,000000	25,197500
1743,000000	25,147100
1742,000000	25,090200
1741,000000	25,033100
1740,000000	24,970100
1739,000000	24,907700
1738,000000	24,843900
1737,000000	24,783900
1736,000000	24,724300
1735,000000	24,662200
1734,000000	24,613200
1733,000000	24,540100
1732,000000	24,485600
1731,000000	24,436600
1730,000000	24,405100
1729,000000	24,362200
1728,000000	24,321300
1727,000000	24,305700
1726,000000	24,295000
1725,000000	24,287800
1724,000000	24,307000
1723,000000	24,320800
1722,000000	24,369500
1721,000000	24,445200
1720,000000	24,537900
1719,000000	24,663200
1718,000000	24,796000
1717,000000	24,923700
1716,000000	25,063600
1715,000000	25,205500
1714,000000	25,361100
1713,000000	25,502300
1712,000000	25,619400
1711,000000	25,740700
1710,000000	25,831200
1709,000000	25,917600
1708,000000	26,013900
1707,000000	26,111500
1706,000000	26,161600
1705,000000	26,198900
1704,000000	26,264200
1703,000000	26,316900
1702,000000	26,355900
1701,000000	26,404400
1700,000000	26,446900
1699,000000	26,499700
1698,000000	26,547400
1697,000000	26,581700
1696,000000	26,614600
1695,000000	26,631100
1694,000000	26,627600
1693,000000	26,631400
1692,000000	26,629500
1691,000000	26,635500
1690,000000	26,636500
1689,000000	26,691900
1688,000000	26,752600
1687,000000	26,834200
1686,000000	26,970700
1685,000000	27,145300
1684,000000	27,326500
1683,000000	27,516800
1682,000000	27,736500
1681,000000	27,927800
1680,000000	28,159700
1679,000000	28,359400
1678,000000	28,563000
1677,000000	28,759200
1676,000000	28,967000
1675,000000	29,122700
1674,000000	29,307800
1673,000000	29,509800
1672,000000	29,684600
1671,000000	29,851000
1670,000000	30,020100
1669,000000	30,206700
1668,000000	30,363400
1667,000000	30,543800
1666,000000	30,673400
1665,000000	30,814600
1664,000000	30,980100
1663,000000	31,093300
1662,000000	31,220700
1661,000000	31,342400
1660,000000	31,481900
1659,000000	31,588300
1658,000000	31,676000
1657,000000	31,784800
1656,000000	31,873000
1655,000000	31,907900
1654,000000	31,982100
1653,000000	32,016300
1652,000000	32,033500
1651,000000	32,057700
1650,000000	32,066400
1649,000000	32,078300
1648,000000	32,082700
1647,000000	32,050600
1646,000000	32,052300
1645,000000	32,049700
1644,000000	32,039300
1643,000000	32,022700
1642,000000	32,025400
1641,000000	31,982200
1640,000000	31,983600
1639,000000	31,967900
1638,000000	31,965100
1637,000000	31,926300
1636,000000	31,907400
1635,000000	31,879900
1634,000000	31,849700
1633,000000	31,818700
1632,000000	31,791200
1631,000000	31,750400
1630,000000	31,705800
1629,000000	31,658900
1628,000000	31,601200
1627,000000	31,555100
1626,000000	31,521400
1625,000000	31,486600
1624,000000	31,441000
1623,000000	31,405800
1622,000000	31,355500
1621,000000	31,303300
1620,000000	31,278400
1619,000000	31,220900
1618,000000	31,200500
1617,000000	31,172500
1616,000000	31,125100
1615,000000	31,084100
1614,000000	31,039300
1613,000000	30,999700
1612,000000	30,950300
1611,000000	30,913700
1610,000000	30,845300
1609,000000	30,789900
1608,000000	30,729800
1607,000000	30,667300
1606,000000	30,598700
1605,000000	30,528400
1604,000000	30,465400
1603,000000	30,395100
1602,000000	30,314100
1601,000000	30,242400
1600,000000	30,168200
1599,000000	30,072400
1598,000000	30,010800
1597,000000	29,948200
1596,000000	29,886100
1595,000000	29,802600
1594,000000	29,736100
1593,000000	29,674700
1592,000000	29,621400
1591,000000	29,557900
1590,000000	29,491500
1589,000000	29,437500
1588,000000	29,396600
1587,000000	29,323900
1586,000000	29,283900
1585,000000	29,232900
1584,000000	29,169400
1583,000000	29,121300
1582,000000	29,088200
1581,000000	29,045600
1580,000000	29,011600
1579,000000	28,971000
1578,000000	28,927100
1577,000000	28,896900
1576,000000	28,872200
1575,000000	28,844700
1574,000000	28,828800
1573,000000	28,814100
1572,000000	28,805400
1571,000000	28,795200
1570,000000	28,800100
1569,000000	28,788900
1568,000000	28,789300
1567,000000	28,793200
1566,000000	28,799900
1565,000000	28,812900
1564,000000	28,817700
1563,000000	28,818100
1562,000000	28,795200
1561,000000	28,796800
1560,000000	28,778700
1559,000000	28,737500
1558,000000	28,695900
1557,000000	28,658000
1556,000000	28,609600
1555,000000	28,547300
1554,000000	28,482900
1553,000000	28,404500
1552,000000	28,328200
1551,000000	28,242100
1550,000000	28,159600
1549,000000	28,083200
1548,000000	28,002100
1547,000000	27,909000
1546,000000	27,839300
1545,000000	27,761000
1544,000000	27,688000
1543,000000	27,626500
1542,000000	27,578700
1541,000000	27,539100
1540,000000	27,491600
1539,000000	27,450700
1538,000000	27,404100
1537,000000	27,361700
1536,000000	27,320600
1535,000000	27,263000
1534,000000	27,213900
1533,000000	27,165900
1532,000000	27,120800
1531,000000	27,072100
1530,000000	27,019700
1529,000000	26,965800
1528,000000	26,914600
1527,000000	26,860600
1526,000000	26,803400
1525,000000	26,750100
1524,000000	26,708000
1523,000000	26,649000
1522,000000	26,592600
1521,000000	26,546300
1520,000000	26,490700
1519,000000	26,419700
1518,000000	26,359500
1517,000000	26,313400
1516,000000	26,260900
1515,000000	26,201300
1514,000000	26,139700
1513,000000	26,088900
1512,000000	26,045600
1511,000000	26,000700
1510,000000	25,946300
1509,000000	25,893200
1508,000000	25,842100
1507,000000	25,797900
1506,000000	25,762000
1505,000000	25,709300
1504,000000	25,655700
1503,000000	25,615200
1502,000000	25,568400
1501,000000	25,532400
1500,000000	25,513500
1499,000000	25,475100
1498,000000	25,445800
1497,000000	25,432100
1496,000000	25,412400
1495,000000	25,396300
1494,000000	25,390200
1493,000000	25,397800
1492,000000	25,398900
1491,000000	25,400300
1490,000000	25,410600
1489,000000	25,421100
1488,000000	25,433900
1487,000000	25,461100
1486,000000	25,484800
1485,000000	25,489700
1484,000000	25,506700
1483,000000	25,519500
1482,000000	25,521500
1481,000000	25,548900
1480,000000	25,568100
1479,000000	25,587800
1478,000000	25,603000
1477,000000	25,608700
1476,000000	25,632700
1475,000000	25,655700
1474,000000	25,671800
1473,000000	25,695300
1472,000000	25,733700
1471,000000	25,775800
1470,000000	25,800800
1469,000000	25,835400
1468,000000	25,870800
1467,000000	25,914100
1466,000000	25,952800
1465,000000	25,999000
1464,000000	26,041100
1463,000000	26,117800
1462,000000	26,165100
1461,000000	26,217400
1460,000000	26,283400
1459,000000	26,350200
1458,000000	26,412300
1457,000000	26,473200
1456,000000	26,548600
1455,000000	26,632700
1454,000000	26,717400
1453,000000	26,763100
1452,000000	26,830400
1451,000000	26,924000
1450,000000	26,996600
1449,000000	27,065100
1448,000000	27,127300
1447,000000	27,186600
1446,000000	27,274800
1445,000000	27,363900
1444,000000	27,467400
1443,000000	27,511600
1442,000000	27,581400
1441,000000	27,683600
1440,000000	27,762300
1439,000000	27,859900
1438,000000	27,951800
1437,000000	28,075800
1436,000000	28,167900
1435,000000	28,261500
1434,000000	28,394500
1433,000000	28,491800
1432,000000	28,638600
1431,000000	28,779800
1430,000000	28,907400
1429,000000	29,024800
1428,000000	29,182800
1427,000000	29,361500
1426,000000	29,521800
1425,000000	29,712800
1424,000000	29,905800
1423,000000	30,123000
1422,000000	30,336500
1421,000000	30,523300
1420,000000	30,759500
1419,000000	31,049600
1418,000000	31,330300
1417,000000	31,556800
1416,000000	31,781600
1415,000000	32,074900
1414,000000	32,433900
1413,000000	32,810000
1412,000000	33,118900
1411,000000	33,402800
1410,000000	33,754400
1409,000000	34,210800
1408,000000	34,637000
1407,000000	35,090400
1406,000000	35,453000
1405,000000	35,917000
1404,000000	36,350200
1403,000000	36,833200
1402,000000	37,152900
1401,000000	37,576300
1400,000000	38,177500
1399,000000	38,700200
1398,000000	38,983300
1397,000000	39,237800
1396,000000	39,681600
1395,000000	40,224200
1394,000000	40,649000
1393,000000	40,929200
1392,000000	41,286600
1391,000000	41,707800
1390,000000	42,077300
1389,000000	42,363800
1388,000000	42,891900
1387,000000	43,331100
1386,000000	43,728300
1385,000000	44,071400
1384,000000	44,461300
1383,000000	44,828900
1382,000000	45,181200
1381,000000	45,557400
1380,000000	45,798000
1379,000000	46,017700
1378,000000	46,220400
1377,000000	46,344100
1376,000000	46,546000
1375,000000	46,729000
1374,000000	46,914400
1373,000000	47,087000
1372,000000	47,283200
1371,000000	47,527600
1370,000000	47,752300
1369,000000	47,893500
1368,000000	48,108300
1367,000000	48,320200
1366,000000	48,443400
1365,000000	48,613600
1364,000000	48,811400
1363,000000	48,886600
1362,000000	49,069100
1361,000000	49,221000
1360,000000	49,403200
1359,000000	49,448400
1358,000000	49,540700
1357,000000	49,635200
1356,000000	49,755900
1355,000000	49,949900
1354,000000	50,173000
1353,000000	50,361900
1352,000000	50,541300
1351,000000	50,729800
1350,000000	50,935900
1349,000000	51,145800
1348,000000	51,351500
1347,000000	51,589700
1346,000000	51,795300
1345,000000	51,981800
1344,000000	52,190400
1343,000000	52,396300
1342,000000	52,581900
1341,000000	52,757300
1340,000000	52,960800
1339,000000	53,115600
1338,000000	53,305500
1337,000000	53,441800
1336,000000	53,613500
1335,000000	53,762400
1334,000000	53,880900
1333,000000	54,015300
1332,000000	54,155900
1331,000000	54,286400
1330,000000	54,404900
1329,000000	54,507800
1328,000000	54,606500
1327,000000	54,724600
1326,000000	54,827800
1325,000000	54,915500
1324,000000	54,975900
1323,000000	55,059900
1322,000000	55,137200
1321,000000	55,205700
1320,000000	55,283400
1319,000000	55,350100
1318,000000	55,410900
1317,000000	55,473600
1316,000000	55,525200
1315,000000	55,578200
1314,000000	55,640500
1313,000000	55,695200
1312,000000	55,742900
1311,000000	55,795400
1310,000000	55,829200
1309,000000	55,858200
1308,000000	55,877600
1307,000000	55,904200
1306,000000	55,911200
1305,000000	55,923400
1304,000000	55,937000
1303,000000	55,950100
1302,000000	55,949200
1301,000000	55,952500
1300,000000	55,959800
1299,000000	55,954400
1298,000000	55,945600
1297,000000	55,934100
1296,000000	55,927300
1295,000000	55,926400
1294,000000	55,899300
1293,000000	55,867400
1292,000000	55,855500
1291,000000	55,834800
1290,000000	55,790600
1289,000000	55,763600
1288,000000	55,737500
1287,000000	55,702500
1286,000000	55,672200
1285,000000	55,619300
1284,000000	55,575700
1283,000000	55,541900
1282,000000	55,491600
1281,000000	55,431500
1280,000000	55,402600
1279,000000	55,355600
1278,000000	55,321400
1277,000000	55,298700
1276,000000	55,279300
1275,000000	55,273800
1274,000000	55,256700
1273,000000	55,257900
1272,000000	55,252100
1271,000000	55,243400
1270,000000	55,255900
1269,000000	55,250500
1268,000000	55,236900
1267,000000	55,237200
1266,000000	55,240400
1265,000000	55,246700
1264,000000	55,225000
1263,000000	55,202000
1262,000000	55,193100
1261,000000	55,176800
1260,000000	55,151400
1259,000000	55,120300
1258,000000	55,083300
1257,000000	55,037400
1256,000000	54,997400
1255,000000	54,963700
1254,000000	54,898800
1253,000000	54,839900
1252,000000	54,778900
1251,000000	54,700500
1250,000000	54,639200
1249,000000	54,556600
1248,000000	54,462600
1247,000000	54,365600
1246,000000	54,273500
1245,000000	54,176800
1244,000000	54,079300
1243,000000	53,988400
1242,000000	53,899100
1241,000000	53,803600
1240,000000	53,703100
1239,000000	53,616200
1238,000000	53,534000
1237,000000	53,440600
1236,000000	53,345700
1235,000000	53,256600
1234,000000	53,175400
1233,000000	53,068000
1232,000000	52,961400
1231,000000	52,856300
1230,000000	52,739400
1229,000000	52,619600
1228,000000	52,489900
1227,000000	52,350800
1226,000000	52,209200
1225,000000	52,059600
1224,000000	51,887600
1223,000000	51,717800
1222,000000	51,560100
1221,000000	51,384400
1220,000000	51,200600
1219,000000	51,028100
1218,000000	50,853200
1217,000000	50,681300
1216,000000	50,522400
1215,000000	50,383200
1214,000000	50,252400
1213,000000	50,118000
1212,000000	49,980500
1211,000000	49,861100
1210,000000	49,733600
1209,000000	49,608700
1208,000000	49,512800
1207,000000	49,436400
1206,000000	49,355100
1205,000000	49,276100
1204,000000	49,183000
1203,000000	49,088200
1202,000000	49,006500
1201,000000	48,927400
1200,000000	48,848700
1199,000000	48,779200
1198,000000	48,700700
1197,000000	48,600900
1196,000000	48,512800
1195,000000	48,418800
1194,000000	48,305800
1193,000000	48,204500
1192,000000	48,120100
1191,000000	48,038100
1190,000000	47,967200
1189,000000	47,900100
1188,000000	47,854200
1187,000000	47,845600
1186,000000	47,848300
1185,000000	47,889700
1184,000000	47,945200
1183,000000	48,004600
1182,000000	48,085000
1181,000000	48,203000
1180,000000	48,300600
1179,000000	48,398100
1178,000000	48,501600
1177,000000	48,594500
1176,000000	48,688600
1175,000000	48,776500
1174,000000	48,853800
1173,000000	48,936300
1172,000000	49,034700
1171,000000	49,128200
1170,000000	49,209600
1169,000000	49,310800
1168,000000	49,410800
1167,000000	49,524500
1166,000000	49,656000
1165,000000	49,794100
1164,000000	49,946900
1163,000000	50,108800
1162,000000	50,294700
1161,000000	50,460600
1160,000000	50,641000
1159,000000	50,801700
1158,000000	50,997100
1157,000000	51,166100
1156,000000	51,297900
1155,000000	51,444300
1154,000000	51,570400
1153,000000	51,676800
1152,000000	51,801400
1151,000000	51,898800
1150,000000	51,991400
1149,000000	52,094300
1148,000000	52,175800
1147,000000	52,270000
1146,000000	52,375600
1145,000000	52,482000
1144,000000	52,581600
1143,000000	52,684700
1142,000000	52,798400
1141,000000	52,892900
1140,000000	52,998100
1139,000000	53,120200
1138,000000	53,237700
1137,000000	53,343900
1136,000000	53,466600
1135,000000	53,622500
1134,000000	53,772500
1133,000000	53,895900
1132,000000	53,954800
1131,000000	53,999800
1130,000000	54,065000
1129,000000	54,140600
1128,000000	54,183400
1127,000000	54,245600
1126,000000	54,259300
1125,000000	54,307900
1124,000000	54,291400
1123,000000	54,303200
1122,000000	54,282500
1121,000000	54,255300
1120,000000	54,224400
1119,000000	54,182000
1118,000000	54,137400
1117,000000	54,100200
1116,000000	54,054800
1115,000000	53,996300
1114,000000	53,934500
1113,000000	53,880100
1112,000000	53,826500
1111,000000	53,778200
1110,000000	53,723600
1109,000000	53,674700
1108,000000	53,611700
1107,000000	53,535000
1106,000000	53,478200
1105,000000	53,417800
1104,000000	53,366000
1103,000000	53,287800
1102,000000	53,223800
1101,000000	53,155800
1100,000000	53,113300
1099,000000	53,052900
1098,000000	52,992000
1097,000000	52,889400
1096,000000	52,840700
1095,000000	52,773900
1094,000000	52,677200
1093,000000	52,603200
1092,000000	52,539800
1091,000000	52,460500
1090,000000	52,369900
1089,000000	52,281400
1088,000000	52,204200
1087,000000	52,123100
1086,000000	52,053600
1085,000000	51,965200
1084,000000	51,851000
1083,000000	51,753300
1082,000000	51,687700
1081,000000	51,569100
1080,000000	51,491300
1079,000000	51,388000
1078,000000	51,299300
1077,000000	51,221100
1076,000000	51,105300
1075,000000	51,003800
1074,000000	50,892700
1073,000000	50,812200
1072,000000	50,721900
1071,000000	50,616900
1070,000000	50,529300
1069,000000	50,392000
1068,000000	50,319200
1067,000000	50,221400
1066,000000	50,108100
1065,000000	50,005200
1064,000000	49,906900
1063,000000	49,788700
1062,000000	49,695300
1061,000000	49,579200
1060,000000	49,454100
1059,000000	49,357900
1058,000000	49,257200
1057,000000	49,154300
1056,000000	49,058700
1055,000000	48,939000
1054,000000	48,846900
1053,000000	48,727500
1052,000000	48,616700
1051,000000	48,521900
1050,000000	48,405100
1049,000000	48,301400
1048,000000	48,207700
1047,000000	48,113800
1046,000000	48,018800
1045,000000	47,898000
1044,000000	47,804000
1043,000000	47,691900
1042,000000	47,609800
1041,000000	47,498500
1040,000000	47,379200
1039,000000	47,307600
1038,000000	47,203000
1037,000000	47,101000
1036,000000	46,999300
1035,000000	46,900400
1034,000000	46,803800
1033,000000	46,685700
1032,000000	46,595800
1031,000000	46,493300
1030,000000	46,377500
1029,000000	46,276900
1028,000000	46,178900
1027,000000	46,064600
1026,000000	45,988700
1025,000000	45,875100
1024,000000	45,757200
1023,000000	45,648300
1022,000000	45,561200
1021,000000	45,452600
1020,000000	45,348400
1019,000000	45,263900
1018,000000	45,145800
1017,000000	45,060700
1016,000000	44,964800
1015,000000	44,865200
1014,000000	44,789100
1013,000000	44,686400
1012,000000	44,588300
1011,000000	44,496900
1010,000000	44,407300
1009,000000	44,326300
1008,000000	44,232600
1007,000000	44,127100
1006,000000	44,032700
1005,000000	43,954800
1004,000000	43,871300
1003,000000	43,771100
1002,000000	43,682400
1001,000000	43,579400
1000,000000	43,491900
999,000000	43,405200
998,000000	43,292300
997,000000	43,179400
996,000000	43,091500
995,000000	43,007700
994,000000	42,916100
993,000000	42,822200
992,000000	42,713300
991,000000	42,639100
990,000000	42,544800
989,000000	42,434200
988,000000	42,333600
987,000000	42,244100
986,000000	42,160000
985,000000	42,049300
984,000000	41,953500
983,000000	41,865400
982,000000	41,768200
981,000000	41,666100
980,000000	41,575000
979,000000	41,483200
978,000000	41,382300
977,000000	41,293200
976,000000	41,202800
975,000000	41,106400
974,000000	41,006300
973,000000	40,907200
972,000000	40,815200
971,000000	40,722900
970,000000	40,632900
969,000000	40,533300
968,000000	40,435200
967,000000	40,325000
966,000000	40,241300
965,000000	40,155800
964,000000	40,066000
963,000000	39,981400
962,000000	39,884100
961,000000	39,794900
960,000000	39,711400
959,000000	39,617300
958,000000	39,526800
957,000000	39,432400
956,000000	39,351100
955,000000	39,266200
954,000000	39,169900
953,000000	39,093200
952,000000	39,010900
951,000000	38,904100
950,000000	38,835200
949,000000	38,756900
948,000000	38,640600
947,000000	38,538900
946,000000	38,457600
945,000000	38,357900
944,000000	38,250900
943,000000	38,155100
942,000000	38,060500
941,000000	37,960600
940,000000	37,859000
939,000000	37,778200
938,000000	37,678900
937,000000	37,567000
936,000000	37,471100
935,000000	37,377700
934,000000	37,284500
933,000000	37,216000
932,000000	37,129900
931,000000	37,033200
930,000000	36,937800
929,000000	36,860600
928,000000	36,778200
927,000000	36,680300
926,000000	36,583100
925,000000	36,490200
924,000000	36,413800
923,000000	36,337300
922,000000	36,246500
921,000000	36,170900
920,000000	36,090900
919,000000	36,019600
918,000000	35,946000
917,000000	35,864900
916,000000	35,808100
915,000000	35,733500
914,000000	35,675700
913,000000	35,616900
912,000000	35,560400
911,000000	35,520000
910,000000	35,466700
909,000000	35,400400
908,000000	35,357300
907,000000	35,312200
906,000000	35,266600
905,000000	35,229600
904,000000	35,195800
903,000000	35,166000
902,000000	35,129400
901,000000	35,089100
900,000000	35,065600
899,000000	35,043700
898,000000	35,034900
897,000000	35,022500
896,000000	35,000700
895,000000	34,971000
894,000000	34,983500
893,000000	34,962800
892,000000	34,935400
891,000000	34,937000
890,000000	34,924400
889,000000	34,907100
888,000000	34,917400
887,000000	34,908100
886,000000	34,907800
885,000000	34,904500
884,000000	34,909400
883,000000	34,913700
882,000000	34,928100
881,000000	34,939200
880,000000	34,946700
879,000000	34,955000
878,000000	34,967900
877,000000	34,961700
876,000000	34,965400
875,000000	34,944200
874,000000	34,896700
873,000000	34,890600
872,000000	34,927300
871,000000	34,984200
870,000000	35,061300
869,000000	35,145600
868,000000	35,220200
867,000000	35,292500
866,000000	35,372400
865,000000	35,451100
864,000000	35,545200
863,000000	35,602400
862,000000	35,726900
861,000000	35,782300
860,000000	35,848200
859,000000	35,962200
858,000000	36,050000
857,000000	39,438900
856,000000	39,941700
855,000000	40,198800
854,000000	39,860400
853,000000	39,979800
852,000000	40,352300
851,000000	40,458700
850,000000	40,869100
849,000000	41,277900
848,000000	41,312800
847,000000	41,196200
846,000000	41,369000
845,000000	41,629200
844,000000	41,716300
843,000000	41,772900
842,000000	41,920200
841,000000	42,437600
840,000000	42,180000
839,000000	42,432800
838,000000	42,561500
837,000000	42,913300
836,000000	42,975800
835,000000	42,947600
834,000000	43,148600
833,000000	43,196900
832,000000	43,497400
831,000000	43,576700
830,000000	43,684800
829,000000	43,800800
828,000000	43,770000
827,000000	43,854900
826,000000	44,022200
825,000000	44,056700
824,000000	44,136300
823,000000	44,078100
822,000000	44,203400
821,000000	44,379400
820,000000	44,515300
819,000000	44,430600
818,000000	44,651600
817,000000	44,652100
816,000000	44,737700
815,000000	44,846900
814,000000	45,044500
813,000000	44,855100
812,000000	45,043400
811,000000	44,875100
810,000000	45,112100
809,000000	45,220600
808,000000	45,305800
807,000000	45,250900
806,000000	45,265700
805,000000	45,392600
804,000000	45,543500
803,000000	45,567700
802,000000	45,589100
801,000000	45,684400
800,000000	45,728400
799,000000	45,551700
798,000000	45,618700
797,000000	45,596700
796,000000	45,827000
795,000000	45,776700
794,000000	45,690600
793,000000	45,788600
792,000000	45,754600
791,000000	45,739000
790,000000	45,754100
789,000000	45,827200
788,000000	45,849800
787,000000	45,836000
786,000000	45,818500
785,000000	45,812000
784,000000	45,729800
783,000000	45,781800
782,000000	45,687600
781,000000	45,790500
780,000000	45,693600
779,000000	45,629000
778,000000	45,676400
777,000000	45,496100
776,000000	45,501000
775,000000	45,420700
774,000000	45,426100
773,000000	45,478300
772,000000	45,488400
771,000000	45,341200
770,000000	45,243500
769,000000	45,305600
768,000000	45,140500
767,000000	45,072600
766,000000	45,086100
765,000000	45,051600
764,000000	44,931800
763,000000	44,811300
762,000000	44,827500
761,000000	44,715300
760,000000	44,597500
759,000000	44,434500
758,000000	44,428600
757,000000	44,294300
756,000000	44,212800
755,000000	44,104800
754,000000	43,977300
753,000000	43,897100
752,000000	43,912300
751,000000	43,733800
750,000000	43,592600
749,000000	43,543300
748,000000	43,425600
747,000000	43,306600
746,000000	43,183100
745,000000	43,106400
744,000000	42,977500
743,000000	42,829300
742,000000	42,689600
741,000000	42,550100
740,000000	42,383300
739,000000	42,232600
738,000000	42,070700
737,000000	41,953500
736,000000	41,811500
735,000000	41,689900
734,000000	41,537800
733,000000	41,331600
732,000000	41,179600
731,000000	40,978400
730,000000	40,839200
729,000000	40,649700
728,000000	40,533600
727,000000	40,266100
726,000000	40,041700
725,000000	39,856100
724,000000	39,643000
723,000000	39,447500
722,000000	39,267000
721,000000	39,025400
720,000000	38,859200
719,000000	38,654700
718,000000	38,456900
717,000000	38,183900
716,000000	38,007900
715,000000	37,772100
714,000000	37,553000
713,000000	37,369800
712,000000	37,154100
711,000000	36,915400
710,000000	36,695400
709,000000	36,433600
708,000000	36,188600
707,000000	35,916100
706,000000	35,631000
705,000000	35,392000
704,000000	35,148500
703,000000	34,888800
702,000000	34,594100
701,000000	34,341700
700,000000	34,044600
699,000000	33,817000
698,000000	33,563100
697,000000	33,310800
696,000000	33,014200
695,000000	32,741000
694,000000	32,505200
693,000000	32,260800
692,000000	31,974100
691,000000	31,715300
690,000000	31,457900
689,000000	31,213500
688,000000	30,965800
687,000000	30,681600
686,000000	30,449000
685,000000	30,225300
684,000000	29,953800
683,000000	29,701700
682,000000	29,487200
681,000000	29,245200
680,000000	29,024100
679,000000	28,766900
678,000000	28,552600
677,000000	28,345300
676,000000	28,142300
675,000000	27,911600
674,000000	27,726400
673,000000	27,559200
672,000000	27,333300
671,000000	27,156400
670,000000	27,001200
669,000000	26,821600
668,000000	26,653600
667,000000	26,499400
666,000000	26,333500
665,000000	26,189300
664,000000	26,070100
663,000000	25,940800
662,000000	25,828100
661,000000	25,703000
660,000000	25,600200
659,000000	25,507700
658,000000	25,406200
657,000000	25,314300
656,000000	25,242500
655,000000	25,193100
654,000000	25,128600
653,000000	25,076100
652,000000	25,041600
651,000000	25,012100
650,000000	25,012800
649,000000	24,991200
648,000000	24,962400
647,000000	24,971100
646,000000	25,005200
645,000000	25,032700
644,000000	25,063500
643,000000	25,119300
642,000000	25,181300
641,000000	25,244900
640,000000	25,327600
639,000000	25,399800
638,000000	25,473100
637,000000	25,576700
636,000000	25,672400
635,000000	25,753400
634,000000	25,848600
633,000000	25,955300
632,000000	26,051900
631,000000	26,153200
630,000000	26,262100
629,000000	26,380400
628,000000	26,498400
627,000000	26,625400
626,000000	26,747300
625,000000	26,864200
624,000000	26,996900
623,000000	27,115000
622,000000	27,214900
621,000000	27,341800
620,000000	27,462100
619,000000	27,592000
618,000000	27,701900
617,000000	27,817600
616,000000	27,945700
615,000000	28,063200
614,000000	28,178800
613,000000	28,299500
612,000000	28,439300
611,000000	28,566800
610,000000	28,691200
609,000000	28,821300
608,000000	28,912000
607,000000	29,018100
606,000000	29,097300
605,000000	29,211800
604,000000	29,336100
603,000000	29,429600
602,000000	29,539700
601,000000	29,636400
600,000000	29,709000
599,000000	29,775400
598,000000	29,863300
597,000000	29,952200
596,000000	30,040500
595,000000	30,086400
594,000000	30,146700
593,000000	30,191200
592,000000	30,240400
591,000000	30,282800
590,000000	30,313800
589,000000	30,346700
588,000000	30,384500
587,000000	30,396300
586,000000	30,432400
585,000000	30,434800
584,000000	30,427300
583,000000	30,418000
582,000000	30,413200
581,000000	30,395000
580,000000	30,385500
579,000000	30,354000
578,000000	30,311700
577,000000	30,258800
576,000000	30,231800
575,000000	30,170200
574,000000	30,110900
573,000000	30,030300
572,000000	29,954300
571,000000	29,887600
570,000000	29,799400
569,000000	29,719300
568,000000	29,611000
567,000000	29,508300
566,000000	29,382300
565,000000	29,266800
564,000000	29,108400
563,000000	28,985100
562,000000	28,824000
561,000000	28,651900
560,000000	28,498400
559,000000	28,324300
558,000000	28,132200
557,000000	27,977000
556,000000	27,785500
555,000000	27,582100
554,000000	27,378500
553,000000	27,164600
552,000000	26,932100
551,000000	26,700700
550,000000	26,458300
549,000000	26,227900
548,000000	26,003400
547,000000	25,759900
546,000000	25,520500
545,000000	25,262800
544,000000	24,990600
543,000000	24,741300
542,000000	24,463700
541,000000	24,189300
540,000000	23,919100
539,000000	23,672600
538,000000	23,394100
537,000000	23,128100
536,000000	22,851800
535,000000	22,554500
534,000000	22,278300
533,000000	21,992100
532,000000	21,695000
531,000000	21,412500
530,000000	21,139000
529,000000	20,844300
528,000000	20,563500
527,000000	20,272300
526,000000	19,989600
525,000000	19,700800
524,000000	19,409500
523,000000	19,120400
522,000000	18,835900
521,000000	18,535500
520,000000	18,275500
519,000000	17,991200
518,000000	17,693800
517,000000	17,434900
516,000000	17,166200
515,000000	16,908500
514,000000	16,631800
513,000000	16,381500
512,000000	16,122700
511,000000	15,888100
510,000000	15,643100
509,000000	15,397600
508,000000	15,184100
507,000000	14,966400
506,000000	14,752300
505,000000	14,544700
504,000000	14,373700
503,000000	14,170600
502,000000	13,987900
501,000000	13,805100
500,000000	13,641600
499,000000	13,501500
498,000000	13,334400
497,000000	13,194900
496,000000	13,073300
495,000000	12,948700
494,000000	12,825500
493,000000	12,720600
492,000000	12,626200
491,000000	12,528100
490,000000	12,410300
489,000000	12,305000
488,000000	12,246500
487,000000	12,160600
486,000000	12,084300
485,000000	12,002600
484,000000	11,922400
483,000000	11,846500
482,000000	11,759300
481,000000	11,660100
480,000000	11,565900
479,000000	11,474500
478,000000	11,402200
477,000000	11,338200
476,000000	11,245200
475,000000	11,166300
474,000000	11,098800
473,000000	11,029500
472,000000	10,951000
471,000000	10,881400
470,000000	10,812100
469,000000	10,734000
468,000000	10,659900
467,000000	10,589900
466,000000	10,519900
465,000000	10,450800
464,000000	10,373300
463,000000	10,301700
462,000000	10,232600
461,000000	10,169100
460,000000	10,101600
459,000000	10,023800
458,000000	9,959200
457,000000	9,875700
456,000000	9,803900
455,000000	9,723500
454,000000	9,657400
453,000000	9,567400
452,000000	9,510600
451,000000	9,409500
450,000000	9,307500
449,000000	9,237900
448,000000	9,138900
447,000000	9,039300
446,000000	8,977600
445,000000	8,878100
444,000000	8,799300
443,000000	8,714100
442,000000	8,598500
441,000000	8,485500
440,000000	8,383700
439,000000	8,279600
438,000000	8,179600
437,000000	8,078600
436,000000	7,982900
435,000000	7,900500
434,000000	7,801700
433,000000	7,695600
432,000000	7,609200
431,000000	7,521500
430,000000	7,423700
429,000000	7,342600
428,000000	7,268700
427,000000	7,175600
426,000000	7,112100
425,000000	7,013800
424,000000	6,938400
423,000000	6,859500
422,000000	6,775300
421,000000	6,705200
420,000000	6,639600
419,000000	6,567100
418,000000	6,489500
417,000000	6,428400
416,000000	6,354200
415,000000	6,298900
414,000000	6,242300
413,000000	6,167100
412,000000	6,096000
411,000000	6,045000
410,000000	5,985600
409,000000	5,904500
408,000000	5,840000
407,000000	5,786100
406,000000	5,731500
405,000000	5,690400
404,000000	5,649500
403,000000	5,584700
402,000000	5,539800
401,000000	5,487300
400,000000	5,439100
399,000000	5,375600
398,000000	5,326400
397,000000	5,303200
396,000000	5,241700
395,000000	5,204300
394,000000	5,153300
393,000000	5,138000
392,000000	5,106600
391,000000	5,060500
390,000000	5,013600
389,000000	4,977300
388,000000	4,951100
387,000000	4,921700
386,000000	4,900000
385,000000	4,851400
384,000000	4,836100
383,000000	4,812800
382,000000	4,795900
381,000000	4,767100
380,000000	4,755200
379,000000	4,737100
378,000000	4,697900
377,000000	4,696200
376,000000	4,755800
375,000000	4,569900
374,000000	4,166500
373,000000	4,138800
372,000000	4,070400
371,000000	4,387600
370,000000	4,379600
369,000000	4,349200
368,000000	4,463700
367,000000	4,427000
366,000000	4,522900
365,000000	4,529400
364,000000	4,589800
363,000000	4,602200
362,000000	4,524300
361,000000	4,483900
360,000000	4,477900
359,000000	4,624300
358,000000	4,663500
357,000000	4,442300
356,000000	4,461900
355,000000	4,527300
354,000000	4,651600
353,000000	4,788100
352,000000	4,788700
351,000000	4,616100
350,000000	4,707600
349,000000	4,798600
348,000000	4,603300
347,000000	4,584400
346,000000	4,691200
345,000000	4,900900
344,000000	4,803900
343,000000	4,592100
342,000000	4,585900
341,000000	4,682100
340,000000	4,829800
339,000000	4,735500
338,000000	4,599100
337,000000	4,682300
336,000000	4,882900
335,000000	4,739100
334,000000	4,615500
333,000000	4,779200
332,000000	4,695500
331,000000	4,630100
330,000000	4,760400
329,000000	4,751000
328,000000	4,908200
327,000000	5,281700
326,000000	5,108600
325,000000	5,236600
324,000000	5,637700
323,000000	5,186400
322,000000	5,097500
321,000000	5,418200
320,000000	5,159000
319,000000	5,623800
318,000000	6,344500
317,000000	6,374100
316,000000	5,382400
315,000000	4,616400
314,000000	4,604800
313,000000	4,625200
312,000000	4,653000
311,000000	4,630300
310,000000	4,620600
309,000000	4,655600
308,000000	4,675700
307,000000	4,694100
306,000000	4,734100
305,000000	4,711500
304,000000	4,672600
303,000000	4,644300
302,000000	4,662300
301,000000	4,681400
300,000000	4,688300
299,000000	4,721800
298,000000	4,720800
297,000000	4,736900
296,000000	4,724500
295,000000	4,732400
294,000000	4,696400
293,000000	4,710400
292,000000	4,796700
291,000000	4,785300
290,000000	4,758200
289,000000	4,762200
288,000000	4,755400
287,000000	4,751200
286,000000	4,788800
285,000000	4,804900
284,000000	4,763000
283,000000	4,740300
282,000000	4,750100
281,000000	4,784000
280,000000	4,806600
279,000000	4,783500
278,000000	4,808200
277,000000	4,831700
276,000000	4,824000
275,000000	4,818100
274,000000	4,844000
273,000000	4,875700
272,000000	4,863200
271,000000	4,919400
270,000000	4,941600
269,000000	4,940600
268,000000	4,917600
267,000000	4,945700
266,000000	4,951200
265,000000	4,970500
264,000000	4,981400
263,000000	5,009100
262,000000	5,021900
261,000000	5,075900
260,000000	5,082600
259,000000	5,098900
258,000000	5,139100
257,000000	5,144000
256,000000	5,142300
255,000000	5,145800
254,000000	5,152000
253,000000	5,177400
252,000000	5,187100
251,000000	5,188600
250,000000	5,193100
