PE UV       SUBTECH     SPECTRUM    ASCII       PEDS        4.00        
   -1
CICIMAUCR0214-3.Sample.ASC
24/06/13
14:41:56.00
24/06/13
14:41:56.00
Vinicio Soto Monge
C. cupreomarginata. Sex M. Ventral 
250,000000
1
Lambda 1050
1050L1511233
PerkinElmer UV WinLab 6.3.2.0749 / 2.02.05 Lambda 900 UV/VIS/NIR, Aug  7 2015 09:38:08

0
0
3350/servo 860,8/2
0
0
UV/VIS
1
1
1
DoubleDePol,CommonBeamDepol,RBeamAtt,SBeamAtt,60mm sphere, WB InGaAs Detector
0
0
0
0
Program
Program
3350/servo 860,8/2
3350/0,2 860,8/0,2
3350/0,2 860,8/0,2
0
15.00
 
 
 
0
 
860,8
319,2
860,8
Front
100
on
S:100 R:100
0
0
0
0
 
0
 
 
 
0
 
 
0
0
0
0
0
 
 
 
 
0
0


0
0
#HDR
-1
-1
#GR
nm
%R
1.0
0.0
2500,000000
-1,000000
2251
8
61,184700
4,155300
#DATA
2500,000000	6,283400
2499,000000	6,350900
2498,000000	6,324400
2497,000000	6,356000
2496,000000	6,182700
2495,000000	6,322800
2494,000000	6,391400
2493,000000	6,277100
2492,000000	6,258300
2491,000000	6,115200
2490,000000	6,210000
2489,000000	6,225800
2488,000000	6,120500
2487,000000	6,138600
2486,000000	6,078500
2485,000000	6,141600
2484,000000	6,142000
2483,000000	6,133700
2482,000000	6,064000
2481,000000	6,083000
2480,000000	6,140500
2479,000000	6,121900
2478,000000	6,108700
2477,000000	6,156000
2476,000000	6,117600
2475,000000	6,050500
2474,000000	6,091500
2473,000000	6,038300
2472,000000	6,081300
2471,000000	6,087000
2470,000000	6,101700
2469,000000	6,080800
2468,000000	6,067000
2467,000000	6,064400
2466,000000	6,118100
2465,000000	6,081100
2464,000000	6,091500
2463,000000	6,108100
2462,000000	6,118200
2461,000000	6,121300
2460,000000	6,137300
2459,000000	6,170200
2458,000000	6,201400
2457,000000	6,222000
2456,000000	6,217300
2455,000000	6,241600
2454,000000	6,278700
2453,000000	6,314200
2452,000000	6,331200
2451,000000	6,353600
2450,000000	6,365200
2449,000000	6,376700
2448,000000	6,446300
2447,000000	6,476000
2446,000000	6,515200
2445,000000	6,542800
2444,000000	6,582000
2443,000000	6,623200
2442,000000	6,660400
2441,000000	6,693600
2440,000000	6,697700
2439,000000	6,768100
2438,000000	6,770400
2437,000000	6,796100
2436,000000	6,839600
2435,000000	6,860600
2434,000000	6,874900
2433,000000	6,919400
2432,000000	6,943600
2431,000000	6,999700
2430,000000	7,019400
2429,000000	7,036700
2428,000000	7,057600
2427,000000	7,078300
2426,000000	7,100000
2425,000000	7,120200
2424,000000	7,147900
2423,000000	7,180100
2422,000000	7,190700
2421,000000	7,195200
2420,000000	7,242500
2419,000000	7,265300
2418,000000	7,266500
2417,000000	7,302300
2416,000000	7,312800
2415,000000	7,330500
2414,000000	7,354000
2413,000000	7,369600
2412,000000	7,375400
2411,000000	7,392100
2410,000000	7,409600
2409,000000	7,425200
2408,000000	7,431900
2407,000000	7,452900
2406,000000	7,478000
2405,000000	7,487200
2404,000000	7,512300
2403,000000	7,542700
2402,000000	7,547900
2401,000000	7,561900
2400,000000	7,573700
2399,000000	7,605600
2398,000000	7,638700
2397,000000	7,672800
2396,000000	7,691200
2395,000000	7,702700
2394,000000	7,711300
2393,000000	7,739300
2392,000000	7,755400
2391,000000	7,771500
2390,000000	7,793100
2389,000000	7,800300
2388,000000	7,802300
2387,000000	7,815600
2386,000000	7,825000
2385,000000	7,823400
2384,000000	7,833700
2383,000000	7,847900
2382,000000	7,859900
2381,000000	7,855200
2380,000000	7,856100
2379,000000	7,861900
2378,000000	7,857300
2377,000000	7,849600
2376,000000	7,846200
2375,000000	7,851800
2374,000000	7,852600
2373,000000	7,838700
2372,000000	7,829900
2371,000000	7,826900
2370,000000	7,819800
2369,000000	7,802000
2368,000000	7,799900
2367,000000	7,796400
2366,000000	7,767900
2365,000000	7,735500
2364,000000	7,722800
2363,000000	7,708100
2362,000000	7,678000
2361,000000	7,661400
2360,000000	7,642800
2359,000000	7,614100
2358,000000	7,601400
2357,000000	7,590400
2356,000000	7,569900
2355,000000	7,548400
2354,000000	7,538800
2353,000000	7,540100
2352,000000	7,535300
2351,000000	7,534100
2350,000000	7,535800
2349,000000	7,545900
2348,000000	7,565500
2347,000000	7,582300
2346,000000	7,596600
2345,000000	7,621700
2344,000000	7,630900
2343,000000	7,653500
2342,000000	7,684700
2341,000000	7,700900
2340,000000	7,714700
2339,000000	7,740600
2338,000000	7,751200
2337,000000	7,756300
2336,000000	7,762600
2335,000000	7,769400
2334,000000	7,769200
2333,000000	7,773600
2332,000000	7,763100
2331,000000	7,747500
2330,000000	7,735600
2329,000000	7,733800
2328,000000	7,707700
2327,000000	7,687400
2326,000000	7,655900
2325,000000	7,628800
2324,000000	7,601800
2323,000000	7,575100
2322,000000	7,536400
2321,000000	7,500900
2320,000000	7,466800
2319,000000	7,417800
2318,000000	7,370300
2317,000000	7,331900
2316,000000	7,283300
2315,000000	7,233500
2314,000000	7,181700
2313,000000	7,143500
2312,000000	7,105400
2311,000000	7,060000
2310,000000	7,029300
2309,000000	6,989700
2308,000000	6,977600
2307,000000	6,961700
2306,000000	6,929300
2305,000000	6,932800
2304,000000	6,933400
2303,000000	6,949800
2302,000000	6,950000
2301,000000	6,968600
2300,000000	6,992600
2299,000000	7,034000
2298,000000	7,070300
2297,000000	7,108500
2296,000000	7,155100
2295,000000	7,202700
2294,000000	7,244400
2293,000000	7,253900
2292,000000	7,295900
2291,000000	7,321300
2290,000000	7,323300
2289,000000	7,353900
2288,000000	7,369900
2287,000000	7,385300
2286,000000	7,382800
2285,000000	7,365400
2284,000000	7,349900
2283,000000	7,354800
2282,000000	7,348300
2281,000000	7,316000
2280,000000	7,296800
2279,000000	7,291800
2278,000000	7,269100
2277,000000	7,254900
2276,000000	7,236300
2275,000000	7,208100
2274,000000	7,194400
2273,000000	7,190800
2272,000000	7,189400
2271,000000	7,176900
2270,000000	7,156700
2269,000000	7,177900
2268,000000	7,195700
2267,000000	7,226200
2266,000000	7,273100
2265,000000	7,309700
2264,000000	7,378400
2263,000000	7,447200
2262,000000	7,519300
2261,000000	7,628800
2260,000000	7,716000
2259,000000	7,813600
2258,000000	7,934200
2257,000000	8,063200
2256,000000	8,218100
2255,000000	8,352900
2254,000000	8,481400
2253,000000	8,618000
2252,000000	8,740800
2251,000000	8,926600
2250,000000	9,039000
2249,000000	9,173300
2248,000000	9,292000
2247,000000	9,407000
2246,000000	9,505200
2245,000000	9,598400
2244,000000	9,688100
2243,000000	9,788000
2242,000000	9,897300
2241,000000	9,944700
2240,000000	10,031800
2239,000000	10,090000
2238,000000	10,160800
2237,000000	10,250900
2236,000000	10,300100
2235,000000	10,332100
2234,000000	10,366000
2233,000000	10,420100
2232,000000	10,463300
2231,000000	10,459800
2230,000000	10,505100
2229,000000	10,524800
2228,000000	10,540500
2227,000000	10,548100
2226,000000	10,532900
2225,000000	10,540100
2224,000000	10,568500
2223,000000	10,527700
2222,000000	10,532000
2221,000000	10,501400
2220,000000	10,525300
2219,000000	10,482400
2218,000000	10,461500
2217,000000	10,443600
2216,000000	10,420400
2215,000000	10,402900
2214,000000	10,389300
2213,000000	10,342600
2212,000000	10,351500
2211,000000	10,314000
2210,000000	10,295500
2209,000000	10,284900
2208,000000	10,274600
2207,000000	10,243200
2206,000000	10,214600
2205,000000	10,235300
2204,000000	10,204700
2203,000000	10,204900
2202,000000	10,191700
2201,000000	10,176100
2200,000000	10,173900
2199,000000	10,177900
2198,000000	10,164200
2197,000000	10,170900
2196,000000	10,150000
2195,000000	10,148800
2194,000000	10,125500
2193,000000	10,123800
2192,000000	10,125700
2191,000000	10,100500
2190,000000	10,106800
2189,000000	10,103400
2188,000000	10,106800
2187,000000	10,084600
2186,000000	10,087300
2185,000000	10,077600
2184,000000	10,053800
2183,000000	10,041600
2182,000000	10,035300
2181,000000	10,025000
2180,000000	10,019600
2179,000000	10,011100
2178,000000	10,003200
2177,000000	9,984600
2176,000000	9,990900
2175,000000	9,981100
2174,000000	9,988200
2173,000000	9,985500
2172,000000	9,987400
2171,000000	9,968200
2170,000000	9,980900
2169,000000	9,992100
2168,000000	9,980100
2167,000000	9,988800
2166,000000	10,006400
2165,000000	10,014900
2164,000000	10,017000
2163,000000	10,028400
2162,000000	10,047700
2161,000000	10,074900
2160,000000	10,090100
2159,000000	10,103000
2158,000000	10,111900
2157,000000	10,137800
2156,000000	10,159700
2155,000000	10,185000
2154,000000	10,201900
2153,000000	10,232300
2152,000000	10,245100
2151,000000	10,291600
2150,000000	10,333400
2149,000000	10,350400
2148,000000	10,388400
2147,000000	10,417500
2146,000000	10,427100
2145,000000	10,457500
2144,000000	10,484700
2143,000000	10,502100
2142,000000	10,523200
2141,000000	10,576400
2140,000000	10,586200
2139,000000	10,604300
2138,000000	10,638000
2137,000000	10,653100
2136,000000	10,675500
2135,000000	10,680100
2134,000000	10,703900
2133,000000	10,712800
2132,000000	10,731400
2131,000000	10,761600
2130,000000	10,778300
2129,000000	10,771700
2128,000000	10,774400
2127,000000	10,783000
2126,000000	10,797600
2125,000000	10,797100
2124,000000	10,794700
2123,000000	10,785900
2122,000000	10,771000
2121,000000	10,766700
2120,000000	10,765200
2119,000000	10,750400
2118,000000	10,757400
2117,000000	10,745700
2116,000000	10,735800
2115,000000	10,721600
2114,000000	10,720200
2113,000000	10,704600
2112,000000	10,674100
2111,000000	10,643700
2110,000000	10,645700
2109,000000	10,645500
2108,000000	10,638900
2107,000000	10,594700
2106,000000	10,578500
2105,000000	10,571600
2104,000000	10,553000
2103,000000	10,530000
2102,000000	10,515700
2101,000000	10,498000
2100,000000	10,475100
2099,000000	10,452300
2098,000000	10,431500
2097,000000	10,412900
2096,000000	10,396700
2095,000000	10,370900
2094,000000	10,348900
2093,000000	10,344000
2092,000000	10,326100
2091,000000	10,310300
2090,000000	10,310300
2089,000000	10,292200
2088,000000	10,277300
2087,000000	10,265500
2086,000000	10,249700
2085,000000	10,242000
2084,000000	10,226400
2083,000000	10,193500
2082,000000	10,162300
2081,000000	10,150000
2080,000000	10,133200
2079,000000	10,097800
2078,000000	10,068800
2077,000000	10,054200
2076,000000	10,031700
2075,000000	10,003000
2074,000000	9,971400
2073,000000	9,944800
2072,000000	9,904700
2071,000000	9,872100
2070,000000	9,851300
2069,000000	9,812400
2068,000000	9,768700
2067,000000	9,736800
2066,000000	9,710500
2065,000000	9,666300
2064,000000	9,636100
2063,000000	9,611700
2062,000000	9,582700
2061,000000	9,569700
2060,000000	9,549000
2059,000000	9,520800
2058,000000	9,502400
2057,000000	9,499500
2056,000000	9,502500
2055,000000	9,511700
2054,000000	9,502400
2053,000000	9,506500
2052,000000	9,523800
2051,000000	9,550900
2050,000000	9,584300
2049,000000	9,621400
2048,000000	9,665300
2047,000000	9,719900
2046,000000	9,762200
2045,000000	9,805900
2044,000000	9,864000
2043,000000	9,904400
2042,000000	9,962200
2041,000000	10,021400
2040,000000	10,080300
2039,000000	10,137400
2038,000000	10,182700
2037,000000	10,236500
2036,000000	10,269600
2035,000000	10,319600
2034,000000	10,359100
2033,000000	10,390800
2032,000000	10,423900
2031,000000	10,471900
2030,000000	10,506100
2029,000000	10,529400
2028,000000	10,532800
2027,000000	10,547800
2026,000000	10,569500
2025,000000	10,598500
2024,000000	10,614000
2023,000000	10,638700
2022,000000	10,650200
2021,000000	10,651400
2020,000000	10,654800
2019,000000	10,652900
2018,000000	10,669900
2017,000000	10,656900
2016,000000	10,659500
2015,000000	10,663300
2014,000000	10,656300
2013,000000	10,653200
2012,000000	10,635700
2011,000000	10,632300
2010,000000	10,609000
2009,000000	10,603100
2008,000000	10,598800
2007,000000	10,576000
2006,000000	10,566900
2005,000000	10,530400
2004,000000	10,479800
2003,000000	10,456700
2002,000000	10,418700
2001,000000	10,384200
2000,000000	10,365100
1999,000000	10,333600
1998,000000	10,285300
1997,000000	10,237900
1996,000000	10,210400
1995,000000	10,158700
1994,000000	10,109000
1993,000000	10,064000
1992,000000	10,024400
1991,000000	9,979000
1990,000000	9,927000
1989,000000	9,873300
1988,000000	9,821200
1987,000000	9,792500
1986,000000	9,717400
1985,000000	9,680700
1984,000000	9,626300
1983,000000	9,547400
1982,000000	9,507000
1981,000000	9,452300
1980,000000	9,405100
1979,000000	9,352600
1978,000000	9,307300
1977,000000	9,252300
1976,000000	9,214600
1975,000000	9,158200
1974,000000	9,083100
1973,000000	9,057200
1972,000000	9,003300
1971,000000	8,955100
1970,000000	8,918600
1969,000000	8,868800
1968,000000	8,826900
1967,000000	8,790100
1966,000000	8,756000
1965,000000	8,699100
1964,000000	8,655800
1963,000000	8,628900
1962,000000	8,560600
1961,000000	8,533300
1960,000000	8,489900
1959,000000	8,458800
1958,000000	8,431000
1957,000000	8,372400
1956,000000	8,343200
1955,000000	8,311000
1954,000000	8,273900
1953,000000	8,244100
1952,000000	8,205700
1951,000000	8,174700
1950,000000	8,130500
1949,000000	8,083700
1948,000000	8,092200
1947,000000	8,041300
1946,000000	8,018400
1945,000000	7,999500
1944,000000	7,970100
1943,000000	7,978500
1942,000000	7,955300
1941,000000	7,939400
1940,000000	7,908500
1939,000000	7,927900
1938,000000	7,905700
1937,000000	7,904700
1936,000000	7,894600
1935,000000	7,903900
1934,000000	7,914500
1933,000000	7,936300
1932,000000	7,928500
1931,000000	7,949900
1930,000000	7,966400
1929,000000	8,000800
1928,000000	8,021500
1927,000000	8,071900
1926,000000	8,114500
1925,000000	8,143300
1924,000000	8,201400
1923,000000	8,264500
1922,000000	8,319100
1921,000000	8,367900
1920,000000	8,436700
1919,000000	8,495200
1918,000000	8,573900
1917,000000	8,645100
1916,000000	8,740800
1915,000000	8,846300
1914,000000	8,926300
1913,000000	9,046800
1912,000000	9,139600
1911,000000	9,262200
1910,000000	9,376500
1909,000000	9,490600
1908,000000	9,617200
1907,000000	9,744100
1906,000000	9,899300
1905,000000	10,068300
1904,000000	10,233400
1903,000000	10,412500
1902,000000	10,578400
1901,000000	10,775300
1900,000000	10,979000
1899,000000	11,183500
1898,000000	11,412900
1897,000000	11,650400
1896,000000	11,903000
1895,000000	12,140000
1894,000000	12,389900
1893,000000	12,658800
1892,000000	12,933900
1891,000000	13,257400
1890,000000	13,595200
1889,000000	13,936700
1888,000000	14,295600
1887,000000	14,657800
1886,000000	15,056900
1885,000000	15,478700
1884,000000	15,939800
1883,000000	16,437700
1882,000000	16,937600
1881,000000	17,454200
1880,000000	17,984400
1879,000000	18,503900
1878,000000	18,957600
1877,000000	19,456800
1876,000000	19,978400
1875,000000	20,413200
1874,000000	20,868200
1873,000000	21,289600
1872,000000	21,728300
1871,000000	22,115400
1870,000000	22,492400
1869,000000	22,856300
1868,000000	23,211100
1867,000000	23,505900
1866,000000	23,759500
1865,000000	23,976900
1864,000000	24,204800
1863,000000	24,380400
1862,000000	24,542000
1861,000000	24,711100
1860,000000	24,884300
1859,000000	25,030100
1858,000000	25,150700
1857,000000	25,248600
1856,000000	25,332400
1855,000000	25,419600
1854,000000	25,469800
1853,000000	25,516400
1852,000000	25,540100
1851,000000	25,587300
1850,000000	25,605800
1849,000000	25,611500
1848,000000	25,615800
1847,000000	25,626700
1846,000000	25,593500
1845,000000	25,550100
1844,000000	25,527400
1843,000000	25,514700
1842,000000	25,532500
1841,000000	25,536100
1840,000000	25,514500
1839,000000	25,479000
1838,000000	25,432100
1837,000000	25,408200
1836,000000	25,376500
1835,000000	25,342400
1834,000000	25,303700
1833,000000	25,245300
1832,000000	25,189900
1831,000000	25,136900
1830,000000	25,085000
1829,000000	25,032800
1828,000000	24,966800
1827,000000	24,888600
1826,000000	24,820800
1825,000000	24,769700
1824,000000	24,715400
1823,000000	24,678600
1822,000000	24,651500
1821,000000	24,628600
1820,000000	24,606700
1819,000000	24,560400
1818,000000	24,512200
1817,000000	24,460300
1816,000000	24,445400
1815,000000	24,464400
1814,000000	24,452700
1813,000000	24,423900
1812,000000	24,410200
1811,000000	24,387700
1810,000000	24,349800
1809,000000	24,305700
1808,000000	24,268000
1807,000000	24,226000
1806,000000	24,190400
1805,000000	24,147000
1804,000000	24,084400
1803,000000	24,026900
1802,000000	23,984100
1801,000000	23,938800
1800,000000	23,879300
1799,000000	23,821800
1798,000000	23,767200
1797,000000	23,715900
1796,000000	23,674200
1795,000000	23,628100
1794,000000	23,563300
1793,000000	23,509700
1792,000000	23,456400
1791,000000	23,394200
1790,000000	23,351300
1789,000000	23,306000
1788,000000	23,259800
1787,000000	23,192300
1786,000000	23,120100
1785,000000	23,063700
1784,000000	22,995600
1783,000000	22,924200
1782,000000	22,851400
1781,000000	22,784500
1780,000000	22,710100
1779,000000	22,631500
1778,000000	22,554800
1777,000000	22,468900
1776,000000	22,394200
1775,000000	22,307300
1774,000000	22,204800
1773,000000	22,100800
1772,000000	21,987400
1771,000000	21,883000
1770,000000	21,773600
1769,000000	21,675100
1768,000000	21,560700
1767,000000	21,449600
1766,000000	21,356400
1765,000000	21,273500
1764,000000	21,196300
1763,000000	21,147900
1762,000000	21,130600
1761,000000	21,149300
1760,000000	21,171800
1759,000000	21,207600
1758,000000	21,269700
1757,000000	21,329100
1756,000000	21,404700
1755,000000	21,442900
1754,000000	21,477100
1753,000000	21,514800
1752,000000	21,547700
1751,000000	21,547600
1750,000000	21,550300
1749,000000	21,527800
1748,000000	21,487800
1747,000000	21,439100
1746,000000	21,373800
1745,000000	21,299200
1744,000000	21,192500
1743,000000	21,081300
1742,000000	20,928400
1741,000000	20,757100
1740,000000	20,591200
1739,000000	20,393100
1738,000000	20,198000
1737,000000	20,009100
1736,000000	19,839400
1735,000000	19,699900
1734,000000	19,603400
1733,000000	19,540000
1732,000000	19,515000
1731,000000	19,533600
1730,000000	19,584000
1729,000000	19,664300
1728,000000	19,750500
1727,000000	19,834000
1726,000000	19,933000
1725,000000	20,022300
1724,000000	20,099000
1723,000000	20,163300
1722,000000	20,225800
1721,000000	20,276200
1720,000000	20,314000
1719,000000	20,353600
1718,000000	20,389600
1717,000000	20,449200
1716,000000	20,527900
1715,000000	20,610000
1714,000000	20,690500
1713,000000	20,771400
1712,000000	20,845900
1711,000000	20,904000
1710,000000	20,964100
1709,000000	21,023200
1708,000000	21,030700
1707,000000	21,030500
1706,000000	21,012200
1705,000000	20,975200
1704,000000	20,917900
1703,000000	20,861100
1702,000000	20,778400
1701,000000	20,686900
1700,000000	20,561500
1699,000000	20,436100
1698,000000	20,305200
1697,000000	20,166300
1696,000000	20,040700
1695,000000	19,957400
1694,000000	19,941200
1693,000000	19,976800
1692,000000	20,042300
1691,000000	20,175600
1690,000000	20,315400
1689,000000	20,446100
1688,000000	20,569800
1687,000000	20,653500
1686,000000	20,751300
1685,000000	20,812100
1684,000000	20,866800
1683,000000	20,992000
1682,000000	21,207200
1681,000000	21,482200
1680,000000	21,837500
1679,000000	22,302600
1678,000000	22,774200
1677,000000	23,274000
1676,000000	23,768900
1675,000000	24,211500
1674,000000	24,621400
1673,000000	24,996600
1672,000000	25,299100
1671,000000	25,580100
1670,000000	25,803400
1669,000000	26,029400
1668,000000	26,220100
1667,000000	26,390400
1666,000000	26,519400
1665,000000	26,659800
1664,000000	26,755800
1663,000000	26,866400
1662,000000	26,939000
1661,000000	27,026400
1660,000000	27,090300
1659,000000	27,160100
1658,000000	27,204000
1657,000000	27,244600
1656,000000	27,262900
1655,000000	27,294900
1654,000000	27,289800
1653,000000	27,293900
1652,000000	27,293600
1651,000000	27,266100
1650,000000	27,248900
1649,000000	27,204200
1648,000000	27,188800
1647,000000	27,133500
1646,000000	27,088200
1645,000000	27,033300
1644,000000	26,989800
1643,000000	26,931800
1642,000000	26,871600
1641,000000	26,812800
1640,000000	26,744000
1639,000000	26,690300
1638,000000	26,622400
1637,000000	26,575800
1636,000000	26,496000
1635,000000	26,435800
1634,000000	26,364400
1633,000000	26,282300
1632,000000	26,212500
1631,000000	26,121900
1630,000000	26,046000
1629,000000	25,957600
1628,000000	25,875300
1627,000000	25,784500
1626,000000	25,697400
1625,000000	25,611000
1624,000000	25,508400
1623,000000	25,436900
1622,000000	25,358500
1621,000000	25,260600
1620,000000	25,190900
1619,000000	25,104200
1618,000000	25,039200
1617,000000	24,959100
1616,000000	24,873100
1615,000000	24,791900
1614,000000	24,728900
1613,000000	24,642700
1612,000000	24,553600
1611,000000	24,490900
1610,000000	24,411200
1609,000000	24,323400
1608,000000	24,258300
1607,000000	24,181100
1606,000000	24,103800
1605,000000	24,015800
1604,000000	23,935500
1603,000000	23,849300
1602,000000	23,769200
1601,000000	23,696700
1600,000000	23,626400
1599,000000	23,523700
1598,000000	23,441600
1597,000000	23,365000
1596,000000	23,304900
1595,000000	23,228800
1594,000000	23,152700
1593,000000	23,089100
1592,000000	23,009300
1591,000000	22,949900
1590,000000	22,880000
1589,000000	22,826400
1588,000000	22,759700
1587,000000	22,701500
1586,000000	22,654200
1585,000000	22,587600
1584,000000	22,527800
1583,000000	22,467700
1582,000000	22,429000
1581,000000	22,367600
1580,000000	22,328000
1579,000000	22,273400
1578,000000	22,244300
1577,000000	22,204500
1576,000000	22,171800
1575,000000	22,154000
1574,000000	22,143100
1573,000000	22,109800
1572,000000	22,097100
1571,000000	22,075500
1570,000000	22,058300
1569,000000	22,055100
1568,000000	22,058000
1567,000000	22,044600
1566,000000	22,028600
1565,000000	22,027200
1564,000000	22,035200
1563,000000	22,033600
1562,000000	22,031100
1561,000000	22,035000
1560,000000	22,020900
1559,000000	21,998300
1558,000000	21,978000
1557,000000	21,966600
1556,000000	21,956100
1555,000000	21,924700
1554,000000	21,899300
1553,000000	21,872000
1552,000000	21,823000
1551,000000	21,777200
1550,000000	21,742700
1549,000000	21,693900
1548,000000	21,647800
1547,000000	21,608900
1546,000000	21,579900
1545,000000	21,533700
1544,000000	21,499700
1543,000000	21,462300
1542,000000	21,439200
1541,000000	21,409300
1540,000000	21,367100
1539,000000	21,344400
1538,000000	21,321700
1537,000000	21,285500
1536,000000	21,258500
1535,000000	21,232000
1534,000000	21,188200
1533,000000	21,151200
1532,000000	21,112700
1531,000000	21,081300
1530,000000	21,041600
1529,000000	21,002400
1528,000000	20,954700
1527,000000	20,893400
1526,000000	20,853300
1525,000000	20,823400
1524,000000	20,758200
1523,000000	20,698100
1522,000000	20,650600
1521,000000	20,590800
1520,000000	20,542900
1519,000000	20,491800
1518,000000	20,430600
1517,000000	20,375500
1516,000000	20,327200
1515,000000	20,252200
1514,000000	20,192800
1513,000000	20,156400
1512,000000	20,094500
1511,000000	20,019100
1510,000000	19,954600
1509,000000	19,893800
1508,000000	19,832100
1507,000000	19,766100
1506,000000	19,693800
1505,000000	19,632700
1504,000000	19,583700
1503,000000	19,519300
1502,000000	19,461300
1501,000000	19,403500
1500,000000	19,333100
1499,000000	19,264200
1498,000000	19,215100
1497,000000	19,171500
1496,000000	19,120000
1495,000000	19,069300
1494,000000	19,033500
1493,000000	18,987000
1492,000000	18,928800
1491,000000	18,897000
1490,000000	18,874000
1489,000000	18,841300
1488,000000	18,809200
1487,000000	18,767800
1486,000000	18,729700
1485,000000	18,690900
1484,000000	18,670600
1483,000000	18,642800
1482,000000	18,627900
1481,000000	18,603000
1480,000000	18,583800
1479,000000	18,562100
1478,000000	18,536900
1477,000000	18,526900
1476,000000	18,518300
1475,000000	18,502700
1474,000000	18,487200
1473,000000	18,488200
1472,000000	18,494200
1471,000000	18,503000
1470,000000	18,494200
1469,000000	18,470400
1468,000000	18,481800
1467,000000	18,489900
1466,000000	18,497600
1465,000000	18,508800
1464,000000	18,516700
1463,000000	18,534400
1462,000000	18,548100
1461,000000	18,579300
1460,000000	18,618100
1459,000000	18,659200
1458,000000	18,705200
1457,000000	18,753500
1456,000000	18,800700
1455,000000	18,856700
1454,000000	18,918400
1453,000000	18,978800
1452,000000	19,042300
1451,000000	19,121500
1450,000000	19,205600
1449,000000	19,269300
1448,000000	19,329900
1447,000000	19,417900
1446,000000	19,508900
1445,000000	19,597700
1444,000000	19,684600
1443,000000	19,768200
1442,000000	19,860000
1441,000000	19,971700
1440,000000	20,080200
1439,000000	20,183700
1438,000000	20,283500
1437,000000	20,392200
1436,000000	20,502900
1435,000000	20,617500
1434,000000	20,746000
1433,000000	20,873200
1432,000000	21,006900
1431,000000	21,135900
1430,000000	21,267500
1429,000000	21,398100
1428,000000	21,567700
1427,000000	21,751600
1426,000000	21,911300
1425,000000	22,111200
1424,000000	22,340500
1423,000000	22,537400
1422,000000	22,763000
1421,000000	22,974600
1420,000000	23,215900
1419,000000	23,474200
1418,000000	23,730900
1417,000000	23,984200
1416,000000	24,211400
1415,000000	24,512900
1414,000000	24,828700
1413,000000	25,150000
1412,000000	25,445200
1411,000000	25,713600
1410,000000	26,067800
1409,000000	26,496000
1408,000000	26,885000
1407,000000	27,299900
1406,000000	27,726200
1405,000000	28,157000
1404,000000	28,602100
1403,000000	29,039900
1402,000000	29,489800
1401,000000	29,945400
1400,000000	30,478200
1399,000000	30,944200
1398,000000	31,318900
1397,000000	31,657700
1396,000000	32,040000
1395,000000	32,518900
1394,000000	32,932500
1393,000000	33,274400
1392,000000	33,618800
1391,000000	34,046800
1390,000000	34,477200
1389,000000	34,863500
1388,000000	35,347200
1387,000000	35,900900
1386,000000	36,417600
1385,000000	36,931000
1384,000000	37,505200
1383,000000	38,095500
1382,000000	38,732800
1381,000000	39,265300
1380,000000	39,746200
1379,000000	40,065400
1378,000000	40,360000
1377,000000	40,612400
1376,000000	40,819000
1375,000000	41,055100
1374,000000	41,305300
1373,000000	41,573700
1372,000000	41,876100
1371,000000	42,221200
1370,000000	42,597600
1369,000000	42,907200
1368,000000	43,207500
1367,000000	43,527800
1366,000000	43,796500
1365,000000	43,997100
1364,000000	44,243700
1363,000000	44,427200
1362,000000	44,613700
1361,000000	44,810300
1360,000000	44,950700
1359,000000	45,009600
1358,000000	45,139900
1357,000000	45,276500
1356,000000	45,408300
1355,000000	45,650900
1354,000000	45,962800
1353,000000	46,322900
1352,000000	46,656100
1351,000000	47,119600
1350,000000	47,590700
1349,000000	47,988000
1348,000000	48,382900
1347,000000	48,757900
1346,000000	49,105100
1345,000000	49,436300
1344,000000	49,762600
1343,000000	50,087400
1342,000000	50,388300
1341,000000	50,692000
1340,000000	50,985100
1339,000000	51,275500
1338,000000	51,571100
1337,000000	51,846700
1336,000000	52,105300
1335,000000	52,357000
1334,000000	52,635800
1333,000000	52,885000
1332,000000	53,127900
1331,000000	53,374400
1330,000000	53,590800
1329,000000	53,815700
1328,000000	54,027800
1327,000000	54,232700
1326,000000	54,440500
1325,000000	54,645200
1324,000000	54,811100
1323,000000	54,981400
1322,000000	55,146200
1321,000000	55,319600
1320,000000	55,483600
1319,000000	55,621000
1318,000000	55,765800
1317,000000	55,897200
1316,000000	56,032700
1315,000000	56,171300
1314,000000	56,309900
1313,000000	56,405000
1312,000000	56,514400
1311,000000	56,622000
1310,000000	56,728200
1309,000000	56,832200
1308,000000	56,901600
1307,000000	56,978500
1306,000000	57,044600
1305,000000	57,117600
1304,000000	57,201000
1303,000000	57,244100
1302,000000	57,284700
1301,000000	57,310800
1300,000000	57,344900
1299,000000	57,369500
1298,000000	57,398100
1297,000000	57,434000
1296,000000	57,448000
1295,000000	57,444800
1294,000000	57,464400
1293,000000	57,479800
1292,000000	57,476900
1291,000000	57,460400
1290,000000	57,464100
1289,000000	57,446800
1288,000000	57,432600
1287,000000	57,408900
1286,000000	57,375900
1285,000000	57,342900
1284,000000	57,282000
1283,000000	57,243700
1282,000000	57,213500
1281,000000	57,159200
1280,000000	57,114600
1279,000000	57,068300
1278,000000	57,013300
1277,000000	56,963300
1276,000000	56,922400
1275,000000	56,881100
1274,000000	56,845100
1273,000000	56,804200
1272,000000	56,771000
1271,000000	56,755000
1270,000000	56,731200
1269,000000	56,685200
1268,000000	56,659400
1267,000000	56,629900
1266,000000	56,592600
1265,000000	56,562600
1264,000000	56,523100
1263,000000	56,483500
1262,000000	56,437900
1261,000000	56,386600
1260,000000	56,350100
1259,000000	56,317800
1258,000000	56,275500
1257,000000	56,212900
1256,000000	56,153100
1255,000000	56,097700
1254,000000	56,035100
1253,000000	55,974300
1252,000000	55,905500
1251,000000	55,819500
1250,000000	55,744900
1249,000000	55,657400
1248,000000	55,573300
1247,000000	55,483200
1246,000000	55,384500
1245,000000	55,286700
1244,000000	55,169900
1243,000000	55,051900
1242,000000	54,935400
1241,000000	54,825900
1240,000000	54,710200
1239,000000	54,580800
1238,000000	54,454800
1237,000000	54,328900
1236,000000	54,197400
1235,000000	54,073100
1234,000000	53,933700
1233,000000	53,793800
1232,000000	53,652200
1231,000000	53,506800
1230,000000	53,352600
1229,000000	53,188200
1228,000000	53,042400
1227,000000	52,880700
1226,000000	52,709300
1225,000000	52,545600
1224,000000	52,379400
1223,000000	52,208500
1222,000000	52,044700
1221,000000	51,873800
1220,000000	51,690400
1219,000000	51,522900
1218,000000	51,360900
1217,000000	51,195500
1216,000000	51,042800
1215,000000	50,902400
1214,000000	50,735700
1213,000000	50,594400
1212,000000	50,459100
1211,000000	50,305100
1210,000000	50,175000
1209,000000	50,035100
1208,000000	49,906800
1207,000000	49,786700
1206,000000	49,668800
1205,000000	49,556000
1204,000000	49,478600
1203,000000	49,407800
1202,000000	49,332700
1201,000000	49,264200
1200,000000	49,196900
1199,000000	49,122400
1198,000000	49,031300
1197,000000	48,930400
1196,000000	48,808900
1195,000000	48,644100
1194,000000	48,419900
1193,000000	48,160900
1192,000000	47,878300
1191,000000	47,532500
1190,000000	47,160900
1189,000000	46,793500
1188,000000	46,467900
1187,000000	46,205100
1186,000000	46,017600
1185,000000	45,934800
1184,000000	45,973400
1183,000000	46,112000
1182,000000	46,339100
1181,000000	46,683500
1180,000000	47,056100
1179,000000	47,463900
1178,000000	47,863300
1177,000000	48,242500
1176,000000	48,576800
1175,000000	48,880400
1174,000000	49,162200
1173,000000	49,417300
1172,000000	49,676900
1171,000000	49,932500
1170,000000	50,212300
1169,000000	50,472700
1168,000000	50,749700
1167,000000	51,046000
1166,000000	51,334700
1165,000000	51,634100
1164,000000	51,919100
1163,000000	52,229800
1162,000000	52,556700
1161,000000	52,863600
1160,000000	53,161900
1159,000000	53,458200
1158,000000	53,741400
1157,000000	54,023700
1156,000000	54,290800
1155,000000	54,523400
1154,000000	54,736700
1153,000000	54,924900
1152,000000	55,068200
1151,000000	55,187200
1150,000000	55,269700
1149,000000	55,341800
1148,000000	55,409500
1147,000000	55,499000
1146,000000	55,598100
1145,000000	55,742600
1144,000000	55,920000
1143,000000	56,121900
1142,000000	56,379100
1141,000000	56,668000
1140,000000	56,961700
1139,000000	57,249100
1138,000000	57,573500
1137,000000	57,897200
1136,000000	58,233200
1135,000000	58,593800
1134,000000	58,969500
1133,000000	59,304800
1132,000000	59,583000
1131,000000	59,852600
1130,000000	60,105400
1129,000000	60,353200
1128,000000	60,527200
1127,000000	60,702100
1126,000000	60,816200
1125,000000	60,922400
1124,000000	60,994100
1123,000000	61,069100
1122,000000	61,100300
1121,000000	61,152900
1120,000000	61,171700
1119,000000	61,184700
1118,000000	61,169400
1117,000000	61,164300
1116,000000	61,175600
1115,000000	61,146300
1114,000000	61,118900
1113,000000	61,098600
1112,000000	61,074600
1111,000000	61,050500
1110,000000	61,019400
1109,000000	60,999900
1108,000000	60,969300
1107,000000	60,924700
1106,000000	60,910700
1105,000000	60,884300
1104,000000	60,854100
1103,000000	60,813500
1102,000000	60,781700
1101,000000	60,735800
1100,000000	60,713200
1099,000000	60,662500
1098,000000	60,644300
1097,000000	60,604400
1096,000000	60,544200
1095,000000	60,485600
1094,000000	60,439700
1093,000000	60,403800
1092,000000	60,332600
1091,000000	60,272000
1090,000000	60,197400
1089,000000	60,163800
1088,000000	60,084000
1087,000000	60,039200
1086,000000	59,964000
1085,000000	59,905500
1084,000000	59,838200
1083,000000	59,754100
1082,000000	59,703800
1081,000000	59,605500
1080,000000	59,538600
1079,000000	59,461700
1078,000000	59,396300
1077,000000	59,318800
1076,000000	59,248800
1075,000000	59,187800
1074,000000	59,116500
1073,000000	59,007600
1072,000000	58,946000
1071,000000	58,859100
1070,000000	58,785000
1069,000000	58,706400
1068,000000	58,649700
1067,000000	58,545000
1066,000000	58,479700
1065,000000	58,380900
1064,000000	58,313400
1063,000000	58,220600
1062,000000	58,132400
1061,000000	58,046000
1060,000000	57,961300
1059,000000	57,893900
1058,000000	57,795900
1057,000000	57,695400
1056,000000	57,592900
1055,000000	57,516900
1054,000000	57,435600
1053,000000	57,324500
1052,000000	57,213500
1051,000000	57,147400
1050,000000	57,060500
1049,000000	56,971500
1048,000000	56,876500
1047,000000	56,788700
1046,000000	56,701300
1045,000000	56,609100
1044,000000	56,545300
1043,000000	56,482500
1042,000000	56,380800
1041,000000	56,292900
1040,000000	56,211100
1039,000000	56,130200
1038,000000	56,030200
1037,000000	55,955800
1036,000000	55,877600
1035,000000	55,787700
1034,000000	55,696600
1033,000000	55,593300
1032,000000	55,487000
1031,000000	55,382200
1030,000000	55,299000
1029,000000	55,197500
1028,000000	55,111100
1027,000000	55,010000
1026,000000	54,885400
1025,000000	54,792100
1024,000000	54,696400
1023,000000	54,577000
1022,000000	54,482800
1021,000000	54,368800
1020,000000	54,244600
1019,000000	54,158500
1018,000000	54,045800
1017,000000	53,936900
1016,000000	53,849600
1015,000000	53,757800
1014,000000	53,679300
1013,000000	53,589200
1012,000000	53,508600
1011,000000	53,424500
1010,000000	53,348100
1009,000000	53,290100
1008,000000	53,228100
1007,000000	53,160100
1006,000000	53,089600
1005,000000	53,029800
1004,000000	52,977900
1003,000000	52,933800
1002,000000	52,868800
1001,000000	52,790400
1000,000000	52,718100
999,000000	52,681800
998,000000	52,623200
997,000000	52,575200
996,000000	52,501400
995,000000	52,425500
994,000000	52,380600
993,000000	52,331800
992,000000	52,272600
991,000000	52,219000
990,000000	52,155900
989,000000	52,102600
988,000000	52,052000
987,000000	52,014400
986,000000	51,964500
985,000000	51,902600
984,000000	51,864200
983,000000	51,840900
982,000000	51,783800
981,000000	51,729000
980,000000	51,683600
979,000000	51,662300
978,000000	51,624700
977,000000	51,559100
976,000000	51,518300
975,000000	51,477600
974,000000	51,444700
973,000000	51,396100
972,000000	51,338500
971,000000	51,311400
970,000000	51,288000
969,000000	51,245700
968,000000	51,196500
967,000000	51,152100
966,000000	51,116900
965,000000	51,074200
964,000000	51,046100
963,000000	51,021500
962,000000	50,988000
961,000000	50,951200
960,000000	50,928700
959,000000	50,914500
958,000000	50,902300
957,000000	50,875600
956,000000	50,840300
955,000000	50,808100
954,000000	50,782600
953,000000	50,746600
952,000000	50,697600
951,000000	50,677600
950,000000	50,651900
949,000000	50,612800
948,000000	50,589200
947,000000	50,551100
946,000000	50,506300
945,000000	50,473900
944,000000	50,455700
943,000000	50,415900
942,000000	50,352200
941,000000	50,324700
940,000000	50,275500
939,000000	50,202200
938,000000	50,151800
937,000000	50,099900
936,000000	50,067000
935,000000	50,027400
934,000000	49,966200
933,000000	49,904200
932,000000	49,843600
931,000000	49,815500
930,000000	49,765900
929,000000	49,702100
928,000000	49,641000
927,000000	49,596200
926,000000	49,541900
925,000000	49,469900
924,000000	49,390800
923,000000	49,305700
922,000000	49,280100
921,000000	49,233600
920,000000	49,152900
919,000000	49,088600
918,000000	49,025000
917,000000	48,949800
916,000000	48,866000
915,000000	48,793600
914,000000	48,718100
913,000000	48,637900
912,000000	48,562300
911,000000	48,484300
910,000000	48,414200
909,000000	48,341800
908,000000	48,283700
907,000000	48,227800
906,000000	48,170900
905,000000	48,120100
904,000000	48,067600
903,000000	48,032400
902,000000	47,976900
901,000000	47,931800
900,000000	47,890900
899,000000	47,863900
898,000000	47,826200
897,000000	47,784600
896,000000	47,736000
895,000000	47,680400
894,000000	47,626900
893,000000	47,577000
892,000000	47,497300
891,000000	47,433500
890,000000	47,405100
889,000000	47,330400
888,000000	47,266200
887,000000	47,168200
886,000000	47,078800
885,000000	46,964400
884,000000	46,875000
883,000000	46,758700
882,000000	46,677700
881,000000	46,558700
880,000000	46,464800
879,000000	46,341700
878,000000	46,208400
877,000000	46,051100
876,000000	45,867600
875,000000	45,706100
874,000000	45,572900
873,000000	45,388700
872,000000	45,174900
871,000000	44,990200
870,000000	44,906900
869,000000	44,896700
868,000000	44,905500
867,000000	44,933500
866,000000	44,935800
865,000000	44,942300
864,000000	44,945200
863,000000	44,977900
862,000000	44,962600
861,000000	44,965300
860,000000	44,991300
859,000000	44,990500
858,000000	44,978900
857,000000	49,851400
856,000000	50,664400
855,000000	50,809500
854,000000	50,912000
853,000000	51,122600
852,000000	51,089900
851,000000	50,860600
850,000000	50,781200
849,000000	50,814000
848,000000	50,790300
847,000000	50,922600
846,000000	50,927500
845,000000	50,952400
844,000000	50,838400
843,000000	50,957400
842,000000	50,842200
841,000000	50,802900
840,000000	50,968200
839,000000	50,906000
838,000000	50,811500
837,000000	50,669300
836,000000	51,035100
835,000000	50,553900
834,000000	50,698300
833,000000	50,597500
832,000000	50,779300
831,000000	50,535700
830,000000	50,741900
829,000000	50,877600
828,000000	50,706300
827,000000	50,714400
826,000000	50,577700
825,000000	50,605300
824,000000	50,498600
823,000000	50,509700
822,000000	50,666800
821,000000	50,436200
820,000000	50,421000
819,000000	50,375600
818,000000	50,343200
817,000000	50,331800
816,000000	50,169700
815,000000	50,223400
814,000000	50,143400
813,000000	50,205400
812,000000	50,131900
811,000000	50,117900
810,000000	50,092200
809,000000	49,827900
808,000000	49,899800
807,000000	49,817000
806,000000	49,749300
805,000000	49,688500
804,000000	49,673000
803,000000	49,576000
802,000000	49,508000
801,000000	49,403400
800,000000	49,571700
799,000000	49,292300
798,000000	49,341300
797,000000	49,109800
796,000000	49,301300
795,000000	49,005000
794,000000	48,993100
793,000000	48,992700
792,000000	48,901200
791,000000	48,872300
790,000000	48,846000
789,000000	48,731900
788,000000	48,541900
787,000000	48,530200
786,000000	48,482300
785,000000	48,124700
784,000000	48,174600
783,000000	48,142000
782,000000	48,020600
781,000000	47,786100
780,000000	47,725000
779,000000	47,762600
778,000000	47,563800
777,000000	47,537200
776,000000	47,409700
775,000000	47,250500
774,000000	47,157200
773,000000	46,976600
772,000000	46,967900
771,000000	46,852400
770,000000	46,721500
769,000000	46,485300
768,000000	46,383600
767,000000	46,138900
766,000000	46,066400
765,000000	45,922100
764,000000	45,805800
763,000000	45,727600
762,000000	45,495100
761,000000	45,387700
760,000000	45,197200
759,000000	45,110000
758,000000	45,009100
757,000000	44,682500
756,000000	44,676000
755,000000	44,421300
754,000000	44,337400
753,000000	44,198700
752,000000	43,992100
751,000000	43,748900
750,000000	43,605800
749,000000	43,376600
748,000000	43,311700
747,000000	43,008200
746,000000	42,837300
745,000000	42,757300
744,000000	42,533600
743,000000	42,291100
742,000000	42,088000
741,000000	41,909700
740,000000	41,684900
739,000000	41,472100
738,000000	41,270400
737,000000	41,035900
736,000000	40,910300
735,000000	40,676800
734,000000	40,418400
733,000000	40,306100
732,000000	40,129300
731,000000	39,881400
730,000000	39,616500
729,000000	39,389300
728,000000	39,187200
727,000000	38,966900
726,000000	38,703500
725,000000	38,469200
724,000000	38,189100
723,000000	37,994300
722,000000	37,774000
721,000000	37,503400
720,000000	37,278400
719,000000	36,999900
718,000000	36,761300
717,000000	36,566800
716,000000	36,350300
715,000000	36,094600
714,000000	35,817900
713,000000	35,589400
712,000000	35,300400
711,000000	35,080100
710,000000	34,799600
709,000000	34,564200
708,000000	34,351500
707,000000	34,085100
706,000000	33,762800
705,000000	33,510400
704,000000	33,262800
703,000000	32,976500
702,000000	32,717100
701,000000	32,468300
700,000000	32,205300
699,000000	31,939300
698,000000	31,665000
697,000000	31,383900
696,000000	31,101100
695,000000	30,872300
694,000000	30,607100
693,000000	30,367500
692,000000	30,091400
691,000000	29,818800
690,000000	29,577400
689,000000	29,329200
688,000000	29,108200
687,000000	28,872000
686,000000	28,642800
685,000000	28,450500
684,000000	28,209500
683,000000	27,954900
682,000000	27,743900
681,000000	27,539100
680,000000	27,314100
679,000000	27,096700
678,000000	26,926000
677,000000	26,732600
676,000000	26,521900
675,000000	26,331400
674,000000	26,138100
673,000000	25,953100
672,000000	25,745800
671,000000	25,548000
670,000000	25,362500
669,000000	25,170000
668,000000	24,990500
667,000000	24,793600
666,000000	24,615200
665,000000	24,455700
664,000000	24,302600
663,000000	24,107100
662,000000	23,960900
661,000000	23,847000
660,000000	23,708400
659,000000	23,606100
658,000000	23,494700
657,000000	23,358700
656,000000	23,259600
655,000000	23,160100
654,000000	23,066800
653,000000	23,008900
652,000000	22,983900
651,000000	22,928700
650,000000	22,878800
649,000000	22,854000
648,000000	22,824900
647,000000	22,811400
646,000000	22,806500
645,000000	22,803700
644,000000	22,801500
643,000000	22,793900
642,000000	22,794600
641,000000	22,813600
640,000000	22,819800
639,000000	22,815400
638,000000	22,814200
637,000000	22,823600
636,000000	22,820700
635,000000	22,820600
634,000000	22,832200
633,000000	22,842900
632,000000	22,852900
631,000000	22,845000
630,000000	22,863800
629,000000	22,889900
628,000000	22,926600
627,000000	22,967100
626,000000	22,993000
625,000000	23,063800
624,000000	23,143500
623,000000	23,216000
622,000000	23,304200
621,000000	23,405100
620,000000	23,498700
619,000000	23,596100
618,000000	23,699700
617,000000	23,811100
616,000000	23,926700
615,000000	24,057200
614,000000	24,192000
613,000000	24,314800
612,000000	24,434700
611,000000	24,556700
610,000000	24,675100
609,000000	24,772400
608,000000	24,869100
607,000000	24,959900
606,000000	25,045300
605,000000	25,127400
604,000000	25,208200
603,000000	25,262700
602,000000	25,336900
601,000000	25,415400
600,000000	25,464900
599,000000	25,542100
598,000000	25,588400
597,000000	25,636000
596,000000	25,706400
595,000000	25,774300
594,000000	25,840200
593,000000	25,910600
592,000000	25,966700
591,000000	26,035500
590,000000	26,108100
589,000000	26,195800
588,000000	26,283300
587,000000	26,360200
586,000000	26,424800
585,000000	26,497000
584,000000	26,574300
583,000000	26,640500
582,000000	26,706200
581,000000	26,790900
580,000000	26,835500
579,000000	26,913500
578,000000	26,973100
577,000000	27,034200
576,000000	27,087000
575,000000	27,133800
574,000000	27,169100
573,000000	27,232200
572,000000	27,259000
571,000000	27,276600
570,000000	27,310800
569,000000	27,338700
568,000000	27,361700
567,000000	27,391100
566,000000	27,409900
565,000000	27,391500
564,000000	27,390100
563,000000	27,394000
562,000000	27,387400
561,000000	27,356800
560,000000	27,356400
559,000000	27,385400
558,000000	27,380600
557,000000	27,349500
556,000000	27,341500
555,000000	27,296800
554,000000	27,254300
553,000000	27,200900
552,000000	27,152000
551,000000	27,098200
550,000000	27,024200
549,000000	26,925300
548,000000	26,855900
547,000000	26,773800
546,000000	26,676300
545,000000	26,568600
544,000000	26,464900
543,000000	26,328600
542,000000	26,200900
541,000000	26,046700
540,000000	25,884200
539,000000	25,725700
538,000000	25,571500
537,000000	25,374000
536,000000	25,217600
535,000000	25,007200
534,000000	24,807100
533,000000	24,588700
532,000000	24,347100
531,000000	24,109100
530,000000	23,860800
529,000000	23,612200
528,000000	23,351200
527,000000	23,098500
526,000000	22,831900
525,000000	22,530700
524,000000	22,224600
523,000000	21,934500
522,000000	21,617900
521,000000	21,290100
520,000000	20,967100
519,000000	20,642800
518,000000	20,316400
517,000000	19,965200
516,000000	19,648500
515,000000	19,292600
514,000000	18,943400
513,000000	18,619100
512,000000	18,276000
511,000000	17,942900
510,000000	17,593800
509,000000	17,291600
508,000000	16,973700
507,000000	16,628500
506,000000	16,284100
505,000000	16,015300
504,000000	15,684100
503,000000	15,410500
502,000000	15,117400
501,000000	14,830800
500,000000	14,546700
499,000000	14,249300
498,000000	13,984600
497,000000	13,737300
496,000000	13,504500
495,000000	13,267100
494,000000	13,019300
493,000000	12,804500
492,000000	12,580000
491,000000	12,375900
490,000000	12,182200
489,000000	11,981000
488,000000	11,808300
487,000000	11,616700
486,000000	11,441900
485,000000	11,291500
484,000000	11,120800
483,000000	10,979700
482,000000	10,813700
481,000000	10,666300
480,000000	10,518900
479,000000	10,384300
478,000000	10,243900
477,000000	10,124200
476,000000	10,013500
475,000000	9,882300
474,000000	9,777100
473,000000	9,669300
472,000000	9,570000
471,000000	9,478100
470,000000	9,383900
469,000000	9,284600
468,000000	9,216500
467,000000	9,150300
466,000000	9,048100
465,000000	8,987500
464,000000	8,925300
463,000000	8,855100
462,000000	8,797500
461,000000	8,706600
460,000000	8,639300
459,000000	8,591300
458,000000	8,537600
457,000000	8,469900
456,000000	8,403600
455,000000	8,363100
454,000000	8,313500
453,000000	8,268500
452,000000	8,221400
451,000000	8,147300
450,000000	8,098500
449,000000	8,037400
448,000000	7,974200
447,000000	7,898100
446,000000	7,857800
445,000000	7,822500
444,000000	7,732600
443,000000	7,678000
442,000000	7,615800
441,000000	7,538100
440,000000	7,484500
439,000000	7,427200
438,000000	7,364000
437,000000	7,323500
436,000000	7,263700
435,000000	7,178300
434,000000	7,131100
433,000000	7,052100
432,000000	7,002100
431,000000	6,948700
430,000000	6,877700
429,000000	6,818200
428,000000	6,775900
427,000000	6,719100
426,000000	6,655900
425,000000	6,619800
424,000000	6,555900
423,000000	6,520900
422,000000	6,459900
421,000000	6,399400
420,000000	6,354800
419,000000	6,304900
418,000000	6,248500
417,000000	6,200700
416,000000	6,166200
415,000000	6,119200
414,000000	6,060700
413,000000	6,003600
412,000000	5,951500
411,000000	5,917300
410,000000	5,870000
409,000000	5,829500
408,000000	5,793500
407,000000	5,718100
406,000000	5,677600
405,000000	5,626700
404,000000	5,584000
403,000000	5,533800
402,000000	5,495400
401,000000	5,466600
400,000000	5,421100
399,000000	5,373500
398,000000	5,316700
397,000000	5,283000
396,000000	5,246500
395,000000	5,206200
394,000000	5,169700
393,000000	5,132900
392,000000	5,081700
391,000000	5,038700
390,000000	5,009100
389,000000	4,983400
388,000000	4,950700
387,000000	4,908800
386,000000	4,874500
385,000000	4,850200
384,000000	4,828000
383,000000	4,789500
382,000000	4,748800
381,000000	4,717800
380,000000	4,701700
379,000000	4,678400
378,000000	4,662300
377,000000	4,647200
376,000000	4,564400
375,000000	4,459400
374,000000	4,440600
373,000000	4,464700
372,000000	4,459900
371,000000	4,419100
370,000000	4,480500
369,000000	4,489400
368,000000	4,440600
367,000000	4,425000
366,000000	4,357800
365,000000	4,338400
364,000000	4,366800
363,000000	4,361800
362,000000	4,410200
361,000000	4,393500
360,000000	4,332400
359,000000	4,299800
358,000000	4,334900
357,000000	4,316400
356,000000	4,307900
355,000000	4,339600
354,000000	4,288000
353,000000	4,212200
352,000000	4,288900
351,000000	4,306000
350,000000	4,309100
349,000000	4,363500
348,000000	4,257300
347,000000	4,284200
346,000000	4,317700
345,000000	4,294300
344,000000	4,349700
343,000000	4,356300
342,000000	4,308900
341,000000	4,322000
340,000000	4,340600
339,000000	4,330000
338,000000	4,304900
337,000000	4,250000
336,000000	4,231900
335,000000	4,235000
334,000000	4,228600
333,000000	4,261700
332,000000	4,341300
331,000000	4,419700
330,000000	4,349600
329,000000	4,155300
328,000000	4,199400
327,000000	4,259700
326,000000	4,204100
325,000000	4,229100
324,000000	4,226000
323,000000	4,343900
322,000000	4,336900
321,000000	4,273900
320,000000	4,198300
319,000000	4,206500
318,000000	4,269400
317,000000	4,383500
316,000000	4,395900
315,000000	4,338000
314,000000	4,335200
313,000000	4,321700
312,000000	4,293300
311,000000	4,293300
310,000000	4,315800
309,000000	4,325400
308,000000	4,325900
307,000000	4,329300
306,000000	4,298000
305,000000	4,290500
304,000000	4,292200
303,000000	4,280900
302,000000	4,295700
301,000000	4,332000
300,000000	4,316500
299,000000	4,301300
298,000000	4,324900
297,000000	4,320800
296,000000	4,314800
295,000000	4,303900
294,000000	4,289400
293,000000	4,308200
292,000000	4,330700
291,000000	4,336400
290,000000	4,343700
289,000000	4,332600
288,000000	4,320800
287,000000	4,368200
286,000000	4,392300
285,000000	4,361000
284,000000	4,349800
283,000000	4,365000
282,000000	4,376700
281,000000	4,387300
280,000000	4,377600
279,000000	4,378300
278,000000	4,374400
277,000000	4,393200
276,000000	4,435200
275,000000	4,439900
274,000000	4,445600
273,000000	4,468900
272,000000	4,480700
271,000000	4,496000
270,000000	4,489100
269,000000	4,481600
268,000000	4,513000
267,000000	4,546600
266,000000	4,567100
265,000000	4,596700
264,000000	4,626000
263,000000	4,640100
262,000000	4,662200
261,000000	4,706500
260,000000	4,702100
259,000000	4,708300
258,000000	4,706800
257,000000	4,752600
256,000000	4,771200
255,000000	4,770600
254,000000	4,798100
253,000000	4,821600
252,000000	4,794800
251,000000	4,797300
250,000000	4,804000
