PE UV       SUBTECH     SPECTRUM    ASCII       PEDS        4.00        
   -1
CICIMAUCR0215-1.Sample.ASC
24/06/13
12:50:09.00
24/06/13
12:50:09.00
Vinicio Soto Monge
C. cupreomarginata. Sex M. Ventral 
250,000000
1
Lambda 1050
1050L1511233
PerkinElmer UV WinLab 6.3.2.0749 / 2.02.05 Lambda 900 UV/VIS/NIR, Aug  7 2015 09:38:08

0
0
3350/servo 860,8/2
0
0
UV/VIS
1
1
1
DoubleDePol,CommonBeamDepol,RBeamAtt,SBeamAtt,60mm sphere, WB InGaAs Detector
0
0
0
0
Program
Program
3350/servo 860,8/2
3350/0,2 860,8/0,2
3350/0,2 860,8/0,2
0
15.00
 
 
 
0
 
860,8
319,2
860,8
Front
100
on
S:100 R:100
0
0
0
0
 
0
 
 
 
0
 
 
0
0
0
0
0
 
 
 
 
0
0


0
0
#HDR
-1
-1
#GR
nm
%R
1.0
0.0
2500,000000
-1,000000
2251
8
60,327600
4,064900
#DATA
2500,000000	7,105600
2499,000000	7,020500
2498,000000	6,958100
2497,000000	6,940600
2496,000000	6,989200
2495,000000	6,998900
2494,000000	7,036000
2493,000000	7,017100
2492,000000	6,921900
2491,000000	7,065200
2490,000000	6,927700
2489,000000	6,958600
2488,000000	7,056600
2487,000000	6,910100
2486,000000	6,931100
2485,000000	6,943400
2484,000000	6,887200
2483,000000	6,860000
2482,000000	6,914700
2481,000000	6,834900
2480,000000	6,862900
2479,000000	6,922300
2478,000000	6,859900
2477,000000	6,819000
2476,000000	6,861100
2475,000000	6,808400
2474,000000	6,899000
2473,000000	6,890100
2472,000000	6,853300
2471,000000	6,894900
2470,000000	6,846400
2469,000000	6,861300
2468,000000	6,831700
2467,000000	6,845000
2466,000000	6,865300
2465,000000	6,883000
2464,000000	6,914200
2463,000000	6,884500
2462,000000	6,909600
2461,000000	6,944700
2460,000000	6,960400
2459,000000	6,957800
2458,000000	6,980400
2457,000000	6,994300
2456,000000	7,012100
2455,000000	7,031100
2454,000000	7,071700
2453,000000	7,084700
2452,000000	7,139200
2451,000000	7,195300
2450,000000	7,179000
2449,000000	7,217400
2448,000000	7,253000
2447,000000	7,283100
2446,000000	7,314700
2445,000000	7,336500
2444,000000	7,364600
2443,000000	7,395300
2442,000000	7,446500
2441,000000	7,470100
2440,000000	7,493600
2439,000000	7,530000
2438,000000	7,556300
2437,000000	7,602700
2436,000000	7,618800
2435,000000	7,660200
2434,000000	7,685100
2433,000000	7,694600
2432,000000	7,749000
2431,000000	7,768900
2430,000000	7,810800
2429,000000	7,815500
2428,000000	7,826800
2427,000000	7,865100
2426,000000	7,892900
2425,000000	7,905800
2424,000000	7,929100
2423,000000	7,955700
2422,000000	7,979700
2421,000000	7,988400
2420,000000	8,005600
2419,000000	8,046700
2418,000000	8,064700
2417,000000	8,075300
2416,000000	8,101800
2415,000000	8,118300
2414,000000	8,128700
2413,000000	8,160700
2412,000000	8,175900
2411,000000	8,184600
2410,000000	8,214700
2409,000000	8,232100
2408,000000	8,232400
2407,000000	8,241700
2406,000000	8,267100
2405,000000	8,293500
2404,000000	8,303900
2403,000000	8,311000
2402,000000	8,322700
2401,000000	8,342100
2400,000000	8,377300
2399,000000	8,412400
2398,000000	8,415900
2397,000000	8,416100
2396,000000	8,443100
2395,000000	8,468200
2394,000000	8,486600
2393,000000	8,498500
2392,000000	8,511800
2391,000000	8,526100
2390,000000	8,536700
2389,000000	8,552600
2388,000000	8,572100
2387,000000	8,571400
2386,000000	8,583600
2385,000000	8,601900
2384,000000	8,602000
2383,000000	8,597400
2382,000000	8,611900
2381,000000	8,612800
2380,000000	8,603900
2379,000000	8,616100
2378,000000	8,615600
2377,000000	8,604000
2376,000000	8,600700
2375,000000	8,602600
2374,000000	8,595600
2373,000000	8,589700
2372,000000	8,577200
2371,000000	8,576800
2370,000000	8,576600
2369,000000	8,564900
2368,000000	8,556900
2367,000000	8,543200
2366,000000	8,520700
2365,000000	8,503300
2364,000000	8,501100
2363,000000	8,489200
2362,000000	8,459800
2361,000000	8,438200
2360,000000	8,428000
2359,000000	8,412000
2358,000000	8,385000
2357,000000	8,368800
2356,000000	8,353100
2355,000000	8,348200
2354,000000	8,338900
2353,000000	8,324600
2352,000000	8,315900
2351,000000	8,326800
2350,000000	8,334500
2349,000000	8,330900
2348,000000	8,339100
2347,000000	8,351000
2346,000000	8,362600
2345,000000	8,386000
2344,000000	8,391600
2343,000000	8,404500
2342,000000	8,426900
2341,000000	8,446000
2340,000000	8,459200
2339,000000	8,476900
2338,000000	8,478900
2337,000000	8,467700
2336,000000	8,470100
2335,000000	8,485500
2334,000000	8,480100
2333,000000	8,468300
2332,000000	8,475900
2331,000000	8,465600
2330,000000	8,445400
2329,000000	8,437100
2328,000000	8,410600
2327,000000	8,386800
2326,000000	8,362200
2325,000000	8,350400
2324,000000	8,313500
2323,000000	8,280800
2322,000000	8,263200
2321,000000	8,229700
2320,000000	8,190100
2319,000000	8,132800
2318,000000	8,102200
2317,000000	8,063900
2316,000000	8,016800
2315,000000	7,985300
2314,000000	7,935700
2313,000000	7,879500
2312,000000	7,827500
2311,000000	7,791500
2310,000000	7,765700
2309,000000	7,727000
2308,000000	7,695900
2307,000000	7,678400
2306,000000	7,673000
2305,000000	7,665100
2304,000000	7,660800
2303,000000	7,660000
2302,000000	7,674700
2301,000000	7,692200
2300,000000	7,701500
2299,000000	7,748100
2298,000000	7,770800
2297,000000	7,803100
2296,000000	7,839600
2295,000000	7,871300
2294,000000	7,900200
2293,000000	7,931300
2292,000000	7,947300
2291,000000	7,967300
2290,000000	7,987500
2289,000000	8,003000
2288,000000	8,028900
2287,000000	8,021600
2286,000000	8,014200
2285,000000	8,010800
2284,000000	8,003400
2283,000000	8,003700
2282,000000	8,018800
2281,000000	7,988000
2280,000000	7,950100
2279,000000	7,921800
2278,000000	7,915600
2277,000000	7,892600
2276,000000	7,894500
2275,000000	7,843900
2274,000000	7,850000
2273,000000	7,828500
2272,000000	7,815300
2271,000000	7,824700
2270,000000	7,812500
2269,000000	7,829500
2268,000000	7,860900
2267,000000	7,864300
2266,000000	7,916300
2265,000000	7,941000
2264,000000	7,989100
2263,000000	8,070900
2262,000000	8,127500
2261,000000	8,208900
2260,000000	8,291500
2259,000000	8,383300
2258,000000	8,491600
2257,000000	8,601200
2256,000000	8,687400
2255,000000	8,828900
2254,000000	8,932600
2253,000000	9,044600
2252,000000	9,159700
2251,000000	9,285100
2250,000000	9,394800
2249,000000	9,509200
2248,000000	9,600300
2247,000000	9,676600
2246,000000	9,777100
2245,000000	9,863700
2244,000000	9,940800
2243,000000	10,024600
2242,000000	10,093500
2241,000000	10,160600
2240,000000	10,208600
2239,000000	10,264700
2238,000000	10,314600
2237,000000	10,357500
2236,000000	10,412200
2235,000000	10,431000
2234,000000	10,459000
2233,000000	10,503600
2232,000000	10,515700
2231,000000	10,535300
2230,000000	10,555200
2229,000000	10,563600
2228,000000	10,559700
2227,000000	10,576900
2226,000000	10,575700
2225,000000	10,572400
2224,000000	10,567900
2223,000000	10,564700
2222,000000	10,554500
2221,000000	10,534500
2220,000000	10,523200
2219,000000	10,518400
2218,000000	10,489400
2217,000000	10,467000
2216,000000	10,451000
2215,000000	10,430000
2214,000000	10,408000
2213,000000	10,368500
2212,000000	10,375900
2211,000000	10,336900
2210,000000	10,322600
2209,000000	10,329000
2208,000000	10,310600
2207,000000	10,291300
2206,000000	10,251600
2205,000000	10,258100
2204,000000	10,242600
2203,000000	10,248400
2202,000000	10,243700
2201,000000	10,214900
2200,000000	10,197400
2199,000000	10,189000
2198,000000	10,176400
2197,000000	10,158200
2196,000000	10,167200
2195,000000	10,157300
2194,000000	10,149400
2193,000000	10,144300
2192,000000	10,135000
2191,000000	10,133200
2190,000000	10,138400
2189,000000	10,109700
2188,000000	10,100900
2187,000000	10,102100
2186,000000	10,101000
2185,000000	10,087000
2184,000000	10,080000
2183,000000	10,062600
2182,000000	10,050900
2181,000000	10,055900
2180,000000	10,030900
2179,000000	10,030400
2178,000000	10,043400
2177,000000	10,023200
2176,000000	10,008700
2175,000000	10,012700
2174,000000	10,016600
2173,000000	10,012000
2172,000000	10,007900
2171,000000	10,021600
2170,000000	10,022800
2169,000000	10,039000
2168,000000	10,041200
2167,000000	10,048200
2166,000000	10,042200
2165,000000	10,067100
2164,000000	10,082200
2163,000000	10,092700
2162,000000	10,099600
2161,000000	10,115600
2160,000000	10,135500
2159,000000	10,165100
2158,000000	10,167300
2157,000000	10,199700
2156,000000	10,210700
2155,000000	10,234900
2154,000000	10,255900
2153,000000	10,280700
2152,000000	10,317800
2151,000000	10,345200
2150,000000	10,366000
2149,000000	10,390100
2148,000000	10,416100
2147,000000	10,447300
2146,000000	10,452900
2145,000000	10,473300
2144,000000	10,512600
2143,000000	10,538000
2142,000000	10,573800
2141,000000	10,581000
2140,000000	10,609900
2139,000000	10,642200
2138,000000	10,659700
2137,000000	10,670700
2136,000000	10,676500
2135,000000	10,696300
2134,000000	10,719400
2133,000000	10,729500
2132,000000	10,727200
2131,000000	10,747100
2130,000000	10,750700
2129,000000	10,752500
2128,000000	10,771800
2127,000000	10,786000
2126,000000	10,788100
2125,000000	10,778200
2124,000000	10,779000
2123,000000	10,770900
2122,000000	10,775800
2121,000000	10,763900
2120,000000	10,760600
2119,000000	10,745700
2118,000000	10,739300
2117,000000	10,727500
2116,000000	10,715000
2115,000000	10,710100
2114,000000	10,704900
2113,000000	10,684400
2112,000000	10,671100
2111,000000	10,663700
2110,000000	10,644100
2109,000000	10,633600
2108,000000	10,614700
2107,000000	10,591000
2106,000000	10,577200
2105,000000	10,576800
2104,000000	10,562700
2103,000000	10,522700
2102,000000	10,508000
2101,000000	10,503300
2100,000000	10,491900
2099,000000	10,465600
2098,000000	10,449200
2097,000000	10,428900
2096,000000	10,409800
2095,000000	10,400700
2094,000000	10,379800
2093,000000	10,377400
2092,000000	10,375800
2091,000000	10,351100
2090,000000	10,338800
2089,000000	10,342600
2088,000000	10,325100
2087,000000	10,306100
2086,000000	10,286500
2085,000000	10,273800
2084,000000	10,271600
2083,000000	10,250000
2082,000000	10,232300
2081,000000	10,233400
2080,000000	10,218700
2079,000000	10,191000
2078,000000	10,143300
2077,000000	10,116800
2076,000000	10,098400
2075,000000	10,072200
2074,000000	10,057500
2073,000000	10,032800
2072,000000	9,999200
2071,000000	9,955500
2070,000000	9,924000
2069,000000	9,902400
2068,000000	9,861000
2067,000000	9,821300
2066,000000	9,787000
2065,000000	9,751100
2064,000000	9,722800
2063,000000	9,700700
2062,000000	9,665400
2061,000000	9,639900
2060,000000	9,624200
2059,000000	9,606200
2058,000000	9,578800
2057,000000	9,567600
2056,000000	9,567500
2055,000000	9,551300
2054,000000	9,543300
2053,000000	9,555000
2052,000000	9,571700
2051,000000	9,596300
2050,000000	9,610100
2049,000000	9,632100
2048,000000	9,675800
2047,000000	9,698400
2046,000000	9,727700
2045,000000	9,775400
2044,000000	9,813300
2043,000000	9,852100
2042,000000	9,904700
2041,000000	9,935400
2040,000000	9,967800
2039,000000	10,012200
2038,000000	10,052100
2037,000000	10,088100
2036,000000	10,127100
2035,000000	10,155400
2034,000000	10,188600
2033,000000	10,213200
2032,000000	10,237300
2031,000000	10,275300
2030,000000	10,310900
2029,000000	10,309100
2028,000000	10,312600
2027,000000	10,335900
2026,000000	10,362000
2025,000000	10,374200
2024,000000	10,380200
2023,000000	10,390300
2022,000000	10,396500
2021,000000	10,409700
2020,000000	10,406000
2019,000000	10,417100
2018,000000	10,415600
2017,000000	10,414700
2016,000000	10,417900
2015,000000	10,406700
2014,000000	10,389900
2013,000000	10,384100
2012,000000	10,380400
2011,000000	10,369000
2010,000000	10,360900
2009,000000	10,341600
2008,000000	10,326600
2007,000000	10,313400
2006,000000	10,274000
2005,000000	10,253100
2004,000000	10,228900
2003,000000	10,212300
2002,000000	10,190900
2001,000000	10,138800
2000,000000	10,119000
1999,000000	10,097200
1998,000000	10,047600
1997,000000	10,023200
1996,000000	9,987200
1995,000000	9,928900
1994,000000	9,905600
1993,000000	9,869800
1992,000000	9,828000
1991,000000	9,790100
1990,000000	9,740500
1989,000000	9,684800
1988,000000	9,651600
1987,000000	9,611200
1986,000000	9,578800
1985,000000	9,531200
1984,000000	9,488200
1983,000000	9,441300
1982,000000	9,387600
1981,000000	9,341700
1980,000000	9,310100
1979,000000	9,256400
1978,000000	9,218100
1977,000000	9,169400
1976,000000	9,124600
1975,000000	9,093600
1974,000000	9,059700
1973,000000	9,017700
1972,000000	8,985000
1971,000000	8,928700
1970,000000	8,898400
1969,000000	8,853800
1968,000000	8,825600
1967,000000	8,776600
1966,000000	8,757000
1965,000000	8,714500
1964,000000	8,669800
1963,000000	8,623300
1962,000000	8,614700
1961,000000	8,598400
1960,000000	8,538700
1959,000000	8,513100
1958,000000	8,462300
1957,000000	8,442500
1956,000000	8,407000
1955,000000	8,371200
1954,000000	8,354200
1953,000000	8,319700
1952,000000	8,300700
1951,000000	8,279800
1950,000000	8,254600
1949,000000	8,213800
1948,000000	8,200800
1947,000000	8,147800
1946,000000	8,147900
1945,000000	8,132800
1944,000000	8,113300
1943,000000	8,095800
1942,000000	8,074300
1941,000000	8,068900
1940,000000	8,054400
1939,000000	8,058600
1938,000000	8,051800
1937,000000	8,057400
1936,000000	8,045200
1935,000000	8,025400
1934,000000	8,025800
1933,000000	8,082200
1932,000000	8,112100
1931,000000	8,124200
1930,000000	8,140800
1929,000000	8,150900
1928,000000	8,185700
1927,000000	8,208600
1926,000000	8,257000
1925,000000	8,291400
1924,000000	8,343400
1923,000000	8,382800
1922,000000	8,418800
1921,000000	8,484300
1920,000000	8,556200
1919,000000	8,631600
1918,000000	8,692900
1917,000000	8,773600
1916,000000	8,839500
1915,000000	8,893200
1914,000000	8,988900
1913,000000	9,083700
1912,000000	9,204300
1911,000000	9,305100
1910,000000	9,397500
1909,000000	9,501000
1908,000000	9,567700
1907,000000	9,691000
1906,000000	9,837300
1905,000000	9,958700
1904,000000	10,136300
1903,000000	10,277100
1902,000000	10,424600
1901,000000	10,580300
1900,000000	10,737900
1899,000000	10,950300
1898,000000	11,137500
1897,000000	11,348500
1896,000000	11,546700
1895,000000	11,711900
1894,000000	11,898500
1893,000000	12,116900
1892,000000	12,343000
1891,000000	12,642200
1890,000000	12,927900
1889,000000	13,221900
1888,000000	13,507200
1887,000000	13,790400
1886,000000	14,099800
1885,000000	14,432600
1884,000000	14,823400
1883,000000	15,213600
1882,000000	15,600800
1881,000000	16,002500
1880,000000	16,383500
1879,000000	16,747000
1878,000000	17,141200
1877,000000	17,533300
1876,000000	17,908900
1875,000000	18,299800
1874,000000	18,648800
1873,000000	19,038100
1872,000000	19,430200
1871,000000	19,742600
1870,000000	20,075800
1869,000000	20,409400
1868,000000	20,714000
1867,000000	20,950600
1866,000000	21,156200
1865,000000	21,314900
1864,000000	21,479800
1863,000000	21,620200
1862,000000	21,733400
1861,000000	21,918200
1860,000000	22,066900
1859,000000	22,209800
1858,000000	22,341500
1857,000000	22,448900
1856,000000	22,530800
1855,000000	22,586600
1854,000000	22,651600
1853,000000	22,719400
1852,000000	22,742700
1851,000000	22,761600
1850,000000	22,778800
1849,000000	22,790100
1848,000000	22,830600
1847,000000	22,875100
1846,000000	22,878200
1845,000000	22,846700
1844,000000	22,817800
1843,000000	22,776600
1842,000000	22,775900
1841,000000	22,802700
1840,000000	22,806200
1839,000000	22,815300
1838,000000	22,794600
1837,000000	22,768400
1836,000000	22,749800
1835,000000	22,723700
1834,000000	22,676600
1833,000000	22,611100
1832,000000	22,562000
1831,000000	22,513200
1830,000000	22,469200
1829,000000	22,425700
1828,000000	22,381700
1827,000000	22,330300
1826,000000	22,270700
1825,000000	22,242400
1824,000000	22,186500
1823,000000	22,123200
1822,000000	22,104500
1821,000000	22,104400
1820,000000	22,100300
1819,000000	22,075800
1818,000000	22,034700
1817,000000	22,010400
1816,000000	21,980600
1815,000000	21,953800
1814,000000	21,935500
1813,000000	21,927200
1812,000000	21,907600
1811,000000	21,888200
1810,000000	21,872900
1809,000000	21,839800
1808,000000	21,791900
1807,000000	21,749600
1806,000000	21,723000
1805,000000	21,684000
1804,000000	21,631500
1803,000000	21,592800
1802,000000	21,556300
1801,000000	21,519000
1800,000000	21,471800
1799,000000	21,423000
1798,000000	21,384800
1797,000000	21,338300
1796,000000	21,292600
1795,000000	21,241800
1794,000000	21,203400
1793,000000	21,175200
1792,000000	21,133000
1791,000000	21,085300
1790,000000	21,048100
1789,000000	21,010100
1788,000000	20,957900
1787,000000	20,915700
1786,000000	20,864600
1785,000000	20,802000
1784,000000	20,753200
1783,000000	20,700900
1782,000000	20,652500
1781,000000	20,608000
1780,000000	20,542600
1779,000000	20,490300
1778,000000	20,450400
1777,000000	20,395500
1776,000000	20,322100
1775,000000	20,245400
1774,000000	20,174900
1773,000000	20,107900
1772,000000	20,029300
1771,000000	19,953200
1770,000000	19,857000
1769,000000	19,770100
1768,000000	19,696400
1767,000000	19,612600
1766,000000	19,534800
1765,000000	19,477800
1764,000000	19,422400
1763,000000	19,396800
1762,000000	19,390200
1761,000000	19,406000
1760,000000	19,421000
1759,000000	19,453300
1758,000000	19,496500
1757,000000	19,545300
1756,000000	19,602900
1755,000000	19,662700
1754,000000	19,698700
1753,000000	19,731800
1752,000000	19,751300
1751,000000	19,767900
1750,000000	19,768700
1749,000000	19,741400
1748,000000	19,715700
1747,000000	19,692900
1746,000000	19,657100
1745,000000	19,600300
1744,000000	19,533200
1743,000000	19,437200
1742,000000	19,314900
1741,000000	19,196400
1740,000000	19,058600
1739,000000	18,915500
1738,000000	18,765000
1737,000000	18,630600
1736,000000	18,496200
1735,000000	18,382100
1734,000000	18,295200
1733,000000	18,251300
1732,000000	18,230300
1731,000000	18,239600
1730,000000	18,299400
1729,000000	18,339100
1728,000000	18,384900
1727,000000	18,470400
1726,000000	18,531800
1725,000000	18,605700
1724,000000	18,660900
1723,000000	18,717400
1722,000000	18,757600
1721,000000	18,817700
1720,000000	18,859200
1719,000000	18,911200
1718,000000	18,960100
1717,000000	19,026200
1716,000000	19,095800
1715,000000	19,161500
1714,000000	19,232900
1713,000000	19,311700
1712,000000	19,380700
1711,000000	19,436600
1710,000000	19,492900
1709,000000	19,537200
1708,000000	19,546200
1707,000000	19,531200
1706,000000	19,519300
1705,000000	19,509600
1704,000000	19,468500
1703,000000	19,441900
1702,000000	19,373400
1701,000000	19,284400
1700,000000	19,194200
1699,000000	19,087400
1698,000000	18,975300
1697,000000	18,872300
1696,000000	18,785200
1695,000000	18,723100
1694,000000	18,735100
1693,000000	18,738400
1692,000000	18,791200
1691,000000	18,874300
1690,000000	18,979500
1689,000000	19,077200
1688,000000	19,178600
1687,000000	19,250100
1686,000000	19,322800
1685,000000	19,375500
1684,000000	19,455400
1683,000000	19,556400
1682,000000	19,724100
1681,000000	19,950700
1680,000000	20,233500
1679,000000	20,600400
1678,000000	20,996600
1677,000000	21,387500
1676,000000	21,772200
1675,000000	22,125000
1674,000000	22,443600
1673,000000	22,744500
1672,000000	22,991000
1671,000000	23,211200
1670,000000	23,392400
1669,000000	23,578600
1668,000000	23,745600
1667,000000	23,888000
1666,000000	23,998300
1665,000000	24,091800
1664,000000	24,189400
1663,000000	24,280800
1662,000000	24,347300
1661,000000	24,420000
1660,000000	24,472900
1659,000000	24,518500
1658,000000	24,558800
1657,000000	24,569800
1656,000000	24,613900
1655,000000	24,636200
1654,000000	24,609600
1653,000000	24,630700
1652,000000	24,630800
1651,000000	24,616000
1650,000000	24,583000
1649,000000	24,564100
1648,000000	24,519700
1647,000000	24,479800
1646,000000	24,440700
1645,000000	24,399700
1644,000000	24,351600
1643,000000	24,317900
1642,000000	24,260800
1641,000000	24,231900
1640,000000	24,182400
1639,000000	24,119400
1638,000000	24,087200
1637,000000	24,033000
1636,000000	23,965800
1635,000000	23,890700
1634,000000	23,852400
1633,000000	23,791400
1632,000000	23,726300
1631,000000	23,646500
1630,000000	23,598100
1629,000000	23,525900
1628,000000	23,450600
1627,000000	23,389800
1626,000000	23,319900
1625,000000	23,262700
1624,000000	23,166100
1623,000000	23,116000
1622,000000	23,038300
1621,000000	22,967900
1620,000000	22,871900
1619,000000	22,811800
1618,000000	22,763800
1617,000000	22,688500
1616,000000	22,614300
1615,000000	22,566200
1614,000000	22,506400
1613,000000	22,437100
1612,000000	22,374000
1611,000000	22,310200
1610,000000	22,261000
1609,000000	22,200900
1608,000000	22,121600
1607,000000	22,046000
1606,000000	21,981300
1605,000000	21,929100
1604,000000	21,867200
1603,000000	21,802200
1602,000000	21,731100
1601,000000	21,655300
1600,000000	21,582200
1599,000000	21,526900
1598,000000	21,453400
1597,000000	21,387100
1596,000000	21,325300
1595,000000	21,268900
1594,000000	21,210600
1593,000000	21,128700
1592,000000	21,064500
1591,000000	21,030600
1590,000000	20,974100
1589,000000	20,912900
1588,000000	20,877100
1587,000000	20,800900
1586,000000	20,754300
1585,000000	20,719100
1584,000000	20,662500
1583,000000	20,615500
1582,000000	20,566600
1581,000000	20,524000
1580,000000	20,496900
1579,000000	20,460700
1578,000000	20,414000
1577,000000	20,383500
1576,000000	20,369300
1575,000000	20,358500
1574,000000	20,322700
1573,000000	20,293600
1572,000000	20,266800
1571,000000	20,255800
1570,000000	20,243800
1569,000000	20,230400
1568,000000	20,225800
1567,000000	20,222700
1566,000000	20,197400
1565,000000	20,176900
1564,000000	20,179600
1563,000000	20,184800
1562,000000	20,174200
1561,000000	20,164500
1560,000000	20,129500
1559,000000	20,131800
1558,000000	20,118100
1557,000000	20,092100
1556,000000	20,058800
1555,000000	20,039500
1554,000000	20,011200
1553,000000	19,987400
1552,000000	19,943500
1551,000000	19,902800
1550,000000	19,872500
1549,000000	19,833600
1548,000000	19,796300
1547,000000	19,759100
1546,000000	19,725100
1545,000000	19,698700
1544,000000	19,665500
1543,000000	19,631100
1542,000000	19,609600
1541,000000	19,578300
1540,000000	19,544600
1539,000000	19,513100
1538,000000	19,483400
1537,000000	19,448100
1536,000000	19,416300
1535,000000	19,381700
1534,000000	19,360100
1533,000000	19,331500
1532,000000	19,283700
1531,000000	19,257200
1530,000000	19,223200
1529,000000	19,168500
1528,000000	19,125900
1527,000000	19,092400
1526,000000	19,053400
1525,000000	19,000000
1524,000000	18,952200
1523,000000	18,912100
1522,000000	18,866200
1521,000000	18,814600
1520,000000	18,770600
1519,000000	18,730900
1518,000000	18,680400
1517,000000	18,623400
1516,000000	18,567800
1515,000000	18,507900
1514,000000	18,452700
1513,000000	18,406200
1512,000000	18,348800
1511,000000	18,292200
1510,000000	18,234300
1509,000000	18,178700
1508,000000	18,129100
1507,000000	18,069400
1506,000000	18,008400
1505,000000	17,960200
1504,000000	17,901100
1503,000000	17,829300
1502,000000	17,777700
1501,000000	17,741700
1500,000000	17,683200
1499,000000	17,618300
1498,000000	17,580200
1497,000000	17,543400
1496,000000	17,497900
1495,000000	17,453000
1494,000000	17,411900
1493,000000	17,368700
1492,000000	17,334000
1491,000000	17,297200
1490,000000	17,266400
1489,000000	17,246100
1488,000000	17,214100
1487,000000	17,177800
1486,000000	17,149400
1485,000000	17,122100
1484,000000	17,099600
1483,000000	17,064000
1482,000000	17,037500
1481,000000	17,030500
1480,000000	17,018800
1479,000000	16,988800
1478,000000	16,966100
1477,000000	16,953700
1476,000000	16,945900
1475,000000	16,942400
1474,000000	16,925400
1473,000000	16,923100
1472,000000	16,940000
1471,000000	16,948000
1470,000000	16,939400
1469,000000	16,929700
1468,000000	16,924200
1467,000000	16,929300
1466,000000	16,933700
1465,000000	16,944800
1464,000000	16,948400
1463,000000	16,961100
1462,000000	17,000500
1461,000000	17,020000
1460,000000	17,043400
1459,000000	17,086800
1458,000000	17,100000
1457,000000	17,141600
1456,000000	17,173900
1455,000000	17,215800
1454,000000	17,262900
1453,000000	17,324300
1452,000000	17,392700
1451,000000	17,444900
1450,000000	17,508200
1449,000000	17,565300
1448,000000	17,610900
1447,000000	17,666100
1446,000000	17,747200
1445,000000	17,835800
1444,000000	17,900300
1443,000000	17,951400
1442,000000	18,032000
1441,000000	18,118300
1440,000000	18,191800
1439,000000	18,269100
1438,000000	18,370300
1437,000000	18,477700
1436,000000	18,565500
1435,000000	18,646900
1434,000000	18,744900
1433,000000	18,847000
1432,000000	18,973000
1431,000000	19,094200
1430,000000	19,210300
1429,000000	19,311000
1428,000000	19,438000
1427,000000	19,595600
1426,000000	19,739500
1425,000000	19,905400
1424,000000	20,055900
1423,000000	20,240700
1422,000000	20,432300
1421,000000	20,604900
1420,000000	20,801500
1419,000000	21,015400
1418,000000	21,226600
1417,000000	21,453900
1416,000000	21,651800
1415,000000	21,894400
1414,000000	22,183400
1413,000000	22,451700
1412,000000	22,697100
1411,000000	22,961700
1410,000000	23,284400
1409,000000	23,627900
1408,000000	23,987400
1407,000000	24,336600
1406,000000	24,704800
1405,000000	25,074000
1404,000000	25,449800
1403,000000	25,896100
1402,000000	26,257500
1401,000000	26,632900
1400,000000	27,110500
1399,000000	27,566500
1398,000000	27,893700
1397,000000	28,201300
1396,000000	28,572000
1395,000000	29,019800
1394,000000	29,456000
1393,000000	29,773000
1392,000000	30,168600
1391,000000	30,569500
1390,000000	30,984400
1389,000000	31,371200
1388,000000	31,856700
1387,000000	32,411400
1386,000000	32,947900
1385,000000	33,467000
1384,000000	34,009300
1383,000000	34,605800
1382,000000	35,189700
1381,000000	35,739500
1380,000000	36,198100
1379,000000	36,508500
1378,000000	36,809900
1377,000000	37,033800
1376,000000	37,262000
1375,000000	37,500700
1374,000000	37,733900
1373,000000	38,002900
1372,000000	38,290400
1371,000000	38,632900
1370,000000	39,001200
1369,000000	39,278300
1368,000000	39,586100
1367,000000	39,890000
1366,000000	40,112100
1365,000000	40,315900
1364,000000	40,541900
1363,000000	40,717600
1362,000000	40,947100
1361,000000	41,095500
1360,000000	41,283700
1359,000000	41,358900
1358,000000	41,464700
1357,000000	41,573600
1356,000000	41,719800
1355,000000	41,944400
1354,000000	42,264500
1353,000000	42,611000
1352,000000	42,914600
1351,000000	43,329100
1350,000000	43,768700
1349,000000	44,151500
1348,000000	44,494600
1347,000000	44,875900
1346,000000	45,232900
1345,000000	45,510700
1344,000000	45,849500
1343,000000	46,144300
1342,000000	46,433500
1341,000000	46,738100
1340,000000	47,054300
1339,000000	47,338700
1338,000000	47,643600
1337,000000	47,920100
1336,000000	48,193600
1335,000000	48,484900
1334,000000	48,750700
1333,000000	48,995500
1332,000000	49,246600
1331,000000	49,503800
1330,000000	49,742300
1329,000000	49,985100
1328,000000	50,226600
1327,000000	50,458900
1326,000000	50,657900
1325,000000	50,869800
1324,000000	51,061400
1323,000000	51,256900
1322,000000	51,439000
1321,000000	51,631000
1320,000000	51,789100
1319,000000	51,953400
1318,000000	52,125600
1317,000000	52,268700
1316,000000	52,438800
1315,000000	52,587900
1314,000000	52,717500
1313,000000	52,849800
1312,000000	52,971700
1311,000000	53,110600
1310,000000	53,220300
1309,000000	53,326900
1308,000000	53,410500
1307,000000	53,522900
1306,000000	53,597800
1305,000000	53,669500
1304,000000	53,756300
1303,000000	53,824600
1302,000000	53,878100
1301,000000	53,936900
1300,000000	53,983800
1299,000000	54,027600
1298,000000	54,061200
1297,000000	54,114700
1296,000000	54,141400
1295,000000	54,178600
1294,000000	54,202200
1293,000000	54,216100
1292,000000	54,232400
1291,000000	54,227200
1290,000000	54,234100
1289,000000	54,236700
1288,000000	54,237200
1287,000000	54,217600
1286,000000	54,195000
1285,000000	54,160900
1284,000000	54,144000
1283,000000	54,105700
1282,000000	54,071200
1281,000000	54,036400
1280,000000	54,003000
1279,000000	53,963500
1278,000000	53,927600
1277,000000	53,884000
1276,000000	53,846000
1275,000000	53,822800
1274,000000	53,800400
1273,000000	53,769900
1272,000000	53,733800
1271,000000	53,717000
1270,000000	53,688700
1269,000000	53,666200
1268,000000	53,644200
1267,000000	53,626300
1266,000000	53,592500
1265,000000	53,564300
1264,000000	53,536000
1263,000000	53,500900
1262,000000	53,456200
1261,000000	53,418900
1260,000000	53,392400
1259,000000	53,359100
1258,000000	53,309600
1257,000000	53,257600
1256,000000	53,220000
1255,000000	53,149200
1254,000000	53,084500
1253,000000	53,047800
1252,000000	52,989400
1251,000000	52,917100
1250,000000	52,832800
1249,000000	52,754400
1248,000000	52,684900
1247,000000	52,596000
1246,000000	52,507900
1245,000000	52,411300
1244,000000	52,302000
1243,000000	52,196000
1242,000000	52,093200
1241,000000	51,995600
1240,000000	51,888900
1239,000000	51,774200
1238,000000	51,668600
1237,000000	51,557100
1236,000000	51,441500
1235,000000	51,315700
1234,000000	51,183100
1233,000000	51,045800
1232,000000	50,917800
1231,000000	50,781800
1230,000000	50,641600
1229,000000	50,497100
1228,000000	50,334900
1227,000000	50,181400
1226,000000	50,028700
1225,000000	49,870900
1224,000000	49,719100
1223,000000	49,558600
1222,000000	49,403900
1221,000000	49,234700
1220,000000	49,052500
1219,000000	48,896700
1218,000000	48,739100
1217,000000	48,573900
1216,000000	48,441400
1215,000000	48,300500
1214,000000	48,150000
1213,000000	48,003800
1212,000000	47,866400
1211,000000	47,732700
1210,000000	47,609700
1209,000000	47,483300
1208,000000	47,357400
1207,000000	47,241900
1206,000000	47,144600
1205,000000	47,050300
1204,000000	46,957100
1203,000000	46,886200
1202,000000	46,835100
1201,000000	46,770400
1200,000000	46,713900
1199,000000	46,652600
1198,000000	46,567100
1197,000000	46,470000
1196,000000	46,337600
1195,000000	46,184000
1194,000000	45,983700
1193,000000	45,743100
1192,000000	45,474400
1191,000000	45,159900
1190,000000	44,812500
1189,000000	44,481400
1188,000000	44,183600
1187,000000	43,938800
1186,000000	43,776200
1185,000000	43,723400
1184,000000	43,759700
1183,000000	43,900200
1182,000000	44,143300
1181,000000	44,481000
1180,000000	44,847900
1179,000000	45,266000
1178,000000	45,667100
1177,000000	46,028600
1176,000000	46,353600
1175,000000	46,656700
1174,000000	46,920900
1173,000000	47,184500
1172,000000	47,451800
1171,000000	47,726800
1170,000000	48,005100
1169,000000	48,278800
1168,000000	48,562800
1167,000000	48,861600
1166,000000	49,143300
1165,000000	49,451000
1164,000000	49,759400
1163,000000	50,063300
1162,000000	50,395200
1161,000000	50,722000
1160,000000	51,033700
1159,000000	51,352800
1158,000000	51,657500
1157,000000	51,956200
1156,000000	52,235300
1155,000000	52,494100
1154,000000	52,725200
1153,000000	52,942300
1152,000000	53,105000
1151,000000	53,245400
1150,000000	53,372900
1149,000000	53,486000
1148,000000	53,592800
1147,000000	53,715000
1146,000000	53,858300
1145,000000	54,055300
1144,000000	54,271200
1143,000000	54,510100
1142,000000	54,806500
1141,000000	55,130000
1140,000000	55,463300
1139,000000	55,806000
1138,000000	56,153300
1137,000000	56,519600
1136,000000	56,914300
1135,000000	57,315600
1134,000000	57,728000
1133,000000	58,100000
1132,000000	58,410000
1131,000000	58,731700
1130,000000	59,015600
1129,000000	59,267600
1128,000000	59,492100
1127,000000	59,663800
1126,000000	59,794000
1125,000000	59,906100
1124,000000	60,008000
1123,000000	60,107300
1122,000000	60,179900
1121,000000	60,235300
1120,000000	60,261800
1119,000000	60,288400
1118,000000	60,303600
1117,000000	60,317000
1116,000000	60,327600
1115,000000	60,316300
1114,000000	60,317400
1113,000000	60,297200
1112,000000	60,287200
1111,000000	60,283000
1110,000000	60,265700
1109,000000	60,271300
1108,000000	60,233400
1107,000000	60,212100
1106,000000	60,211200
1105,000000	60,186500
1104,000000	60,162600
1103,000000	60,168000
1102,000000	60,143500
1101,000000	60,148500
1100,000000	60,099900
1099,000000	60,091900
1098,000000	60,068100
1097,000000	60,033500
1096,000000	59,987600
1095,000000	59,973100
1094,000000	59,939200
1093,000000	59,911500
1092,000000	59,835700
1091,000000	59,831500
1090,000000	59,779400
1089,000000	59,720000
1088,000000	59,672600
1087,000000	59,615200
1086,000000	59,580700
1085,000000	59,523700
1084,000000	59,469800
1083,000000	59,390300
1082,000000	59,353800
1081,000000	59,280300
1080,000000	59,226000
1079,000000	59,169600
1078,000000	59,095200
1077,000000	59,041700
1076,000000	58,981900
1075,000000	58,930600
1074,000000	58,845100
1073,000000	58,789100
1072,000000	58,724900
1071,000000	58,649500
1070,000000	58,580400
1069,000000	58,512600
1068,000000	58,436800
1067,000000	58,374000
1066,000000	58,293400
1065,000000	58,223900
1064,000000	58,160700
1063,000000	58,080000
1062,000000	57,999600
1061,000000	57,933400
1060,000000	57,844800
1059,000000	57,789400
1058,000000	57,686800
1057,000000	57,589000
1056,000000	57,510400
1055,000000	57,425900
1054,000000	57,344300
1053,000000	57,246500
1052,000000	57,160000
1051,000000	57,079400
1050,000000	57,009300
1049,000000	56,922700
1048,000000	56,831200
1047,000000	56,760600
1046,000000	56,683300
1045,000000	56,605600
1044,000000	56,533100
1043,000000	56,460900
1042,000000	56,377800
1041,000000	56,276100
1040,000000	56,210400
1039,000000	56,109300
1038,000000	56,027700
1037,000000	55,952700
1036,000000	55,869000
1035,000000	55,785700
1034,000000	55,695500
1033,000000	55,588700
1032,000000	55,510800
1031,000000	55,418700
1030,000000	55,304700
1029,000000	55,208100
1028,000000	55,116400
1027,000000	54,996200
1026,000000	54,901900
1025,000000	54,785300
1024,000000	54,679500
1023,000000	54,577400
1022,000000	54,480700
1021,000000	54,358000
1020,000000	54,233600
1019,000000	54,148400
1018,000000	54,025600
1017,000000	53,939900
1016,000000	53,832000
1015,000000	53,726300
1014,000000	53,648500
1013,000000	53,558000
1012,000000	53,468700
1011,000000	53,400100
1010,000000	53,320900
1009,000000	53,236100
1008,000000	53,170300
1007,000000	53,119700
1006,000000	53,060500
1005,000000	52,992800
1004,000000	52,926400
1003,000000	52,872900
1002,000000	52,813200
1001,000000	52,735900
1000,000000	52,669200
999,000000	52,593800
998,000000	52,526200
997,000000	52,480500
996,000000	52,416800
995,000000	52,346500
994,000000	52,279600
993,000000	52,203800
992,000000	52,146000
991,000000	52,091600
990,000000	52,023300
989,000000	51,966500
988,000000	51,930900
987,000000	51,875800
986,000000	51,819200
985,000000	51,767200
984,000000	51,704600
983,000000	51,661900
982,000000	51,616700
981,000000	51,571000
980,000000	51,517900
979,000000	51,462600
978,000000	51,397200
977,000000	51,355600
976,000000	51,295100
975,000000	51,246600
974,000000	51,215600
973,000000	51,167000
972,000000	51,101600
971,000000	51,058100
970,000000	51,015500
969,000000	50,957700
968,000000	50,907900
967,000000	50,861200
966,000000	50,826500
965,000000	50,798100
964,000000	50,755000
963,000000	50,708200
962,000000	50,661800
961,000000	50,627700
960,000000	50,601800
959,000000	50,570300
958,000000	50,537900
957,000000	50,490400
956,000000	50,471100
955,000000	50,443800
954,000000	50,399600
953,000000	50,370000
952,000000	50,336000
951,000000	50,300800
950,000000	50,270000
949,000000	50,221700
948,000000	50,177400
947,000000	50,153600
946,000000	50,109500
945,000000	50,056100
944,000000	49,999400
943,000000	49,950900
942,000000	49,903300
941,000000	49,832100
940,000000	49,765400
939,000000	49,729500
938,000000	49,675900
937,000000	49,601500
936,000000	49,540500
935,000000	49,471600
934,000000	49,437200
933,000000	49,384400
932,000000	49,313600
931,000000	49,242900
930,000000	49,173400
929,000000	49,127800
928,000000	49,070000
927,000000	49,006600
926,000000	48,964700
925,000000	48,907800
924,000000	48,823100
923,000000	48,763200
922,000000	48,703700
921,000000	48,632400
920,000000	48,569800
919,000000	48,506000
918,000000	48,466800
917,000000	48,388600
916,000000	48,307100
915,000000	48,222400
914,000000	48,147000
913,000000	48,080400
912,000000	48,011800
911,000000	47,941600
910,000000	47,883200
909,000000	47,814000
908,000000	47,763900
907,000000	47,720900
906,000000	47,683600
905,000000	47,634000
904,000000	47,598900
903,000000	47,577400
902,000000	47,558800
901,000000	47,523100
900,000000	47,472000
899,000000	47,441200
898,000000	47,445800
897,000000	47,437400
896,000000	47,411200
895,000000	47,392100
894,000000	47,341700
893,000000	47,316200
892,000000	47,277600
891,000000	47,229200
890,000000	47,196800
889,000000	47,165200
888,000000	47,112400
887,000000	47,052100
886,000000	46,992000
885,000000	46,931300
884,000000	46,865700
883,000000	46,777200
882,000000	46,695800
881,000000	46,581500
880,000000	46,499900
879,000000	46,396900
878,000000	46,234200
877,000000	46,125800
876,000000	45,961800
875,000000	45,762900
874,000000	45,547100
873,000000	45,316600
872,000000	45,111200
871,000000	45,022900
870,000000	45,015000
869,000000	45,061300
868,000000	45,068500
867,000000	45,075300
866,000000	45,100000
865,000000	45,101300
864,000000	45,103900
863,000000	45,120900
862,000000	45,133100
861,000000	45,126000
860,000000	45,131000
859,000000	45,133800
858,000000	45,106700
857,000000	50,798200
856,000000	52,423700
855,000000	52,115400
854,000000	51,818400
853,000000	52,375100
852,000000	52,350400
851,000000	52,391700
850,000000	52,243600
849,000000	52,197100
848,000000	52,154000
847,000000	52,287100
846,000000	52,176900
845,000000	52,386300
844,000000	52,348900
843,000000	52,468300
842,000000	52,552000
841,000000	52,481400
840,000000	52,468500
839,000000	52,182700
838,000000	52,147600
837,000000	52,291600
836,000000	52,300100
835,000000	52,316000
834,000000	52,098300
833,000000	52,073600
832,000000	52,216900
831,000000	52,075300
830,000000	52,024200
829,000000	51,876400
828,000000	51,863900
827,000000	51,815900
826,000000	51,683200
825,000000	51,797200
824,000000	51,616300
823,000000	51,644500
822,000000	51,554500
821,000000	51,446900
820,000000	51,394500
819,000000	51,517200
818,000000	51,155300
817,000000	51,143500
816,000000	51,045200
815,000000	51,046300
814,000000	50,902400
813,000000	50,840800
812,000000	50,802200
811,000000	50,674900
810,000000	50,431400
809,000000	50,409900
808,000000	50,412900
807,000000	50,352100
806,000000	50,149000
805,000000	50,068800
804,000000	49,880800
803,000000	49,678300
802,000000	49,875400
801,000000	49,539500
800,000000	49,501500
799,000000	49,337800
798,000000	49,145600
797,000000	49,095100
796,000000	49,000800
795,000000	48,752700
794,000000	48,686300
793,000000	48,553200
792,000000	48,442200
791,000000	48,214100
790,000000	48,101600
789,000000	47,949300
788,000000	47,853000
787,000000	47,637200
786,000000	47,528100
785,000000	47,397200
784,000000	47,195400
783,000000	47,050900
782,000000	46,875100
781,000000	46,655300
780,000000	46,553900
779,000000	46,359400
778,000000	46,229500
777,000000	46,108500
776,000000	45,980400
775,000000	45,665200
774,000000	45,513000
773,000000	45,481700
772,000000	45,314800
771,000000	44,973500
770,000000	44,814100
769,000000	44,762500
768,000000	44,579600
767,000000	44,381100
766,000000	44,094800
765,000000	43,992800
764,000000	43,924900
763,000000	43,659800
762,000000	43,407400
761,000000	43,215700
760,000000	42,988000
759,000000	42,766900
758,000000	42,604200
757,000000	42,384700
756,000000	42,178400
755,000000	41,978900
754,000000	41,779000
753,000000	41,498800
752,000000	41,343700
751,000000	41,081000
750,000000	40,808200
749,000000	40,611600
748,000000	40,339800
747,000000	40,081400
746,000000	39,890100
745,000000	39,710900
744,000000	39,357300
743,000000	39,153200
742,000000	38,907700
741,000000	38,669500
740,000000	38,438000
739,000000	38,220100
738,000000	37,929800
737,000000	37,708200
736,000000	37,481000
735,000000	37,245900
734,000000	36,972900
733,000000	36,701800
732,000000	36,490000
731,000000	36,322400
730,000000	36,025900
729,000000	35,781000
728,000000	35,522300
727,000000	35,267900
726,000000	35,044800
725,000000	34,781100
724,000000	34,501100
723,000000	34,255600
722,000000	33,980800
721,000000	33,718100
720,000000	33,428500
719,000000	33,171900
718,000000	32,928300
717,000000	32,711100
716,000000	32,440100
715,000000	32,207100
714,000000	31,924100
713,000000	31,704000
712,000000	31,492500
711,000000	31,272400
710,000000	31,023500
709,000000	30,771800
708,000000	30,517400
707,000000	30,294500
706,000000	30,091300
705,000000	29,845800
704,000000	29,611500
703,000000	29,367400
702,000000	29,150600
701,000000	28,952300
700,000000	28,691300
699,000000	28,480300
698,000000	28,254800
697,000000	28,094800
696,000000	27,890600
695,000000	27,696200
694,000000	27,454500
693,000000	27,229900
692,000000	27,009500
691,000000	26,816600
690,000000	26,628000
689,000000	26,424000
688,000000	26,218600
687,000000	26,019500
686,000000	25,815800
685,000000	25,626400
684,000000	25,453800
683,000000	25,259500
682,000000	25,048400
681,000000	24,866200
680,000000	24,716400
679,000000	24,529700
678,000000	24,342200
677,000000	24,176400
676,000000	23,990100
675,000000	23,816200
674,000000	23,653300
673,000000	23,492900
672,000000	23,347500
671,000000	23,210500
670,000000	23,044700
669,000000	22,905400
668,000000	22,768200
667,000000	22,634500
666,000000	22,507200
665,000000	22,388800
664,000000	22,265900
663,000000	22,153900
662,000000	22,050400
661,000000	21,914500
660,000000	21,802100
659,000000	21,695500
658,000000	21,582700
657,000000	21,516600
656,000000	21,433100
655,000000	21,333900
654,000000	21,254700
653,000000	21,177500
652,000000	21,099400
651,000000	21,016800
650,000000	20,942600
649,000000	20,880000
648,000000	20,849400
647,000000	20,797000
646,000000	20,752000
645,000000	20,715800
644,000000	20,705600
643,000000	20,680500
642,000000	20,635400
641,000000	20,632400
640,000000	20,648100
639,000000	20,649300
638,000000	20,643500
637,000000	20,662900
636,000000	20,708600
635,000000	20,752300
634,000000	20,778400
633,000000	20,823000
632,000000	20,877600
631,000000	20,943500
630,000000	21,004700
629,000000	21,063700
628,000000	21,141800
627,000000	21,213800
626,000000	21,302700
625,000000	21,406400
624,000000	21,515800
623,000000	21,616700
622,000000	21,716600
621,000000	21,826500
620,000000	21,954400
619,000000	22,071200
618,000000	22,179600
617,000000	22,315700
616,000000	22,450700
615,000000	22,579500
614,000000	22,714800
613,000000	22,865700
612,000000	23,014700
611,000000	23,148600
610,000000	23,299800
609,000000	23,457900
608,000000	23,605700
607,000000	23,761300
606,000000	23,888000
605,000000	24,029400
604,000000	24,172100
603,000000	24,321300
602,000000	24,467900
601,000000	24,612700
600,000000	24,745000
599,000000	24,876600
598,000000	25,002200
597,000000	25,114400
596,000000	25,220300
595,000000	25,326600
594,000000	25,436000
593,000000	25,542100
592,000000	25,638000
591,000000	25,743100
590,000000	25,805600
589,000000	25,879100
588,000000	25,966300
587,000000	26,017000
586,000000	26,094200
585,000000	26,163300
584,000000	26,212600
583,000000	26,268900
582,000000	26,301100
581,000000	26,336100
580,000000	26,392400
579,000000	26,419900
578,000000	26,436000
577,000000	26,457800
576,000000	26,472600
575,000000	26,487800
574,000000	26,492400
573,000000	26,489200
572,000000	26,469400
571,000000	26,473600
570,000000	26,455300
569,000000	26,427000
568,000000	26,421200
567,000000	26,397700
566,000000	26,370100
565,000000	26,338000
564,000000	26,272500
563,000000	26,229000
562,000000	26,192600
561,000000	26,107800
560,000000	26,055700
559,000000	25,916300
558,000000	25,816400
557,000000	25,740600
556,000000	25,643700
555,000000	25,555700
554,000000	25,450700
553,000000	25,328000
552,000000	25,221500
551,000000	25,099600
550,000000	24,960000
549,000000	24,850600
548,000000	24,709500
547,000000	24,572000
546,000000	24,429300
545,000000	24,244400
544,000000	24,077600
543,000000	23,905500
542,000000	23,719600
541,000000	23,528700
540,000000	23,331400
539,000000	23,130000
538,000000	22,935300
537,000000	22,715700
536,000000	22,499100
535,000000	22,254500
534,000000	22,010000
533,000000	21,762800
532,000000	21,520800
531,000000	21,250100
530,000000	20,966600
529,000000	20,709100
528,000000	20,417300
527,000000	20,157300
526,000000	19,867100
525,000000	19,585200
524,000000	19,272900
523,000000	18,961600
522,000000	18,667400
521,000000	18,345600
520,000000	18,049400
519,000000	17,736000
518,000000	17,431800
517,000000	17,123900
516,000000	16,824400
515,000000	16,513300
514,000000	16,223400
513,000000	15,948200
512,000000	15,658400
511,000000	15,383800
510,000000	15,097900
509,000000	14,836100
508,000000	14,589700
507,000000	14,338000
506,000000	14,101500
505,000000	13,864300
504,000000	13,638300
503,000000	13,435700
502,000000	13,224800
501,000000	12,999700
500,000000	12,816900
499,000000	12,621800
498,000000	12,467400
497,000000	12,301100
496,000000	12,153200
495,000000	12,019000
494,000000	11,870000
493,000000	11,723900
492,000000	11,593300
491,000000	11,478800
490,000000	11,385400
489,000000	11,275000
488,000000	11,170200
487,000000	11,088800
486,000000	10,996900
485,000000	10,929600
484,000000	10,833800
483,000000	10,757500
482,000000	10,681000
481,000000	10,596700
480,000000	10,517500
479,000000	10,441200
478,000000	10,349800
477,000000	10,270300
476,000000	10,210900
475,000000	10,131300
474,000000	10,063300
473,000000	9,994800
472,000000	9,919100
471,000000	9,852000
470,000000	9,778400
469,000000	9,709200
468,000000	9,658300
467,000000	9,583900
466,000000	9,533900
465,000000	9,460300
464,000000	9,421900
463,000000	9,370000
462,000000	9,316100
461,000000	9,268700
460,000000	9,201100
459,000000	9,149500
458,000000	9,101000
457,000000	9,032300
456,000000	8,962200
455,000000	8,921800
454,000000	8,856600
453,000000	8,804300
452,000000	8,728300
451,000000	8,667400
450,000000	8,597100
449,000000	8,518500
448,000000	8,446800
447,000000	8,379200
446,000000	8,317100
445,000000	8,222500
444,000000	8,141600
443,000000	8,073700
442,000000	7,998000
441,000000	7,902400
440,000000	7,810300
439,000000	7,733700
438,000000	7,645100
437,000000	7,563800
436,000000	7,475900
435,000000	7,386000
434,000000	7,309000
433,000000	7,229300
432,000000	7,153800
431,000000	7,057700
430,000000	6,993100
429,000000	6,889300
428,000000	6,811600
427,000000	6,742900
426,000000	6,660600
425,000000	6,608300
424,000000	6,532800
423,000000	6,450000
422,000000	6,377400
421,000000	6,312400
420,000000	6,247900
419,000000	6,154000
418,000000	6,098400
417,000000	6,023800
416,000000	5,958400
415,000000	5,886000
414,000000	5,835800
413,000000	5,775700
412,000000	5,702800
411,000000	5,649800
410,000000	5,589800
409,000000	5,532800
408,000000	5,482000
407,000000	5,423200
406,000000	5,380500
405,000000	5,328400
404,000000	5,278700
403,000000	5,214100
402,000000	5,162200
401,000000	5,123000
400,000000	5,070400
399,000000	5,014200
398,000000	4,995300
397,000000	4,961000
396,000000	4,921500
395,000000	4,884900
394,000000	4,841800
393,000000	4,802600
392,000000	4,777800
391,000000	4,745400
390,000000	4,719300
389,000000	4,694800
388,000000	4,673400
387,000000	4,638200
386,000000	4,633600
385,000000	4,611300
384,000000	4,583500
383,000000	4,565700
382,000000	4,537900
381,000000	4,544400
380,000000	4,527700
379,000000	4,487300
378,000000	4,487000
377,000000	4,485100
376,000000	4,350600
375,000000	4,217000
374,000000	4,346000
373,000000	4,341800
372,000000	4,296500
371,000000	4,246300
370,000000	4,316300
369,000000	4,326400
368,000000	4,277600
367,000000	4,339600
366,000000	4,314300
365,000000	4,275000
364,000000	4,326700
363,000000	4,244300
362,000000	4,246700
361,000000	4,233200
360,000000	4,174500
359,000000	4,221700
358,000000	4,243000
357,000000	4,229500
356,000000	4,212400
355,000000	4,263800
354,000000	4,233200
353,000000	4,252800
352,000000	4,271000
351,000000	4,251500
350,000000	4,263100
349,000000	4,213600
348,000000	4,193800
347,000000	4,206600
346,000000	4,239600
345,000000	4,197600
344,000000	4,169700
343,000000	4,229400
342,000000	4,275600
341,000000	4,232400
340,000000	4,187000
339,000000	4,178100
338,000000	4,221900
337,000000	4,295400
336,000000	4,252400
335,000000	4,160800
334,000000	4,136100
333,000000	4,167800
332,000000	4,218600
331,000000	4,302600
330,000000	4,340100
329,000000	4,286300
328,000000	4,339100
327,000000	4,327000
326,000000	4,172700
325,000000	4,131000
324,000000	4,064900
323,000000	4,216000
322,000000	4,290200
321,000000	4,128400
320,000000	4,268600
319,000000	4,451900
318,000000	4,320900
317,000000	4,273800
316,000000	4,290700
315,000000	4,273000
314,000000	4,318500
313,000000	4,317300
312,000000	4,299300
311,000000	4,309000
310,000000	4,328300
309,000000	4,323200
308,000000	4,314900
307,000000	4,336300
306,000000	4,345400
305,000000	4,347100
304,000000	4,336600
303,000000	4,338900
302,000000	4,342900
301,000000	4,342500
300,000000	4,355700
299,000000	4,353700
298,000000	4,344900
297,000000	4,342300
296,000000	4,336300
295,000000	4,325400
294,000000	4,321500
293,000000	4,347100
292,000000	4,356100
291,000000	4,349400
290,000000	4,349700
289,000000	4,370800
288,000000	4,388300
287,000000	4,389800
286,000000	4,405900
285,000000	4,411700
284,000000	4,429900
283,000000	4,423000
282,000000	4,416600
281,000000	4,406200
280,000000	4,421100
279,000000	4,449100
278,000000	4,435700
277,000000	4,437800
276,000000	4,448200
275,000000	4,484400
274,000000	4,465900
273,000000	4,476300
272,000000	4,512600
271,000000	4,496100
270,000000	4,498200
269,000000	4,504400
268,000000	4,520500
267,000000	4,568300
266,000000	4,582500
265,000000	4,574800
264,000000	4,604600
263,000000	4,638800
262,000000	4,662700
261,000000	4,711600
260,000000	4,703200
259,000000	4,725600
258,000000	4,732700
257,000000	4,752900
256,000000	4,738100
255,000000	4,766700
254,000000	4,779700
253,000000	4,796700
252,000000	4,794500
251,000000	4,834000
250,000000	4,827300
