PE UV       SUBTECH     SPECTRUM    ASCII       PEDS        4.00        
   -1
CICIMAUCR0248-3.ASC
24/06/27
16:03:25.00
24/06/27
16:03:25.00
Vinicio Soto Monge
C. resplendens. Sex F. Ventral
250,000000
1
Lambda 1050
1050L1511233
PerkinElmer UV WinLab 6.3.2.0749 / 2.02.05 Lambda 900 UV/VIS/NIR, Aug  7 2015 09:38:08

0
0
3350/servo 860,8/2
0
0
UV/VIS
1
1
1
DoubleDePol,CommonBeamDepol,RBeamAtt,SBeamAtt,60mm sphere, WB InGaAs Detector
0
0
0
0
Program
Program
3350/servo 860,8/2
3350/0,2 860,8/0,2
3350/0,2 860,8/0,2
0
15.00
 
 
 
0
 
860,8
319,2
860,8
Front
100
on
S:100 R:100
0
0
0
0
 
0
 
 
 
0
 
 
0
0
0
0
0
 
 
 
 
0
0


0
0
#HDR
-1
-1
#GR
nm
%R
1.0
0.0
2500,000000
-1,000000
2251
8
62,298300
4,676600
#DATA
2500,000000	5,478100
2499,000000	5,452600
2498,000000	5,472400
2497,000000	5,425500
2496,000000	5,234900
2495,000000	5,386700
2494,000000	5,434400
2493,000000	5,280500
2492,000000	5,319200
2491,000000	5,315200
2490,000000	5,293100
2489,000000	5,300000
2488,000000	5,244900
2487,000000	5,237300
2486,000000	5,280500
2485,000000	5,210000
2484,000000	5,300900
2483,000000	5,318600
2482,000000	5,275100
2481,000000	5,252800
2480,000000	5,228400
2479,000000	5,254800
2478,000000	5,211500
2477,000000	5,197900
2476,000000	5,217800
2475,000000	5,216000
2474,000000	5,216700
2473,000000	5,253300
2472,000000	5,236100
2471,000000	5,217300
2470,000000	5,247500
2469,000000	5,278600
2468,000000	5,242700
2467,000000	5,211700
2466,000000	5,187300
2465,000000	5,221900
2464,000000	5,254500
2463,000000	5,277300
2462,000000	5,250800
2461,000000	5,294100
2460,000000	5,292000
2459,000000	5,276400
2458,000000	5,278600
2457,000000	5,301700
2456,000000	5,325900
2455,000000	5,340600
2454,000000	5,370200
2453,000000	5,384300
2452,000000	5,390400
2451,000000	5,386200
2450,000000	5,390200
2449,000000	5,437800
2448,000000	5,446300
2447,000000	5,472900
2446,000000	5,522500
2445,000000	5,530000
2444,000000	5,534300
2443,000000	5,550300
2442,000000	5,566900
2441,000000	5,600900
2440,000000	5,631100
2439,000000	5,649500
2438,000000	5,676700
2437,000000	5,694700
2436,000000	5,718300
2435,000000	5,730400
2434,000000	5,761900
2433,000000	5,791400
2432,000000	5,789000
2431,000000	5,795000
2430,000000	5,831700
2429,000000	5,859300
2428,000000	5,869100
2427,000000	5,881000
2426,000000	5,900000
2425,000000	5,920200
2424,000000	5,941500
2423,000000	5,967200
2422,000000	5,990200
2421,000000	5,986500
2420,000000	6,003400
2419,000000	6,004700
2418,000000	6,019200
2417,000000	6,036600
2416,000000	6,058900
2415,000000	6,078100
2414,000000	6,086200
2413,000000	6,082300
2412,000000	6,106000
2411,000000	6,126000
2410,000000	6,144000
2409,000000	6,145700
2408,000000	6,143500
2407,000000	6,168000
2406,000000	6,181000
2405,000000	6,183000
2404,000000	6,214900
2403,000000	6,245500
2402,000000	6,270400
2401,000000	6,286900
2400,000000	6,273500
2399,000000	6,286100
2398,000000	6,302100
2397,000000	6,322900
2396,000000	6,353100
2395,000000	6,360000
2394,000000	6,364000
2393,000000	6,378900
2392,000000	6,395700
2391,000000	6,400300
2390,000000	6,394400
2389,000000	6,421400
2388,000000	6,434600
2387,000000	6,432000
2386,000000	6,442100
2385,000000	6,456000
2384,000000	6,457600
2383,000000	6,465300
2382,000000	6,459000
2381,000000	6,466400
2380,000000	6,473000
2379,000000	6,481800
2378,000000	6,478100
2377,000000	6,467700
2376,000000	6,475700
2375,000000	6,484200
2374,000000	6,490200
2373,000000	6,485100
2372,000000	6,466200
2371,000000	6,471300
2370,000000	6,489500
2369,000000	6,492900
2368,000000	6,469600
2367,000000	6,456800
2366,000000	6,452700
2365,000000	6,447200
2364,000000	6,433400
2363,000000	6,439000
2362,000000	6,445000
2361,000000	6,423100
2360,000000	6,403500
2359,000000	6,390800
2358,000000	6,393200
2357,000000	6,392400
2356,000000	6,379600
2355,000000	6,368400
2354,000000	6,359700
2353,000000	6,362000
2352,000000	6,374800
2351,000000	6,364200
2350,000000	6,350900
2349,000000	6,367500
2348,000000	6,372500
2347,000000	6,387800
2346,000000	6,395500
2345,000000	6,379500
2344,000000	6,381300
2343,000000	6,408900
2342,000000	6,414100
2341,000000	6,430500
2340,000000	6,450300
2339,000000	6,447800
2338,000000	6,456400
2337,000000	6,469700
2336,000000	6,480300
2335,000000	6,477700
2334,000000	6,478800
2333,000000	6,480800
2332,000000	6,490700
2331,000000	6,486300
2330,000000	6,476600
2329,000000	6,473200
2328,000000	6,481800
2327,000000	6,472600
2326,000000	6,466400
2325,000000	6,459000
2324,000000	6,444000
2323,000000	6,440300
2322,000000	6,415500
2321,000000	6,394600
2320,000000	6,376300
2319,000000	6,369700
2318,000000	6,349300
2317,000000	6,307800
2316,000000	6,294400
2315,000000	6,272300
2314,000000	6,241400
2313,000000	6,210800
2312,000000	6,204300
2311,000000	6,180600
2310,000000	6,151400
2309,000000	6,119400
2308,000000	6,096800
2307,000000	6,083500
2306,000000	6,078400
2305,000000	6,071400
2304,000000	6,063900
2303,000000	6,062800
2302,000000	6,070600
2301,000000	6,086800
2300,000000	6,097400
2299,000000	6,113900
2298,000000	6,126200
2297,000000	6,135300
2296,000000	6,155500
2295,000000	6,211300
2294,000000	6,220300
2293,000000	6,248600
2292,000000	6,255800
2291,000000	6,284900
2290,000000	6,314900
2289,000000	6,312900
2288,000000	6,322600
2287,000000	6,336700
2286,000000	6,354600
2285,000000	6,333600
2284,000000	6,339100
2283,000000	6,342100
2282,000000	6,347900
2281,000000	6,338900
2280,000000	6,346000
2279,000000	6,319100
2278,000000	6,309400
2277,000000	6,312200
2276,000000	6,297800
2275,000000	6,301800
2274,000000	6,281100
2273,000000	6,276600
2272,000000	6,255100
2271,000000	6,264400
2270,000000	6,268400
2269,000000	6,266300
2268,000000	6,284800
2267,000000	6,308300
2266,000000	6,323100
2265,000000	6,344200
2264,000000	6,365600
2263,000000	6,397700
2262,000000	6,466200
2261,000000	6,498600
2260,000000	6,565700
2259,000000	6,631800
2258,000000	6,707000
2257,000000	6,791900
2256,000000	6,858900
2255,000000	6,932700
2254,000000	7,030600
2253,000000	7,115700
2252,000000	7,213000
2251,000000	7,292100
2250,000000	7,377400
2249,000000	7,481200
2248,000000	7,531100
2247,000000	7,613700
2246,000000	7,686100
2245,000000	7,753500
2244,000000	7,826900
2243,000000	7,873500
2242,000000	7,946700
2241,000000	7,994400
2240,000000	8,038900
2239,000000	8,073300
2238,000000	8,137300
2237,000000	8,161900
2236,000000	8,184900
2235,000000	8,234200
2234,000000	8,225800
2233,000000	8,281300
2232,000000	8,297500
2231,000000	8,311300
2230,000000	8,322600
2229,000000	8,336800
2228,000000	8,306300
2227,000000	8,336000
2226,000000	8,333400
2225,000000	8,325500
2224,000000	8,315300
2223,000000	8,323500
2222,000000	8,287300
2221,000000	8,267100
2220,000000	8,282700
2219,000000	8,257900
2218,000000	8,264800
2217,000000	8,242500
2216,000000	8,232600
2215,000000	8,196700
2214,000000	8,168700
2213,000000	8,154800
2212,000000	8,127400
2211,000000	8,122200
2210,000000	8,089000
2209,000000	8,090800
2208,000000	8,077200
2207,000000	8,055200
2206,000000	8,049900
2205,000000	8,014500
2204,000000	8,031900
2203,000000	8,018900
2202,000000	7,994800
2201,000000	7,998600
2200,000000	8,002100
2199,000000	7,981600
2198,000000	7,969000
2197,000000	7,960700
2196,000000	7,957400
2195,000000	7,946600
2194,000000	7,942600
2193,000000	7,942700
2192,000000	7,937800
2191,000000	7,925000
2190,000000	7,930400
2189,000000	7,925200
2188,000000	7,904900
2187,000000	7,906900
2186,000000	7,906200
2185,000000	7,900200
2184,000000	7,875000
2183,000000	7,862900
2182,000000	7,873200
2181,000000	7,844500
2180,000000	7,857700
2179,000000	7,848000
2178,000000	7,841700
2177,000000	7,829800
2176,000000	7,830600
2175,000000	7,828600
2174,000000	7,812500
2173,000000	7,809200
2172,000000	7,817200
2171,000000	7,811500
2170,000000	7,818800
2169,000000	7,825100
2168,000000	7,820100
2167,000000	7,822600
2166,000000	7,835500
2165,000000	7,834300
2164,000000	7,849900
2163,000000	7,867300
2162,000000	7,868400
2161,000000	7,888500
2160,000000	7,892700
2159,000000	7,908000
2158,000000	7,917900
2157,000000	7,938000
2156,000000	7,975100
2155,000000	7,979900
2154,000000	8,014600
2153,000000	8,037400
2152,000000	8,035000
2151,000000	8,066000
2150,000000	8,093400
2149,000000	8,119200
2148,000000	8,139700
2147,000000	8,178800
2146,000000	8,196700
2145,000000	8,220300
2144,000000	8,247300
2143,000000	8,269900
2142,000000	8,284100
2141,000000	8,305600
2140,000000	8,328700
2139,000000	8,355800
2138,000000	8,372100
2137,000000	8,406700
2136,000000	8,433900
2135,000000	8,449700
2134,000000	8,451000
2133,000000	8,473800
2132,000000	8,482900
2131,000000	8,500000
2130,000000	8,516100
2129,000000	8,527200
2128,000000	8,533100
2127,000000	8,545700
2126,000000	8,555100
2125,000000	8,558700
2124,000000	8,550200
2123,000000	8,558600
2122,000000	8,566700
2121,000000	8,569100
2120,000000	8,575800
2119,000000	8,569700
2118,000000	8,577200
2117,000000	8,573800
2116,000000	8,572000
2115,000000	8,561100
2114,000000	8,549700
2113,000000	8,540200
2112,000000	8,538500
2111,000000	8,533100
2110,000000	8,517000
2109,000000	8,518100
2108,000000	8,520600
2107,000000	8,497400
2106,000000	8,491300
2105,000000	8,493900
2104,000000	8,478900
2103,000000	8,469800
2102,000000	8,463600
2101,000000	8,437400
2100,000000	8,419200
2099,000000	8,417800
2098,000000	8,407300
2097,000000	8,396800
2096,000000	8,390200
2095,000000	8,379400
2094,000000	8,364700
2093,000000	8,353400
2092,000000	8,356500
2091,000000	8,357500
2090,000000	8,345300
2089,000000	8,333500
2088,000000	8,327700
2087,000000	8,323300
2086,000000	8,313500
2085,000000	8,300100
2084,000000	8,285800
2083,000000	8,280600
2082,000000	8,268600
2081,000000	8,250500
2080,000000	8,240700
2079,000000	8,228400
2078,000000	8,205900
2077,000000	8,180700
2076,000000	8,154700
2075,000000	8,126200
2074,000000	8,106400
2073,000000	8,080700
2072,000000	8,053400
2071,000000	8,024700
2070,000000	7,986700
2069,000000	7,968800
2068,000000	7,940900
2067,000000	7,905600
2066,000000	7,871800
2065,000000	7,835000
2064,000000	7,799900
2063,000000	7,775300
2062,000000	7,770700
2061,000000	7,743800
2060,000000	7,713500
2059,000000	7,693100
2058,000000	7,682300
2057,000000	7,651700
2056,000000	7,627100
2055,000000	7,625500
2054,000000	7,626000
2053,000000	7,627100
2052,000000	7,627900
2051,000000	7,639900
2050,000000	7,642600
2049,000000	7,658400
2048,000000	7,692100
2047,000000	7,712200
2046,000000	7,748200
2045,000000	7,778200
2044,000000	7,802500
2043,000000	7,847700
2042,000000	7,879200
2041,000000	7,903000
2040,000000	7,950200
2039,000000	7,976100
2038,000000	8,015000
2037,000000	8,064300
2036,000000	8,075900
2035,000000	8,101900
2034,000000	8,142500
2033,000000	8,153800
2032,000000	8,173300
2031,000000	8,204500
2030,000000	8,229900
2029,000000	8,239900
2028,000000	8,262300
2027,000000	8,286700
2026,000000	8,295500
2025,000000	8,301700
2024,000000	8,312200
2023,000000	8,327700
2022,000000	8,340200
2021,000000	8,339400
2020,000000	8,343100
2019,000000	8,332200
2018,000000	8,351200
2017,000000	8,350600
2016,000000	8,341200
2015,000000	8,345400
2014,000000	8,352600
2013,000000	8,342700
2012,000000	8,330500
2011,000000	8,335000
2010,000000	8,343800
2009,000000	8,317800
2008,000000	8,293300
2007,000000	8,285100
2006,000000	8,262700
2005,000000	8,235100
2004,000000	8,230500
2003,000000	8,228100
2002,000000	8,196800
2001,000000	8,164500
2000,000000	8,162800
1999,000000	8,126900
1998,000000	8,102900
1997,000000	8,072300
1996,000000	8,045900
1995,000000	8,043600
1994,000000	8,008400
1993,000000	7,965100
1992,000000	7,938300
1991,000000	7,922000
1990,000000	7,886100
1989,000000	7,843500
1988,000000	7,829000
1987,000000	7,781600
1986,000000	7,741600
1985,000000	7,711100
1984,000000	7,689900
1983,000000	7,644100
1982,000000	7,615900
1981,000000	7,587300
1980,000000	7,555700
1979,000000	7,537200
1978,000000	7,493800
1977,000000	7,450800
1976,000000	7,420300
1975,000000	7,388000
1974,000000	7,354600
1973,000000	7,335800
1972,000000	7,287700
1971,000000	7,275500
1970,000000	7,242200
1969,000000	7,206800
1968,000000	7,183800
1967,000000	7,145400
1966,000000	7,131100
1965,000000	7,128100
1964,000000	7,088200
1963,000000	7,059700
1962,000000	7,024500
1961,000000	7,000800
1960,000000	6,983800
1959,000000	6,956100
1958,000000	6,924400
1957,000000	6,900700
1956,000000	6,869700
1955,000000	6,861800
1954,000000	6,847300
1953,000000	6,800700
1952,000000	6,781700
1951,000000	6,758700
1950,000000	6,746800
1949,000000	6,730600
1948,000000	6,734200
1947,000000	6,683000
1946,000000	6,685700
1945,000000	6,662000
1944,000000	6,639900
1943,000000	6,623200
1942,000000	6,616300
1941,000000	6,613500
1940,000000	6,604100
1939,000000	6,582800
1938,000000	6,586400
1937,000000	6,590200
1936,000000	6,596200
1935,000000	6,590800
1934,000000	6,579100
1933,000000	6,606000
1932,000000	6,591900
1931,000000	6,637600
1930,000000	6,643400
1929,000000	6,660800
1928,000000	6,695200
1927,000000	6,690100
1926,000000	6,734600
1925,000000	6,735100
1924,000000	6,769600
1923,000000	6,795400
1922,000000	6,838700
1921,000000	6,886800
1920,000000	6,896900
1919,000000	6,947500
1918,000000	7,002500
1917,000000	7,044700
1916,000000	7,093200
1915,000000	7,173000
1914,000000	7,241900
1913,000000	7,314200
1912,000000	7,363000
1911,000000	7,431100
1910,000000	7,514500
1909,000000	7,590800
1908,000000	7,668100
1907,000000	7,759000
1906,000000	7,866600
1905,000000	7,965700
1904,000000	8,077300
1903,000000	8,213000
1902,000000	8,342800
1901,000000	8,452700
1900,000000	8,584200
1899,000000	8,724800
1898,000000	8,890100
1897,000000	9,063300
1896,000000	9,233900
1895,000000	9,401600
1894,000000	9,554600
1893,000000	9,720500
1892,000000	9,919300
1891,000000	10,126300
1890,000000	10,398900
1889,000000	10,636900
1888,000000	10,847700
1887,000000	11,101900
1886,000000	11,355100
1885,000000	11,628600
1884,000000	11,933200
1883,000000	12,241800
1882,000000	12,591200
1881,000000	12,898000
1880,000000	13,233900
1879,000000	13,534300
1878,000000	13,849100
1877,000000	14,163300
1876,000000	14,485300
1875,000000	14,821400
1874,000000	15,150600
1873,000000	15,475800
1872,000000	15,794500
1871,000000	16,109700
1870,000000	16,429400
1869,000000	16,716200
1868,000000	16,993300
1867,000000	17,224800
1866,000000	17,455400
1865,000000	17,618900
1864,000000	17,810400
1863,000000	17,952700
1862,000000	18,069700
1861,000000	18,244800
1860,000000	18,421900
1859,000000	18,566200
1858,000000	18,712200
1857,000000	18,836500
1856,000000	18,937900
1855,000000	19,014500
1854,000000	19,088700
1853,000000	19,162300
1852,000000	19,228700
1851,000000	19,255400
1850,000000	19,296400
1849,000000	19,316800
1848,000000	19,344700
1847,000000	19,386600
1846,000000	19,428700
1845,000000	19,442300
1844,000000	19,414500
1843,000000	19,394600
1842,000000	19,382800
1841,000000	19,409200
1840,000000	19,439400
1839,000000	19,432600
1838,000000	19,400600
1837,000000	19,393800
1836,000000	19,366000
1835,000000	19,361600
1834,000000	19,339800
1833,000000	19,289300
1832,000000	19,248600
1831,000000	19,211700
1830,000000	19,180300
1829,000000	19,154100
1828,000000	19,123300
1827,000000	19,073700
1826,000000	19,023100
1825,000000	18,989400
1824,000000	18,942200
1823,000000	18,893000
1822,000000	18,855800
1821,000000	18,849900
1820,000000	18,868800
1819,000000	18,856400
1818,000000	18,821400
1817,000000	18,785500
1816,000000	18,769100
1815,000000	18,753100
1814,000000	18,718700
1813,000000	18,695700
1812,000000	18,687700
1811,000000	18,677800
1810,000000	18,657800
1809,000000	18,622300
1808,000000	18,581800
1807,000000	18,553000
1806,000000	18,523900
1805,000000	18,482400
1804,000000	18,439900
1803,000000	18,409400
1802,000000	18,382300
1801,000000	18,350800
1800,000000	18,309700
1799,000000	18,263600
1798,000000	18,214300
1797,000000	18,173900
1796,000000	18,127900
1795,000000	18,089600
1794,000000	18,059700
1793,000000	18,025500
1792,000000	17,989600
1791,000000	17,950400
1790,000000	17,916700
1789,000000	17,883400
1788,000000	17,858000
1787,000000	17,820400
1786,000000	17,781700
1785,000000	17,740200
1784,000000	17,703400
1783,000000	17,668100
1782,000000	17,622000
1781,000000	17,578500
1780,000000	17,523600
1779,000000	17,469800
1778,000000	17,439900
1777,000000	17,388200
1776,000000	17,337100
1775,000000	17,296700
1774,000000	17,232700
1773,000000	17,173800
1772,000000	17,111900
1771,000000	17,048400
1770,000000	16,990600
1769,000000	16,926600
1768,000000	16,859000
1767,000000	16,803600
1766,000000	16,747600
1765,000000	16,684800
1764,000000	16,648700
1763,000000	16,616800
1762,000000	16,606200
1761,000000	16,601100
1760,000000	16,620500
1759,000000	16,643900
1758,000000	16,670200
1757,000000	16,711700
1756,000000	16,754400
1755,000000	16,809500
1754,000000	16,856600
1753,000000	16,900500
1752,000000	16,924600
1751,000000	16,930400
1750,000000	16,941200
1749,000000	16,943000
1748,000000	16,927100
1747,000000	16,911700
1746,000000	16,891500
1745,000000	16,849800
1744,000000	16,811000
1743,000000	16,744000
1742,000000	16,660300
1741,000000	16,556900
1740,000000	16,456900
1739,000000	16,346300
1738,000000	16,218800
1737,000000	16,094300
1736,000000	15,982900
1735,000000	15,874700
1734,000000	15,799700
1733,000000	15,747700
1732,000000	15,707000
1731,000000	15,704700
1730,000000	15,695400
1729,000000	15,713200
1728,000000	15,735500
1727,000000	15,781500
1726,000000	15,832600
1725,000000	15,898200
1724,000000	15,944200
1723,000000	15,996500
1722,000000	16,051700
1721,000000	16,103100
1720,000000	16,150300
1719,000000	16,201900
1718,000000	16,256800
1717,000000	16,333000
1716,000000	16,399600
1715,000000	16,474000
1714,000000	16,571900
1713,000000	16,664700
1712,000000	16,747000
1711,000000	16,804700
1710,000000	16,866900
1709,000000	16,935200
1708,000000	16,958800
1707,000000	16,948700
1706,000000	16,972800
1705,000000	16,955500
1704,000000	16,927200
1703,000000	16,910300
1702,000000	16,878700
1701,000000	16,810700
1700,000000	16,733100
1699,000000	16,656400
1698,000000	16,559000
1697,000000	16,459200
1696,000000	16,379000
1695,000000	16,311100
1694,000000	16,262000
1693,000000	16,251500
1692,000000	16,256400
1691,000000	16,320200
1690,000000	16,364500
1689,000000	16,441800
1688,000000	16,522200
1687,000000	16,603300
1686,000000	16,650400
1685,000000	16,716400
1684,000000	16,791700
1683,000000	16,877900
1682,000000	16,992000
1681,000000	17,163300
1680,000000	17,407400
1679,000000	17,658100
1678,000000	17,963600
1677,000000	18,292600
1676,000000	18,615800
1675,000000	18,939300
1674,000000	19,214200
1673,000000	19,459400
1672,000000	19,700000
1671,000000	19,921600
1670,000000	20,107800
1669,000000	20,271100
1668,000000	20,421900
1667,000000	20,545600
1666,000000	20,675500
1665,000000	20,791500
1664,000000	20,893500
1663,000000	20,955700
1662,000000	21,054600
1661,000000	21,130900
1660,000000	21,196600
1659,000000	21,223200
1658,000000	21,279700
1657,000000	21,351900
1656,000000	21,350200
1655,000000	21,378800
1654,000000	21,397600
1653,000000	21,381600
1652,000000	21,401100
1651,000000	21,376400
1650,000000	21,377000
1649,000000	21,346800
1648,000000	21,340500
1647,000000	21,291600
1646,000000	21,266700
1645,000000	21,229300
1644,000000	21,187200
1643,000000	21,151800
1642,000000	21,128600
1641,000000	21,063400
1640,000000	21,040400
1639,000000	20,995400
1638,000000	20,940300
1637,000000	20,896200
1636,000000	20,847100
1635,000000	20,811300
1634,000000	20,755100
1633,000000	20,668300
1632,000000	20,629500
1631,000000	20,561300
1630,000000	20,495100
1629,000000	20,423500
1628,000000	20,365800
1627,000000	20,307300
1626,000000	20,244900
1625,000000	20,165300
1624,000000	20,104300
1623,000000	20,038500
1622,000000	19,967100
1621,000000	19,909700
1620,000000	19,858400
1619,000000	19,785600
1618,000000	19,718300
1617,000000	19,656200
1616,000000	19,586400
1615,000000	19,539800
1614,000000	19,489700
1613,000000	19,421500
1612,000000	19,396600
1611,000000	19,327200
1610,000000	19,260800
1609,000000	19,188600
1608,000000	19,133300
1607,000000	19,072900
1606,000000	19,009700
1605,000000	18,938000
1604,000000	18,884600
1603,000000	18,817500
1602,000000	18,745900
1601,000000	18,680300
1600,000000	18,607400
1599,000000	18,546000
1598,000000	18,480200
1597,000000	18,397200
1596,000000	18,352100
1595,000000	18,276200
1594,000000	18,228000
1593,000000	18,189300
1592,000000	18,128600
1591,000000	18,060800
1590,000000	18,008700
1589,000000	17,957500
1588,000000	17,899700
1587,000000	17,836500
1586,000000	17,797300
1585,000000	17,740300
1584,000000	17,693600
1583,000000	17,649200
1582,000000	17,602100
1581,000000	17,544000
1580,000000	17,497400
1579,000000	17,451800
1578,000000	17,425900
1577,000000	17,396700
1576,000000	17,373500
1575,000000	17,348500
1574,000000	17,310200
1573,000000	17,289600
1572,000000	17,256900
1571,000000	17,238100
1570,000000	17,232000
1569,000000	17,195100
1568,000000	17,168100
1567,000000	17,159800
1566,000000	17,159500
1565,000000	17,138000
1564,000000	17,126600
1563,000000	17,130200
1562,000000	17,109800
1561,000000	17,079300
1560,000000	17,071400
1559,000000	17,044900
1558,000000	17,018700
1557,000000	17,002800
1556,000000	16,974100
1555,000000	16,917900
1554,000000	16,887400
1553,000000	16,858200
1552,000000	16,831900
1551,000000	16,797500
1550,000000	16,746200
1549,000000	16,696700
1548,000000	16,645200
1547,000000	16,616600
1546,000000	16,569200
1545,000000	16,521900
1544,000000	16,488500
1543,000000	16,457000
1542,000000	16,432600
1541,000000	16,398900
1540,000000	16,355600
1539,000000	16,322100
1538,000000	16,298200
1537,000000	16,260700
1536,000000	16,234000
1535,000000	16,200500
1534,000000	16,151300
1533,000000	16,117600
1532,000000	16,091400
1531,000000	16,055800
1530,000000	16,008200
1529,000000	15,962300
1528,000000	15,928000
1527,000000	15,882600
1526,000000	15,831100
1525,000000	15,772000
1524,000000	15,720600
1523,000000	15,683600
1522,000000	15,640000
1521,000000	15,604400
1520,000000	15,558700
1519,000000	15,499700
1518,000000	15,441800
1517,000000	15,376400
1516,000000	15,327800
1515,000000	15,281200
1514,000000	15,230900
1513,000000	15,177300
1512,000000	15,125600
1511,000000	15,073600
1510,000000	15,018800
1509,000000	14,961400
1508,000000	14,912900
1507,000000	14,857300
1506,000000	14,791400
1505,000000	14,734100
1504,000000	14,685100
1503,000000	14,628600
1502,000000	14,568300
1501,000000	14,519400
1500,000000	14,475100
1499,000000	14,431800
1498,000000	14,379600
1497,000000	14,331900
1496,000000	14,303800
1495,000000	14,266200
1494,000000	14,214200
1493,000000	14,177000
1492,000000	14,127300
1491,000000	14,096500
1490,000000	14,081400
1489,000000	14,050400
1488,000000	14,017700
1487,000000	13,985600
1486,000000	13,964400
1485,000000	13,940700
1484,000000	13,912200
1483,000000	13,883000
1482,000000	13,860600
1481,000000	13,862700
1480,000000	13,854300
1479,000000	13,828400
1478,000000	13,811400
1477,000000	13,798900
1476,000000	13,794300
1475,000000	13,767600
1474,000000	13,770100
1473,000000	13,771200
1472,000000	13,779200
1471,000000	13,771000
1470,000000	13,775600
1469,000000	13,770300
1468,000000	13,778600
1467,000000	13,788200
1466,000000	13,787800
1465,000000	13,814200
1464,000000	13,823600
1463,000000	13,832300
1462,000000	13,846900
1461,000000	13,857100
1460,000000	13,877600
1459,000000	13,903100
1458,000000	13,931900
1457,000000	13,944300
1456,000000	13,972700
1455,000000	14,012100
1454,000000	14,061900
1453,000000	14,105400
1452,000000	14,157100
1451,000000	14,203900
1450,000000	14,259900
1449,000000	14,304000
1448,000000	14,340100
1447,000000	14,380700
1446,000000	14,449600
1445,000000	14,506900
1444,000000	14,551600
1443,000000	14,600000
1442,000000	14,664600
1441,000000	14,724600
1440,000000	14,812800
1439,000000	14,879400
1438,000000	14,950500
1437,000000	15,015400
1436,000000	15,089100
1435,000000	15,170900
1434,000000	15,238000
1433,000000	15,341800
1432,000000	15,440200
1431,000000	15,517200
1430,000000	15,609400
1429,000000	15,721700
1428,000000	15,834600
1427,000000	15,951900
1426,000000	16,069800
1425,000000	16,203300
1424,000000	16,326800
1423,000000	16,486500
1422,000000	16,648900
1421,000000	16,774400
1420,000000	16,958300
1419,000000	17,137000
1418,000000	17,335400
1417,000000	17,539800
1416,000000	17,714100
1415,000000	17,899100
1414,000000	18,143200
1413,000000	18,409800
1412,000000	18,630600
1411,000000	18,856700
1410,000000	19,144900
1409,000000	19,446200
1408,000000	19,755200
1407,000000	20,083500
1406,000000	20,402200
1405,000000	20,722300
1404,000000	21,127400
1403,000000	21,455300
1402,000000	21,832100
1401,000000	22,193300
1400,000000	22,634900
1399,000000	23,074100
1398,000000	23,468700
1397,000000	23,762300
1396,000000	24,095600
1395,000000	24,577800
1394,000000	25,067700
1393,000000	25,412800
1392,000000	25,804400
1391,000000	26,270900
1390,000000	26,738800
1389,000000	27,174700
1388,000000	27,649700
1387,000000	28,226100
1386,000000	28,796600
1385,000000	29,371800
1384,000000	29,891800
1383,000000	30,489800
1382,000000	31,120600
1381,000000	31,717800
1380,000000	32,255100
1379,000000	32,601500
1378,000000	33,007300
1377,000000	33,314300
1376,000000	33,573400
1375,000000	33,849900
1374,000000	34,111400
1373,000000	34,370200
1372,000000	34,676400
1371,000000	35,003300
1370,000000	35,355700
1369,000000	35,680300
1368,000000	35,967200
1367,000000	36,268800
1366,000000	36,547000
1365,000000	36,777400
1364,000000	37,021700
1363,000000	37,226600
1362,000000	37,399800
1361,000000	37,613500
1360,000000	37,828600
1359,000000	37,970800
1358,000000	38,069300
1357,000000	38,187900
1356,000000	38,328200
1355,000000	38,507100
1354,000000	38,781000
1353,000000	39,105800
1352,000000	39,399500
1351,000000	39,795600
1350,000000	40,222400
1349,000000	40,622900
1348,000000	41,027500
1347,000000	41,422700
1346,000000	41,817400
1345,000000	42,141800
1344,000000	42,476500
1343,000000	42,857600
1342,000000	43,208000
1341,000000	43,523600
1340,000000	43,881300
1339,000000	44,199200
1338,000000	44,549300
1337,000000	44,869900
1336,000000	45,183500
1335,000000	45,522500
1334,000000	45,834700
1333,000000	46,149600
1332,000000	46,461500
1331,000000	46,756100
1330,000000	47,063000
1329,000000	47,365200
1328,000000	47,642700
1327,000000	47,916400
1326,000000	48,189700
1325,000000	48,456400
1324,000000	48,729300
1323,000000	48,954400
1322,000000	49,201000
1321,000000	49,438700
1320,000000	49,668000
1319,000000	49,874800
1318,000000	50,086900
1317,000000	50,282900
1316,000000	50,490300
1315,000000	50,690500
1314,000000	50,869500
1313,000000	51,048700
1312,000000	51,226500
1311,000000	51,408600
1310,000000	51,555700
1309,000000	51,717800
1308,000000	51,856000
1307,000000	51,979500
1306,000000	52,106100
1305,000000	52,218000
1304,000000	52,348100
1303,000000	52,432800
1302,000000	52,527000
1301,000000	52,618600
1300,000000	52,690800
1299,000000	52,758000
1298,000000	52,827100
1297,000000	52,890600
1296,000000	52,933800
1295,000000	52,990000
1294,000000	53,035800
1293,000000	53,073000
1292,000000	53,114700
1291,000000	53,136000
1290,000000	53,147700
1289,000000	53,168500
1288,000000	53,175600
1287,000000	53,177800
1286,000000	53,166600
1285,000000	53,159600
1284,000000	53,128900
1283,000000	53,087700
1282,000000	53,062500
1281,000000	53,042900
1280,000000	53,006700
1279,000000	52,958900
1278,000000	52,909200
1277,000000	52,886700
1276,000000	52,845200
1275,000000	52,814300
1274,000000	52,787500
1273,000000	52,768900
1272,000000	52,732800
1271,000000	52,715700
1270,000000	52,684900
1269,000000	52,664300
1268,000000	52,655500
1267,000000	52,624900
1266,000000	52,588200
1265,000000	52,557800
1264,000000	52,532300
1263,000000	52,494000
1262,000000	52,464100
1261,000000	52,426800
1260,000000	52,376500
1259,000000	52,334400
1258,000000	52,296400
1257,000000	52,253800
1256,000000	52,203600
1255,000000	52,145000
1254,000000	52,093400
1253,000000	52,032200
1252,000000	51,964000
1251,000000	51,898200
1250,000000	51,830900
1249,000000	51,738400
1248,000000	51,648600
1247,000000	51,564700
1246,000000	51,463400
1245,000000	51,359400
1244,000000	51,265100
1243,000000	51,153100
1242,000000	51,029100
1241,000000	50,920400
1240,000000	50,808000
1239,000000	50,687000
1238,000000	50,577700
1237,000000	50,452800
1236,000000	50,328900
1235,000000	50,206200
1234,000000	50,081200
1233,000000	49,958900
1232,000000	49,820000
1231,000000	49,679300
1230,000000	49,544300
1229,000000	49,391200
1228,000000	49,247800
1227,000000	49,101500
1226,000000	48,945600
1225,000000	48,792400
1224,000000	48,628400
1223,000000	48,460200
1222,000000	48,295400
1221,000000	48,128300
1220,000000	47,959300
1219,000000	47,798700
1218,000000	47,644800
1217,000000	47,492500
1216,000000	47,331200
1215,000000	47,177100
1214,000000	47,038400
1213,000000	46,881300
1212,000000	46,744300
1211,000000	46,619600
1210,000000	46,470400
1209,000000	46,325000
1208,000000	46,197100
1207,000000	46,078200
1206,000000	45,962300
1205,000000	45,834600
1204,000000	45,743300
1203,000000	45,661400
1202,000000	45,576200
1201,000000	45,513400
1200,000000	45,438900
1199,000000	45,380500
1198,000000	45,304900
1197,000000	45,214300
1196,000000	45,104300
1195,000000	44,969100
1194,000000	44,798900
1193,000000	44,594100
1192,000000	44,360000
1191,000000	44,069000
1190,000000	43,765700
1189,000000	43,452700
1188,000000	43,139600
1187,000000	42,866300
1186,000000	42,687000
1185,000000	42,573700
1184,000000	42,556000
1183,000000	42,659000
1182,000000	42,832300
1181,000000	43,108400
1180,000000	43,472100
1179,000000	43,868200
1178,000000	44,251200
1177,000000	44,634700
1176,000000	44,992800
1175,000000	45,320100
1174,000000	45,617200
1173,000000	45,905600
1172,000000	46,178600
1171,000000	46,458600
1170,000000	46,748500
1169,000000	47,016200
1168,000000	47,318500
1167,000000	47,618500
1166,000000	47,944300
1165,000000	48,259500
1164,000000	48,586600
1163,000000	48,929500
1162,000000	49,281800
1161,000000	49,640700
1160,000000	49,988500
1159,000000	50,351200
1158,000000	50,710800
1157,000000	51,063500
1156,000000	51,402600
1155,000000	51,718100
1154,000000	52,006200
1153,000000	52,287700
1152,000000	52,529500
1151,000000	52,748900
1150,000000	52,951200
1149,000000	53,123100
1148,000000	53,296800
1147,000000	53,479500
1146,000000	53,670900
1145,000000	53,888800
1144,000000	54,178800
1143,000000	54,475200
1142,000000	54,813300
1141,000000	55,195500
1140,000000	55,600400
1139,000000	56,013100
1138,000000	56,451700
1137,000000	56,908100
1136,000000	57,388500
1135,000000	57,890500
1134,000000	58,418400
1133,000000	58,903600
1132,000000	59,366000
1131,000000	59,772300
1130,000000	60,148700
1129,000000	60,493800
1128,000000	60,810000
1127,000000	61,078200
1126,000000	61,305100
1125,000000	61,496100
1124,000000	61,629300
1123,000000	61,758400
1122,000000	61,890100
1121,000000	61,971100
1120,000000	62,048500
1119,000000	62,101700
1118,000000	62,153100
1117,000000	62,198700
1116,000000	62,216400
1115,000000	62,247100
1114,000000	62,260400
1113,000000	62,271000
1112,000000	62,276400
1111,000000	62,278400
1110,000000	62,277200
1109,000000	62,297700
1108,000000	62,288800
1107,000000	62,276100
1106,000000	62,275900
1105,000000	62,289500
1104,000000	62,298300
1103,000000	62,289200
1102,000000	62,275500
1101,000000	62,291300
1100,000000	62,274500
1099,000000	62,281900
1098,000000	62,273600
1097,000000	62,261300
1096,000000	62,231700
1095,000000	62,230600
1094,000000	62,193100
1093,000000	62,170100
1092,000000	62,161900
1091,000000	62,132200
1090,000000	62,089500
1089,000000	62,045400
1088,000000	62,011500
1087,000000	61,987300
1086,000000	61,933200
1085,000000	61,903100
1084,000000	61,835800
1083,000000	61,803000
1082,000000	61,736600
1081,000000	61,690800
1080,000000	61,655400
1079,000000	61,598500
1078,000000	61,537300
1077,000000	61,470900
1076,000000	61,429000
1075,000000	61,354800
1074,000000	61,314000
1073,000000	61,250200
1072,000000	61,189000
1071,000000	61,107800
1070,000000	61,053900
1069,000000	60,994200
1068,000000	60,924600
1067,000000	60,863500
1066,000000	60,783700
1065,000000	60,725800
1064,000000	60,651200
1063,000000	60,587100
1062,000000	60,509800
1061,000000	60,424500
1060,000000	60,348000
1059,000000	60,251000
1058,000000	60,204100
1057,000000	60,105700
1056,000000	60,025300
1055,000000	59,950500
1054,000000	59,872500
1053,000000	59,785200
1052,000000	59,684000
1051,000000	59,614200
1050,000000	59,531200
1049,000000	59,475800
1048,000000	59,404100
1047,000000	59,304600
1046,000000	59,240700
1045,000000	59,177000
1044,000000	59,089600
1043,000000	59,006500
1042,000000	58,932500
1041,000000	58,872100
1040,000000	58,790400
1039,000000	58,713400
1038,000000	58,632200
1037,000000	58,545800
1036,000000	58,487600
1035,000000	58,392100
1034,000000	58,281400
1033,000000	58,207600
1032,000000	58,150800
1031,000000	58,044800
1030,000000	57,946200
1029,000000	57,826200
1028,000000	57,764500
1027,000000	57,668700
1026,000000	57,555000
1025,000000	57,458000
1024,000000	57,358300
1023,000000	57,265900
1022,000000	57,171400
1021,000000	57,054700
1020,000000	56,956400
1019,000000	56,863900
1018,000000	56,755900
1017,000000	56,646400
1016,000000	56,588800
1015,000000	56,500000
1014,000000	56,413300
1013,000000	56,347700
1012,000000	56,261100
1011,000000	56,199900
1010,000000	56,143000
1009,000000	56,100100
1008,000000	56,030300
1007,000000	55,998600
1006,000000	55,956900
1005,000000	55,912200
1004,000000	55,878600
1003,000000	55,830200
1002,000000	55,791900
1001,000000	55,753100
1000,000000	55,718800
999,000000	55,672000
998,000000	55,626700
997,000000	55,585600
996,000000	55,546000
995,000000	55,523100
994,000000	55,490400
993,000000	55,451700
992,000000	55,414700
991,000000	55,395600
990,000000	55,366900
989,000000	55,331000
988,000000	55,319800
987,000000	55,311600
986,000000	55,276700
985,000000	55,251700
984,000000	55,239700
983,000000	55,229100
982,000000	55,211700
981,000000	55,199100
980,000000	55,198900
979,000000	55,187600
978,000000	55,201700
977,000000	55,207600
976,000000	55,194200
975,000000	55,171500
974,000000	55,168300
973,000000	55,187500
972,000000	55,179000
971,000000	55,168800
970,000000	55,150700
969,000000	55,152500
968,000000	55,177800
967,000000	55,177500
966,000000	55,175900
965,000000	55,192100
964,000000	55,207700
963,000000	55,223100
962,000000	55,238800
961,000000	55,240100
960,000000	55,260900
959,000000	55,280900
958,000000	55,305900
957,000000	55,337200
956,000000	55,373300
955,000000	55,401500
954,000000	55,420300
953,000000	55,440200
952,000000	55,463200
951,000000	55,504500
950,000000	55,539900
949,000000	55,553700
948,000000	55,563700
947,000000	55,583700
946,000000	55,603800
945,000000	55,623100
944,000000	55,624500
943,000000	55,615300
942,000000	55,627700
941,000000	55,625800
940,000000	55,611100
939,000000	55,595600
938,000000	55,566900
937,000000	55,563700
936,000000	55,550900
935,000000	55,542100
934,000000	55,528100
933,000000	55,507800
932,000000	55,488900
931,000000	55,468700
930,000000	55,453800
929,000000	55,427500
928,000000	55,405900
927,000000	55,369100
926,000000	55,330100
925,000000	55,295400
924,000000	55,282000
923,000000	55,247700
922,000000	55,191700
921,000000	55,154300
920,000000	55,116800
919,000000	55,071100
918,000000	55,021600
917,000000	54,973300
916,000000	54,925300
915,000000	54,864200
914,000000	54,804800
913,000000	54,749600
912,000000	54,684700
911,000000	54,658800
910,000000	54,605200
909,000000	54,542700
908,000000	54,481000
907,000000	54,428200
906,000000	54,389500
905,000000	54,357400
904,000000	54,314900
903,000000	54,271400
902,000000	54,262700
901,000000	54,223600
900,000000	54,182200
899,000000	54,147400
898,000000	54,131300
897,000000	54,104100
896,000000	54,081900
895,000000	54,060900
894,000000	53,994000
893,000000	53,957600
892,000000	53,925100
891,000000	53,887400
890,000000	53,826100
889,000000	53,770400
888,000000	53,693700
887,000000	53,643100
886,000000	53,597400
885,000000	53,540600
884,000000	53,469200
883,000000	53,374700
882,000000	53,295500
881,000000	53,224800
880,000000	53,134300
879,000000	53,058000
878,000000	52,964500
877,000000	52,866500
876,000000	52,762500
875,000000	52,622100
874,000000	52,479900
873,000000	52,340000
872,000000	52,231500
871,000000	52,055100
870,000000	51,903600
869,000000	51,847400
868,000000	51,827700
867,000000	51,837800
866,000000	51,853000
865,000000	51,861800
864,000000	51,847200
863,000000	51,853000
862,000000	51,844900
861,000000	51,852100
860,000000	51,859100
859,000000	51,854600
858,000000	51,823800
857,000000	56,322200
856,000000	56,940000
855,000000	56,828000
854,000000	56,397900
853,000000	56,527500
852,000000	56,420900
851,000000	56,839000
850,000000	56,768400
849,000000	56,745000
848,000000	56,805900
847,000000	56,560600
846,000000	56,599700
845,000000	56,562300
844,000000	56,839300
843,000000	56,644900
842,000000	56,415800
841,000000	56,681900
840,000000	56,410500
839,000000	56,397300
838,000000	56,205000
837,000000	56,185200
836,000000	56,035500
835,000000	56,050700
834,000000	56,224600
833,000000	56,175300
832,000000	56,145500
831,000000	55,964400
830,000000	55,774900
829,000000	55,895900
828,000000	55,891800
827,000000	55,677800
826,000000	55,612400
825,000000	55,506600
824,000000	55,541200
823,000000	55,433400
822,000000	55,485500
821,000000	55,386900
820,000000	55,055800
819,000000	54,993700
818,000000	54,947300
817,000000	54,956800
816,000000	54,790400
815,000000	54,603700
814,000000	54,664500
813,000000	54,614200
812,000000	54,367400
811,000000	54,303500
810,000000	54,156200
809,000000	54,070700
808,000000	54,007700
807,000000	53,935500
806,000000	54,009300
805,000000	53,918500
804,000000	53,589700
803,000000	53,330500
802,000000	53,300300
801,000000	53,152900
800,000000	53,267600
799,000000	53,098800
798,000000	52,928000
797,000000	52,805100
796,000000	52,663900
795,000000	52,658800
794,000000	52,481600
793,000000	52,261700
792,000000	52,214500
791,000000	52,028300
790,000000	51,982900
789,000000	51,738000
788,000000	51,692500
787,000000	51,480500
786,000000	51,538300
785,000000	51,500900
784,000000	51,201300
783,000000	51,100000
782,000000	50,970700
781,000000	50,932500
780,000000	50,712800
779,000000	50,535900
778,000000	50,552800
777,000000	50,314500
776,000000	50,249600
775,000000	49,976600
774,000000	49,840900
773,000000	49,728100
772,000000	49,593700
771,000000	49,570200
770,000000	49,340400
769,000000	49,185000
768,000000	49,026800
767,000000	48,788500
766,000000	48,680300
765,000000	48,558100
764,000000	48,387900
763,000000	48,238100
762,000000	48,001100
761,000000	47,986500
760,000000	47,773400
759,000000	47,549800
758,000000	47,428100
757,000000	47,201800
756,000000	47,089300
755,000000	46,841600
754,000000	46,694200
753,000000	46,541900
752,000000	46,316400
751,000000	46,122600
750,000000	45,892400
749,000000	45,679500
748,000000	45,528200
747,000000	45,382700
746,000000	45,153100
745,000000	44,961400
744,000000	44,829900
743,000000	44,569800
742,000000	44,423200
741,000000	44,158700
740,000000	43,926000
739,000000	43,868200
738,000000	43,475900
737,000000	43,237000
736,000000	43,122100
735,000000	42,855900
734,000000	42,651200
733,000000	42,432000
732,000000	42,271800
731,000000	41,995000
730,000000	41,829800
729,000000	41,604600
728,000000	41,393600
727,000000	41,136300
726,000000	40,906800
725,000000	40,705100
724,000000	40,460400
723,000000	40,283700
722,000000	40,055200
721,000000	39,801200
720,000000	39,565600
719,000000	39,333700
718,000000	39,117500
717,000000	38,911600
716,000000	38,627000
715,000000	38,378600
714,000000	38,150400
713,000000	37,894600
712,000000	37,613000
711,000000	37,445300
710,000000	37,227200
709,000000	36,945300
708,000000	36,733700
707,000000	36,505300
706,000000	36,286700
705,000000	35,997200
704,000000	35,680700
703,000000	35,426200
702,000000	35,178600
701,000000	34,923000
700,000000	34,627300
699,000000	34,401200
698,000000	34,134700
697,000000	33,871700
696,000000	33,601000
695,000000	33,328500
694,000000	33,098100
693,000000	32,842300
692,000000	32,609800
691,000000	32,335700
690,000000	32,077000
689,000000	31,813500
688,000000	31,593100
687,000000	31,372900
686,000000	31,098200
685,000000	30,867000
684,000000	30,629600
683,000000	30,409900
682,000000	30,170800
681,000000	29,941600
680,000000	29,752300
679,000000	29,557700
678,000000	29,355800
677,000000	29,167300
676,000000	28,992400
675,000000	28,808700
674,000000	28,632000
673,000000	28,467600
672,000000	28,313700
671,000000	28,160400
670,000000	28,009300
669,000000	27,867600
668,000000	27,725800
667,000000	27,599700
666,000000	27,447400
665,000000	27,306100
664,000000	27,184500
663,000000	27,079800
662,000000	26,973000
661,000000	26,841100
660,000000	26,714400
659,000000	26,628400
658,000000	26,548700
657,000000	26,448200
656,000000	26,374100
655,000000	26,303100
654,000000	26,220100
653,000000	26,164300
652,000000	26,129900
651,000000	26,082300
650,000000	26,006100
649,000000	25,962500
648,000000	25,932900
647,000000	25,907300
646,000000	25,875000
645,000000	25,842100
644,000000	25,840200
643,000000	25,828300
642,000000	25,834400
641,000000	25,843800
640,000000	25,832100
639,000000	25,842400
638,000000	25,844000
637,000000	25,853800
636,000000	25,891200
635,000000	25,923800
634,000000	25,934900
633,000000	25,968300
632,000000	26,009900
631,000000	26,036400
630,000000	26,086200
629,000000	26,144600
628,000000	26,198300
627,000000	26,246900
626,000000	26,297100
625,000000	26,364300
624,000000	26,397400
623,000000	26,444300
622,000000	26,518800
621,000000	26,582000
620,000000	26,634700
619,000000	26,696900
618,000000	26,747400
617,000000	26,811700
616,000000	26,879400
615,000000	26,946200
614,000000	27,033500
613,000000	27,080300
612,000000	27,123600
611,000000	27,182400
610,000000	27,238400
609,000000	27,311700
608,000000	27,390400
607,000000	27,457400
606,000000	27,495800
605,000000	27,532600
604,000000	27,596100
603,000000	27,649300
602,000000	27,693700
601,000000	27,725700
600,000000	27,788200
599,000000	27,802900
598,000000	27,809400
597,000000	27,843900
596,000000	27,862800
595,000000	27,880600
594,000000	27,884400
593,000000	27,876400
592,000000	27,897700
591,000000	27,892900
590,000000	27,871300
589,000000	27,831900
588,000000	27,795600
587,000000	27,757000
586,000000	27,708300
585,000000	27,658100
584,000000	27,600400
583,000000	27,528600
582,000000	27,465100
581,000000	27,410600
580,000000	27,337900
579,000000	27,248100
578,000000	27,140700
577,000000	27,043600
576,000000	26,927100
575,000000	26,801300
574,000000	26,683600
573,000000	26,574800
572,000000	26,451700
571,000000	26,279500
570,000000	26,138600
569,000000	26,005300
568,000000	25,809200
567,000000	25,634300
566,000000	25,452800
565,000000	25,275600
564,000000	25,104800
563,000000	24,894200
562,000000	24,712800
561,000000	24,490200
560,000000	24,291200
559,000000	24,087700
558,000000	23,879000
557,000000	23,664700
556,000000	23,406700
555,000000	23,179000
554,000000	22,944100
553,000000	22,697400
552,000000	22,450500
551,000000	22,193100
550,000000	21,976600
549,000000	21,718800
548,000000	21,482900
547,000000	21,227700
546,000000	20,983500
545,000000	20,726100
544,000000	20,475500
543,000000	20,229000
542,000000	19,986300
541,000000	19,744000
540,000000	19,507800
539,000000	19,269600
538,000000	19,036200
537,000000	18,807500
536,000000	18,595000
535,000000	18,366800
534,000000	18,153000
533,000000	17,935100
532,000000	17,711300
531,000000	17,511400
530,000000	17,290000
529,000000	17,094900
528,000000	16,910900
527,000000	16,710600
526,000000	16,511500
525,000000	16,332500
524,000000	16,143000
523,000000	15,950800
522,000000	15,773200
521,000000	15,590900
520,000000	15,423700
519,000000	15,252900
518,000000	15,095000
517,000000	14,927200
516,000000	14,774600
515,000000	14,604300
514,000000	14,461300
513,000000	14,306800
512,000000	14,155500
511,000000	14,018600
510,000000	13,876500
509,000000	13,765000
508,000000	13,658000
507,000000	13,514800
506,000000	13,393500
505,000000	13,292200
504,000000	13,195400
503,000000	13,057400
502,000000	12,982200
501,000000	12,890300
500,000000	12,813300
499,000000	12,745000
498,000000	12,677100
497,000000	12,571800
496,000000	12,510500
495,000000	12,435600
494,000000	12,383000
493,000000	12,354900
492,000000	12,279900
491,000000	12,261500
490,000000	12,210700
489,000000	12,189200
488,000000	12,151500
487,000000	12,116500
486,000000	12,096600
485,000000	12,071700
484,000000	12,047000
483,000000	12,011600
482,000000	11,985200
481,000000	11,959200
480,000000	11,923100
479,000000	11,895000
478,000000	11,856900
477,000000	11,819200
476,000000	11,791800
475,000000	11,768500
474,000000	11,708800
473,000000	11,680000
472,000000	11,640400
471,000000	11,617300
470,000000	11,560500
469,000000	11,525900
468,000000	11,480500
467,000000	11,422100
466,000000	11,400300
465,000000	11,352700
464,000000	11,323500
463,000000	11,276000
462,000000	11,242800
461,000000	11,194600
460,000000	11,162900
459,000000	11,103000
458,000000	11,066500
457,000000	10,997600
456,000000	10,953800
455,000000	10,898900
454,000000	10,845300
453,000000	10,795300
452,000000	10,736100
451,000000	10,652900
450,000000	10,595500
449,000000	10,536500
448,000000	10,470400
447,000000	10,419300
446,000000	10,339200
445,000000	10,264400
444,000000	10,196700
443,000000	10,108200
442,000000	10,063400
441,000000	9,965800
440,000000	9,876300
439,000000	9,803900
438,000000	9,752000
437,000000	9,652000
436,000000	9,560500
435,000000	9,469000
434,000000	9,414400
433,000000	9,331300
432,000000	9,232900
431,000000	9,169600
430,000000	9,092500
429,000000	8,999600
428,000000	8,936000
427,000000	8,867400
426,000000	8,795100
425,000000	8,707200
424,000000	8,614300
423,000000	8,544700
422,000000	8,479000
421,000000	8,411400
420,000000	8,319700
419,000000	8,245000
418,000000	8,169400
417,000000	8,111000
416,000000	8,042100
415,000000	7,955600
414,000000	7,893200
413,000000	7,830200
412,000000	7,740300
411,000000	7,680300
410,000000	7,600400
409,000000	7,521900
408,000000	7,443800
407,000000	7,370000
406,000000	7,297500
405,000000	7,211300
404,000000	7,153400
403,000000	7,072300
402,000000	7,016500
401,000000	6,934400
400,000000	6,856200
399,000000	6,793500
398,000000	6,714100
397,000000	6,639800
396,000000	6,554800
395,000000	6,481500
394,000000	6,418600
393,000000	6,352400
392,000000	6,271300
391,000000	6,202500
390,000000	6,153600
389,000000	6,061600
388,000000	5,996000
387,000000	5,938100
386,000000	5,871900
385,000000	5,805900
384,000000	5,746500
383,000000	5,698100
382,000000	5,641300
381,000000	5,573000
380,000000	5,527900
379,000000	5,467000
378,000000	5,416000
377,000000	5,359800
376,000000	5,256200
375,000000	5,027000
374,000000	4,854400
373,000000	4,808500
372,000000	5,020700
371,000000	5,096100
370,000000	5,039700
369,000000	4,929600
368,000000	4,820700
367,000000	4,796900
366,000000	4,804300
365,000000	4,828600
364,000000	4,802700
363,000000	4,802900
362,000000	4,799600
361,000000	4,936300
360,000000	5,009900
359,000000	4,886200
358,000000	4,930900
357,000000	4,959300
356,000000	4,837900
355,000000	4,824600
354,000000	4,907100
353,000000	4,894600
352,000000	4,911500
351,000000	4,918100
350,000000	4,828100
349,000000	4,824600
348,000000	4,761100
347,000000	4,766900
346,000000	4,729800
345,000000	4,754600
344,000000	4,768700
343,000000	4,710000
342,000000	4,737000
341,000000	5,029600
340,000000	5,054400
339,000000	5,016200
338,000000	5,170500
337,000000	5,010200
336,000000	4,871500
335,000000	4,776800
334,000000	4,676600
333,000000	4,720900
332,000000	5,008300
331,000000	5,204500
330,000000	4,945200
329,000000	5,010600
328,000000	5,336700
327,000000	5,468300
326,000000	5,584900
325,000000	5,570800
324,000000	5,602700
323,000000	5,530100
322,000000	5,455600
321,000000	5,738500
320,000000	5,782800
319,000000	5,444800
318,000000	5,551300
317,000000	5,569700
316,000000	5,039100
315,000000	4,765900
314,000000	4,777100
313,000000	4,785900
312,000000	4,755600
311,000000	4,757500
310,000000	4,812400
309,000000	4,791700
308,000000	4,779500
307,000000	4,813600
306,000000	4,790700
305,000000	4,803900
304,000000	4,802200
303,000000	4,749700
302,000000	4,795800
301,000000	4,827100
300,000000	4,816600
299,000000	4,815800
298,000000	4,762900
297,000000	4,738300
296,000000	4,774300
295,000000	4,835900
294,000000	4,880500
293,000000	4,870100
292,000000	4,850500
291,000000	4,847000
290,000000	4,844000
289,000000	4,861700
288,000000	4,860700
287,000000	4,820500
286,000000	4,811500
285,000000	4,820100
284,000000	4,823300
283,000000	4,884900
282,000000	4,880600
281,000000	4,850700
280,000000	4,893100
279,000000	4,942800
278,000000	4,891800
277,000000	4,930300
276,000000	4,927900
275,000000	4,937800
274,000000	4,952500
273,000000	4,942700
272,000000	4,974400
271,000000	4,994400
270,000000	5,014800
269,000000	4,982200
268,000000	5,019500
267,000000	5,074200
266,000000	5,108000
265,000000	5,099200
264,000000	5,128300
263,000000	5,131700
262,000000	5,140300
261,000000	5,184600
260,000000	5,224000
259,000000	5,236900
258,000000	5,221300
257,000000	5,271200
256,000000	5,276600
255,000000	5,261500
254,000000	5,286700
253,000000	5,310900
252,000000	5,272600
251,000000	5,332400
250,000000	5,332700
