PE UV       SUBTECH     SPECTRUM    ASCII       PEDS        4.00        
   -1
CICIMAUCR0215-3.Sample.ASC
24/06/13
14:57:01.00
24/06/13
14:57:01.00
Vinicio Soto Monge
C. cupreomarginata. Sex M. Ventral 
250,000000
1
Lambda 1050
1050L1511233
PerkinElmer UV WinLab 6.3.2.0749 / 2.02.05 Lambda 900 UV/VIS/NIR, Aug  7 2015 09:38:08

0
0
3350/servo 860,8/2
0
0
UV/VIS
1
1
1
DoubleDePol,CommonBeamDepol,RBeamAtt,SBeamAtt,60mm sphere, WB InGaAs Detector
0
0
0
0
Program
Program
3350/servo 860,8/2
3350/0,2 860,8/0,2
3350/0,2 860,8/0,2
0
15.00
 
 
 
0
 
860,8
319,2
860,8
Front
100
on
S:100 R:100
0
0
0
0
 
0
 
 
 
0
 
 
0
0
0
0
0
 
 
 
 
0
0


0
0
#HDR
-1
-1
#GR
nm
%R
1.0
0.0
2500,000000
-1,000000
2251
8
61,258900
4,228600
#DATA
2500,000000	6,345600
2499,000000	6,357400
2498,000000	6,272400
2497,000000	6,292200
2496,000000	6,296800
2495,000000	6,248100
2494,000000	6,289600
2493,000000	6,272500
2492,000000	6,168500
2491,000000	6,234700
2490,000000	6,212300
2489,000000	6,173400
2488,000000	6,231900
2487,000000	6,198600
2486,000000	6,150100
2485,000000	6,112200
2484,000000	6,141000
2483,000000	6,175400
2482,000000	6,179200
2481,000000	6,148100
2480,000000	6,073200
2479,000000	6,119700
2478,000000	6,113500
2477,000000	6,090000
2476,000000	6,089300
2475,000000	6,096200
2474,000000	6,066100
2473,000000	6,101100
2472,000000	6,111000
2471,000000	6,088200
2470,000000	6,136100
2469,000000	6,098900
2468,000000	6,083900
2467,000000	6,109100
2466,000000	6,090400
2465,000000	6,120500
2464,000000	6,107500
2463,000000	6,091900
2462,000000	6,141100
2461,000000	6,174100
2460,000000	6,180900
2459,000000	6,147000
2458,000000	6,187900
2457,000000	6,246100
2456,000000	6,277000
2455,000000	6,275900
2454,000000	6,317300
2453,000000	6,325700
2452,000000	6,330300
2451,000000	6,375600
2450,000000	6,407000
2449,000000	6,432100
2448,000000	6,457500
2447,000000	6,493800
2446,000000	6,529000
2445,000000	6,560800
2444,000000	6,624900
2443,000000	6,630000
2442,000000	6,652300
2441,000000	6,698300
2440,000000	6,738000
2439,000000	6,763100
2438,000000	6,778900
2437,000000	6,823900
2436,000000	6,858600
2435,000000	6,874400
2434,000000	6,925300
2433,000000	6,948600
2432,000000	6,985500
2431,000000	6,994800
2430,000000	7,023000
2429,000000	7,041000
2428,000000	7,060300
2427,000000	7,084900
2426,000000	7,121400
2425,000000	7,163600
2424,000000	7,178500
2423,000000	7,192700
2422,000000	7,203400
2421,000000	7,224400
2420,000000	7,262000
2419,000000	7,273900
2418,000000	7,295600
2417,000000	7,316800
2416,000000	7,333700
2415,000000	7,353800
2414,000000	7,387800
2413,000000	7,396800
2412,000000	7,419500
2411,000000	7,433700
2410,000000	7,446600
2409,000000	7,469800
2408,000000	7,478300
2407,000000	7,483600
2406,000000	7,515600
2405,000000	7,548400
2404,000000	7,542900
2403,000000	7,547600
2402,000000	7,564000
2401,000000	7,585300
2400,000000	7,597500
2399,000000	7,629100
2398,000000	7,669300
2397,000000	7,684400
2396,000000	7,709500
2395,000000	7,730300
2394,000000	7,759900
2393,000000	7,768900
2392,000000	7,758700
2391,000000	7,785500
2390,000000	7,810900
2389,000000	7,818000
2388,000000	7,826200
2387,000000	7,830600
2386,000000	7,855900
2385,000000	7,877400
2384,000000	7,882900
2383,000000	7,885100
2382,000000	7,871700
2381,000000	7,877100
2380,000000	7,896900
2379,000000	7,904800
2378,000000	7,894600
2377,000000	7,888800
2376,000000	7,886100
2375,000000	7,873900
2374,000000	7,869000
2373,000000	7,866400
2372,000000	7,863200
2371,000000	7,855100
2370,000000	7,844500
2369,000000	7,829000
2368,000000	7,816400
2367,000000	7,808200
2366,000000	7,789100
2365,000000	7,765600
2364,000000	7,752500
2363,000000	7,727500
2362,000000	7,705400
2361,000000	7,685200
2360,000000	7,669400
2359,000000	7,646800
2358,000000	7,621700
2357,000000	7,601300
2356,000000	7,580700
2355,000000	7,570200
2354,000000	7,562600
2353,000000	7,558300
2352,000000	7,554200
2351,000000	7,560600
2350,000000	7,554900
2349,000000	7,554800
2348,000000	7,566200
2347,000000	7,589700
2346,000000	7,607500
2345,000000	7,631600
2344,000000	7,651300
2343,000000	7,669700
2342,000000	7,709600
2341,000000	7,726700
2340,000000	7,734700
2339,000000	7,755600
2338,000000	7,765000
2337,000000	7,786800
2336,000000	7,790200
2335,000000	7,793200
2334,000000	7,796700
2333,000000	7,799200
2332,000000	7,789900
2331,000000	7,785100
2330,000000	7,781500
2329,000000	7,766500
2328,000000	7,736400
2327,000000	7,718300
2326,000000	7,684800
2325,000000	7,657200
2324,000000	7,631600
2323,000000	7,601700
2322,000000	7,553900
2321,000000	7,514300
2320,000000	7,482500
2319,000000	7,432700
2318,000000	7,390500
2317,000000	7,345800
2316,000000	7,309300
2315,000000	7,262900
2314,000000	7,212400
2313,000000	7,163900
2312,000000	7,125700
2311,000000	7,077800
2310,000000	7,044200
2309,000000	7,016500
2308,000000	6,985600
2307,000000	6,978900
2306,000000	6,955000
2305,000000	6,951200
2304,000000	6,952200
2303,000000	6,954500
2302,000000	6,979100
2301,000000	6,998200
2300,000000	7,018700
2299,000000	7,071700
2298,000000	7,113600
2297,000000	7,150900
2296,000000	7,163500
2295,000000	7,206500
2294,000000	7,260500
2293,000000	7,290800
2292,000000	7,317600
2291,000000	7,353600
2290,000000	7,354600
2289,000000	7,377700
2288,000000	7,387900
2287,000000	7,394300
2286,000000	7,405500
2285,000000	7,395900
2284,000000	7,389900
2283,000000	7,360900
2282,000000	7,379200
2281,000000	7,350300
2280,000000	7,337500
2279,000000	7,326300
2278,000000	7,295700
2277,000000	7,273600
2276,000000	7,256800
2275,000000	7,231100
2274,000000	7,221300
2273,000000	7,206400
2272,000000	7,206500
2271,000000	7,202200
2270,000000	7,206000
2269,000000	7,210700
2268,000000	7,231100
2267,000000	7,265800
2266,000000	7,314400
2265,000000	7,326700
2264,000000	7,399000
2263,000000	7,480700
2262,000000	7,562600
2261,000000	7,676800
2260,000000	7,756200
2259,000000	7,864400
2258,000000	7,987100
2257,000000	8,109600
2256,000000	8,261200
2255,000000	8,358800
2254,000000	8,515700
2253,000000	8,645800
2252,000000	8,782300
2251,000000	8,930500
2250,000000	9,041600
2249,000000	9,176900
2248,000000	9,305200
2247,000000	9,434000
2246,000000	9,525000
2245,000000	9,633800
2244,000000	9,749600
2243,000000	9,845800
2242,000000	9,912600
2241,000000	9,998800
2240,000000	10,071000
2239,000000	10,142500
2238,000000	10,217400
2237,000000	10,269400
2236,000000	10,322800
2235,000000	10,368200
2234,000000	10,417500
2233,000000	10,462200
2232,000000	10,490600
2231,000000	10,516900
2230,000000	10,538100
2229,000000	10,576900
2228,000000	10,578400
2227,000000	10,586300
2226,000000	10,579400
2225,000000	10,592100
2224,000000	10,592600
2223,000000	10,591100
2222,000000	10,568200
2221,000000	10,578000
2220,000000	10,525100
2219,000000	10,511800
2218,000000	10,506300
2217,000000	10,469100
2216,000000	10,451300
2215,000000	10,437800
2214,000000	10,428300
2213,000000	10,394500
2212,000000	10,370800
2211,000000	10,370600
2210,000000	10,339900
2209,000000	10,331900
2208,000000	10,319300
2207,000000	10,284300
2206,000000	10,281500
2205,000000	10,275100
2204,000000	10,270900
2203,000000	10,231400
2202,000000	10,238200
2201,000000	10,243000
2200,000000	10,218500
2199,000000	10,213300
2198,000000	10,188400
2197,000000	10,181400
2196,000000	10,187300
2195,000000	10,173600
2194,000000	10,174500
2193,000000	10,169400
2192,000000	10,167100
2191,000000	10,152900
2190,000000	10,150200
2189,000000	10,137000
2188,000000	10,126500
2187,000000	10,139200
2186,000000	10,113900
2185,000000	10,094200
2184,000000	10,098300
2183,000000	10,080600
2182,000000	10,069900
2181,000000	10,071400
2180,000000	10,058100
2179,000000	10,051700
2178,000000	10,039300
2177,000000	10,049000
2176,000000	10,040900
2175,000000	10,021000
2174,000000	10,020600
2173,000000	10,020700
2172,000000	10,006000
2171,000000	10,030300
2170,000000	10,014600
2169,000000	10,016100
2168,000000	10,053200
2167,000000	10,036400
2166,000000	10,046300
2165,000000	10,058900
2164,000000	10,047900
2163,000000	10,055500
2162,000000	10,079200
2161,000000	10,101800
2160,000000	10,118000
2159,000000	10,108700
2158,000000	10,141200
2157,000000	10,191800
2156,000000	10,196300
2155,000000	10,216700
2154,000000	10,256000
2153,000000	10,273300
2152,000000	10,315900
2151,000000	10,337800
2150,000000	10,356900
2149,000000	10,396300
2148,000000	10,427600
2147,000000	10,443000
2146,000000	10,469800
2145,000000	10,494800
2144,000000	10,532300
2143,000000	10,565300
2142,000000	10,588300
2141,000000	10,618700
2140,000000	10,645400
2139,000000	10,678100
2138,000000	10,681300
2137,000000	10,698300
2136,000000	10,722000
2135,000000	10,744300
2134,000000	10,757700
2133,000000	10,775700
2132,000000	10,788800
2131,000000	10,781700
2130,000000	10,800700
2129,000000	10,820100
2128,000000	10,837500
2127,000000	10,839600
2126,000000	10,830700
2125,000000	10,829200
2124,000000	10,827200
2123,000000	10,838600
2122,000000	10,823600
2121,000000	10,819000
2120,000000	10,825200
2119,000000	10,810100
2118,000000	10,802800
2117,000000	10,791800
2116,000000	10,770800
2115,000000	10,763800
2114,000000	10,758100
2113,000000	10,744800
2112,000000	10,714600
2111,000000	10,702400
2110,000000	10,694300
2109,000000	10,682300
2108,000000	10,665500
2107,000000	10,647700
2106,000000	10,630900
2105,000000	10,594100
2104,000000	10,593500
2103,000000	10,582400
2102,000000	10,557600
2101,000000	10,531200
2100,000000	10,515700
2099,000000	10,502700
2098,000000	10,473300
2097,000000	10,463500
2096,000000	10,454100
2095,000000	10,432600
2094,000000	10,412800
2093,000000	10,401900
2092,000000	10,386500
2091,000000	10,367200
2090,000000	10,349700
2089,000000	10,333100
2088,000000	10,325000
2087,000000	10,314100
2086,000000	10,290200
2085,000000	10,273800
2084,000000	10,268700
2083,000000	10,244100
2082,000000	10,222100
2081,000000	10,211000
2080,000000	10,183700
2079,000000	10,165000
2078,000000	10,144400
2077,000000	10,109500
2076,000000	10,079800
2075,000000	10,055500
2074,000000	10,015000
2073,000000	9,980100
2072,000000	9,957100
2071,000000	9,918700
2070,000000	9,890300
2069,000000	9,860100
2068,000000	9,822400
2067,000000	9,795500
2066,000000	9,758900
2065,000000	9,713100
2064,000000	9,689500
2063,000000	9,673200
2062,000000	9,643700
2061,000000	9,617900
2060,000000	9,579400
2059,000000	9,556100
2058,000000	9,544800
2057,000000	9,529200
2056,000000	9,539400
2055,000000	9,544900
2054,000000	9,554400
2053,000000	9,557500
2052,000000	9,566200
2051,000000	9,599500
2050,000000	9,619400
2049,000000	9,651500
2048,000000	9,700300
2047,000000	9,754500
2046,000000	9,791100
2045,000000	9,843200
2044,000000	9,894400
2043,000000	9,950600
2042,000000	10,003200
2041,000000	10,062100
2040,000000	10,120700
2039,000000	10,168900
2038,000000	10,209500
2037,000000	10,272500
2036,000000	10,311300
2035,000000	10,361300
2034,000000	10,403100
2033,000000	10,443400
2032,000000	10,468000
2031,000000	10,495100
2030,000000	10,544400
2029,000000	10,565800
2028,000000	10,576800
2027,000000	10,601700
2026,000000	10,628800
2025,000000	10,642000
2024,000000	10,665200
2023,000000	10,677500
2022,000000	10,680300
2021,000000	10,684700
2020,000000	10,712300
2019,000000	10,716300
2018,000000	10,717500
2017,000000	10,728600
2016,000000	10,725600
2015,000000	10,719700
2014,000000	10,712100
2013,000000	10,697500
2012,000000	10,682600
2011,000000	10,682900
2010,000000	10,670100
2009,000000	10,642300
2008,000000	10,636100
2007,000000	10,618900
2006,000000	10,604500
2005,000000	10,575100
2004,000000	10,532900
2003,000000	10,517000
2002,000000	10,470900
2001,000000	10,424400
2000,000000	10,412900
1999,000000	10,382400
1998,000000	10,346400
1997,000000	10,295300
1996,000000	10,247100
1995,000000	10,205500
1994,000000	10,147300
1993,000000	10,120900
1992,000000	10,064700
1991,000000	10,032700
1990,000000	9,978800
1989,000000	9,921700
1988,000000	9,878800
1987,000000	9,817800
1986,000000	9,762700
1985,000000	9,719400
1984,000000	9,661800
1983,000000	9,608800
1982,000000	9,551200
1981,000000	9,510000
1980,000000	9,456900
1979,000000	9,404000
1978,000000	9,346200
1977,000000	9,275800
1976,000000	9,230300
1975,000000	9,208400
1974,000000	9,145300
1973,000000	9,105000
1972,000000	9,063400
1971,000000	9,016800
1970,000000	8,967600
1969,000000	8,917100
1968,000000	8,863100
1967,000000	8,819000
1966,000000	8,783600
1965,000000	8,731300
1964,000000	8,698600
1963,000000	8,636600
1962,000000	8,616600
1961,000000	8,580100
1960,000000	8,534200
1959,000000	8,502800
1958,000000	8,467100
1957,000000	8,425400
1956,000000	8,395500
1955,000000	8,366700
1954,000000	8,301000
1953,000000	8,282600
1952,000000	8,230000
1951,000000	8,202100
1950,000000	8,166700
1949,000000	8,146800
1948,000000	8,118000
1947,000000	8,081400
1946,000000	8,043600
1945,000000	8,030000
1944,000000	8,013200
1943,000000	8,009900
1942,000000	7,994300
1941,000000	7,975700
1940,000000	7,978600
1939,000000	7,946000
1938,000000	7,937800
1937,000000	7,926100
1936,000000	7,941000
1935,000000	7,948000
1934,000000	7,947300
1933,000000	7,954000
1932,000000	7,983600
1931,000000	7,995100
1930,000000	8,017500
1929,000000	8,046200
1928,000000	8,081300
1927,000000	8,104100
1926,000000	8,145900
1925,000000	8,171500
1924,000000	8,235100
1923,000000	8,307400
1922,000000	8,347800
1921,000000	8,400500
1920,000000	8,458200
1919,000000	8,542900
1918,000000	8,615900
1917,000000	8,707700
1916,000000	8,796000
1915,000000	8,876600
1914,000000	8,961400
1913,000000	9,066900
1912,000000	9,178300
1911,000000	9,303500
1910,000000	9,404000
1909,000000	9,523700
1908,000000	9,680600
1907,000000	9,802300
1906,000000	9,957600
1905,000000	10,119900
1904,000000	10,297700
1903,000000	10,440700
1902,000000	10,622200
1901,000000	10,815200
1900,000000	11,014300
1899,000000	11,235700
1898,000000	11,458700
1897,000000	11,712700
1896,000000	11,948100
1895,000000	12,191800
1894,000000	12,428900
1893,000000	12,704000
1892,000000	12,989900
1891,000000	13,324900
1890,000000	13,671600
1889,000000	13,999000
1888,000000	14,339600
1887,000000	14,732700
1886,000000	15,133200
1885,000000	15,563700
1884,000000	16,045400
1883,000000	16,528900
1882,000000	17,020300
1881,000000	17,545600
1880,000000	18,073200
1879,000000	18,557700
1878,000000	19,063400
1877,000000	19,561000
1876,000000	20,066200
1875,000000	20,508600
1874,000000	20,949600
1873,000000	21,390700
1872,000000	21,820800
1871,000000	22,212300
1870,000000	22,591400
1869,000000	22,947200
1868,000000	23,286100
1867,000000	23,594100
1866,000000	23,869400
1865,000000	24,085200
1864,000000	24,298900
1863,000000	24,473000
1862,000000	24,621800
1861,000000	24,798400
1860,000000	24,973500
1859,000000	25,114400
1858,000000	25,241400
1857,000000	25,339500
1856,000000	25,439500
1855,000000	25,508600
1854,000000	25,563000
1853,000000	25,627800
1852,000000	25,646000
1851,000000	25,668800
1850,000000	25,690100
1849,000000	25,702800
1848,000000	25,713000
1847,000000	25,715800
1846,000000	25,687000
1845,000000	25,639900
1844,000000	25,635000
1843,000000	25,614800
1842,000000	25,619600
1841,000000	25,639000
1840,000000	25,615900
1839,000000	25,589700
1838,000000	25,563200
1837,000000	25,516100
1836,000000	25,481200
1835,000000	25,452100
1834,000000	25,403100
1833,000000	25,346100
1832,000000	25,291100
1831,000000	25,244200
1830,000000	25,190200
1829,000000	25,129800
1828,000000	25,071400
1827,000000	24,987000
1826,000000	24,927100
1825,000000	24,876500
1824,000000	24,811100
1823,000000	24,772200
1822,000000	24,750500
1821,000000	24,728800
1820,000000	24,696900
1819,000000	24,651400
1818,000000	24,607600
1817,000000	24,579600
1816,000000	24,569700
1815,000000	24,571900
1814,000000	24,551600
1813,000000	24,533800
1812,000000	24,517900
1811,000000	24,487800
1810,000000	24,456100
1809,000000	24,408200
1808,000000	24,368800
1807,000000	24,342000
1806,000000	24,306200
1805,000000	24,247800
1804,000000	24,187000
1803,000000	24,142600
1802,000000	24,091600
1801,000000	24,035200
1800,000000	23,982500
1799,000000	23,921900
1798,000000	23,864100
1797,000000	23,826000
1796,000000	23,780600
1795,000000	23,718500
1794,000000	23,666800
1793,000000	23,621100
1792,000000	23,565100
1791,000000	23,518200
1790,000000	23,465000
1789,000000	23,401200
1788,000000	23,342700
1787,000000	23,284400
1786,000000	23,243600
1785,000000	23,181700
1784,000000	23,096600
1783,000000	23,032600
1782,000000	22,959900
1781,000000	22,887900
1780,000000	22,819600
1779,000000	22,736700
1778,000000	22,655600
1777,000000	22,579300
1776,000000	22,503000
1775,000000	22,406900
1774,000000	22,306100
1773,000000	22,209700
1772,000000	22,098300
1771,000000	21,999700
1770,000000	21,887500
1769,000000	21,767700
1768,000000	21,665600
1767,000000	21,561900
1766,000000	21,463100
1765,000000	21,377300
1764,000000	21,300900
1763,000000	21,250400
1762,000000	21,229900
1761,000000	21,247600
1760,000000	21,278500
1759,000000	21,314600
1758,000000	21,370700
1757,000000	21,441000
1756,000000	21,493900
1755,000000	21,535100
1754,000000	21,580000
1753,000000	21,617400
1752,000000	21,631900
1751,000000	21,643800
1750,000000	21,633800
1749,000000	21,606100
1748,000000	21,583600
1747,000000	21,532400
1746,000000	21,465200
1745,000000	21,381600
1744,000000	21,279000
1743,000000	21,164500
1742,000000	21,034000
1741,000000	20,867000
1740,000000	20,681100
1739,000000	20,503000
1738,000000	20,316900
1737,000000	20,112700
1736,000000	19,932700
1735,000000	19,804300
1734,000000	19,706600
1733,000000	19,633400
1732,000000	19,608800
1731,000000	19,641000
1730,000000	19,683300
1729,000000	19,753800
1728,000000	19,844600
1727,000000	19,942500
1726,000000	20,041400
1725,000000	20,118500
1724,000000	20,206600
1723,000000	20,272600
1722,000000	20,309800
1721,000000	20,364700
1720,000000	20,406800
1719,000000	20,446400
1718,000000	20,480400
1717,000000	20,557400
1716,000000	20,634700
1715,000000	20,703900
1714,000000	20,788400
1713,000000	20,893300
1712,000000	20,956900
1711,000000	21,014300
1710,000000	21,085700
1709,000000	21,111600
1708,000000	21,133600
1707,000000	21,113500
1706,000000	21,103500
1705,000000	21,085100
1704,000000	21,035300
1703,000000	20,966300
1702,000000	20,885900
1701,000000	20,787300
1700,000000	20,670400
1699,000000	20,536300
1698,000000	20,416100
1697,000000	20,255000
1696,000000	20,146900
1695,000000	20,061700
1694,000000	20,039200
1693,000000	20,087000
1692,000000	20,142100
1691,000000	20,274400
1690,000000	20,403400
1689,000000	20,560600
1688,000000	20,668300
1687,000000	20,787300
1686,000000	20,855000
1685,000000	20,902400
1684,000000	21,002600
1683,000000	21,127400
1682,000000	21,289000
1681,000000	21,573700
1680,000000	21,949200
1679,000000	22,401500
1678,000000	22,892000
1677,000000	23,384000
1676,000000	23,869500
1675,000000	24,311100
1674,000000	24,721500
1673,000000	25,090600
1672,000000	25,409700
1671,000000	25,684400
1670,000000	25,915600
1669,000000	26,129600
1668,000000	26,307500
1667,000000	26,507800
1666,000000	26,632100
1665,000000	26,774600
1664,000000	26,885300
1663,000000	26,980200
1662,000000	27,062600
1661,000000	27,169000
1660,000000	27,213600
1659,000000	27,282400
1658,000000	27,329600
1657,000000	27,355500
1656,000000	27,367500
1655,000000	27,413100
1654,000000	27,416200
1653,000000	27,394800
1652,000000	27,409300
1651,000000	27,400000
1650,000000	27,366700
1649,000000	27,346100
1648,000000	27,293700
1647,000000	27,244800
1646,000000	27,188400
1645,000000	27,141400
1644,000000	27,102800
1643,000000	27,058800
1642,000000	26,992500
1641,000000	26,924400
1640,000000	26,873800
1639,000000	26,815900
1638,000000	26,748500
1637,000000	26,688100
1636,000000	26,623000
1635,000000	26,560600
1634,000000	26,485200
1633,000000	26,398200
1632,000000	26,315700
1631,000000	26,245300
1630,000000	26,169600
1629,000000	26,080100
1628,000000	25,977000
1627,000000	25,893300
1626,000000	25,825100
1625,000000	25,734300
1624,000000	25,658400
1623,000000	25,561200
1622,000000	25,461900
1621,000000	25,379000
1620,000000	25,300900
1619,000000	25,210200
1618,000000	25,139800
1617,000000	25,062300
1616,000000	24,999500
1615,000000	24,910700
1614,000000	24,834200
1613,000000	24,749900
1612,000000	24,676900
1611,000000	24,599800
1610,000000	24,542500
1609,000000	24,452800
1608,000000	24,374400
1607,000000	24,289300
1606,000000	24,221900
1605,000000	24,126900
1604,000000	24,048000
1603,000000	23,968600
1602,000000	23,896300
1601,000000	23,819000
1600,000000	23,734900
1599,000000	23,660300
1598,000000	23,572300
1597,000000	23,485500
1596,000000	23,413700
1595,000000	23,345700
1594,000000	23,273900
1593,000000	23,192900
1592,000000	23,123400
1591,000000	23,055700
1590,000000	22,992000
1589,000000	22,921600
1588,000000	22,868700
1587,000000	22,805400
1586,000000	22,744700
1585,000000	22,705600
1584,000000	22,653400
1583,000000	22,592100
1582,000000	22,543800
1581,000000	22,473600
1580,000000	22,436000
1579,000000	22,389600
1578,000000	22,349200
1577,000000	22,311400
1576,000000	22,295800
1575,000000	22,267100
1574,000000	22,235100
1573,000000	22,225400
1572,000000	22,207200
1571,000000	22,191100
1570,000000	22,173700
1569,000000	22,176100
1568,000000	22,173600
1567,000000	22,166600
1566,000000	22,157400
1565,000000	22,152900
1564,000000	22,138400
1563,000000	22,137800
1562,000000	22,136300
1561,000000	22,125900
1560,000000	22,115100
1559,000000	22,102000
1558,000000	22,099000
1557,000000	22,079900
1556,000000	22,041700
1555,000000	22,021000
1554,000000	21,994900
1553,000000	21,960200
1552,000000	21,928300
1551,000000	21,890500
1550,000000	21,844200
1549,000000	21,803100
1548,000000	21,769800
1547,000000	21,719700
1546,000000	21,679100
1545,000000	21,642700
1544,000000	21,596200
1543,000000	21,565800
1542,000000	21,533200
1541,000000	21,503500
1540,000000	21,472600
1539,000000	21,454600
1538,000000	21,432200
1537,000000	21,398600
1536,000000	21,369900
1535,000000	21,346300
1534,000000	21,308800
1533,000000	21,272000
1532,000000	21,230500
1531,000000	21,187800
1530,000000	21,139200
1529,000000	21,096700
1528,000000	21,055100
1527,000000	21,010100
1526,000000	20,970000
1525,000000	20,923400
1524,000000	20,872800
1523,000000	20,803200
1522,000000	20,743300
1521,000000	20,694500
1520,000000	20,651000
1519,000000	20,602400
1518,000000	20,554400
1517,000000	20,497500
1516,000000	20,423400
1515,000000	20,354800
1514,000000	20,298800
1513,000000	20,239600
1512,000000	20,186500
1511,000000	20,126800
1510,000000	20,051400
1509,000000	19,997700
1508,000000	19,945100
1507,000000	19,870400
1506,000000	19,799700
1505,000000	19,741900
1504,000000	19,675000
1503,000000	19,614600
1502,000000	19,559400
1501,000000	19,495700
1500,000000	19,433400
1499,000000	19,374400
1498,000000	19,322500
1497,000000	19,267000
1496,000000	19,215300
1495,000000	19,177100
1494,000000	19,121600
1493,000000	19,079000
1492,000000	19,051800
1491,000000	19,029200
1490,000000	18,979700
1489,000000	18,930400
1488,000000	18,900800
1487,000000	18,863200
1486,000000	18,828400
1485,000000	18,787400
1484,000000	18,765500
1483,000000	18,746600
1482,000000	18,716500
1481,000000	18,686000
1480,000000	18,673200
1479,000000	18,662700
1478,000000	18,632900
1477,000000	18,628000
1476,000000	18,620000
1475,000000	18,589000
1474,000000	18,573800
1473,000000	18,577100
1472,000000	18,592700
1471,000000	18,595400
1470,000000	18,586200
1469,000000	18,565000
1468,000000	18,565400
1467,000000	18,579600
1466,000000	18,594300
1465,000000	18,601400
1464,000000	18,612900
1463,000000	18,643200
1462,000000	18,651500
1461,000000	18,683200
1460,000000	18,708200
1459,000000	18,756500
1458,000000	18,803500
1457,000000	18,848400
1456,000000	18,910600
1455,000000	18,959900
1454,000000	19,015000
1453,000000	19,082100
1452,000000	19,152500
1451,000000	19,226300
1450,000000	19,302000
1449,000000	19,367000
1448,000000	19,453100
1447,000000	19,522000
1446,000000	19,625200
1445,000000	19,714900
1444,000000	19,787300
1443,000000	19,878900
1442,000000	19,965500
1441,000000	20,074500
1440,000000	20,155100
1439,000000	20,282900
1438,000000	20,384500
1437,000000	20,508300
1436,000000	20,605900
1435,000000	20,701200
1434,000000	20,828100
1433,000000	20,971900
1432,000000	21,107200
1431,000000	21,241400
1430,000000	21,384200
1429,000000	21,527900
1428,000000	21,686000
1427,000000	21,859400
1426,000000	22,024900
1425,000000	22,217700
1424,000000	22,428200
1423,000000	22,653800
1422,000000	22,858500
1421,000000	23,076000
1420,000000	23,309300
1419,000000	23,557800
1418,000000	23,819200
1417,000000	24,087200
1416,000000	24,338300
1415,000000	24,632200
1414,000000	24,939800
1413,000000	25,242200
1412,000000	25,534500
1411,000000	25,830800
1410,000000	26,197800
1409,000000	26,606400
1408,000000	26,998400
1407,000000	27,410500
1406,000000	27,842900
1405,000000	28,269600
1404,000000	28,725000
1403,000000	29,168200
1402,000000	29,631300
1401,000000	30,052700
1400,000000	30,583900
1399,000000	31,065600
1398,000000	31,449000
1397,000000	31,772500
1396,000000	32,169800
1395,000000	32,654800
1394,000000	33,067000
1393,000000	33,419500
1392,000000	33,760700
1391,000000	34,172600
1390,000000	34,595600
1389,000000	34,986200
1388,000000	35,462700
1387,000000	36,002400
1386,000000	36,542200
1385,000000	37,078500
1384,000000	37,632400
1383,000000	38,251600
1382,000000	38,864400
1381,000000	39,398500
1380,000000	39,855300
1379,000000	40,209800
1378,000000	40,496500
1377,000000	40,712300
1376,000000	40,959200
1375,000000	41,200800
1374,000000	41,428700
1373,000000	41,688100
1372,000000	42,027200
1371,000000	42,355000
1370,000000	42,707200
1369,000000	43,033400
1368,000000	43,343200
1367,000000	43,651500
1366,000000	43,903800
1365,000000	44,130500
1364,000000	44,342600
1363,000000	44,555600
1362,000000	44,750900
1361,000000	44,951300
1360,000000	45,109500
1359,000000	45,213600
1358,000000	45,270500
1357,000000	45,393100
1356,000000	45,543300
1355,000000	45,793200
1354,000000	46,103900
1353,000000	46,446800
1352,000000	46,789400
1351,000000	47,251500
1350,000000	47,714800
1349,000000	48,122700
1348,000000	48,484300
1347,000000	48,873800
1346,000000	49,231000
1345,000000	49,549000
1344,000000	49,907600
1343,000000	50,185300
1342,000000	50,509400
1341,000000	50,804600
1340,000000	51,107400
1339,000000	51,399100
1338,000000	51,675600
1337,000000	51,951600
1336,000000	52,224300
1335,000000	52,496000
1334,000000	52,740200
1333,000000	52,997900
1332,000000	53,248600
1331,000000	53,482200
1330,000000	53,720800
1329,000000	53,930100
1328,000000	54,149400
1327,000000	54,366200
1326,000000	54,559200
1325,000000	54,732300
1324,000000	54,920100
1323,000000	55,097500
1322,000000	55,260400
1321,000000	55,420200
1320,000000	55,592000
1319,000000	55,728200
1318,000000	55,869400
1317,000000	56,009700
1316,000000	56,139600
1315,000000	56,284500
1314,000000	56,397900
1313,000000	56,512500
1312,000000	56,618800
1311,000000	56,731100
1310,000000	56,825800
1309,000000	56,930500
1308,000000	57,017600
1307,000000	57,089600
1306,000000	57,171000
1305,000000	57,231100
1304,000000	57,280600
1303,000000	57,337300
1302,000000	57,388700
1301,000000	57,426000
1300,000000	57,450800
1299,000000	57,487800
1298,000000	57,523700
1297,000000	57,538600
1296,000000	57,546400
1295,000000	57,570100
1294,000000	57,581600
1293,000000	57,586900
1292,000000	57,580600
1291,000000	57,591400
1290,000000	57,576700
1289,000000	57,561200
1288,000000	57,541600
1287,000000	57,522200
1286,000000	57,485000
1285,000000	57,448200
1284,000000	57,408000
1283,000000	57,360200
1282,000000	57,318200
1281,000000	57,271800
1280,000000	57,224000
1279,000000	57,171800
1278,000000	57,142600
1277,000000	57,081400
1276,000000	57,033900
1275,000000	56,991800
1274,000000	56,956800
1273,000000	56,924200
1272,000000	56,887400
1271,000000	56,850200
1270,000000	56,822300
1269,000000	56,798700
1268,000000	56,773200
1267,000000	56,745800
1266,000000	56,712800
1265,000000	56,674600
1264,000000	56,630900
1263,000000	56,587100
1262,000000	56,553100
1261,000000	56,512900
1260,000000	56,457300
1259,000000	56,401300
1258,000000	56,365600
1257,000000	56,329100
1256,000000	56,281400
1255,000000	56,209300
1254,000000	56,154900
1253,000000	56,106100
1252,000000	56,018200
1251,000000	55,935700
1250,000000	55,873400
1249,000000	55,774300
1248,000000	55,683300
1247,000000	55,603700
1246,000000	55,492700
1245,000000	55,381100
1244,000000	55,282200
1243,000000	55,170000
1242,000000	55,044000
1241,000000	54,928000
1240,000000	54,816500
1239,000000	54,687600
1238,000000	54,557000
1237,000000	54,439500
1236,000000	54,325200
1235,000000	54,191500
1234,000000	54,049100
1233,000000	53,913300
1232,000000	53,770800
1231,000000	53,623900
1230,000000	53,481300
1229,000000	53,325400
1228,000000	53,163500
1227,000000	52,998900
1226,000000	52,837100
1225,000000	52,674200
1224,000000	52,516900
1223,000000	52,340700
1222,000000	52,155100
1221,000000	51,978400
1220,000000	51,813900
1219,000000	51,654500
1218,000000	51,499000
1217,000000	51,338500
1216,000000	51,166800
1215,000000	51,017300
1214,000000	50,871300
1213,000000	50,706800
1212,000000	50,567900
1211,000000	50,436200
1210,000000	50,296000
1209,000000	50,164300
1208,000000	50,039600
1207,000000	49,914900
1206,000000	49,796300
1205,000000	49,681400
1204,000000	49,586800
1203,000000	49,511800
1202,000000	49,450900
1201,000000	49,401300
1200,000000	49,319100
1199,000000	49,244100
1198,000000	49,163400
1197,000000	49,055600
1196,000000	48,930900
1195,000000	48,751600
1194,000000	48,543100
1193,000000	48,296100
1192,000000	48,003700
1191,000000	47,659900
1190,000000	47,285200
1189,000000	46,920700
1188,000000	46,585200
1187,000000	46,318200
1186,000000	46,150600
1185,000000	46,072400
1184,000000	46,093800
1183,000000	46,228400
1182,000000	46,462100
1181,000000	46,800000
1180,000000	47,172300
1179,000000	47,593100
1178,000000	48,002100
1177,000000	48,379100
1176,000000	48,713100
1175,000000	49,015000
1174,000000	49,271600
1173,000000	49,527800
1172,000000	49,781300
1171,000000	50,041800
1170,000000	50,311400
1169,000000	50,579600
1168,000000	50,871400
1167,000000	51,146000
1166,000000	51,422000
1165,000000	51,722500
1164,000000	52,021200
1163,000000	52,336700
1162,000000	52,654000
1161,000000	52,950800
1160,000000	53,249700
1159,000000	53,553000
1158,000000	53,862700
1157,000000	54,141100
1156,000000	54,399400
1155,000000	54,643900
1154,000000	54,857300
1153,000000	55,026300
1152,000000	55,179000
1151,000000	55,275300
1150,000000	55,361700
1149,000000	55,449300
1148,000000	55,514900
1147,000000	55,594100
1146,000000	55,704100
1145,000000	55,843500
1144,000000	56,017300
1143,000000	56,223500
1142,000000	56,479100
1141,000000	56,754200
1140,000000	57,046300
1139,000000	57,345200
1138,000000	57,649600
1137,000000	57,987200
1136,000000	58,325200
1135,000000	58,700700
1134,000000	59,064200
1133,000000	59,409700
1132,000000	59,670700
1131,000000	59,954100
1130,000000	60,198900
1129,000000	60,430400
1128,000000	60,621200
1127,000000	60,784200
1126,000000	60,901800
1125,000000	61,000900
1124,000000	61,083400
1123,000000	61,143200
1122,000000	61,195900
1121,000000	61,217700
1120,000000	61,244300
1119,000000	61,253600
1118,000000	61,248700
1117,000000	61,258900
1116,000000	61,253300
1115,000000	61,243700
1114,000000	61,218400
1113,000000	61,188900
1112,000000	61,159400
1111,000000	61,140300
1110,000000	61,097300
1109,000000	61,089400
1108,000000	61,042500
1107,000000	61,021000
1106,000000	60,981900
1105,000000	60,958400
1104,000000	60,920700
1103,000000	60,884800
1102,000000	60,870900
1101,000000	60,819700
1100,000000	60,781200
1099,000000	60,755900
1098,000000	60,718500
1097,000000	60,673700
1096,000000	60,604400
1095,000000	60,572600
1094,000000	60,530300
1093,000000	60,486100
1092,000000	60,432000
1091,000000	60,360400
1090,000000	60,294100
1089,000000	60,253800
1088,000000	60,195000
1087,000000	60,114200
1086,000000	60,055700
1085,000000	59,970000
1084,000000	59,918600
1083,000000	59,846400
1082,000000	59,768400
1081,000000	59,703000
1080,000000	59,618500
1079,000000	59,552200
1078,000000	59,477500
1077,000000	59,410400
1076,000000	59,342700
1075,000000	59,250600
1074,000000	59,179000
1073,000000	59,089700
1072,000000	59,043000
1071,000000	58,947800
1070,000000	58,862700
1069,000000	58,776500
1068,000000	58,713900
1067,000000	58,625000
1066,000000	58,552300
1065,000000	58,474500
1064,000000	58,387800
1063,000000	58,311200
1062,000000	58,218900
1061,000000	58,134700
1060,000000	58,038200
1059,000000	57,956800
1058,000000	57,846800
1057,000000	57,766300
1056,000000	57,675600
1055,000000	57,599900
1054,000000	57,504800
1053,000000	57,402900
1052,000000	57,299800
1051,000000	57,221400
1050,000000	57,131500
1049,000000	57,040000
1048,000000	56,945100
1047,000000	56,874500
1046,000000	56,793200
1045,000000	56,707700
1044,000000	56,615400
1043,000000	56,536500
1042,000000	56,447700
1041,000000	56,364700
1040,000000	56,274500
1039,000000	56,189000
1038,000000	56,101700
1037,000000	56,026500
1036,000000	55,946300
1035,000000	55,858700
1034,000000	55,757400
1033,000000	55,655200
1032,000000	55,556700
1031,000000	55,476900
1030,000000	55,359800
1029,000000	55,293900
1028,000000	55,188200
1027,000000	55,074800
1026,000000	54,972000
1025,000000	54,877800
1024,000000	54,772700
1023,000000	54,635500
1022,000000	54,545500
1021,000000	54,436800
1020,000000	54,325900
1019,000000	54,240000
1018,000000	54,130700
1017,000000	54,007100
1016,000000	53,915700
1015,000000	53,832800
1014,000000	53,727600
1013,000000	53,653500
1012,000000	53,572700
1011,000000	53,515700
1010,000000	53,437900
1009,000000	53,342400
1008,000000	53,305600
1007,000000	53,248100
1006,000000	53,166200
1005,000000	53,117400
1004,000000	53,069800
1003,000000	52,998400
1002,000000	52,936800
1001,000000	52,872100
1000,000000	52,811500
999,000000	52,750400
998,000000	52,706600
997,000000	52,636400
996,000000	52,555600
995,000000	52,513900
994,000000	52,461400
993,000000	52,401500
992,000000	52,335800
991,000000	52,294100
990,000000	52,240000
989,000000	52,184700
988,000000	52,117600
987,000000	52,079100
986,000000	52,030700
985,000000	51,979100
984,000000	51,936700
983,000000	51,901400
982,000000	51,853600
981,000000	51,804800
980,000000	51,752800
979,000000	51,715800
978,000000	51,669000
977,000000	51,622300
976,000000	51,590500
975,000000	51,547400
974,000000	51,507700
973,000000	51,470100
972,000000	51,430200
971,000000	51,391300
970,000000	51,326000
969,000000	51,298500
968,000000	51,270700
967,000000	51,221300
966,000000	51,171500
965,000000	51,160700
964,000000	51,134400
963,000000	51,083900
962,000000	51,061300
961,000000	51,037000
960,000000	51,010400
959,000000	50,988500
958,000000	50,951300
957,000000	50,920300
956,000000	50,893100
955,000000	50,863600
954,000000	50,852200
953,000000	50,817700
952,000000	50,771800
951,000000	50,754100
950,000000	50,720800
949,000000	50,685700
948,000000	50,665400
947,000000	50,626800
946,000000	50,566300
945,000000	50,519700
944,000000	50,502600
943,000000	50,470800
942,000000	50,409700
941,000000	50,381700
940,000000	50,348000
939,000000	50,271200
938,000000	50,202400
937,000000	50,174700
936,000000	50,138400
935,000000	50,068300
934,000000	50,008100
933,000000	49,967300
932,000000	49,908500
931,000000	49,873600
930,000000	49,824800
929,000000	49,753700
928,000000	49,713400
927,000000	49,659200
926,000000	49,583800
925,000000	49,510500
924,000000	49,451700
923,000000	49,414700
922,000000	49,340500
921,000000	49,268400
920,000000	49,206200
919,000000	49,132600
918,000000	49,066700
917,000000	48,994300
916,000000	48,910700
915,000000	48,832000
914,000000	48,760300
913,000000	48,687700
912,000000	48,609900
911,000000	48,543100
910,000000	48,480500
909,000000	48,410500
908,000000	48,338700
907,000000	48,286000
906,000000	48,229400
905,000000	48,176800
904,000000	48,134700
903,000000	48,099400
902,000000	48,057500
901,000000	47,994700
900,000000	47,946000
899,000000	47,902300
898,000000	47,868800
897,000000	47,835100
896,000000	47,795700
895,000000	47,736000
894,000000	47,687000
893,000000	47,642300
892,000000	47,575900
891,000000	47,493500
890,000000	47,423400
889,000000	47,369700
888,000000	47,280600
887,000000	47,203300
886,000000	47,127900
885,000000	47,037300
884,000000	46,931000
883,000000	46,823100
882,000000	46,728500
881,000000	46,595400
880,000000	46,501500
879,000000	46,382600
878,000000	46,265900
877,000000	46,123100
876,000000	45,939800
875,000000	45,747800
874,000000	45,612000
873,000000	45,422800
872,000000	45,206400
871,000000	45,030800
870,000000	44,967500
869,000000	44,945600
868,000000	44,957900
867,000000	44,986500
866,000000	44,985500
865,000000	44,987300
864,000000	44,987900
863,000000	44,990100
862,000000	45,014200
861,000000	45,019900
860,000000	45,027500
859,000000	45,039600
858,000000	45,044700
857,000000	49,472200
856,000000	50,829400
855,000000	51,198700
854,000000	50,714100
853,000000	50,755600
852,000000	51,028900
851,000000	50,901000
850,000000	51,017700
849,000000	51,085400
848,000000	51,143800
847,000000	50,993000
846,000000	51,070300
845,000000	50,868800
844,000000	50,751900
843,000000	50,855300
842,000000	50,900800
841,000000	51,222100
840,000000	51,024400
839,000000	51,046300
838,000000	50,757300
837,000000	50,841100
836,000000	50,742700
835,000000	50,752800
834,000000	50,906700
833,000000	50,637800
832,000000	50,720000
831,000000	50,736500
830,000000	50,622900
829,000000	50,719600
828,000000	50,774500
827,000000	50,688800
826,000000	50,684400
825,000000	50,635000
824,000000	50,641500
823,000000	50,531000
822,000000	50,597300
821,000000	50,454900
820,000000	50,413000
819,000000	50,335400
818,000000	50,433700
817,000000	50,143700
816,000000	50,343400
815,000000	50,220900
814,000000	50,192500
813,000000	50,067600
812,000000	50,174100
811,000000	50,178400
810,000000	50,076800
809,000000	49,983900
808,000000	49,913400
807,000000	49,931600
806,000000	49,868000
805,000000	49,793500
804,000000	49,582200
803,000000	49,605800
802,000000	49,504200
801,000000	49,415200
800,000000	49,493900
799,000000	49,270600
798,000000	49,248700
797,000000	49,276200
796,000000	49,177900
795,000000	49,068800
794,000000	49,102700
793,000000	48,956500
792,000000	48,814400
791,000000	48,853100
790,000000	48,727700
789,000000	48,515300
788,000000	48,563500
787,000000	48,434700
786,000000	48,363900
785,000000	48,344900
784,000000	48,208900
783,000000	48,080100
782,000000	48,016400
781,000000	47,935900
780,000000	47,939400
779,000000	47,672100
778,000000	47,529000
777,000000	47,522400
776,000000	47,337600
775,000000	47,250900
774,000000	47,141900
773,000000	47,022400
772,000000	46,823900
771,000000	46,744700
770,000000	46,745300
769,000000	46,545700
768,000000	46,267100
767,000000	46,272100
766,000000	46,175700
765,000000	45,973000
764,000000	45,818600
763,000000	45,691300
762,000000	45,575600
761,000000	45,501800
760,000000	45,241600
759,000000	45,095400
758,000000	44,890600
757,000000	44,799100
756,000000	44,590300
755,000000	44,451000
754,000000	44,323300
753,000000	44,136600
752,000000	44,052400
751,000000	43,707600
750,000000	43,586100
749,000000	43,462900
748,000000	43,261300
747,000000	43,031400
746,000000	42,896100
745,000000	42,696600
744,000000	42,498600
743,000000	42,289900
742,000000	42,112900
741,000000	41,925400
740,000000	41,713400
739,000000	41,550300
738,000000	41,353000
737,000000	41,117300
736,000000	40,901800
735,000000	40,734700
734,000000	40,496300
733,000000	40,274600
732,000000	40,119400
731,000000	39,899500
730,000000	39,665100
729,000000	39,403700
728,000000	39,200800
727,000000	38,929900
726,000000	38,768400
725,000000	38,485600
724,000000	38,252000
723,000000	38,041200
722,000000	37,831000
721,000000	37,565200
720,000000	37,314700
719,000000	37,072900
718,000000	36,841700
717,000000	36,617900
716,000000	36,373600
715,000000	36,076500
714,000000	35,799700
713,000000	35,600600
712,000000	35,309900
711,000000	35,080300
710,000000	34,838000
709,000000	34,603700
708,000000	34,317400
707,000000	34,067700
706,000000	33,787300
705,000000	33,519300
704,000000	33,256000
703,000000	33,004800
702,000000	32,716100
701,000000	32,388000
700,000000	32,136600
699,000000	31,887500
698,000000	31,652600
697,000000	31,388900
696,000000	31,136400
695,000000	30,906800
694,000000	30,632400
693,000000	30,339500
692,000000	30,099500
691,000000	29,867300
690,000000	29,644500
689,000000	29,396700
688,000000	29,134400
687,000000	28,888000
686,000000	28,672400
685,000000	28,431200
684,000000	28,191600
683,000000	28,016200
682,000000	27,791500
681,000000	27,559600
680,000000	27,341900
679,000000	27,127800
678,000000	26,933000
677,000000	26,750500
676,000000	26,563700
675,000000	26,373200
674,000000	26,166800
673,000000	25,965900
672,000000	25,757500
671,000000	25,549700
670,000000	25,382900
669,000000	25,199300
668,000000	24,997300
667,000000	24,791800
666,000000	24,617400
665,000000	24,462100
664,000000	24,298600
663,000000	24,129100
662,000000	23,977400
661,000000	23,837800
660,000000	23,692700
659,000000	23,583500
658,000000	23,452300
657,000000	23,319900
656,000000	23,239600
655,000000	23,184500
654,000000	23,096600
653,000000	23,009200
652,000000	22,973700
651,000000	22,942700
650,000000	22,909500
649,000000	22,880900
648,000000	22,863700
647,000000	22,843600
646,000000	22,806200
645,000000	22,806900
644,000000	22,825600
643,000000	22,818600
642,000000	22,827800
641,000000	22,838300
640,000000	22,808900
639,000000	22,808800
638,000000	22,830000
637,000000	22,823000
636,000000	22,820100
635,000000	22,836500
634,000000	22,845100
633,000000	22,832800
632,000000	22,847200
631,000000	22,862600
630,000000	22,873100
629,000000	22,894200
628,000000	22,933100
627,000000	22,981600
626,000000	23,030500
625,000000	23,078100
624,000000	23,148000
623,000000	23,227100
622,000000	23,319900
621,000000	23,398400
620,000000	23,485200
619,000000	23,590900
618,000000	23,702400
617,000000	23,802600
616,000000	23,938200
615,000000	24,065900
614,000000	24,171700
613,000000	24,290200
612,000000	24,423000
611,000000	24,535900
610,000000	24,649100
609,000000	24,775800
608,000000	24,889300
607,000000	24,968900
606,000000	25,046800
605,000000	25,119300
604,000000	25,193300
603,000000	25,265200
602,000000	25,337800
601,000000	25,403000
600,000000	25,454700
599,000000	25,514400
598,000000	25,575700
597,000000	25,651500
596,000000	25,724900
595,000000	25,750400
594,000000	25,811400
593,000000	25,905800
592,000000	25,976300
591,000000	26,044200
590,000000	26,124800
589,000000	26,202900
588,000000	26,267200
587,000000	26,328900
586,000000	26,410400
585,000000	26,498700
584,000000	26,580100
583,000000	26,643900
582,000000	26,727100
581,000000	26,784200
580,000000	26,844000
579,000000	26,893900
578,000000	26,962400
577,000000	27,020300
576,000000	27,074500
575,000000	27,133000
574,000000	27,178600
573,000000	27,223400
572,000000	27,268600
571,000000	27,290700
570,000000	27,320300
569,000000	27,345900
568,000000	27,359900
567,000000	27,368800
566,000000	27,389000
565,000000	27,398800
564,000000	27,407100
563,000000	27,397500
562,000000	27,385200
561,000000	27,390300
560,000000	27,367400
559,000000	27,391500
558,000000	27,379600
557,000000	27,359500
556,000000	27,329100
555,000000	27,299500
554,000000	27,258800
553,000000	27,223300
552,000000	27,168100
551,000000	27,099500
550,000000	27,032400
549,000000	26,957900
548,000000	26,859400
547,000000	26,770200
546,000000	26,679600
545,000000	26,574600
544,000000	26,467700
543,000000	26,330600
542,000000	26,193800
541,000000	26,055500
540,000000	25,904300
539,000000	25,741400
538,000000	25,557700
537,000000	25,389200
536,000000	25,206200
535,000000	25,012400
534,000000	24,799700
533,000000	24,583700
532,000000	24,365800
531,000000	24,120800
530,000000	23,876100
529,000000	23,624600
528,000000	23,376300
527,000000	23,111800
526,000000	22,855600
525,000000	22,538500
524,000000	22,246400
523,000000	21,931700
522,000000	21,633500
521,000000	21,305400
520,000000	20,971600
519,000000	20,668200
518,000000	20,340200
517,000000	20,000300
516,000000	19,657400
515,000000	19,292200
514,000000	18,958400
513,000000	18,606600
512,000000	18,294500
511,000000	17,943100
510,000000	17,616800
509,000000	17,296600
508,000000	16,970000
507,000000	16,641900
506,000000	16,309400
505,000000	16,018200
504,000000	15,704200
503,000000	15,402600
502,000000	15,112500
501,000000	14,820700
500,000000	14,542700
499,000000	14,263900
498,000000	13,993400
497,000000	13,740900
496,000000	13,500500
495,000000	13,259900
494,000000	13,038700
493,000000	12,811200
492,000000	12,593300
491,000000	12,374500
490,000000	12,175000
489,000000	12,009300
488,000000	11,811300
487,000000	11,620100
486,000000	11,452700
485,000000	11,287600
484,000000	11,141400
483,000000	10,977200
482,000000	10,833500
481,000000	10,669700
480,000000	10,536400
479,000000	10,385800
478,000000	10,255600
477,000000	10,121900
476,000000	10,014500
475,000000	9,901100
474,000000	9,798000
473,000000	9,687100
472,000000	9,578100
471,000000	9,470700
470,000000	9,388700
469,000000	9,304900
468,000000	9,216600
467,000000	9,141000
466,000000	9,052800
465,000000	8,984400
464,000000	8,908200
463,000000	8,858600
462,000000	8,786400
461,000000	8,721000
460,000000	8,664100
459,000000	8,600300
458,000000	8,536700
457,000000	8,487200
456,000000	8,432700
455,000000	8,372800
454,000000	8,321700
453,000000	8,276000
452,000000	8,214900
451,000000	8,125400
450,000000	8,076400
449,000000	8,038900
448,000000	7,980600
447,000000	7,925600
446,000000	7,865600
445,000000	7,807000
444,000000	7,763100
443,000000	7,698100
442,000000	7,619100
441,000000	7,559600
440,000000	7,492300
439,000000	7,434200
438,000000	7,363900
437,000000	7,314700
436,000000	7,234100
435,000000	7,175600
434,000000	7,142500
433,000000	7,080500
432,000000	6,996100
431,000000	6,932900
430,000000	6,879600
429,000000	6,834400
428,000000	6,779000
427,000000	6,734100
426,000000	6,666600
425,000000	6,610600
424,000000	6,572500
423,000000	6,491000
422,000000	6,444800
421,000000	6,412300
420,000000	6,355300
419,000000	6,316200
418,000000	6,264100
417,000000	6,231900
416,000000	6,181600
415,000000	6,126800
414,000000	6,068100
413,000000	6,026000
412,000000	5,973400
411,000000	5,938400
410,000000	5,874400
409,000000	5,834200
408,000000	5,778900
407,000000	5,749000
406,000000	5,687300
405,000000	5,645400
404,000000	5,597300
403,000000	5,564000
402,000000	5,521900
401,000000	5,472000
400,000000	5,413300
399,000000	5,366900
398,000000	5,324600
397,000000	5,281400
396,000000	5,240200
395,000000	5,207500
394,000000	5,168800
393,000000	5,120500
392,000000	5,078900
391,000000	5,055200
390,000000	5,025600
389,000000	4,982400
388,000000	4,930300
387,000000	4,915300
386,000000	4,874600
385,000000	4,838300
384,000000	4,805500
383,000000	4,787600
382,000000	4,779200
381,000000	4,758300
380,000000	4,713800
379,000000	4,681300
378,000000	4,654500
377,000000	4,628400
376,000000	4,617900
375,000000	4,582500
374,000000	4,497700
373,000000	4,475400
372,000000	4,467300
371,000000	4,415200
370,000000	4,446000
369,000000	4,465400
368,000000	4,424300
367,000000	4,427800
366,000000	4,410600
365,000000	4,401900
364,000000	4,392200
363,000000	4,332200
362,000000	4,288500
361,000000	4,343300
360,000000	4,365100
359,000000	4,357100
358,000000	4,342000
357,000000	4,343800
356,000000	4,410800
355,000000	4,371800
354,000000	4,301100
353,000000	4,334300
352,000000	4,291700
351,000000	4,311800
350,000000	4,377600
349,000000	4,314800
348,000000	4,316000
347,000000	4,342500
346,000000	4,278300
345,000000	4,280600
344,000000	4,322800
343,000000	4,284200
342,000000	4,280600
341,000000	4,289200
340,000000	4,269100
339,000000	4,288500
338,000000	4,300200
337,000000	4,298400
336,000000	4,264000
335,000000	4,294400
334,000000	4,307600
333,000000	4,294700
332,000000	4,368200
331,000000	4,389900
330,000000	4,295400
329,000000	4,271700
328,000000	4,233900
327,000000	4,228600
326,000000	4,291400
325,000000	4,304600
324,000000	4,277400
323,000000	4,276000
322,000000	4,322000
321,000000	4,353200
320,000000	4,310700
319,000000	4,269900
318,000000	4,426400
317,000000	4,363600
316,000000	4,273800
315,000000	4,297300
314,000000	4,290900
313,000000	4,310600
312,000000	4,336800
311,000000	4,325700
310,000000	4,316200
309,000000	4,294300
308,000000	4,298100
307,000000	4,318000
306,000000	4,298600
305,000000	4,324600
304,000000	4,336600
303,000000	4,296300
302,000000	4,303200
301,000000	4,321100
300,000000	4,310900
299,000000	4,302200
298,000000	4,301300
297,000000	4,294200
296,000000	4,308800
295,000000	4,317400
294,000000	4,337300
293,000000	4,329800
292,000000	4,336800
291,000000	4,312800
290,000000	4,323000
289,000000	4,355500
288,000000	4,345000
287,000000	4,359600
286,000000	4,354400
285,000000	4,349000
284,000000	4,361300
283,000000	4,345600
282,000000	4,357000
281,000000	4,373100
280,000000	4,390300
279,000000	4,406500
278,000000	4,389000
277,000000	4,391500
276,000000	4,424100
275,000000	4,452300
274,000000	4,475300
273,000000	4,430500
272,000000	4,446800
271,000000	4,479400
270,000000	4,497500
269,000000	4,519800
268,000000	4,558000
267,000000	4,569400
266,000000	4,594700
265,000000	4,605900
264,000000	4,615800
263,000000	4,612900
262,000000	4,667400
261,000000	4,673600
260,000000	4,685400
259,000000	4,736700
258,000000	4,746400
257,000000	4,745900
256,000000	4,771000
255,000000	4,766700
254,000000	4,787500
253,000000	4,801300
252,000000	4,838600
251,000000	4,832300
250,000000	4,841700
