PE UV       SUBTECH     SPECTRUM    ASCII       PEDS        4.00        
   -1
CICIMAUCR0239-2.ASC
24/06/20
13:57:00.00
24/06/20
13:57:00.00
Vinicio Soto Monge
C. cupreomarginata. Sex M. Ventral 
250,000000
1
Lambda 1050
1050L1511233
PerkinElmer UV WinLab 6.3.2.0749 / 2.02.05 Lambda 900 UV/VIS/NIR, Aug  7 2015 09:38:08

0
0
3350/servo 860,8/2
0
0
UV/VIS
1
1
1
DoubleDePol,CommonBeamDepol,RBeamAtt,SBeamAtt,60mm sphere, WB InGaAs Detector
0
0
0
0
Program
Program
3350/servo 860,8/2
3350/0,2 860,8/0,2
3350/0,2 860,8/0,2
0
15.00
 
 
 
0
 
860,8
319,2
860,8
Front
100
on
S:100 R:100
0
0
0
0
 
0
 
 
 
0
 
 
0
0
0
0
0
 
 
 
 
0
0


0
0
#HDR
-1
-1
#GR
nm
%R
1.0
0.0
2500,000000
-1,000000
2251
8
59,763500
4,030600
#DATA
2500,000000	5,819400
2499,000000	5,747500
2498,000000	5,750500
2497,000000	5,798400
2496,000000	5,734400
2495,000000	5,814000
2494,000000	5,681500
2493,000000	5,696600
2492,000000	5,663300
2491,000000	5,709400
2490,000000	5,688200
2489,000000	5,675200
2488,000000	5,719500
2487,000000	5,663400
2486,000000	5,651700
2485,000000	5,655200
2484,000000	5,637300
2483,000000	5,624400
2482,000000	5,536700
2481,000000	5,632200
2480,000000	5,573400
2479,000000	5,615900
2478,000000	5,622900
2477,000000	5,601600
2476,000000	5,577900
2475,000000	5,610600
2474,000000	5,539700
2473,000000	5,558900
2472,000000	5,615800
2471,000000	5,579900
2470,000000	5,609600
2469,000000	5,606300
2468,000000	5,623200
2467,000000	5,598900
2466,000000	5,592000
2465,000000	5,601500
2464,000000	5,604100
2463,000000	5,603000
2462,000000	5,634100
2461,000000	5,605300
2460,000000	5,616800
2459,000000	5,634400
2458,000000	5,649100
2457,000000	5,659200
2456,000000	5,686300
2455,000000	5,703900
2454,000000	5,720900
2453,000000	5,725100
2452,000000	5,749300
2451,000000	5,773300
2450,000000	5,790600
2449,000000	5,808500
2448,000000	5,845300
2447,000000	5,874700
2446,000000	5,906300
2445,000000	5,927800
2444,000000	5,932600
2443,000000	5,945600
2442,000000	5,979000
2441,000000	6,000600
2440,000000	6,026400
2439,000000	6,053900
2438,000000	6,087600
2437,000000	6,094900
2436,000000	6,106600
2435,000000	6,120600
2434,000000	6,150600
2433,000000	6,167400
2432,000000	6,198800
2431,000000	6,214700
2430,000000	6,230300
2429,000000	6,240800
2428,000000	6,252800
2427,000000	6,284500
2426,000000	6,277200
2425,000000	6,312600
2424,000000	6,344000
2423,000000	6,341900
2422,000000	6,364300
2421,000000	6,374700
2420,000000	6,382000
2419,000000	6,393900
2418,000000	6,406600
2417,000000	6,409900
2416,000000	6,416900
2415,000000	6,421600
2414,000000	6,460000
2413,000000	6,482900
2412,000000	6,472500
2411,000000	6,484200
2410,000000	6,505000
2409,000000	6,508700
2408,000000	6,503800
2407,000000	6,518400
2406,000000	6,538100
2405,000000	6,545400
2404,000000	6,556800
2403,000000	6,573700
2402,000000	6,581000
2401,000000	6,605000
2400,000000	6,604100
2399,000000	6,602200
2398,000000	6,619000
2397,000000	6,621000
2396,000000	6,626000
2395,000000	6,608500
2394,000000	6,603200
2393,000000	6,621600
2392,000000	6,644000
2391,000000	6,649000
2390,000000	6,650100
2389,000000	6,662400
2388,000000	6,668200
2387,000000	6,658900
2386,000000	6,655400
2385,000000	6,657800
2384,000000	6,664800
2383,000000	6,664800
2382,000000	6,674600
2381,000000	6,673500
2380,000000	6,636800
2379,000000	6,628700
2378,000000	6,646400
2377,000000	6,644500
2376,000000	6,636400
2375,000000	6,628400
2374,000000	6,620800
2373,000000	6,618300
2372,000000	6,609200
2371,000000	6,584500
2370,000000	6,568000
2369,000000	6,556300
2368,000000	6,552600
2367,000000	6,531400
2366,000000	6,493000
2365,000000	6,482500
2364,000000	6,472800
2363,000000	6,444300
2362,000000	6,423900
2361,000000	6,405600
2360,000000	6,392100
2359,000000	6,367600
2358,000000	6,340200
2357,000000	6,327200
2356,000000	6,306600
2355,000000	6,289300
2354,000000	6,283200
2353,000000	6,273400
2352,000000	6,263700
2351,000000	6,267400
2350,000000	6,269300
2349,000000	6,275700
2348,000000	6,291100
2347,000000	6,294900
2346,000000	6,294500
2345,000000	6,309600
2344,000000	6,312300
2343,000000	6,321500
2342,000000	6,340000
2341,000000	6,365300
2340,000000	6,377300
2339,000000	6,377600
2338,000000	6,368900
2337,000000	6,374500
2336,000000	6,394500
2335,000000	6,384100
2334,000000	6,380300
2333,000000	6,385900
2332,000000	6,361300
2331,000000	6,356100
2330,000000	6,347400
2329,000000	6,323900
2328,000000	6,308500
2327,000000	6,283800
2326,000000	6,262000
2325,000000	6,234300
2324,000000	6,215100
2323,000000	6,188100
2322,000000	6,158900
2321,000000	6,131500
2320,000000	6,107900
2319,000000	6,073000
2318,000000	6,037400
2317,000000	6,004600
2316,000000	5,966800
2315,000000	5,935500
2314,000000	5,907600
2313,000000	5,877600
2312,000000	5,842000
2311,000000	5,814200
2310,000000	5,792900
2309,000000	5,769100
2308,000000	5,748200
2307,000000	5,731200
2306,000000	5,733300
2305,000000	5,725800
2304,000000	5,731300
2303,000000	5,740000
2302,000000	5,742600
2301,000000	5,766200
2300,000000	5,782900
2299,000000	5,786300
2298,000000	5,797100
2297,000000	5,849400
2296,000000	5,886200
2295,000000	5,901300
2294,000000	5,935200
2293,000000	5,942600
2292,000000	5,965600
2291,000000	5,985500
2290,000000	6,000500
2289,000000	6,008700
2288,000000	6,023200
2287,000000	6,009400
2286,000000	5,999000
2285,000000	5,999200
2284,000000	6,024000
2283,000000	6,004900
2282,000000	6,000100
2281,000000	5,979900
2280,000000	5,960700
2279,000000	5,938400
2278,000000	5,921100
2277,000000	5,909600
2276,000000	5,890100
2275,000000	5,890700
2274,000000	5,878200
2273,000000	5,875600
2272,000000	5,872100
2271,000000	5,869100
2270,000000	5,864800
2269,000000	5,865200
2268,000000	5,884200
2267,000000	5,903400
2266,000000	5,920600
2265,000000	5,964300
2264,000000	5,990500
2263,000000	6,036400
2262,000000	6,100400
2261,000000	6,130700
2260,000000	6,218100
2259,000000	6,298600
2258,000000	6,366900
2257,000000	6,469700
2256,000000	6,557100
2255,000000	6,625000
2254,000000	6,745400
2253,000000	6,838200
2252,000000	6,938700
2251,000000	7,027300
2250,000000	7,103800
2249,000000	7,218000
2248,000000	7,306800
2247,000000	7,390200
2246,000000	7,448800
2245,000000	7,541500
2244,000000	7,631400
2243,000000	7,682100
2242,000000	7,754100
2241,000000	7,828500
2240,000000	7,869800
2239,000000	7,937500
2238,000000	7,976200
2237,000000	8,018200
2236,000000	8,075200
2235,000000	8,100700
2234,000000	8,150800
2233,000000	8,173400
2232,000000	8,231300
2231,000000	8,246100
2230,000000	8,282400
2229,000000	8,300700
2228,000000	8,301900
2227,000000	8,318600
2226,000000	8,330000
2225,000000	8,343400
2224,000000	8,338400
2223,000000	8,357200
2222,000000	8,341900
2221,000000	8,355000
2220,000000	8,341500
2219,000000	8,315200
2218,000000	8,296800
2217,000000	8,318700
2216,000000	8,311400
2215,000000	8,298100
2214,000000	8,296700
2213,000000	8,291600
2212,000000	8,250300
2211,000000	8,266800
2210,000000	8,250200
2209,000000	8,239300
2208,000000	8,238400
2207,000000	8,222800
2206,000000	8,228200
2205,000000	8,208500
2204,000000	8,201700
2203,000000	8,194600
2202,000000	8,181100
2201,000000	8,187300
2200,000000	8,183300
2199,000000	8,191500
2198,000000	8,135000
2197,000000	8,164800
2196,000000	8,157200
2195,000000	8,151800
2194,000000	8,140700
2193,000000	8,139800
2192,000000	8,142600
2191,000000	8,129400
2190,000000	8,126200
2189,000000	8,106100
2188,000000	8,123500
2187,000000	8,103600
2186,000000	8,105100
2185,000000	8,093700
2184,000000	8,102300
2183,000000	8,082800
2182,000000	8,092300
2181,000000	8,077400
2180,000000	8,075900
2179,000000	8,073800
2178,000000	8,050600
2177,000000	8,066900
2176,000000	8,044500
2175,000000	8,062500
2174,000000	8,051200
2173,000000	8,041000
2172,000000	8,061100
2171,000000	8,058100
2170,000000	8,067500
2169,000000	8,069900
2168,000000	8,074300
2167,000000	8,066100
2166,000000	8,079500
2165,000000	8,085200
2164,000000	8,098000
2163,000000	8,119500
2162,000000	8,128200
2161,000000	8,123200
2160,000000	8,154200
2159,000000	8,163600
2158,000000	8,176000
2157,000000	8,191700
2156,000000	8,185100
2155,000000	8,220200
2154,000000	8,215800
2153,000000	8,238700
2152,000000	8,264500
2151,000000	8,306700
2150,000000	8,322200
2149,000000	8,318000
2148,000000	8,330500
2147,000000	8,356700
2146,000000	8,364400
2145,000000	8,380500
2144,000000	8,391200
2143,000000	8,399200
2142,000000	8,415400
2141,000000	8,442400
2140,000000	8,457600
2139,000000	8,459100
2138,000000	8,470400
2137,000000	8,475700
2136,000000	8,479600
2135,000000	8,478800
2134,000000	8,493600
2133,000000	8,504100
2132,000000	8,503900
2131,000000	8,512800
2130,000000	8,522000
2129,000000	8,515800
2128,000000	8,530400
2127,000000	8,527100
2126,000000	8,497600
2125,000000	8,502500
2124,000000	8,511500
2123,000000	8,505500
2122,000000	8,487400
2121,000000	8,491300
2120,000000	8,474400
2119,000000	8,457300
2118,000000	8,442700
2117,000000	8,427500
2116,000000	8,419500
2115,000000	8,407200
2114,000000	8,387900
2113,000000	8,380800
2112,000000	8,360800
2111,000000	8,333200
2110,000000	8,317900
2109,000000	8,322000
2108,000000	8,290300
2107,000000	8,274900
2106,000000	8,267800
2105,000000	8,247000
2104,000000	8,227600
2103,000000	8,206400
2102,000000	8,206900
2101,000000	8,197900
2100,000000	8,165700
2099,000000	8,150200
2098,000000	8,138000
2097,000000	8,120100
2096,000000	8,110600
2095,000000	8,099700
2094,000000	8,079600
2093,000000	8,054700
2092,000000	8,042500
2091,000000	8,041600
2090,000000	8,029400
2089,000000	8,019300
2088,000000	8,005900
2087,000000	7,990200
2086,000000	7,971400
2085,000000	7,956800
2084,000000	7,936700
2083,000000	7,921200
2082,000000	7,911300
2081,000000	7,903800
2080,000000	7,887700
2079,000000	7,861900
2078,000000	7,851800
2077,000000	7,828000
2076,000000	7,805300
2075,000000	7,795200
2074,000000	7,774500
2073,000000	7,738500
2072,000000	7,714300
2071,000000	7,721600
2070,000000	7,713700
2069,000000	7,676100
2068,000000	7,659800
2067,000000	7,646700
2066,000000	7,616100
2065,000000	7,601900
2064,000000	7,591900
2063,000000	7,576700
2062,000000	7,549500
2061,000000	7,527300
2060,000000	7,527000
2059,000000	7,525600
2058,000000	7,504100
2057,000000	7,502500
2056,000000	7,504200
2055,000000	7,505500
2054,000000	7,512600
2053,000000	7,518300
2052,000000	7,522700
2051,000000	7,537200
2050,000000	7,569700
2049,000000	7,584000
2048,000000	7,603200
2047,000000	7,641000
2046,000000	7,682300
2045,000000	7,704400
2044,000000	7,726900
2043,000000	7,772900
2042,000000	7,814800
2041,000000	7,854600
2040,000000	7,895700
2039,000000	7,920400
2038,000000	7,954400
2037,000000	7,990200
2036,000000	8,027200
2035,000000	8,051100
2034,000000	8,069400
2033,000000	8,090300
2032,000000	8,132400
2031,000000	8,149900
2030,000000	8,160500
2029,000000	8,187600
2028,000000	8,202800
2027,000000	8,231600
2026,000000	8,226900
2025,000000	8,228600
2024,000000	8,253000
2023,000000	8,272600
2022,000000	8,276300
2021,000000	8,294300
2020,000000	8,287000
2019,000000	8,293800
2018,000000	8,292600
2017,000000	8,294200
2016,000000	8,312200
2015,000000	8,284300
2014,000000	8,293400
2013,000000	8,285500
2012,000000	8,295700
2011,000000	8,281200
2010,000000	8,280200
2009,000000	8,244500
2008,000000	8,222200
2007,000000	8,217600
2006,000000	8,216200
2005,000000	8,196100
2004,000000	8,178800
2003,000000	8,159200
2002,000000	8,144900
2001,000000	8,111500
2000,000000	8,098000
1999,000000	8,072100
1998,000000	8,039100
1997,000000	8,025000
1996,000000	7,989100
1995,000000	7,957800
1994,000000	7,943200
1993,000000	7,903800
1992,000000	7,870500
1991,000000	7,846400
1990,000000	7,807800
1989,000000	7,769800
1988,000000	7,727200
1987,000000	7,692700
1986,000000	7,655400
1985,000000	7,623400
1984,000000	7,601200
1983,000000	7,558300
1982,000000	7,534600
1981,000000	7,493600
1980,000000	7,462400
1979,000000	7,423900
1978,000000	7,388300
1977,000000	7,345100
1976,000000	7,310300
1975,000000	7,280300
1974,000000	7,246500
1973,000000	7,234500
1972,000000	7,187300
1971,000000	7,162000
1970,000000	7,138300
1969,000000	7,104800
1968,000000	7,069600
1967,000000	7,019700
1966,000000	6,999400
1965,000000	6,959300
1964,000000	6,939400
1963,000000	6,927800
1962,000000	6,885400
1961,000000	6,870000
1960,000000	6,842500
1959,000000	6,839900
1958,000000	6,790300
1957,000000	6,769400
1956,000000	6,739100
1955,000000	6,728900
1954,000000	6,706400
1953,000000	6,661100
1952,000000	6,648300
1951,000000	6,622600
1950,000000	6,588900
1949,000000	6,595900
1948,000000	6,568800
1947,000000	6,559000
1946,000000	6,549400
1945,000000	6,511300
1944,000000	6,506900
1943,000000	6,495700
1942,000000	6,469700
1941,000000	6,494400
1940,000000	6,465000
1939,000000	6,446500
1938,000000	6,479700
1937,000000	6,439000
1936,000000	6,467200
1935,000000	6,458200
1934,000000	6,450900
1933,000000	6,479900
1932,000000	6,470700
1931,000000	6,487300
1930,000000	6,509100
1929,000000	6,517900
1928,000000	6,546300
1927,000000	6,561500
1926,000000	6,590000
1925,000000	6,615700
1924,000000	6,643500
1923,000000	6,689800
1922,000000	6,706900
1921,000000	6,746200
1920,000000	6,801100
1919,000000	6,865300
1918,000000	6,882500
1917,000000	6,932000
1916,000000	7,002000
1915,000000	7,057100
1914,000000	7,117900
1913,000000	7,192700
1912,000000	7,268700
1911,000000	7,339100
1910,000000	7,413700
1909,000000	7,479500
1908,000000	7,555500
1907,000000	7,660900
1906,000000	7,752800
1905,000000	7,866700
1904,000000	7,968100
1903,000000	8,079400
1902,000000	8,197900
1901,000000	8,310200
1900,000000	8,430800
1899,000000	8,584100
1898,000000	8,735700
1897,000000	8,874400
1896,000000	9,031400
1895,000000	9,207800
1894,000000	9,350400
1893,000000	9,523600
1892,000000	9,702000
1891,000000	9,910600
1890,000000	10,165900
1889,000000	10,391400
1888,000000	10,626200
1887,000000	10,896700
1886,000000	11,186100
1885,000000	11,499500
1884,000000	11,806800
1883,000000	12,191500
1882,000000	12,621200
1881,000000	13,014900
1880,000000	13,460900
1879,000000	13,865300
1878,000000	14,268900
1877,000000	14,704500
1876,000000	15,137200
1875,000000	15,535900
1874,000000	15,946200
1873,000000	16,325300
1872,000000	16,737100
1871,000000	17,104700
1870,000000	17,455600
1869,000000	17,785000
1868,000000	18,097700
1867,000000	18,356600
1866,000000	18,589000
1865,000000	18,786800
1864,000000	18,974800
1863,000000	19,121900
1862,000000	19,275000
1861,000000	19,435100
1860,000000	19,576200
1859,000000	19,707300
1858,000000	19,827100
1857,000000	19,911000
1856,000000	19,995400
1855,000000	20,047500
1854,000000	20,081600
1853,000000	20,123700
1852,000000	20,147700
1851,000000	20,145000
1850,000000	20,152600
1849,000000	20,188200
1848,000000	20,174700
1847,000000	20,161500
1846,000000	20,143800
1845,000000	20,103600
1844,000000	20,074000
1843,000000	20,049900
1842,000000	20,042700
1841,000000	20,049000
1840,000000	20,050400
1839,000000	20,027800
1838,000000	19,997900
1837,000000	19,966300
1836,000000	19,930600
1835,000000	19,890000
1834,000000	19,846400
1833,000000	19,778900
1832,000000	19,713900
1831,000000	19,685900
1830,000000	19,644400
1829,000000	19,577500
1828,000000	19,511800
1827,000000	19,441700
1826,000000	19,366200
1825,000000	19,309200
1824,000000	19,243000
1823,000000	19,197200
1822,000000	19,164400
1821,000000	19,144100
1820,000000	19,111000
1819,000000	19,063900
1818,000000	19,024100
1817,000000	19,001900
1816,000000	18,982100
1815,000000	18,987600
1814,000000	18,979000
1813,000000	18,964500
1812,000000	18,944500
1811,000000	18,922200
1810,000000	18,894800
1809,000000	18,864000
1808,000000	18,823900
1807,000000	18,782100
1806,000000	18,745800
1805,000000	18,705400
1804,000000	18,656700
1803,000000	18,604100
1802,000000	18,555600
1801,000000	18,509900
1800,000000	18,465300
1799,000000	18,406800
1798,000000	18,359800
1797,000000	18,319900
1796,000000	18,262000
1795,000000	18,209100
1794,000000	18,165500
1793,000000	18,120300
1792,000000	18,071300
1791,000000	18,011300
1790,000000	17,950500
1789,000000	17,908300
1788,000000	17,856800
1787,000000	17,788000
1786,000000	17,733800
1785,000000	17,670400
1784,000000	17,602600
1783,000000	17,538300
1782,000000	17,449700
1781,000000	17,375000
1780,000000	17,324600
1779,000000	17,257400
1778,000000	17,187000
1777,000000	17,110500
1776,000000	17,030000
1775,000000	16,945500
1774,000000	16,843300
1773,000000	16,748100
1772,000000	16,649000
1771,000000	16,544800
1770,000000	16,442100
1769,000000	16,322700
1768,000000	16,229000
1767,000000	16,143600
1766,000000	16,036100
1765,000000	15,966000
1764,000000	15,916700
1763,000000	15,869700
1762,000000	15,854700
1761,000000	15,863400
1760,000000	15,900200
1759,000000	15,941100
1758,000000	16,004300
1757,000000	16,061300
1756,000000	16,112900
1755,000000	16,177900
1754,000000	16,227900
1753,000000	16,265300
1752,000000	16,288800
1751,000000	16,302500
1750,000000	16,301800
1749,000000	16,292100
1748,000000	16,264300
1747,000000	16,215400
1746,000000	16,147200
1745,000000	16,087100
1744,000000	16,001900
1743,000000	15,889600
1742,000000	15,750200
1741,000000	15,602400
1740,000000	15,439400
1739,000000	15,270800
1738,000000	15,072200
1737,000000	14,890800
1736,000000	14,741800
1735,000000	14,594700
1734,000000	14,492100
1733,000000	14,438400
1732,000000	14,431300
1731,000000	14,459200
1730,000000	14,516100
1729,000000	14,591100
1728,000000	14,677500
1727,000000	14,768300
1726,000000	14,885600
1725,000000	14,964600
1724,000000	15,040400
1723,000000	15,117700
1722,000000	15,162800
1721,000000	15,190100
1720,000000	15,219500
1719,000000	15,239000
1718,000000	15,270000
1717,000000	15,287100
1716,000000	15,317300
1715,000000	15,378200
1714,000000	15,437000
1713,000000	15,475600
1712,000000	15,542800
1711,000000	15,587100
1710,000000	15,638900
1709,000000	15,643400
1708,000000	15,654800
1707,000000	15,628300
1706,000000	15,606000
1705,000000	15,580900
1704,000000	15,518000
1703,000000	15,454600
1702,000000	15,392000
1701,000000	15,296200
1700,000000	15,195600
1699,000000	15,051900
1698,000000	14,912600
1697,000000	14,793500
1696,000000	14,683400
1695,000000	14,614300
1694,000000	14,582800
1693,000000	14,613100
1692,000000	14,692700
1691,000000	14,825900
1690,000000	14,968700
1689,000000	15,105800
1688,000000	15,238900
1687,000000	15,319900
1686,000000	15,389000
1685,000000	15,431200
1684,000000	15,455200
1683,000000	15,540500
1682,000000	15,699100
1681,000000	15,941400
1680,000000	16,270400
1679,000000	16,710700
1678,000000	17,174800
1677,000000	17,657500
1676,000000	18,161900
1675,000000	18,596600
1674,000000	18,994200
1673,000000	19,336400
1672,000000	19,647100
1671,000000	19,918900
1670,000000	20,137100
1669,000000	20,340900
1668,000000	20,513600
1667,000000	20,667100
1666,000000	20,786500
1665,000000	20,895500
1664,000000	20,987100
1663,000000	21,080100
1662,000000	21,135200
1661,000000	21,188200
1660,000000	21,257500
1659,000000	21,277000
1658,000000	21,316500
1657,000000	21,342500
1656,000000	21,360100
1655,000000	21,358900
1654,000000	21,381500
1653,000000	21,354500
1652,000000	21,327700
1651,000000	21,313900
1650,000000	21,283600
1649,000000	21,255400
1648,000000	21,216200
1647,000000	21,171900
1646,000000	21,112700
1645,000000	21,075500
1644,000000	21,017800
1643,000000	20,971500
1642,000000	20,894900
1641,000000	20,832800
1640,000000	20,793300
1639,000000	20,725600
1638,000000	20,663700
1637,000000	20,609400
1636,000000	20,517800
1635,000000	20,446200
1634,000000	20,388900
1633,000000	20,332500
1632,000000	20,237900
1631,000000	20,164900
1630,000000	20,094100
1629,000000	19,995200
1628,000000	19,918700
1627,000000	19,835400
1626,000000	19,754600
1625,000000	19,687500
1624,000000	19,609400
1623,000000	19,521000
1622,000000	19,437600
1621,000000	19,373100
1620,000000	19,303800
1619,000000	19,213700
1618,000000	19,145400
1617,000000	19,073900
1616,000000	18,982100
1615,000000	18,919700
1614,000000	18,848900
1613,000000	18,790400
1612,000000	18,719500
1611,000000	18,652100
1610,000000	18,568800
1609,000000	18,513900
1608,000000	18,458900
1607,000000	18,391700
1606,000000	18,314100
1605,000000	18,247000
1604,000000	18,170500
1603,000000	18,113800
1602,000000	18,043400
1601,000000	17,975400
1600,000000	17,905000
1599,000000	17,859900
1598,000000	17,795500
1597,000000	17,726900
1596,000000	17,655600
1595,000000	17,582900
1594,000000	17,528600
1593,000000	17,469300
1592,000000	17,427200
1591,000000	17,375400
1590,000000	17,322000
1589,000000	17,270200
1588,000000	17,224600
1587,000000	17,178500
1586,000000	17,127400
1585,000000	17,080500
1584,000000	17,049300
1583,000000	16,994300
1582,000000	16,966600
1581,000000	16,924600
1580,000000	16,903700
1579,000000	16,856400
1578,000000	16,839600
1577,000000	16,806500
1576,000000	16,775300
1575,000000	16,768400
1574,000000	16,742500
1573,000000	16,705600
1572,000000	16,692700
1571,000000	16,699500
1570,000000	16,676800
1569,000000	16,693800
1568,000000	16,701100
1567,000000	16,702700
1566,000000	16,709200
1565,000000	16,699400
1564,000000	16,684300
1563,000000	16,690900
1562,000000	16,696500
1561,000000	16,703300
1560,000000	16,690000
1559,000000	16,677500
1558,000000	16,680800
1557,000000	16,674400
1556,000000	16,661200
1555,000000	16,656800
1554,000000	16,630500
1553,000000	16,619500
1552,000000	16,602100
1551,000000	16,585100
1550,000000	16,578600
1549,000000	16,543100
1548,000000	16,502200
1547,000000	16,485600
1546,000000	16,465900
1545,000000	16,429900
1544,000000	16,411100
1543,000000	16,399600
1542,000000	16,384100
1541,000000	16,359300
1540,000000	16,351300
1539,000000	16,330100
1538,000000	16,307500
1537,000000	16,283300
1536,000000	16,261900
1535,000000	16,252400
1534,000000	16,244900
1533,000000	16,210200
1532,000000	16,177200
1531,000000	16,151200
1530,000000	16,112500
1529,000000	16,080900
1528,000000	16,048900
1527,000000	16,020000
1526,000000	15,986700
1525,000000	15,955600
1524,000000	15,902100
1523,000000	15,858700
1522,000000	15,829600
1521,000000	15,788800
1520,000000	15,754400
1519,000000	15,715900
1518,000000	15,671600
1517,000000	15,629600
1516,000000	15,592700
1515,000000	15,536300
1514,000000	15,485200
1513,000000	15,446200
1512,000000	15,396800
1511,000000	15,353500
1510,000000	15,316500
1509,000000	15,272600
1508,000000	15,219300
1507,000000	15,168000
1506,000000	15,118800
1505,000000	15,071900
1504,000000	15,021800
1503,000000	14,975500
1502,000000	14,932500
1501,000000	14,890000
1500,000000	14,844600
1499,000000	14,802500
1498,000000	14,760000
1497,000000	14,729200
1496,000000	14,688900
1495,000000	14,643200
1494,000000	14,603900
1493,000000	14,569700
1492,000000	14,540000
1491,000000	14,496300
1490,000000	14,462200
1489,000000	14,454500
1488,000000	14,431900
1487,000000	14,407400
1486,000000	14,380900
1485,000000	14,358200
1484,000000	14,335900
1483,000000	14,314200
1482,000000	14,293500
1481,000000	14,280000
1480,000000	14,262600
1479,000000	14,247400
1478,000000	14,243600
1477,000000	14,222000
1476,000000	14,206800
1475,000000	14,181100
1474,000000	14,193100
1473,000000	14,198000
1472,000000	14,191500
1471,000000	14,181300
1470,000000	14,175400
1469,000000	14,174000
1468,000000	14,163500
1467,000000	14,157600
1466,000000	14,163300
1465,000000	14,181600
1464,000000	14,176500
1463,000000	14,183500
1462,000000	14,212900
1461,000000	14,233200
1460,000000	14,260800
1459,000000	14,278800
1458,000000	14,315600
1457,000000	14,354000
1456,000000	14,399700
1455,000000	14,442500
1454,000000	14,479100
1453,000000	14,542800
1452,000000	14,599500
1451,000000	14,647500
1450,000000	14,719300
1449,000000	14,781000
1448,000000	14,836600
1447,000000	14,901400
1446,000000	14,975000
1445,000000	15,070600
1444,000000	15,139900
1443,000000	15,207900
1442,000000	15,293500
1441,000000	15,366500
1440,000000	15,434500
1439,000000	15,537300
1438,000000	15,647100
1437,000000	15,732700
1436,000000	15,814500
1435,000000	15,917900
1434,000000	16,017100
1433,000000	16,134100
1432,000000	16,223700
1431,000000	16,320900
1430,000000	16,446200
1429,000000	16,567500
1428,000000	16,698200
1427,000000	16,859100
1426,000000	17,005900
1425,000000	17,165100
1424,000000	17,332900
1423,000000	17,502600
1422,000000	17,708400
1421,000000	17,884300
1420,000000	18,076400
1419,000000	18,284700
1418,000000	18,492700
1417,000000	18,712900
1416,000000	18,924100
1415,000000	19,165500
1414,000000	19,420000
1413,000000	19,671200
1412,000000	19,940000
1411,000000	20,168000
1410,000000	20,458600
1409,000000	20,816800
1408,000000	21,173700
1407,000000	21,547600
1406,000000	21,902100
1405,000000	22,280400
1404,000000	22,725000
1403,000000	23,126800
1402,000000	23,494300
1401,000000	23,919700
1400,000000	24,364900
1399,000000	24,825000
1398,000000	25,168800
1397,000000	25,474600
1396,000000	25,825800
1395,000000	26,221300
1394,000000	26,607900
1393,000000	26,900400
1392,000000	27,208400
1391,000000	27,573800
1390,000000	27,939600
1389,000000	28,282700
1388,000000	28,722500
1387,000000	29,199500
1386,000000	29,702600
1385,000000	30,211900
1384,000000	30,777600
1383,000000	31,425300
1382,000000	32,034100
1381,000000	32,617400
1380,000000	33,113500
1379,000000	33,426400
1378,000000	33,789500
1377,000000	34,038800
1376,000000	34,271600
1375,000000	34,505200
1374,000000	34,758400
1373,000000	35,049500
1372,000000	35,403500
1371,000000	35,801100
1370,000000	36,182400
1369,000000	36,564600
1368,000000	36,905400
1367,000000	37,231900
1366,000000	37,561400
1365,000000	37,796400
1364,000000	38,029900
1363,000000	38,235200
1362,000000	38,457100
1361,000000	38,657900
1360,000000	38,841800
1359,000000	38,905100
1358,000000	39,021800
1357,000000	39,139900
1356,000000	39,308700
1355,000000	39,552300
1354,000000	39,876600
1353,000000	40,330900
1352,000000	40,740500
1351,000000	41,274900
1350,000000	41,804700
1349,000000	42,281900
1348,000000	42,740800
1347,000000	43,178500
1346,000000	43,524700
1345,000000	43,919700
1344,000000	44,281100
1343,000000	44,676000
1342,000000	44,992000
1341,000000	45,323700
1340,000000	45,651300
1339,000000	45,990200
1338,000000	46,305400
1337,000000	46,642100
1336,000000	46,930800
1335,000000	47,238100
1334,000000	47,534100
1333,000000	47,836700
1332,000000	48,108500
1331,000000	48,389600
1330,000000	48,675200
1329,000000	48,929200
1328,000000	49,173500
1327,000000	49,441400
1326,000000	49,664400
1325,000000	49,890500
1324,000000	50,106500
1323,000000	50,310000
1322,000000	50,516300
1321,000000	50,698600
1320,000000	50,878200
1319,000000	51,062900
1318,000000	51,231900
1317,000000	51,403000
1316,000000	51,568200
1315,000000	51,702000
1314,000000	51,848500
1313,000000	51,985200
1312,000000	52,122300
1311,000000	52,265300
1310,000000	52,372600
1309,000000	52,491600
1308,000000	52,594800
1307,000000	52,709400
1306,000000	52,781900
1305,000000	52,862100
1304,000000	52,941500
1303,000000	53,003100
1302,000000	53,062400
1301,000000	53,100900
1300,000000	53,143800
1299,000000	53,194700
1298,000000	53,226000
1297,000000	53,252800
1296,000000	53,279000
1295,000000	53,292200
1294,000000	53,328600
1293,000000	53,341500
1292,000000	53,347100
1291,000000	53,354200
1290,000000	53,347700
1289,000000	53,332000
1288,000000	53,335100
1287,000000	53,310600
1286,000000	53,277800
1285,000000	53,235400
1284,000000	53,198600
1283,000000	53,147200
1282,000000	53,091800
1281,000000	53,051200
1280,000000	53,001600
1279,000000	52,944500
1278,000000	52,888300
1277,000000	52,836900
1276,000000	52,784900
1275,000000	52,732200
1274,000000	52,698700
1273,000000	52,656600
1272,000000	52,611600
1271,000000	52,590500
1270,000000	52,541200
1269,000000	52,503400
1268,000000	52,469600
1267,000000	52,419900
1266,000000	52,371500
1265,000000	52,328700
1264,000000	52,280400
1263,000000	52,226800
1262,000000	52,180700
1261,000000	52,134700
1260,000000	52,077900
1259,000000	52,041600
1258,000000	51,988900
1257,000000	51,919200
1256,000000	51,853200
1255,000000	51,794700
1254,000000	51,727400
1253,000000	51,654900
1252,000000	51,587800
1251,000000	51,508600
1250,000000	51,419800
1249,000000	51,332200
1248,000000	51,240400
1247,000000	51,146100
1246,000000	51,036900
1245,000000	50,917600
1244,000000	50,801500
1243,000000	50,675500
1242,000000	50,551900
1241,000000	50,410000
1240,000000	50,268200
1239,000000	50,126000
1238,000000	49,987500
1237,000000	49,837600
1236,000000	49,679200
1235,000000	49,528500
1234,000000	49,368300
1233,000000	49,201000
1232,000000	49,028200
1231,000000	48,842600
1230,000000	48,652200
1229,000000	48,475700
1228,000000	48,295400
1227,000000	48,097600
1226,000000	47,893500
1225,000000	47,693300
1224,000000	47,502800
1223,000000	47,303600
1222,000000	47,097200
1221,000000	46,892100
1220,000000	46,690700
1219,000000	46,496700
1218,000000	46,307400
1217,000000	46,123400
1216,000000	45,951000
1215,000000	45,773800
1214,000000	45,597400
1213,000000	45,433200
1212,000000	45,280100
1211,000000	45,128900
1210,000000	44,974500
1209,000000	44,846200
1208,000000	44,724100
1207,000000	44,587400
1206,000000	44,480000
1205,000000	44,388400
1204,000000	44,312500
1203,000000	44,255900
1202,000000	44,206600
1201,000000	44,171800
1200,000000	44,123100
1199,000000	44,075100
1198,000000	43,984900
1197,000000	43,891000
1196,000000	43,765700
1195,000000	43,583600
1194,000000	43,361900
1193,000000	43,081700
1192,000000	42,719800
1191,000000	42,304200
1190,000000	41,856100
1189,000000	41,407700
1188,000000	40,993900
1187,000000	40,671800
1186,000000	40,453200
1185,000000	40,353200
1184,000000	40,382400
1183,000000	40,562200
1182,000000	40,870400
1181,000000	41,282600
1180,000000	41,782200
1179,000000	42,308200
1178,000000	42,819000
1177,000000	43,305500
1176,000000	43,738200
1175,000000	44,104600
1174,000000	44,447600
1173,000000	44,786500
1172,000000	45,107200
1171,000000	45,456300
1170,000000	45,783000
1169,000000	46,116800
1168,000000	46,468100
1167,000000	46,804900
1166,000000	47,170800
1165,000000	47,530700
1164,000000	47,900300
1163,000000	48,277200
1162,000000	48,654300
1161,000000	49,055500
1160,000000	49,447800
1159,000000	49,829000
1158,000000	50,178400
1157,000000	50,511800
1156,000000	50,839400
1155,000000	51,155300
1154,000000	51,397400
1153,000000	51,625000
1152,000000	51,803500
1151,000000	51,929800
1150,000000	52,025500
1149,000000	52,124900
1148,000000	52,193100
1147,000000	52,285000
1146,000000	52,398700
1145,000000	52,564100
1144,000000	52,781700
1143,000000	53,055600
1142,000000	53,374500
1141,000000	53,736500
1140,000000	54,117000
1139,000000	54,516700
1138,000000	54,898100
1137,000000	55,309000
1136,000000	55,734900
1135,000000	56,199900
1134,000000	56,653100
1133,000000	57,057000
1132,000000	57,437700
1131,000000	57,817500
1130,000000	58,136800
1129,000000	58,468400
1128,000000	58,722200
1127,000000	58,953500
1126,000000	59,105800
1125,000000	59,255900
1124,000000	59,344900
1123,000000	59,449100
1122,000000	59,533200
1121,000000	59,607300
1120,000000	59,661300
1119,000000	59,688700
1118,000000	59,710800
1117,000000	59,733400
1116,000000	59,763500
1115,000000	59,739100
1114,000000	59,742400
1113,000000	59,745900
1112,000000	59,730500
1111,000000	59,727500
1110,000000	59,700400
1109,000000	59,681000
1108,000000	59,664900
1107,000000	59,687400
1106,000000	59,664000
1105,000000	59,655400
1104,000000	59,636500
1103,000000	59,619600
1102,000000	59,624800
1101,000000	59,608600
1100,000000	59,585700
1099,000000	59,558200
1098,000000	59,552700
1097,000000	59,513500
1096,000000	59,467600
1095,000000	59,439900
1094,000000	59,429400
1093,000000	59,394800
1092,000000	59,360700
1091,000000	59,310700
1090,000000	59,274700
1089,000000	59,241100
1088,000000	59,191500
1087,000000	59,137200
1086,000000	59,092500
1085,000000	59,047400
1084,000000	58,983800
1083,000000	58,933300
1082,000000	58,870500
1081,000000	58,805700
1080,000000	58,779000
1079,000000	58,704200
1078,000000	58,672000
1077,000000	58,592500
1076,000000	58,562600
1075,000000	58,498600
1074,000000	58,438200
1073,000000	58,379500
1072,000000	58,308400
1071,000000	58,276100
1070,000000	58,218600
1069,000000	58,175100
1068,000000	58,108600
1067,000000	58,047300
1066,000000	57,984400
1065,000000	57,928100
1064,000000	57,860700
1063,000000	57,810500
1062,000000	57,746700
1061,000000	57,676000
1060,000000	57,623700
1059,000000	57,557400
1058,000000	57,505800
1057,000000	57,425600
1056,000000	57,355400
1055,000000	57,275800
1054,000000	57,230800
1053,000000	57,154700
1052,000000	57,088000
1051,000000	57,015800
1050,000000	56,978200
1049,000000	56,930900
1048,000000	56,865600
1047,000000	56,804400
1046,000000	56,770000
1045,000000	56,707800
1044,000000	56,668600
1043,000000	56,632500
1042,000000	56,577500
1041,000000	56,519900
1040,000000	56,481100
1039,000000	56,434300
1038,000000	56,397300
1037,000000	56,357600
1036,000000	56,294300
1035,000000	56,240000
1034,000000	56,199000
1033,000000	56,141200
1032,000000	56,070600
1031,000000	56,035800
1030,000000	55,979700
1029,000000	55,909400
1028,000000	55,855000
1027,000000	55,807400
1026,000000	55,741200
1025,000000	55,665800
1024,000000	55,620100
1023,000000	55,561300
1022,000000	55,497400
1021,000000	55,444900
1020,000000	55,381100
1019,000000	55,315600
1018,000000	55,274300
1017,000000	55,217100
1016,000000	55,173600
1015,000000	55,141700
1014,000000	55,100100
1013,000000	55,062500
1012,000000	55,041300
1011,000000	55,037500
1010,000000	55,037600
1009,000000	55,031300
1008,000000	55,032300
1007,000000	55,047600
1006,000000	55,048700
1005,000000	55,079100
1004,000000	55,084800
1003,000000	55,079700
1002,000000	55,097400
1001,000000	55,114800
1000,000000	55,123100
999,000000	55,129500
998,000000	55,130200
997,000000	55,140700
996,000000	55,176700
995,000000	55,193100
994,000000	55,208000
993,000000	55,216100
992,000000	55,233000
991,000000	55,258100
990,000000	55,273200
989,000000	55,296400
988,000000	55,320800
987,000000	55,346300
986,000000	55,360900
985,000000	55,386100
984,000000	55,402500
983,000000	55,440900
982,000000	55,470700
981,000000	55,498500
980,000000	55,537900
979,000000	55,581800
978,000000	55,598900
977,000000	55,611800
976,000000	55,652400
975,000000	55,687300
974,000000	55,706000
973,000000	55,709900
972,000000	55,742500
971,000000	55,781400
970,000000	55,796600
969,000000	55,810900
968,000000	55,834400
967,000000	55,851200
966,000000	55,869800
965,000000	55,891500
964,000000	55,917600
963,000000	55,933100
962,000000	55,943500
961,000000	55,960000
960,000000	55,986200
959,000000	56,017300
958,000000	56,043700
957,000000	56,057300
956,000000	56,049500
955,000000	56,074500
954,000000	56,085800
953,000000	56,082600
952,000000	56,104900
951,000000	56,102300
950,000000	56,090200
949,000000	56,099900
948,000000	56,089900
947,000000	56,061900
946,000000	56,037200
945,000000	56,034000
944,000000	56,023400
943,000000	55,990300
942,000000	55,977800
941,000000	55,950500
940,000000	55,906300
939,000000	55,857000
938,000000	55,819100
937,000000	55,786200
936,000000	55,740300
935,000000	55,696100
934,000000	55,647700
933,000000	55,589100
932,000000	55,553400
931,000000	55,493500
930,000000	55,428000
929,000000	55,390000
928,000000	55,320800
927,000000	55,246600
926,000000	55,184600
925,000000	55,106000
924,000000	55,054100
923,000000	54,993600
922,000000	54,906100
921,000000	54,823100
920,000000	54,739200
919,000000	54,650900
918,000000	54,558000
917,000000	54,465100
916,000000	54,364400
915,000000	54,270300
914,000000	54,195200
913,000000	54,090000
912,000000	53,964800
911,000000	53,845700
910,000000	53,743100
909,000000	53,655500
908,000000	53,562200
907,000000	53,467300
906,000000	53,383000
905,000000	53,310200
904,000000	53,231200
903,000000	53,154000
902,000000	53,089600
901,000000	53,028200
900,000000	52,973500
899,000000	52,908100
898,000000	52,830800
897,000000	52,765500
896,000000	52,694100
895,000000	52,613100
894,000000	52,543600
893,000000	52,462200
892,000000	52,379100
891,000000	52,280800
890,000000	52,170300
889,000000	52,076300
888,000000	51,983300
887,000000	51,880500
886,000000	51,740900
885,000000	51,624300
884,000000	51,482800
883,000000	51,361300
882,000000	51,203300
881,000000	51,063800
880,000000	50,919600
879,000000	50,761500
878,000000	50,584700
877,000000	50,390200
876,000000	50,193000
875,000000	50,015600
874,000000	49,772300
873,000000	49,496800
872,000000	49,225200
871,000000	49,017500
870,000000	48,896400
869,000000	48,799300
868,000000	48,719700
867,000000	48,656100
866,000000	48,541200
865,000000	48,430100
864,000000	48,317700
863,000000	48,238200
862,000000	48,131500
861,000000	48,003600
860,000000	47,897600
859,000000	47,780800
858,000000	47,673300
857,000000	49,197400
856,000000	49,126000
855,000000	48,527300
854,000000	48,860800
853,000000	48,520200
852,000000	48,231900
851,000000	48,278100
850,000000	48,008300
849,000000	47,983900
848,000000	47,375300
847,000000	47,628200
846,000000	47,295600
845,000000	47,308000
844,000000	47,118400
843,000000	46,976600
842,000000	46,848300
841,000000	46,494000
840,000000	46,515300
839,000000	46,408600
838,000000	46,393800
837,000000	46,215800
836,000000	46,076600
835,000000	45,839600
834,000000	45,767000
833,000000	45,602500
832,000000	45,587600
831,000000	45,468200
830,000000	45,356800
829,000000	45,222400
828,000000	45,155400
827,000000	45,079900
826,000000	45,077500
825,000000	44,920000
824,000000	44,776000
823,000000	44,719000
822,000000	44,674400
821,000000	44,532400
820,000000	44,458800
819,000000	44,443400
818,000000	44,313000
817,000000	44,309200
816,000000	44,333500
815,000000	44,327800
814,000000	44,098500
813,000000	44,074100
812,000000	44,101900
811,000000	44,011400
810,000000	43,960100
809,000000	43,990300
808,000000	43,915400
807,000000	43,872800
806,000000	43,919100
805,000000	43,848900
804,000000	43,835100
803,000000	43,704000
802,000000	43,782800
801,000000	43,746600
800,000000	43,720100
799,000000	43,757200
798,000000	43,713000
797,000000	43,633300
796,000000	43,722900
795,000000	43,740100
794,000000	43,692100
793,000000	43,665400
792,000000	43,679300
791,000000	43,623600
790,000000	43,547600
789,000000	43,637500
788,000000	43,625500
787,000000	43,676800
786,000000	43,654700
785,000000	43,643700
784,000000	43,536100
783,000000	43,552900
782,000000	43,401200
781,000000	43,530200
780,000000	43,379600
779,000000	43,348400
778,000000	43,345400
777,000000	43,308200
776,000000	43,246000
775,000000	43,192100
774,000000	43,117200
773,000000	43,154300
772,000000	43,022100
771,000000	43,079600
770,000000	43,002200
769,000000	42,997900
768,000000	42,887000
767,000000	42,772100
766,000000	42,783900
765,000000	42,726300
764,000000	42,538900
763,000000	42,614900
762,000000	42,461300
761,000000	42,358900
760,000000	42,323000
759,000000	42,254600
758,000000	42,151800
757,000000	41,996900
756,000000	41,964100
755,000000	41,990900
754,000000	41,799300
753,000000	41,780700
752,000000	41,681700
751,000000	41,575000
750,000000	41,446400
749,000000	41,356700
748,000000	41,352400
747,000000	41,234900
746,000000	41,083800
745,000000	41,006700
744,000000	40,933300
743,000000	40,811400
742,000000	40,672500
741,000000	40,565300
740,000000	40,427000
739,000000	40,298300
738,000000	40,214200
737,000000	40,125900
736,000000	40,003000
735,000000	39,842400
734,000000	39,767400
733,000000	39,575700
732,000000	39,453900
731,000000	39,321900
730,000000	39,155600
729,000000	38,986400
728,000000	38,867800
727,000000	38,682300
726,000000	38,524900
725,000000	38,407900
724,000000	38,229200
723,000000	38,084100
722,000000	37,900100
721,000000	37,698400
720,000000	37,514800
719,000000	37,371400
718,000000	37,123500
717,000000	36,958900
716,000000	36,757700
715,000000	36,536300
714,000000	36,328700
713,000000	36,065200
712,000000	35,830300
711,000000	35,584700
710,000000	35,362000
709,000000	35,123200
708,000000	34,890300
707,000000	34,681000
706,000000	34,392500
705,000000	34,131700
704,000000	33,879600
703,000000	33,622800
702,000000	33,384100
701,000000	33,092700
700,000000	32,840900
699,000000	32,598500
698,000000	32,326900
697,000000	32,070800
696,000000	31,821600
695,000000	31,547300
694,000000	31,291400
693,000000	31,078500
692,000000	30,878800
691,000000	30,648900
690,000000	30,411800
689,000000	30,180100
688,000000	29,947400
687,000000	29,697800
686,000000	29,470100
685,000000	29,239000
684,000000	29,001200
683,000000	28,773100
682,000000	28,563300
681,000000	28,365800
680,000000	28,174200
679,000000	27,963900
678,000000	27,767000
677,000000	27,591900
676,000000	27,399200
675,000000	27,235400
674,000000	27,066300
673,000000	26,893900
672,000000	26,706500
671,000000	26,505200
670,000000	26,318900
669,000000	26,152800
668,000000	25,989700
667,000000	25,831900
666,000000	25,681000
665,000000	25,531700
664,000000	25,397000
663,000000	25,268500
662,000000	25,145900
661,000000	25,073300
660,000000	24,976400
659,000000	24,858500
658,000000	24,782200
657,000000	24,695600
656,000000	24,614300
655,000000	24,562600
654,000000	24,514000
653,000000	24,477600
652,000000	24,438800
651,000000	24,417100
650,000000	24,413900
649,000000	24,435300
648,000000	24,446700
647,000000	24,464000
646,000000	24,501200
645,000000	24,524300
644,000000	24,578300
643,000000	24,638800
642,000000	24,689900
641,000000	24,734700
640,000000	24,809700
639,000000	24,886800
638,000000	24,957100
637,000000	25,043100
636,000000	25,137200
635,000000	25,238600
634,000000	25,342500
633,000000	25,449900
632,000000	25,546300
631,000000	25,656300
630,000000	25,748600
629,000000	25,834600
628,000000	25,947600
627,000000	26,047400
626,000000	26,147800
625,000000	26,260600
624,000000	26,378500
623,000000	26,484500
622,000000	26,592100
621,000000	26,705200
620,000000	26,805700
619,000000	26,906800
618,000000	27,002700
617,000000	27,103700
616,000000	27,194700
615,000000	27,269500
614,000000	27,357700
613,000000	27,443200
612,000000	27,529500
611,000000	27,615100
610,000000	27,680600
609,000000	27,766700
608,000000	27,834000
607,000000	27,895500
606,000000	27,928900
605,000000	27,971700
604,000000	28,024000
603,000000	28,065000
602,000000	28,105400
601,000000	28,135900
600,000000	28,165600
599,000000	28,186700
598,000000	28,199300
597,000000	28,195900
596,000000	28,204600
595,000000	28,212000
594,000000	28,204500
593,000000	28,189100
592,000000	28,185300
591,000000	28,146400
590,000000	28,121000
589,000000	28,102000
588,000000	28,050000
587,000000	28,019000
586,000000	27,979600
585,000000	27,949000
584,000000	27,889700
583,000000	27,835000
582,000000	27,781000
581,000000	27,714000
580,000000	27,655900
579,000000	27,601300
578,000000	27,520400
577,000000	27,428100
576,000000	27,331600
575,000000	27,249900
574,000000	27,155900
573,000000	27,060300
572,000000	26,937800
571,000000	26,819400
570,000000	26,682600
569,000000	26,552800
568,000000	26,422700
567,000000	26,288200
566,000000	26,137300
565,000000	25,973100
564,000000	25,806700
563,000000	25,638400
562,000000	25,464600
561,000000	25,282700
560,000000	25,089800
559,000000	24,772200
558,000000	24,545100
557,000000	24,361900
556,000000	24,165700
555,000000	23,946400
554,000000	23,765500
553,000000	23,553000
552,000000	23,320300
551,000000	23,108800
550,000000	22,900700
549,000000	22,685600
548,000000	22,450500
547,000000	22,226200
546,000000	21,996700
545,000000	21,765800
544,000000	21,501500
543,000000	21,251800
542,000000	20,983500
541,000000	20,727100
540,000000	20,472400
539,000000	20,216600
538,000000	19,950600
537,000000	19,677700
536,000000	19,419600
535,000000	19,148100
534,000000	18,874000
533,000000	18,592100
532,000000	18,316500
531,000000	18,051700
530,000000	17,777200
529,000000	17,520900
528,000000	17,263300
527,000000	17,002100
526,000000	16,754000
525,000000	16,491700
524,000000	16,254500
523,000000	15,993500
522,000000	15,768500
521,000000	15,530600
520,000000	15,319800
519,000000	15,101600
518,000000	14,895600
517,000000	14,666700
516,000000	14,463100
515,000000	14,269800
514,000000	14,077500
513,000000	13,899000
512,000000	13,734200
511,000000	13,562300
510,000000	13,390900
509,000000	13,247300
508,000000	13,097400
507,000000	12,966100
506,000000	12,829100
505,000000	12,703900
504,000000	12,587800
503,000000	12,480500
502,000000	12,352500
501,000000	12,247000
500,000000	12,159100
499,000000	12,018900
498,000000	11,958300
497,000000	11,856400
496,000000	11,760700
495,000000	11,664900
494,000000	11,591000
493,000000	11,514200
492,000000	11,450100
491,000000	11,377400
490,000000	11,293400
489,000000	11,239800
488,000000	11,152500
487,000000	11,095200
486,000000	11,009200
485,000000	10,960400
484,000000	10,903600
483,000000	10,839200
482,000000	10,735600
481,000000	10,649300
480,000000	10,549300
479,000000	10,432400
478,000000	10,353200
477,000000	10,277400
476,000000	10,201400
475,000000	10,114900
474,000000	10,024000
473,000000	9,936100
472,000000	9,860200
471,000000	9,773500
470,000000	9,678400
469,000000	9,587200
468,000000	9,527000
467,000000	9,435100
466,000000	9,361400
465,000000	9,296000
464,000000	9,212100
463,000000	9,139600
462,000000	9,063200
461,000000	8,987700
460,000000	8,916200
459,000000	8,833600
458,000000	8,761000
457,000000	8,669300
456,000000	8,600300
455,000000	8,515700
454,000000	8,459800
453,000000	8,366100
452,000000	8,275600
451,000000	8,211900
450,000000	8,114900
449,000000	8,035100
448,000000	7,952700
447,000000	7,864200
446,000000	7,786500
445,000000	7,690900
444,000000	7,605700
443,000000	7,501300
442,000000	7,422200
441,000000	7,339200
440,000000	7,232600
439,000000	7,151900
438,000000	7,067000
437,000000	6,971000
436,000000	6,888000
435,000000	6,812400
434,000000	6,724900
433,000000	6,633000
432,000000	6,564400
431,000000	6,463400
430,000000	6,399000
429,000000	6,318400
428,000000	6,253000
427,000000	6,167600
426,000000	6,118600
425,000000	6,062100
424,000000	5,976900
423,000000	5,927200
422,000000	5,864900
421,000000	5,788600
420,000000	5,731800
419,000000	5,671400
418,000000	5,608800
417,000000	5,569400
416,000000	5,522400
415,000000	5,462900
414,000000	5,437000
413,000000	5,380500
412,000000	5,322500
411,000000	5,297700
410,000000	5,242200
409,000000	5,192200
408,000000	5,166900
407,000000	5,149400
406,000000	5,116200
405,000000	5,079300
404,000000	5,032800
403,000000	5,004000
402,000000	4,978300
401,000000	4,948700
400,000000	4,916800
399,000000	4,887800
398,000000	4,868100
397,000000	4,836200
396,000000	4,824300
395,000000	4,806100
394,000000	4,785200
393,000000	4,742500
392,000000	4,717900
391,000000	4,717300
390,000000	4,702800
389,000000	4,695300
388,000000	4,691900
387,000000	4,689800
386,000000	4,650700
385,000000	4,639100
384,000000	4,645400
383,000000	4,625300
382,000000	4,631300
381,000000	4,613500
380,000000	4,587800
379,000000	4,567200
378,000000	4,570400
377,000000	4,587200
376,000000	4,426600
375,000000	4,097400
374,000000	4,030600
373,000000	4,153000
372,000000	4,040400
371,000000	4,141200
370,000000	4,216400
369,000000	4,255400
368,000000	4,216200
367,000000	4,317900
366,000000	4,301100
365,000000	4,313100
364,000000	4,338600
363,000000	4,354700
362,000000	4,406900
361,000000	4,309300
360,000000	4,329600
359,000000	4,244200
358,000000	4,321200
357,000000	4,430800
356,000000	4,469400
355,000000	4,604900
354,000000	4,548900
353,000000	4,319700
352,000000	4,301300
351,000000	4,411200
350,000000	4,399100
349,000000	4,410500
348,000000	4,578900
347,000000	4,556300
346,000000	4,495700
345,000000	4,607300
344,000000	4,467200
343,000000	4,305600
342,000000	4,497900
341,000000	4,590300
340,000000	4,670700
339,000000	4,707600
338,000000	4,686100
337,000000	4,677400
336,000000	4,644100
335,000000	4,517800
334,000000	4,486000
333,000000	4,470300
332,000000	4,324800
331,000000	4,379800
330,000000	4,374900
329,000000	4,513800
328,000000	4,624900
327,000000	4,832000
326,000000	5,077200
325,000000	4,622300
324,000000	4,641800
323,000000	5,040400
322,000000	4,823800
321,000000	5,047800
320,000000	5,474500
319,000000	5,449000
318,000000	5,929000
317,000000	5,726300
316,000000	4,818300
315,000000	4,487200
314,000000	4,504600
313,000000	4,535800
312,000000	4,533500
311,000000	4,537700
310,000000	4,521400
309,000000	4,536300
308,000000	4,545000
307,000000	4,550500
306,000000	4,546100
305,000000	4,554400
304,000000	4,559100
303,000000	4,556400
302,000000	4,548500
301,000000	4,539800
300,000000	4,539300
299,000000	4,569900
298,000000	4,584600
297,000000	4,566600
296,000000	4,593100
295,000000	4,592700
294,000000	4,595000
293,000000	4,620800
292,000000	4,612200
291,000000	4,602400
290,000000	4,610200
289,000000	4,631200
288,000000	4,607700
287,000000	4,616000
286,000000	4,614600
285,000000	4,628300
284,000000	4,686400
283,000000	4,664500
282,000000	4,648900
281,000000	4,664400
280,000000	4,649400
279,000000	4,722900
278,000000	4,701100
277,000000	4,650100
276,000000	4,714100
275,000000	4,722400
274,000000	4,711200
273,000000	4,760200
272,000000	4,768200
271,000000	4,799900
270,000000	4,796500
269,000000	4,780700
268,000000	4,811600
267,000000	4,841800
266,000000	4,844800
265,000000	4,916300
264,000000	4,932700
263,000000	4,950300
262,000000	4,951100
261,000000	4,983100
260,000000	5,006300
259,000000	4,998200
258,000000	5,069300
257,000000	5,073400
256,000000	5,103800
255,000000	5,134100
254,000000	5,136500
253,000000	5,142000
252,000000	5,159800
251,000000	5,178700
250,000000	5,156300
