PE UV       SUBTECH     SPECTRUM    ASCII       PEDS        4.00        
   -1
CICIMAUCR0201-1.ASC
24/06/06
12:06:02.00
24/06/06
12:06:02.00
Vinicio Soto Monge
C. cupreomarginata. Sex F. Ventral
250,000000
1
Lambda 1050
1050L1511233
PerkinElmer UV WinLab 6.3.2.0749 / 2.02.05 Lambda 900 UV/VIS/NIR, Aug  7 2015 09:38:08

0
0
3350/servo 860,8/2
0
0
UV/VIS
1
1
1
DoubleDePol,CommonBeamDepol,RBeamAtt,SBeamAtt,60mm sphere, WB InGaAs Detector
0
0
0
0
Program
Program
3350/servo 860,8/2
3350/0,2 860,8/0,2
3350/0,2 860,8/0,2
0
15.00
 
 
 
0
 
860,8
319,2
860,8
Front
100
on
S:100 R:100
0
0
0
0
 
0
 
 
 
0
 
 
0
0
0
0
0
 
 
 
 
0
0


0
0
#HDR
-1
-1
#GR
nm
%R
1.0
0.0
2500,000000
-1,000000
2251
8
48,916300
4,023100
#DATA
2500,000000	5,267300
2499,000000	5,358400
2498,000000	5,300000
2497,000000	5,310100
2496,000000	5,291800
2495,000000	5,268600
2494,000000	5,267400
2493,000000	5,222000
2492,000000	5,233000
2491,000000	5,265000
2490,000000	5,238500
2489,000000	5,223800
2488,000000	5,222400
2487,000000	5,204400
2486,000000	5,216800
2485,000000	5,178300
2484,000000	5,102600
2483,000000	5,050100
2482,000000	5,144600
2481,000000	5,120100
2480,000000	5,142200
2479,000000	5,141300
2478,000000	5,099400
2477,000000	5,063000
2476,000000	5,090700
2475,000000	5,128600
2474,000000	5,113900
2473,000000	5,085300
2472,000000	5,096000
2471,000000	5,095600
2470,000000	5,107000
2469,000000	5,069300
2468,000000	5,080600
2467,000000	5,106200
2466,000000	5,118400
2465,000000	5,118200
2464,000000	5,106800
2463,000000	5,123700
2462,000000	5,095000
2461,000000	5,138300
2460,000000	5,127600
2459,000000	5,134800
2458,000000	5,187800
2457,000000	5,173600
2456,000000	5,178900
2455,000000	5,183200
2454,000000	5,202900
2453,000000	5,234000
2452,000000	5,229900
2451,000000	5,252600
2450,000000	5,266900
2449,000000	5,292900
2448,000000	5,314800
2447,000000	5,341700
2446,000000	5,383200
2445,000000	5,385900
2444,000000	5,418400
2443,000000	5,446700
2442,000000	5,451900
2441,000000	5,453600
2440,000000	5,487300
2439,000000	5,522300
2438,000000	5,539900
2437,000000	5,561000
2436,000000	5,600200
2435,000000	5,622800
2434,000000	5,609700
2433,000000	5,618800
2432,000000	5,658400
2431,000000	5,674300
2430,000000	5,707400
2429,000000	5,717700
2428,000000	5,739700
2427,000000	5,756700
2426,000000	5,769100
2425,000000	5,778300
2424,000000	5,804400
2423,000000	5,824000
2422,000000	5,833600
2421,000000	5,814800
2420,000000	5,828900
2419,000000	5,851300
2418,000000	5,865000
2417,000000	5,900500
2416,000000	5,899900
2415,000000	5,899100
2414,000000	5,918200
2413,000000	5,919200
2412,000000	5,924100
2411,000000	5,944900
2410,000000	5,975500
2409,000000	5,987800
2408,000000	5,984900
2407,000000	5,981200
2406,000000	5,996500
2405,000000	6,008900
2404,000000	6,023000
2403,000000	6,054200
2402,000000	6,083600
2401,000000	6,093700
2400,000000	6,125100
2399,000000	6,150200
2398,000000	6,145900
2397,000000	6,154600
2396,000000	6,167800
2395,000000	6,190600
2394,000000	6,208000
2393,000000	6,220700
2392,000000	6,238100
2391,000000	6,246400
2390,000000	6,254500
2389,000000	6,260700
2388,000000	6,262900
2387,000000	6,267800
2386,000000	6,279800
2385,000000	6,305600
2384,000000	6,317300
2383,000000	6,317900
2382,000000	6,316500
2381,000000	6,316900
2380,000000	6,319700
2379,000000	6,320800
2378,000000	6,327400
2377,000000	6,325600
2376,000000	6,309500
2375,000000	6,314600
2374,000000	6,318700
2373,000000	6,307000
2372,000000	6,311300
2371,000000	6,320400
2370,000000	6,319800
2369,000000	6,301700
2368,000000	6,304900
2367,000000	6,292800
2366,000000	6,266000
2365,000000	6,257600
2364,000000	6,254300
2363,000000	6,257200
2362,000000	6,240300
2361,000000	6,217400
2360,000000	6,204900
2359,000000	6,193600
2358,000000	6,174500
2357,000000	6,158400
2356,000000	6,165700
2355,000000	6,166300
2354,000000	6,163000
2353,000000	6,152700
2352,000000	6,157300
2351,000000	6,161000
2350,000000	6,164500
2349,000000	6,165200
2348,000000	6,173100
2347,000000	6,194100
2346,000000	6,219500
2345,000000	6,229500
2344,000000	6,238300
2343,000000	6,249500
2342,000000	6,261300
2341,000000	6,283900
2340,000000	6,296800
2339,000000	6,302200
2338,000000	6,311300
2337,000000	6,321900
2336,000000	6,323100
2335,000000	6,330500
2334,000000	6,330500
2333,000000	6,327600
2332,000000	6,333100
2331,000000	6,312900
2330,000000	6,304500
2329,000000	6,308500
2328,000000	6,307500
2327,000000	6,278400
2326,000000	6,256100
2325,000000	6,254900
2324,000000	6,230100
2323,000000	6,207500
2322,000000	6,195500
2321,000000	6,170800
2320,000000	6,145800
2319,000000	6,116200
2318,000000	6,089200
2317,000000	6,056600
2316,000000	6,026800
2315,000000	5,986600
2314,000000	5,954500
2313,000000	5,937000
2312,000000	5,906400
2311,000000	5,886100
2310,000000	5,866600
2309,000000	5,842200
2308,000000	5,826400
2307,000000	5,815900
2306,000000	5,812200
2305,000000	5,824100
2304,000000	5,822300
2303,000000	5,825400
2302,000000	5,844500
2301,000000	5,864900
2300,000000	5,877300
2299,000000	5,904000
2298,000000	5,940200
2297,000000	5,948500
2296,000000	5,977900
2295,000000	6,022400
2294,000000	6,028700
2293,000000	6,048300
2292,000000	6,063000
2291,000000	6,085000
2290,000000	6,089600
2289,000000	6,108800
2288,000000	6,122400
2287,000000	6,132300
2286,000000	6,124300
2285,000000	6,121900
2284,000000	6,115900
2283,000000	6,110500
2282,000000	6,092700
2281,000000	6,102600
2280,000000	6,077600
2279,000000	6,080000
2278,000000	6,054600
2277,000000	6,040400
2276,000000	6,036500
2275,000000	6,015300
2274,000000	6,012500
2273,000000	6,004600
2272,000000	6,001900
2271,000000	6,019400
2270,000000	6,024500
2269,000000	6,027500
2268,000000	6,048000
2267,000000	6,073200
2266,000000	6,091000
2265,000000	6,130800
2264,000000	6,174700
2263,000000	6,230800
2262,000000	6,282500
2261,000000	6,356700
2260,000000	6,416700
2259,000000	6,482100
2258,000000	6,575400
2257,000000	6,644600
2256,000000	6,730800
2255,000000	6,807700
2254,000000	6,907400
2253,000000	6,972200
2252,000000	7,072800
2251,000000	7,152900
2250,000000	7,236200
2249,000000	7,294900
2248,000000	7,358500
2247,000000	7,448600
2246,000000	7,498700
2245,000000	7,581900
2244,000000	7,620900
2243,000000	7,652200
2242,000000	7,708300
2241,000000	7,754800
2240,000000	7,819700
2239,000000	7,849900
2238,000000	7,884200
2237,000000	7,908400
2236,000000	7,944600
2235,000000	7,963300
2234,000000	8,010500
2233,000000	8,035100
2232,000000	8,037700
2231,000000	8,036500
2230,000000	8,059700
2229,000000	8,094600
2228,000000	8,077400
2227,000000	8,085300
2226,000000	8,068800
2225,000000	8,063600
2224,000000	8,051300
2223,000000	8,078700
2222,000000	8,072000
2221,000000	8,063600
2220,000000	8,064200
2219,000000	8,034400
2218,000000	8,035400
2217,000000	7,989400
2216,000000	7,977900
2215,000000	7,977800
2214,000000	7,981400
2213,000000	7,943100
2212,000000	7,934700
2211,000000	7,920200
2210,000000	7,915300
2209,000000	7,923600
2208,000000	7,916800
2207,000000	7,895600
2206,000000	7,889300
2205,000000	7,866500
2204,000000	7,878700
2203,000000	7,849800
2202,000000	7,860000
2201,000000	7,866700
2200,000000	7,876300
2199,000000	7,835900
2198,000000	7,841000
2197,000000	7,844600
2196,000000	7,847400
2195,000000	7,835700
2194,000000	7,820600
2193,000000	7,825600
2192,000000	7,830300
2191,000000	7,821700
2190,000000	7,816400
2189,000000	7,806300
2188,000000	7,804400
2187,000000	7,799100
2186,000000	7,779900
2185,000000	7,775400
2184,000000	7,780700
2183,000000	7,785500
2182,000000	7,761700
2181,000000	7,769100
2180,000000	7,753100
2179,000000	7,753100
2178,000000	7,761600
2177,000000	7,743300
2176,000000	7,743100
2175,000000	7,742700
2174,000000	7,750100
2173,000000	7,734700
2172,000000	7,733100
2171,000000	7,742900
2170,000000	7,747600
2169,000000	7,754900
2168,000000	7,769400
2167,000000	7,753400
2166,000000	7,761600
2165,000000	7,770000
2164,000000	7,771500
2163,000000	7,776300
2162,000000	7,779300
2161,000000	7,821000
2160,000000	7,834400
2159,000000	7,838500
2158,000000	7,853600
2157,000000	7,869300
2156,000000	7,905600
2155,000000	7,915900
2154,000000	7,937100
2153,000000	7,926700
2152,000000	7,955200
2151,000000	7,987400
2150,000000	8,003000
2149,000000	8,015500
2148,000000	8,043600
2147,000000	8,077000
2146,000000	8,108300
2145,000000	8,111200
2144,000000	8,110700
2143,000000	8,127000
2142,000000	8,151700
2141,000000	8,187900
2140,000000	8,202700
2139,000000	8,225900
2138,000000	8,237000
2137,000000	8,241500
2136,000000	8,248400
2135,000000	8,261900
2134,000000	8,284700
2133,000000	8,297600
2132,000000	8,307800
2131,000000	8,304700
2130,000000	8,328600
2129,000000	8,340700
2128,000000	8,344900
2127,000000	8,345600
2126,000000	8,339500
2125,000000	8,348200
2124,000000	8,359700
2123,000000	8,358900
2122,000000	8,380500
2121,000000	8,370100
2120,000000	8,352600
2119,000000	8,354600
2118,000000	8,360700
2117,000000	8,344900
2116,000000	8,351600
2115,000000	8,358100
2114,000000	8,350300
2113,000000	8,340900
2112,000000	8,342200
2111,000000	8,324300
2110,000000	8,313000
2109,000000	8,319800
2108,000000	8,306900
2107,000000	8,299700
2106,000000	8,300800
2105,000000	8,296300
2104,000000	8,268800
2103,000000	8,269700
2102,000000	8,266200
2101,000000	8,251700
2100,000000	8,235200
2099,000000	8,228600
2098,000000	8,216500
2097,000000	8,220000
2096,000000	8,229100
2095,000000	8,235400
2094,000000	8,221100
2093,000000	8,211000
2092,000000	8,216600
2091,000000	8,213500
2090,000000	8,213400
2089,000000	8,210100
2088,000000	8,193000
2087,000000	8,180100
2086,000000	8,183700
2085,000000	8,189200
2084,000000	8,177700
2083,000000	8,142700
2082,000000	8,124900
2081,000000	8,117300
2080,000000	8,128500
2079,000000	8,127800
2078,000000	8,096800
2077,000000	8,084700
2076,000000	8,071200
2075,000000	8,053200
2074,000000	8,031900
2073,000000	8,025100
2072,000000	8,009700
2071,000000	7,987700
2070,000000	7,968000
2069,000000	7,953200
2068,000000	7,944100
2067,000000	7,909500
2066,000000	7,888100
2065,000000	7,864900
2064,000000	7,841100
2063,000000	7,824400
2062,000000	7,808000
2061,000000	7,789400
2060,000000	7,775800
2059,000000	7,773900
2058,000000	7,758900
2057,000000	7,751400
2056,000000	7,758600
2055,000000	7,759800
2054,000000	7,776100
2053,000000	7,783700
2052,000000	7,781800
2051,000000	7,795100
2050,000000	7,826700
2049,000000	7,852800
2048,000000	7,867800
2047,000000	7,906100
2046,000000	7,936900
2045,000000	7,976100
2044,000000	8,017100
2043,000000	8,062600
2042,000000	8,091800
2041,000000	8,141400
2040,000000	8,178100
2039,000000	8,206300
2038,000000	8,242700
2037,000000	8,274700
2036,000000	8,304500
2035,000000	8,336800
2034,000000	8,369000
2033,000000	8,391200
2032,000000	8,405100
2031,000000	8,434600
2030,000000	8,444300
2029,000000	8,466500
2028,000000	8,492600
2027,000000	8,521400
2026,000000	8,526700
2025,000000	8,538700
2024,000000	8,550500
2023,000000	8,566600
2022,000000	8,580000
2021,000000	8,597800
2020,000000	8,614500
2019,000000	8,609700
2018,000000	8,616000
2017,000000	8,620800
2016,000000	8,627300
2015,000000	8,637900
2014,000000	8,621100
2013,000000	8,633200
2012,000000	8,645700
2011,000000	8,621700
2010,000000	8,622800
2009,000000	8,633200
2008,000000	8,610600
2007,000000	8,593800
2006,000000	8,580700
2005,000000	8,568200
2004,000000	8,552600
2003,000000	8,550200
2002,000000	8,535900
2001,000000	8,511400
2000,000000	8,503300
1999,000000	8,483700
1998,000000	8,457600
1997,000000	8,419600
1996,000000	8,400100
1995,000000	8,392800
1994,000000	8,370700
1993,000000	8,350200
1992,000000	8,326900
1991,000000	8,286500
1990,000000	8,257000
1989,000000	8,230700
1988,000000	8,200200
1987,000000	8,170700
1986,000000	8,145500
1985,000000	8,115700
1984,000000	8,083400
1983,000000	8,053700
1982,000000	8,030500
1981,000000	7,979400
1980,000000	7,958600
1979,000000	7,931700
1978,000000	7,903500
1977,000000	7,872600
1976,000000	7,834800
1975,000000	7,811300
1974,000000	7,782500
1973,000000	7,761400
1972,000000	7,731200
1971,000000	7,707200
1970,000000	7,661800
1969,000000	7,639900
1968,000000	7,634400
1967,000000	7,601300
1966,000000	7,559700
1965,000000	7,552300
1964,000000	7,520000
1963,000000	7,493400
1962,000000	7,485500
1961,000000	7,424300
1960,000000	7,424200
1959,000000	7,405500
1958,000000	7,353800
1957,000000	7,360200
1956,000000	7,337200
1955,000000	7,303200
1954,000000	7,302000
1953,000000	7,247900
1952,000000	7,238300
1951,000000	7,234700
1950,000000	7,202500
1949,000000	7,185200
1948,000000	7,155900
1947,000000	7,155300
1946,000000	7,119500
1945,000000	7,118200
1944,000000	7,101900
1943,000000	7,071600
1942,000000	7,088800
1941,000000	7,092200
1940,000000	7,041800
1939,000000	7,050300
1938,000000	7,029200
1937,000000	7,056500
1936,000000	7,063600
1935,000000	7,054500
1934,000000	7,066800
1933,000000	7,057600
1932,000000	7,077200
1931,000000	7,096500
1930,000000	7,124700
1929,000000	7,124200
1928,000000	7,127500
1927,000000	7,185200
1926,000000	7,189300
1925,000000	7,225500
1924,000000	7,274500
1923,000000	7,310700
1922,000000	7,349000
1921,000000	7,381300
1920,000000	7,429600
1919,000000	7,471300
1918,000000	7,514100
1917,000000	7,601500
1916,000000	7,643200
1915,000000	7,721200
1914,000000	7,757000
1913,000000	7,847300
1912,000000	7,922300
1911,000000	7,995100
1910,000000	8,073200
1909,000000	8,154000
1908,000000	8,219900
1907,000000	8,305300
1906,000000	8,420400
1905,000000	8,531200
1904,000000	8,640000
1903,000000	8,715300
1902,000000	8,863700
1901,000000	8,958700
1900,000000	9,100000
1899,000000	9,239800
1898,000000	9,360900
1897,000000	9,518700
1896,000000	9,657200
1895,000000	9,788600
1894,000000	9,961300
1893,000000	10,096500
1892,000000	10,296700
1891,000000	10,480900
1890,000000	10,675600
1889,000000	10,856200
1888,000000	11,071800
1887,000000	11,280900
1886,000000	11,505800
1885,000000	11,714700
1884,000000	11,997600
1883,000000	12,267500
1882,000000	12,558600
1881,000000	12,846800
1880,000000	13,107200
1879,000000	13,358800
1878,000000	13,616700
1877,000000	13,898200
1876,000000	14,154200
1875,000000	14,380100
1874,000000	14,643300
1873,000000	14,886300
1872,000000	15,092100
1871,000000	15,306000
1870,000000	15,509100
1869,000000	15,681800
1868,000000	15,869800
1867,000000	16,001300
1866,000000	16,120100
1865,000000	16,217300
1864,000000	16,318600
1863,000000	16,411000
1862,000000	16,508500
1861,000000	16,603600
1860,000000	16,680700
1859,000000	16,751600
1858,000000	16,810500
1857,000000	16,859300
1856,000000	16,895600
1855,000000	16,920100
1854,000000	16,972400
1853,000000	16,996500
1852,000000	16,985500
1851,000000	17,000500
1850,000000	17,002200
1849,000000	17,031600
1848,000000	17,041000
1847,000000	17,011300
1846,000000	16,989400
1845,000000	16,961400
1844,000000	16,943300
1843,000000	16,944300
1842,000000	16,957700
1841,000000	16,949600
1840,000000	16,934000
1839,000000	16,902800
1838,000000	16,876800
1837,000000	16,869000
1836,000000	16,855300
1835,000000	16,824500
1834,000000	16,775900
1833,000000	16,735800
1832,000000	16,703200
1831,000000	16,670100
1830,000000	16,637200
1829,000000	16,597400
1828,000000	16,553300
1827,000000	16,514400
1826,000000	16,483400
1825,000000	16,440500
1824,000000	16,421300
1823,000000	16,405000
1822,000000	16,386600
1821,000000	16,390800
1820,000000	16,351600
1819,000000	16,331800
1818,000000	16,312800
1817,000000	16,293200
1816,000000	16,288200
1815,000000	16,271500
1814,000000	16,270000
1813,000000	16,268600
1812,000000	16,243200
1811,000000	16,213700
1810,000000	16,203700
1809,000000	16,189900
1808,000000	16,155900
1807,000000	16,132300
1806,000000	16,115300
1805,000000	16,077200
1804,000000	16,047400
1803,000000	16,023500
1802,000000	15,984400
1801,000000	15,965100
1800,000000	15,943300
1799,000000	15,893300
1798,000000	15,847500
1797,000000	15,828500
1796,000000	15,822900
1795,000000	15,798400
1794,000000	15,755100
1793,000000	15,716500
1792,000000	15,693400
1791,000000	15,672600
1790,000000	15,632700
1789,000000	15,593800
1788,000000	15,569700
1787,000000	15,546500
1786,000000	15,522400
1785,000000	15,486600
1784,000000	15,453400
1783,000000	15,413600
1782,000000	15,354900
1781,000000	15,312100
1780,000000	15,277900
1779,000000	15,244200
1778,000000	15,196300
1777,000000	15,132900
1776,000000	15,079400
1775,000000	15,037800
1774,000000	14,979800
1773,000000	14,909500
1772,000000	14,857600
1771,000000	14,788300
1770,000000	14,714700
1769,000000	14,647200
1768,000000	14,584100
1767,000000	14,518200
1766,000000	14,474600
1765,000000	14,427900
1764,000000	14,379400
1763,000000	14,363100
1762,000000	14,352400
1761,000000	14,354600
1760,000000	14,372200
1759,000000	14,402500
1758,000000	14,434700
1757,000000	14,478700
1756,000000	14,507600
1755,000000	14,536000
1754,000000	14,559900
1753,000000	14,570500
1752,000000	14,577200
1751,000000	14,582700
1750,000000	14,572100
1749,000000	14,563100
1748,000000	14,545000
1747,000000	14,515400
1746,000000	14,470100
1745,000000	14,426900
1744,000000	14,369500
1743,000000	14,296200
1742,000000	14,214500
1741,000000	14,115500
1740,000000	14,012200
1739,000000	13,903400
1738,000000	13,815100
1737,000000	13,708000
1736,000000	13,627700
1735,000000	13,562200
1734,000000	13,517200
1733,000000	13,486300
1732,000000	13,468600
1731,000000	13,483100
1730,000000	13,495200
1729,000000	13,532200
1728,000000	13,586500
1727,000000	13,637000
1726,000000	13,686000
1725,000000	13,708500
1724,000000	13,739700
1723,000000	13,775100
1722,000000	13,802100
1721,000000	13,835900
1720,000000	13,862200
1719,000000	13,878700
1718,000000	13,919600
1717,000000	13,964700
1716,000000	14,004700
1715,000000	14,063600
1714,000000	14,117800
1713,000000	14,158900
1712,000000	14,213100
1711,000000	14,262100
1710,000000	14,291100
1709,000000	14,312200
1708,000000	14,319400
1707,000000	14,310300
1706,000000	14,308800
1705,000000	14,306000
1704,000000	14,280200
1703,000000	14,262900
1702,000000	14,235200
1701,000000	14,198700
1700,000000	14,124400
1699,000000	14,073500
1698,000000	14,016500
1697,000000	13,986800
1696,000000	13,946900
1695,000000	13,921300
1694,000000	13,941100
1693,000000	13,980800
1692,000000	14,057800
1691,000000	14,130000
1690,000000	14,234700
1689,000000	14,338500
1688,000000	14,400400
1687,000000	14,443500
1686,000000	14,491000
1685,000000	14,550100
1684,000000	14,611400
1683,000000	14,717100
1682,000000	14,849600
1681,000000	15,086700
1680,000000	15,357900
1679,000000	15,656700
1678,000000	15,943900
1677,000000	16,252300
1676,000000	16,534300
1675,000000	16,791200
1674,000000	17,028100
1673,000000	17,253400
1672,000000	17,426800
1671,000000	17,580900
1670,000000	17,708700
1669,000000	17,849300
1668,000000	17,980900
1667,000000	18,078000
1666,000000	18,139400
1665,000000	18,225900
1664,000000	18,283300
1663,000000	18,367300
1662,000000	18,422300
1661,000000	18,471200
1660,000000	18,535900
1659,000000	18,562600
1658,000000	18,619100
1657,000000	18,663100
1656,000000	18,641400
1655,000000	18,678800
1654,000000	18,691800
1653,000000	18,700200
1652,000000	18,694300
1651,000000	18,687900
1650,000000	18,672300
1649,000000	18,643400
1648,000000	18,620500
1647,000000	18,588800
1646,000000	18,578600
1645,000000	18,551800
1644,000000	18,528100
1643,000000	18,497100
1642,000000	18,438900
1641,000000	18,420600
1640,000000	18,394000
1639,000000	18,360400
1638,000000	18,310900
1637,000000	18,262900
1636,000000	18,236600
1635,000000	18,205900
1634,000000	18,137000
1633,000000	18,103800
1632,000000	18,052100
1631,000000	18,009400
1630,000000	17,950700
1629,000000	17,913100
1628,000000	17,853700
1627,000000	17,822500
1626,000000	17,776300
1625,000000	17,699400
1624,000000	17,642700
1623,000000	17,613000
1622,000000	17,547400
1621,000000	17,480800
1620,000000	17,453200
1619,000000	17,412800
1618,000000	17,375900
1617,000000	17,325200
1616,000000	17,263500
1615,000000	17,238400
1614,000000	17,193000
1613,000000	17,133100
1612,000000	17,100200
1611,000000	17,045100
1610,000000	16,992400
1609,000000	16,965500
1608,000000	16,915500
1607,000000	16,866100
1606,000000	16,820100
1605,000000	16,768900
1604,000000	16,733200
1603,000000	16,681200
1602,000000	16,637500
1601,000000	16,587700
1600,000000	16,538800
1599,000000	16,484900
1598,000000	16,439600
1597,000000	16,411800
1596,000000	16,361100
1595,000000	16,318600
1594,000000	16,268200
1593,000000	16,236800
1592,000000	16,188700
1591,000000	16,172200
1590,000000	16,127400
1589,000000	16,082300
1588,000000	16,049200
1587,000000	16,012300
1586,000000	15,970900
1585,000000	15,937300
1584,000000	15,917100
1583,000000	15,884900
1582,000000	15,859200
1581,000000	15,842700
1580,000000	15,820700
1579,000000	15,781400
1578,000000	15,787100
1577,000000	15,784700
1576,000000	15,743400
1575,000000	15,729400
1574,000000	15,714100
1573,000000	15,712000
1572,000000	15,714600
1571,000000	15,709500
1570,000000	15,711800
1569,000000	15,705300
1568,000000	15,703900
1567,000000	15,705300
1566,000000	15,709000
1565,000000	15,708600
1564,000000	15,723400
1563,000000	15,719000
1562,000000	15,711800
1561,000000	15,707700
1560,000000	15,712300
1559,000000	15,715200
1558,000000	15,695700
1557,000000	15,680100
1556,000000	15,681400
1555,000000	15,663600
1554,000000	15,639400
1553,000000	15,628200
1552,000000	15,618800
1551,000000	15,591100
1550,000000	15,567900
1549,000000	15,542200
1548,000000	15,513900
1547,000000	15,491100
1546,000000	15,478200
1545,000000	15,465000
1544,000000	15,437200
1543,000000	15,410100
1542,000000	15,400800
1541,000000	15,383100
1540,000000	15,375300
1539,000000	15,356600
1538,000000	15,327400
1537,000000	15,303100
1536,000000	15,298700
1535,000000	15,286400
1534,000000	15,263800
1533,000000	15,246700
1532,000000	15,228300
1531,000000	15,207300
1530,000000	15,189900
1529,000000	15,162200
1528,000000	15,129200
1527,000000	15,107000
1526,000000	15,071500
1525,000000	15,039400
1524,000000	15,015500
1523,000000	14,992200
1522,000000	14,976800
1521,000000	14,948900
1520,000000	14,911200
1519,000000	14,877100
1518,000000	14,851000
1517,000000	14,829700
1516,000000	14,786100
1515,000000	14,750900
1514,000000	14,730300
1513,000000	14,692800
1512,000000	14,644600
1511,000000	14,615900
1510,000000	14,592100
1509,000000	14,555700
1508,000000	14,526300
1507,000000	14,490100
1506,000000	14,452600
1505,000000	14,421300
1504,000000	14,379900
1503,000000	14,337000
1502,000000	14,311000
1501,000000	14,295000
1500,000000	14,271800
1499,000000	14,237600
1498,000000	14,197900
1497,000000	14,178000
1496,000000	14,160100
1495,000000	14,127000
1494,000000	14,111000
1493,000000	14,097600
1492,000000	14,077300
1491,000000	14,072100
1490,000000	14,057800
1489,000000	14,026300
1488,000000	14,017800
1487,000000	14,009700
1486,000000	13,993200
1485,000000	13,965500
1484,000000	13,953500
1483,000000	13,958900
1482,000000	13,935600
1481,000000	13,931600
1480,000000	13,946400
1479,000000	13,947400
1478,000000	13,922600
1477,000000	13,920600
1476,000000	13,925100
1475,000000	13,922000
1474,000000	13,928000
1473,000000	13,926800
1472,000000	13,942300
1471,000000	13,946900
1470,000000	13,946200
1469,000000	13,954400
1468,000000	13,977100
1467,000000	13,973600
1466,000000	13,986900
1465,000000	14,008800
1464,000000	14,010400
1463,000000	14,035000
1462,000000	14,056800
1461,000000	14,070100
1460,000000	14,104700
1459,000000	14,135100
1458,000000	14,165800
1457,000000	14,215300
1456,000000	14,256900
1455,000000	14,298700
1454,000000	14,327100
1453,000000	14,384400
1452,000000	14,432300
1451,000000	14,476100
1450,000000	14,527600
1449,000000	14,577400
1448,000000	14,629200
1447,000000	14,687400
1446,000000	14,734900
1445,000000	14,792600
1444,000000	14,864400
1443,000000	14,914200
1442,000000	14,975300
1441,000000	15,051200
1440,000000	15,102200
1439,000000	15,175200
1438,000000	15,245200
1437,000000	15,335100
1436,000000	15,411500
1435,000000	15,469900
1434,000000	15,562300
1433,000000	15,650400
1432,000000	15,740700
1431,000000	15,829500
1430,000000	15,914600
1429,000000	16,029200
1428,000000	16,132000
1427,000000	16,248200
1426,000000	16,358300
1425,000000	16,487200
1424,000000	16,629600
1423,000000	16,790600
1422,000000	16,929600
1421,000000	17,087800
1420,000000	17,236800
1419,000000	17,408700
1418,000000	17,579400
1417,000000	17,731000
1416,000000	17,906700
1415,000000	18,136100
1414,000000	18,358300
1413,000000	18,541600
1412,000000	18,736600
1411,000000	18,979000
1410,000000	19,229100
1409,000000	19,525900
1408,000000	19,807000
1407,000000	20,090500
1406,000000	20,386400
1405,000000	20,731000
1404,000000	21,036600
1403,000000	21,364600
1402,000000	21,657900
1401,000000	22,029100
1400,000000	22,397300
1399,000000	22,699700
1398,000000	22,937300
1397,000000	23,200700
1396,000000	23,536400
1395,000000	23,863000
1394,000000	24,124000
1393,000000	24,358100
1392,000000	24,647600
1391,000000	24,950700
1390,000000	25,246600
1389,000000	25,561800
1388,000000	25,954700
1387,000000	26,367100
1386,000000	26,784200
1385,000000	27,175000
1384,000000	27,656100
1383,000000	28,110200
1382,000000	28,560600
1381,000000	28,969300
1380,000000	29,223700
1379,000000	29,507100
1378,000000	29,733400
1377,000000	29,916600
1376,000000	30,101200
1375,000000	30,302400
1374,000000	30,508400
1373,000000	30,795100
1372,000000	31,095300
1371,000000	31,392100
1370,000000	31,702600
1369,000000	31,970200
1368,000000	32,221200
1367,000000	32,485400
1366,000000	32,688600
1365,000000	32,892800
1364,000000	33,062000
1363,000000	33,243800
1362,000000	33,389800
1361,000000	33,578700
1360,000000	33,706100
1359,000000	33,791000
1358,000000	33,886900
1357,000000	34,013800
1356,000000	34,221200
1355,000000	34,436800
1354,000000	34,784100
1353,000000	35,095600
1352,000000	35,497300
1351,000000	35,898700
1350,000000	36,298300
1349,000000	36,636200
1348,000000	36,959400
1347,000000	37,311600
1346,000000	37,587300
1345,000000	37,860200
1344,000000	38,160000
1343,000000	38,452100
1342,000000	38,702100
1341,000000	38,972600
1340,000000	39,247400
1339,000000	39,509300
1338,000000	39,769600
1337,000000	40,020800
1336,000000	40,248400
1335,000000	40,486300
1334,000000	40,729100
1333,000000	40,951200
1332,000000	41,172600
1331,000000	41,377500
1330,000000	41,598500
1329,000000	41,808300
1328,000000	41,995400
1327,000000	42,177000
1326,000000	42,350000
1325,000000	42,526300
1324,000000	42,698600
1323,000000	42,853900
1322,000000	43,017800
1321,000000	43,150900
1320,000000	43,288300
1319,000000	43,415200
1318,000000	43,555000
1317,000000	43,698200
1316,000000	43,803700
1315,000000	43,924900
1314,000000	44,021800
1313,000000	44,129900
1312,000000	44,240800
1311,000000	44,334200
1310,000000	44,413800
1309,000000	44,497800
1308,000000	44,554700
1307,000000	44,632700
1306,000000	44,711900
1305,000000	44,765200
1304,000000	44,811300
1303,000000	44,861000
1302,000000	44,888100
1301,000000	44,924000
1300,000000	44,960700
1299,000000	44,978300
1298,000000	45,005100
1297,000000	45,023700
1296,000000	45,032000
1295,000000	45,034400
1294,000000	45,041900
1293,000000	45,049400
1292,000000	45,058300
1291,000000	45,044400
1290,000000	45,028600
1289,000000	45,005600
1288,000000	44,979900
1287,000000	44,948000
1286,000000	44,906000
1285,000000	44,880300
1284,000000	44,838900
1283,000000	44,799500
1282,000000	44,735400
1281,000000	44,691500
1280,000000	44,659500
1279,000000	44,605100
1278,000000	44,563400
1277,000000	44,528500
1276,000000	44,497700
1275,000000	44,449500
1274,000000	44,418000
1273,000000	44,402900
1272,000000	44,380100
1271,000000	44,362700
1270,000000	44,334200
1269,000000	44,310300
1268,000000	44,272900
1267,000000	44,237600
1266,000000	44,212600
1265,000000	44,186800
1264,000000	44,146600
1263,000000	44,113300
1262,000000	44,074200
1261,000000	44,033400
1260,000000	43,989300
1259,000000	43,939500
1258,000000	43,891900
1257,000000	43,836900
1256,000000	43,789000
1255,000000	43,712200
1254,000000	43,636200
1253,000000	43,577300
1252,000000	43,486900
1251,000000	43,404400
1250,000000	43,334700
1249,000000	43,238500
1248,000000	43,141900
1247,000000	43,051100
1246,000000	42,939900
1245,000000	42,821900
1244,000000	42,706100
1243,000000	42,600700
1242,000000	42,476500
1241,000000	42,337000
1240,000000	42,210400
1239,000000	42,083500
1238,000000	41,953800
1237,000000	41,827800
1236,000000	41,688600
1235,000000	41,542900
1234,000000	41,393800
1233,000000	41,233700
1232,000000	41,072100
1231,000000	40,910900
1230,000000	40,742400
1229,000000	40,562600
1228,000000	40,384300
1227,000000	40,199300
1226,000000	40,009000
1225,000000	39,810700
1224,000000	39,607600
1223,000000	39,408100
1222,000000	39,207400
1221,000000	38,993200
1220,000000	38,785500
1219,000000	38,589600
1218,000000	38,400600
1217,000000	38,220800
1216,000000	38,039600
1215,000000	37,877900
1214,000000	37,717900
1213,000000	37,568200
1212,000000	37,431900
1211,000000	37,286300
1210,000000	37,167500
1209,000000	37,060800
1208,000000	36,946600
1207,000000	36,850400
1206,000000	36,764100
1205,000000	36,692100
1204,000000	36,637100
1203,000000	36,600900
1202,000000	36,561700
1201,000000	36,521400
1200,000000	36,463500
1199,000000	36,402100
1198,000000	36,325900
1197,000000	36,220400
1196,000000	36,095300
1195,000000	35,956800
1194,000000	35,761200
1193,000000	35,520100
1192,000000	35,251900
1191,000000	34,963900
1190,000000	34,686600
1189,000000	34,397300
1188,000000	34,170200
1187,000000	34,017000
1186,000000	33,944100
1185,000000	33,955000
1184,000000	34,076700
1183,000000	34,289000
1182,000000	34,563200
1181,000000	34,900100
1180,000000	35,265800
1179,000000	35,656900
1178,000000	35,981200
1177,000000	36,298000
1176,000000	36,585400
1175,000000	36,840400
1174,000000	37,077600
1173,000000	37,314400
1172,000000	37,538100
1171,000000	37,774000
1170,000000	38,010800
1169,000000	38,252300
1168,000000	38,494900
1167,000000	38,754500
1166,000000	39,011400
1165,000000	39,288000
1164,000000	39,577100
1163,000000	39,873800
1162,000000	40,187200
1161,000000	40,486900
1160,000000	40,799100
1159,000000	41,098900
1158,000000	41,395300
1157,000000	41,670000
1156,000000	41,922300
1155,000000	42,144100
1154,000000	42,347900
1153,000000	42,518900
1152,000000	42,671100
1151,000000	42,786300
1150,000000	42,881600
1149,000000	42,979300
1148,000000	43,085900
1147,000000	43,202500
1146,000000	43,344600
1145,000000	43,529900
1144,000000	43,741800
1143,000000	44,001100
1142,000000	44,277400
1141,000000	44,583400
1140,000000	44,878100
1139,000000	45,181400
1138,000000	45,502500
1137,000000	45,852400
1136,000000	46,195900
1135,000000	46,551300
1134,000000	46,917600
1133,000000	47,227000
1132,000000	47,490400
1131,000000	47,760900
1130,000000	47,997100
1129,000000	48,203600
1128,000000	48,366200
1127,000000	48,492300
1126,000000	48,600600
1125,000000	48,689200
1124,000000	48,750500
1123,000000	48,801500
1122,000000	48,855000
1121,000000	48,889500
1120,000000	48,904000
1119,000000	48,898400
1118,000000	48,904100
1117,000000	48,916300
1116,000000	48,893400
1115,000000	48,876500
1114,000000	48,850300
1113,000000	48,822500
1112,000000	48,793700
1111,000000	48,751300
1110,000000	48,731900
1109,000000	48,713600
1108,000000	48,677000
1107,000000	48,642200
1106,000000	48,627200
1105,000000	48,587100
1104,000000	48,541700
1103,000000	48,509800
1102,000000	48,483800
1101,000000	48,458400
1100,000000	48,423200
1099,000000	48,380600
1098,000000	48,330300
1097,000000	48,296200
1096,000000	48,260100
1095,000000	48,189700
1094,000000	48,156900
1093,000000	48,095300
1092,000000	48,034700
1091,000000	47,980200
1090,000000	47,925400
1089,000000	47,852400
1088,000000	47,791600
1087,000000	47,720900
1086,000000	47,654200
1085,000000	47,571300
1084,000000	47,505100
1083,000000	47,428200
1082,000000	47,367900
1081,000000	47,293900
1080,000000	47,211800
1079,000000	47,139200
1078,000000	47,070200
1077,000000	46,989100
1076,000000	46,930700
1075,000000	46,841300
1074,000000	46,770100
1073,000000	46,700900
1072,000000	46,617000
1071,000000	46,518000
1070,000000	46,451600
1069,000000	46,374000
1068,000000	46,288900
1067,000000	46,199100
1066,000000	46,118800
1065,000000	46,037300
1064,000000	45,939000
1063,000000	45,856000
1062,000000	45,767400
1061,000000	45,692700
1060,000000	45,594200
1059,000000	45,501700
1058,000000	45,395400
1057,000000	45,323900
1056,000000	45,222800
1055,000000	45,137100
1054,000000	45,043300
1053,000000	44,925100
1052,000000	44,861500
1051,000000	44,759100
1050,000000	44,660000
1049,000000	44,581100
1048,000000	44,504600
1047,000000	44,408400
1046,000000	44,334900
1045,000000	44,260200
1044,000000	44,166600
1043,000000	44,071200
1042,000000	44,001000
1041,000000	43,902900
1040,000000	43,824600
1039,000000	43,753500
1038,000000	43,669000
1037,000000	43,567600
1036,000000	43,488200
1035,000000	43,400100
1034,000000	43,301300
1033,000000	43,227300
1032,000000	43,124600
1031,000000	43,023300
1030,000000	42,937600
1029,000000	42,828900
1028,000000	42,724900
1027,000000	42,645600
1026,000000	42,518100
1025,000000	42,438400
1024,000000	42,316600
1023,000000	42,236300
1022,000000	42,121700
1021,000000	42,027900
1020,000000	41,925200
1019,000000	41,829700
1018,000000	41,715400
1017,000000	41,630400
1016,000000	41,539700
1015,000000	41,463600
1014,000000	41,370800
1013,000000	41,276000
1012,000000	41,219900
1011,000000	41,136100
1010,000000	41,075900
1009,000000	41,024400
1008,000000	40,946400
1007,000000	40,890300
1006,000000	40,829300
1005,000000	40,782200
1004,000000	40,722400
1003,000000	40,661900
1002,000000	40,595800
1001,000000	40,535400
1000,000000	40,467000
999,000000	40,394800
998,000000	40,339800
997,000000	40,295600
996,000000	40,220200
995,000000	40,150500
994,000000	40,089500
993,000000	40,043100
992,000000	39,971600
991,000000	39,915200
990,000000	39,855600
989,000000	39,800100
988,000000	39,745100
987,000000	39,693600
986,000000	39,649700
985,000000	39,593700
984,000000	39,547000
983,000000	39,479400
982,000000	39,426800
981,000000	39,387400
980,000000	39,346400
979,000000	39,293800
978,000000	39,248400
977,000000	39,190100
976,000000	39,131200
975,000000	39,079200
974,000000	39,036100
973,000000	39,000500
972,000000	38,951800
971,000000	38,882100
970,000000	38,841700
969,000000	38,810200
968,000000	38,747700
967,000000	38,687500
966,000000	38,651600
965,000000	38,603600
964,000000	38,569400
963,000000	38,525300
962,000000	38,471900
961,000000	38,432800
960,000000	38,410500
959,000000	38,383100
958,000000	38,343000
957,000000	38,300200
956,000000	38,249600
955,000000	38,206800
954,000000	38,181100
953,000000	38,154700
952,000000	38,105700
951,000000	38,060300
950,000000	38,011900
949,000000	37,950900
948,000000	37,925000
947,000000	37,875700
946,000000	37,806400
945,000000	37,764900
944,000000	37,714600
943,000000	37,655400
942,000000	37,596200
941,000000	37,549200
940,000000	37,492900
939,000000	37,414600
938,000000	37,348200
937,000000	37,294100
936,000000	37,259700
935,000000	37,197700
934,000000	37,129000
933,000000	37,084500
932,000000	37,024500
931,000000	36,981300
930,000000	36,928000
929,000000	36,848300
928,000000	36,783200
927,000000	36,744200
926,000000	36,685100
925,000000	36,618800
924,000000	36,556700
923,000000	36,505500
922,000000	36,475200
921,000000	36,425800
920,000000	36,355500
919,000000	36,292400
918,000000	36,231200
917,000000	36,210900
916,000000	36,162800
915,000000	36,092700
914,000000	36,025700
913,000000	35,962200
912,000000	35,906100
911,000000	35,886500
910,000000	35,849500
909,000000	35,793800
908,000000	35,752600
907,000000	35,714700
906,000000	35,678300
905,000000	35,656600
904,000000	35,646000
903,000000	35,624400
902,000000	35,612900
901,000000	35,618400
900,000000	35,619400
899,000000	35,601800
898,000000	35,587900
897,000000	35,600600
896,000000	35,609000
895,000000	35,600900
894,000000	35,574400
893,000000	35,569800
892,000000	35,562800
891,000000	35,541700
890,000000	35,546800
889,000000	35,527500
888,000000	35,503000
887,000000	35,481800
886,000000	35,439200
885,000000	35,416900
884,000000	35,348300
883,000000	35,332000
882,000000	35,270400
881,000000	35,221600
880,000000	35,147600
879,000000	35,062300
878,000000	34,976900
877,000000	34,880300
876,000000	34,760300
875,000000	34,613200
874,000000	34,487700
873,000000	34,403300
872,000000	34,416300
871,000000	34,496200
870,000000	34,564600
869,000000	34,642300
868,000000	34,715200
867,000000	34,799700
866,000000	34,866200
865,000000	34,938400
864,000000	35,036000
863,000000	35,105100
862,000000	35,167800
861,000000	35,254200
860,000000	35,336300
859,000000	35,410000
858,000000	35,507500
857,000000	40,665900
856,000000	41,269200
855,000000	41,608900
854,000000	41,937900
853,000000	42,413700
852,000000	41,891100
851,000000	42,399600
850,000000	42,717700
849,000000	42,677600
848,000000	42,660300
847,000000	42,938200
846,000000	43,473100
845,000000	43,358600
844,000000	43,936100
843,000000	43,904500
842,000000	43,986500
841,000000	44,044100
840,000000	44,314600
839,000000	44,318000
838,000000	44,643400
837,000000	44,751800
836,000000	44,664800
835,000000	45,011000
834,000000	45,096200
833,000000	44,816900
832,000000	45,164800
831,000000	45,000900
830,000000	45,227800
829,000000	45,217300
828,000000	45,508200
827,000000	45,548300
826,000000	45,683700
825,000000	45,682600
824,000000	45,746000
823,000000	45,896300
822,000000	45,933600
821,000000	45,933600
820,000000	46,188900
819,000000	46,071500
818,000000	46,200500
817,000000	46,248100
816,000000	46,462000
815,000000	46,108500
814,000000	46,256700
813,000000	46,281700
812,000000	46,446700
811,000000	46,372500
810,000000	46,480100
809,000000	46,402300
808,000000	46,518300
807,000000	46,504100
806,000000	46,519200
805,000000	46,399300
804,000000	46,654700
803,000000	46,438200
802,000000	46,558700
801,000000	46,649500
800,000000	46,512100
799,000000	46,622000
798,000000	46,441100
797,000000	46,528900
796,000000	46,540700
795,000000	46,439400
794,000000	46,437500
793,000000	46,510100
792,000000	46,445800
791,000000	46,499100
790,000000	46,465200
789,000000	46,502900
788,000000	46,348800
787,000000	46,198500
786,000000	46,338900
785,000000	46,277900
784,000000	46,253300
783,000000	46,204700
782,000000	46,171400
781,000000	46,245700
780,000000	46,201800
779,000000	45,995700
778,000000	46,062100
777,000000	45,934900
776,000000	45,988300
775,000000	45,824800
774,000000	45,827200
773,000000	45,792000
772,000000	45,670600
771,000000	45,630200
770,000000	45,594900
769,000000	45,558800
768,000000	45,444800
767,000000	45,367400
766,000000	45,278000
765,000000	45,275700
764,000000	45,193700
763,000000	45,095700
762,000000	45,026500
761,000000	44,953800
760,000000	44,810100
759,000000	44,807600
758,000000	44,726500
757,000000	44,618900
756,000000	44,505600
755,000000	44,410300
754,000000	44,415200
753,000000	44,255800
752,000000	44,175600
751,000000	44,120600
750,000000	43,902200
749,000000	43,819000
748,000000	43,750400
747,000000	43,713400
746,000000	43,561000
745,000000	43,469200
744,000000	43,341700
743,000000	43,249500
742,000000	43,169200
741,000000	43,137600
740,000000	42,995000
739,000000	42,894200
738,000000	42,832900
737,000000	42,659500
736,000000	42,493800
735,000000	42,380800
734,000000	42,304200
733,000000	42,170700
732,000000	42,014800
731,000000	41,874200
730,000000	41,724100
729,000000	41,619100
728,000000	41,440100
727,000000	41,295700
726,000000	41,120700
725,000000	41,037700
724,000000	40,841500
723,000000	40,659700
722,000000	40,503100
721,000000	40,284600
720,000000	40,103200
719,000000	39,972900
718,000000	39,775100
717,000000	39,581800
716,000000	39,409800
715,000000	39,213300
714,000000	39,022000
713,000000	38,858700
712,000000	38,603900
711,000000	38,399000
710,000000	38,226500
709,000000	37,975200
708,000000	37,787000
707,000000	37,591700
706,000000	37,355200
705,000000	37,121700
704,000000	36,895900
703,000000	36,627500
702,000000	36,403200
701,000000	36,115600
700,000000	35,810100
699,000000	35,543100
698,000000	35,283600
697,000000	35,004100
696,000000	34,687700
695,000000	34,434500
694,000000	34,162500
693,000000	33,910400
692,000000	33,586700
691,000000	33,280900
690,000000	32,952700
689,000000	32,655400
688,000000	32,347000
687,000000	32,039600
686,000000	31,777500
685,000000	31,458500
684,000000	31,139900
683,000000	30,840700
682,000000	30,537900
681,000000	30,217700
680,000000	29,920300
679,000000	29,624700
678,000000	29,312300
677,000000	28,991000
676,000000	28,717200
675,000000	28,429700
674,000000	28,153000
673,000000	27,846800
672,000000	27,560000
671,000000	27,288500
670,000000	27,020300
669,000000	26,742100
668,000000	26,499800
667,000000	26,278900
666,000000	26,044800
665,000000	25,819700
664,000000	25,598000
663,000000	25,377500
662,000000	25,164600
661,000000	24,966000
660,000000	24,754300
659,000000	24,552300
658,000000	24,365100
657,000000	24,191000
656,000000	24,026000
655,000000	23,871000
654,000000	23,693300
653,000000	23,521800
652,000000	23,397600
651,000000	23,285600
650,000000	23,170800
649,000000	23,077000
648,000000	22,978800
647,000000	22,889700
646,000000	22,800500
645,000000	22,703000
644,000000	22,625800
643,000000	22,585900
642,000000	22,530900
641,000000	22,489400
640,000000	22,485900
639,000000	22,490100
638,000000	22,503100
637,000000	22,511400
636,000000	22,523600
635,000000	22,565400
634,000000	22,611200
633,000000	22,675700
632,000000	22,755100
631,000000	22,810400
630,000000	22,906800
629,000000	23,032300
628,000000	23,137000
627,000000	23,261200
626,000000	23,394100
625,000000	23,527200
624,000000	23,675600
623,000000	23,820300
622,000000	23,978200
621,000000	24,145000
620,000000	24,293400
619,000000	24,443000
618,000000	24,586300
617,000000	24,754000
616,000000	24,923400
615,000000	25,101400
614,000000	25,282300
613,000000	25,442300
612,000000	25,599200
611,000000	25,762600
610,000000	25,941000
609,000000	26,094800
608,000000	26,220800
607,000000	26,363100
606,000000	26,531700
605,000000	26,679500
604,000000	26,807900
603,000000	26,941800
602,000000	27,088800
601,000000	27,228900
600,000000	27,361900
599,000000	27,465000
598,000000	27,570200
597,000000	27,692800
596,000000	27,812300
595,000000	27,920700
594,000000	27,990500
593,000000	28,087500
592,000000	28,186900
591,000000	28,264700
590,000000	28,349400
589,000000	28,414000
588,000000	28,466000
587,000000	28,510100
586,000000	28,578800
585,000000	28,616000
584,000000	28,649800
583,000000	28,668500
582,000000	28,677000
581,000000	28,717800
580,000000	28,737400
579,000000	28,719100
578,000000	28,727100
577,000000	28,722800
576,000000	28,713100
575,000000	28,703500
574,000000	28,674000
573,000000	28,623100
572,000000	28,586300
571,000000	28,555700
570,000000	28,510600
569,000000	28,438800
568,000000	28,377900
567,000000	28,345500
566,000000	28,261500
565,000000	28,164900
564,000000	28,062200
563,000000	27,983800
562,000000	27,897400
561,000000	27,791200
560,000000	27,669100
559,000000	27,557100
558,000000	27,431800
557,000000	27,306800
556,000000	27,196600
555,000000	27,029300
554,000000	26,858100
553,000000	26,686400
552,000000	26,514200
551,000000	26,313700
550,000000	26,134700
549,000000	25,922300
548,000000	25,709900
547,000000	25,525400
546,000000	25,292500
545,000000	25,057400
544,000000	24,811000
543,000000	24,584500
542,000000	24,309900
541,000000	24,060000
540,000000	23,798200
539,000000	23,538700
538,000000	23,248300
537,000000	22,971000
536,000000	22,711000
535,000000	22,421100
534,000000	22,118400
533,000000	21,816000
532,000000	21,531100
531,000000	21,238600
530,000000	20,942800
529,000000	20,646700
528,000000	20,363600
527,000000	20,056700
526,000000	19,773300
525,000000	19,472400
524,000000	19,176500
523,000000	18,883200
522,000000	18,595800
521,000000	18,287200
520,000000	17,992800
519,000000	17,725600
518,000000	17,440000
517,000000	17,154200
516,000000	16,898000
515,000000	16,624800
514,000000	16,380600
513,000000	16,113200
512,000000	15,864600
511,000000	15,597500
510,000000	15,360200
509,000000	15,121100
508,000000	14,893600
507,000000	14,664600
506,000000	14,444600
505,000000	14,228800
504,000000	14,026800
503,000000	13,837500
502,000000	13,647600
501,000000	13,439200
500,000000	13,245000
499,000000	13,080800
498,000000	12,929600
497,000000	12,780300
496,000000	12,600900
495,000000	12,476100
494,000000	12,305200
493,000000	12,199100
492,000000	12,063900
491,000000	11,918300
490,000000	11,800400
489,000000	11,680400
488,000000	11,602400
487,000000	11,492600
486,000000	11,367100
485,000000	11,294700
484,000000	11,199100
483,000000	11,100700
482,000000	11,000200
481,000000	10,881600
480,000000	10,772600
479,000000	10,650800
478,000000	10,569100
477,000000	10,489200
476,000000	10,386900
475,000000	10,325300
474,000000	10,215700
473,000000	10,137000
472,000000	10,059300
471,000000	9,944600
470,000000	9,893600
469,000000	9,806000
468,000000	9,745000
467,000000	9,658600
466,000000	9,598600
465,000000	9,529300
464,000000	9,457200
463,000000	9,376200
462,000000	9,314200
461,000000	9,254600
460,000000	9,172200
459,000000	9,115000
458,000000	9,035400
457,000000	8,973900
456,000000	8,909800
455,000000	8,857700
454,000000	8,787500
453,000000	8,707000
452,000000	8,657800
451,000000	8,577000
450,000000	8,525100
449,000000	8,443000
448,000000	8,364300
447,000000	8,266400
446,000000	8,237400
445,000000	8,163500
444,000000	8,060800
443,000000	7,978600
442,000000	7,904400
441,000000	7,831000
440,000000	7,749100
439,000000	7,675000
438,000000	7,596800
437,000000	7,527100
436,000000	7,445800
435,000000	7,352900
434,000000	7,278700
433,000000	7,194700
432,000000	7,124300
431,000000	7,058500
430,000000	6,992600
429,000000	6,905200
428,000000	6,849100
427,000000	6,773000
426,000000	6,701200
425,000000	6,629700
424,000000	6,572400
423,000000	6,522600
422,000000	6,455600
421,000000	6,377900
420,000000	6,312700
419,000000	6,272700
418,000000	6,200600
417,000000	6,142200
416,000000	6,078100
415,000000	6,030800
414,000000	5,974200
413,000000	5,919900
412,000000	5,852100
411,000000	5,801700
410,000000	5,770800
409,000000	5,700500
408,000000	5,651100
407,000000	5,604800
406,000000	5,567400
405,000000	5,512400
404,000000	5,455900
403,000000	5,413700
402,000000	5,378200
401,000000	5,327300
400,000000	5,278300
399,000000	5,249300
398,000000	5,203700
397,000000	5,165600
396,000000	5,145900
395,000000	5,109200
394,000000	5,064800
393,000000	5,026100
392,000000	5,005900
391,000000	4,979700
390,000000	4,964500
389,000000	4,929500
388,000000	4,892300
387,000000	4,882200
386,000000	4,844400
385,000000	4,828800
384,000000	4,845000
383,000000	4,796400
382,000000	4,756100
381,000000	4,752000
380,000000	4,743000
379,000000	4,746000
378,000000	4,722100
377,000000	4,707200
376,000000	4,751800
375,000000	4,638200
374,000000	4,217000
373,000000	4,023100
372,000000	4,024700
371,000000	4,031300
370,000000	4,245200
369,000000	4,451400
368,000000	4,527600
367,000000	4,618100
366,000000	4,712800
365,000000	4,633500
364,000000	4,486100
363,000000	4,764400
362,000000	4,735000
361,000000	4,597600
360,000000	4,648500
359,000000	4,594700
358,000000	4,583600
357,000000	4,623100
356,000000	4,676800
355,000000	4,789100
354,000000	4,654400
353,000000	4,527300
352,000000	4,582100
351,000000	4,749200
350,000000	4,740000
349,000000	4,741600
348,000000	4,735800
347,000000	4,773000
346,000000	4,849600
345,000000	4,760100
344,000000	4,694500
343,000000	4,946100
342,000000	4,988800
341,000000	4,741800
340,000000	4,886500
339,000000	5,123100
338,000000	5,250200
337,000000	5,217600
336,000000	5,061900
335,000000	5,178000
334,000000	5,192800
333,000000	5,213700
332,000000	5,337100
331,000000	5,373900
330,000000	5,510700
329,000000	5,256600
328,000000	5,297100
327,000000	5,783500
326,000000	5,118500
325,000000	4,948200
324,000000	5,612600
323,000000	5,400400
322,000000	5,400900
321,000000	6,104900
320,000000	6,175900
319,000000	5,921700
318,000000	6,798700
317,000000	6,985800
316,000000	5,513700
315,000000	4,669200
314,000000	4,680700
313,000000	4,690600
312,000000	4,632600
311,000000	4,661400
310,000000	4,702500
309,000000	4,710500
308,000000	4,673300
307,000000	4,696000
306,000000	4,683600
305,000000	4,672800
304,000000	4,713700
303,000000	4,713300
302,000000	4,676300
301,000000	4,660500
300,000000	4,709100
299,000000	4,710900
298,000000	4,736500
297,000000	4,732700
296,000000	4,717000
295,000000	4,721200
294,000000	4,701400
293,000000	4,698200
292,000000	4,701300
291,000000	4,711200
290,000000	4,752400
289,000000	4,749500
288,000000	4,739100
287,000000	4,747300
286,000000	4,758200
285,000000	4,732600
284,000000	4,728600
283,000000	4,743600
282,000000	4,769500
281,000000	4,722400
280,000000	4,776400
279,000000	4,807800
278,000000	4,815100
277,000000	4,804900
276,000000	4,798900
275,000000	4,823500
274,000000	4,828400
273,000000	4,837600
272,000000	4,902900
271,000000	4,888200
270,000000	4,880100
269,000000	4,899800
268,000000	4,986700
267,000000	4,922800
266,000000	4,929700
265,000000	4,973300
264,000000	4,982000
263,000000	5,030500
262,000000	5,101400
261,000000	5,107000
260,000000	5,110300
259,000000	5,090900
258,000000	5,105700
257,000000	5,079600
256,000000	5,172300
255,000000	5,132300
254,000000	5,150800
253,000000	5,244100
252,000000	5,263000
251,000000	5,230600
250,000000	5,236900
