PE UV       SUBTECH     SPECTRUM    ASCII       PEDS        4.00        
   -1
CICIMAUCR0239-3.ASC
24/06/20
14:40:00.00
24/06/20
14:40:00.00
Vinicio Soto Monge
C. cupreomarginata. Sex M. Ventral 
250,000000
1
Lambda 1050
1050L1511233
PerkinElmer UV WinLab 6.3.2.0749 / 2.02.05 Lambda 900 UV/VIS/NIR, Aug  7 2015 09:38:08

0
0
3350/servo 860,8/2
0
0
UV/VIS
1
1
1
DoubleDePol,CommonBeamDepol,RBeamAtt,SBeamAtt,60mm sphere, WB InGaAs Detector
0
0
0
0
Program
Program
3350/servo 860,8/2
3350/0,2 860,8/0,2
3350/0,2 860,8/0,2
0
15.00
 
 
 
0
 
860,8
319,2
860,8
Front
100
on
S:100 R:100
0
0
0
0
 
0
 
 
 
0
 
 
0
0
0
0
0
 
 
 
 
0
0


0
0
#HDR
-1
-1
#GR
nm
%R
1.0
0.0
2500,000000
-1,000000
2251
8
61,032400
4,392100
#DATA
2500,000000	5,574900
2499,000000	5,607800
2498,000000	5,544800
2497,000000	5,525000
2496,000000	5,557400
2495,000000	5,613000
2494,000000	5,589600
2493,000000	5,457900
2492,000000	5,415300
2491,000000	5,405800
2490,000000	5,438800
2489,000000	5,356700
2488,000000	5,465800
2487,000000	5,425300
2486,000000	5,358500
2485,000000	5,383400
2484,000000	5,369800
2483,000000	5,315200
2482,000000	5,333500
2481,000000	5,368000
2480,000000	5,302900
2479,000000	5,260400
2478,000000	5,294800
2477,000000	5,339300
2476,000000	5,320600
2475,000000	5,341000
2474,000000	5,313800
2473,000000	5,326700
2472,000000	5,313600
2471,000000	5,343200
2470,000000	5,300800
2469,000000	5,339200
2468,000000	5,335400
2467,000000	5,310500
2466,000000	5,319500
2465,000000	5,360600
2464,000000	5,368500
2463,000000	5,334500
2462,000000	5,345500
2461,000000	5,333800
2460,000000	5,351200
2459,000000	5,389300
2458,000000	5,355700
2457,000000	5,390400
2456,000000	5,445200
2455,000000	5,418500
2454,000000	5,482100
2453,000000	5,480300
2452,000000	5,484100
2451,000000	5,535800
2450,000000	5,542700
2449,000000	5,532400
2448,000000	5,577300
2447,000000	5,571000
2446,000000	5,619600
2445,000000	5,638800
2444,000000	5,673800
2443,000000	5,696900
2442,000000	5,699200
2441,000000	5,726200
2440,000000	5,761400
2439,000000	5,766900
2438,000000	5,811800
2437,000000	5,802000
2436,000000	5,819300
2435,000000	5,866500
2434,000000	5,873200
2433,000000	5,890900
2432,000000	5,907700
2431,000000	5,945000
2430,000000	5,950100
2429,000000	5,968400
2428,000000	5,981600
2427,000000	6,010100
2426,000000	6,011600
2425,000000	6,019300
2424,000000	6,035700
2423,000000	6,050400
2422,000000	6,054200
2421,000000	6,076200
2420,000000	6,085100
2419,000000	6,112900
2418,000000	6,140200
2417,000000	6,139800
2416,000000	6,149600
2415,000000	6,139000
2414,000000	6,148000
2413,000000	6,163700
2412,000000	6,178800
2411,000000	6,191600
2410,000000	6,204900
2409,000000	6,206600
2408,000000	6,224600
2407,000000	6,221100
2406,000000	6,239100
2405,000000	6,249800
2404,000000	6,265600
2403,000000	6,284800
2402,000000	6,292400
2401,000000	6,304800
2400,000000	6,303500
2399,000000	6,313100
2398,000000	6,318200
2397,000000	6,342100
2396,000000	6,369900
2395,000000	6,378900
2394,000000	6,386600
2393,000000	6,414100
2392,000000	6,427600
2391,000000	6,431200
2390,000000	6,441300
2389,000000	6,459500
2388,000000	6,462200
2387,000000	6,469200
2386,000000	6,471100
2385,000000	6,492500
2384,000000	6,491700
2383,000000	6,482600
2382,000000	6,482600
2381,000000	6,487200
2380,000000	6,479100
2379,000000	6,490800
2378,000000	6,498400
2377,000000	6,485900
2376,000000	6,478100
2375,000000	6,479700
2374,000000	6,471700
2373,000000	6,458200
2372,000000	6,453700
2371,000000	6,464000
2370,000000	6,457900
2369,000000	6,433300
2368,000000	6,413800
2367,000000	6,410100
2366,000000	6,403600
2365,000000	6,387700
2364,000000	6,368900
2363,000000	6,337900
2362,000000	6,326600
2361,000000	6,315500
2360,000000	6,285100
2359,000000	6,262000
2358,000000	6,239600
2357,000000	6,217900
2356,000000	6,217100
2355,000000	6,215600
2354,000000	6,200600
2353,000000	6,189000
2352,000000	6,184100
2351,000000	6,184100
2350,000000	6,190600
2349,000000	6,191900
2348,000000	6,198500
2347,000000	6,222900
2346,000000	6,237800
2345,000000	6,267900
2344,000000	6,284100
2343,000000	6,294100
2342,000000	6,314800
2341,000000	6,323000
2340,000000	6,343900
2339,000000	6,368800
2338,000000	6,363300
2337,000000	6,363400
2336,000000	6,376200
2335,000000	6,381600
2334,000000	6,379400
2333,000000	6,366200
2332,000000	6,376900
2331,000000	6,381100
2330,000000	6,343000
2329,000000	6,330900
2328,000000	6,313300
2327,000000	6,283300
2326,000000	6,247400
2325,000000	6,234800
2324,000000	6,230000
2323,000000	6,189600
2322,000000	6,159400
2321,000000	6,131400
2320,000000	6,102600
2319,000000	6,058800
2318,000000	6,009500
2317,000000	5,980400
2316,000000	5,963400
2315,000000	5,928400
2314,000000	5,885800
2313,000000	5,836400
2312,000000	5,806000
2311,000000	5,799400
2310,000000	5,769600
2309,000000	5,728600
2308,000000	5,719400
2307,000000	5,711300
2306,000000	5,708300
2305,000000	5,702100
2304,000000	5,710700
2303,000000	5,722200
2302,000000	5,741900
2301,000000	5,756000
2300,000000	5,762900
2299,000000	5,798200
2298,000000	5,815600
2297,000000	5,847100
2296,000000	5,865500
2295,000000	5,908800
2294,000000	5,948700
2293,000000	5,966500
2292,000000	5,989500
2291,000000	5,987500
2290,000000	6,010600
2289,000000	6,030500
2288,000000	6,033300
2287,000000	6,022000
2286,000000	6,025500
2285,000000	6,032300
2284,000000	6,021000
2283,000000	6,001000
2282,000000	5,978300
2281,000000	5,975200
2280,000000	5,958200
2279,000000	5,949300
2278,000000	5,937800
2277,000000	5,914000
2276,000000	5,899700
2275,000000	5,892000
2274,000000	5,886500
2273,000000	5,872300
2272,000000	5,859100
2271,000000	5,855200
2270,000000	5,867700
2269,000000	5,864100
2268,000000	5,866000
2267,000000	5,897600
2266,000000	5,921600
2265,000000	5,933400
2264,000000	5,981300
2263,000000	6,031400
2262,000000	6,079500
2261,000000	6,140100
2260,000000	6,228500
2259,000000	6,291100
2258,000000	6,385100
2257,000000	6,486200
2256,000000	6,545700
2255,000000	6,658900
2254,000000	6,745200
2253,000000	6,855000
2252,000000	6,975500
2251,000000	7,073500
2250,000000	7,184200
2249,000000	7,256000
2248,000000	7,366900
2247,000000	7,449600
2246,000000	7,527300
2245,000000	7,613000
2244,000000	7,703500
2243,000000	7,769400
2242,000000	7,823600
2241,000000	7,895000
2240,000000	7,974400
2239,000000	8,004000
2238,000000	8,062500
2237,000000	8,116600
2236,000000	8,152900
2235,000000	8,206400
2234,000000	8,255000
2233,000000	8,287100
2232,000000	8,317600
2231,000000	8,357200
2230,000000	8,398400
2229,000000	8,406200
2228,000000	8,417100
2227,000000	8,450900
2226,000000	8,481700
2225,000000	8,508900
2224,000000	8,487900
2223,000000	8,504300
2222,000000	8,516100
2221,000000	8,509400
2220,000000	8,519800
2219,000000	8,500000
2218,000000	8,499000
2217,000000	8,491400
2216,000000	8,479100
2215,000000	8,501500
2214,000000	8,444500
2213,000000	8,454800
2212,000000	8,457600
2211,000000	8,444400
2210,000000	8,425200
2209,000000	8,426700
2208,000000	8,432600
2207,000000	8,422400
2206,000000	8,413800
2205,000000	8,424800
2204,000000	8,402900
2203,000000	8,408700
2202,000000	8,393100
2201,000000	8,410400
2200,000000	8,410600
2199,000000	8,385700
2198,000000	8,388500
2197,000000	8,381600
2196,000000	8,377600
2195,000000	8,360900
2194,000000	8,377000
2193,000000	8,381300
2192,000000	8,355500
2191,000000	8,359300
2190,000000	8,353900
2189,000000	8,347100
2188,000000	8,356600
2187,000000	8,350900
2186,000000	8,337500
2185,000000	8,326700
2184,000000	8,315800
2183,000000	8,297000
2182,000000	8,302600
2181,000000	8,277900
2180,000000	8,311600
2179,000000	8,313500
2178,000000	8,288200
2177,000000	8,280300
2176,000000	8,286500
2175,000000	8,288000
2174,000000	8,288700
2173,000000	8,290800
2172,000000	8,287400
2171,000000	8,280400
2170,000000	8,290000
2169,000000	8,318800
2168,000000	8,312000
2167,000000	8,314400
2166,000000	8,321600
2165,000000	8,323600
2164,000000	8,316000
2163,000000	8,318700
2162,000000	8,363200
2161,000000	8,373700
2160,000000	8,377900
2159,000000	8,394300
2158,000000	8,397400
2157,000000	8,403200
2156,000000	8,422500
2155,000000	8,441700
2154,000000	8,465200
2153,000000	8,488000
2152,000000	8,507500
2151,000000	8,518000
2150,000000	8,522500
2149,000000	8,537800
2148,000000	8,557500
2147,000000	8,548800
2146,000000	8,569000
2145,000000	8,588600
2144,000000	8,601200
2143,000000	8,612600
2142,000000	8,627900
2141,000000	8,630600
2140,000000	8,637400
2139,000000	8,646600
2138,000000	8,655200
2137,000000	8,660800
2136,000000	8,674200
2135,000000	8,667400
2134,000000	8,670600
2133,000000	8,669400
2132,000000	8,671200
2131,000000	8,674900
2130,000000	8,681800
2129,000000	8,678300
2128,000000	8,664800
2127,000000	8,651600
2126,000000	8,633400
2125,000000	8,630700
2124,000000	8,614700
2123,000000	8,611400
2122,000000	8,603200
2121,000000	8,574300
2120,000000	8,580400
2119,000000	8,566000
2118,000000	8,542600
2117,000000	8,517600
2116,000000	8,502100
2115,000000	8,490200
2114,000000	8,469700
2113,000000	8,453600
2112,000000	8,439700
2111,000000	8,421100
2110,000000	8,403900
2109,000000	8,388000
2108,000000	8,370700
2107,000000	8,334700
2106,000000	8,307000
2105,000000	8,309500
2104,000000	8,292600
2103,000000	8,261600
2102,000000	8,246100
2101,000000	8,232700
2100,000000	8,215100
2099,000000	8,211300
2098,000000	8,182100
2097,000000	8,157200
2096,000000	8,141800
2095,000000	8,118300
2094,000000	8,115800
2093,000000	8,104100
2092,000000	8,091700
2091,000000	8,071000
2090,000000	8,046700
2089,000000	8,036800
2088,000000	8,036100
2087,000000	8,020400
2086,000000	7,991900
2085,000000	7,991100
2084,000000	7,983200
2083,000000	7,963700
2082,000000	7,952600
2081,000000	7,936500
2080,000000	7,922300
2079,000000	7,905200
2078,000000	7,873000
2077,000000	7,854500
2076,000000	7,852500
2075,000000	7,839900
2074,000000	7,829500
2073,000000	7,809700
2072,000000	7,775800
2071,000000	7,751400
2070,000000	7,737700
2069,000000	7,726100
2068,000000	7,711600
2067,000000	7,698000
2066,000000	7,685300
2065,000000	7,661200
2064,000000	7,651600
2063,000000	7,631600
2062,000000	7,610200
2061,000000	7,600000
2060,000000	7,597300
2059,000000	7,603100
2058,000000	7,590000
2057,000000	7,587400
2056,000000	7,580100
2055,000000	7,570700
2054,000000	7,587300
2053,000000	7,600800
2052,000000	7,605500
2051,000000	7,641500
2050,000000	7,654700
2049,000000	7,664300
2048,000000	7,684200
2047,000000	7,716700
2046,000000	7,744000
2045,000000	7,784200
2044,000000	7,819000
2043,000000	7,853100
2042,000000	7,891100
2041,000000	7,913800
2040,000000	7,937800
2039,000000	7,982600
2038,000000	8,013600
2037,000000	8,039000
2036,000000	8,067000
2035,000000	8,088800
2034,000000	8,115600
2033,000000	8,133100
2032,000000	8,167400
2031,000000	8,176900
2030,000000	8,181800
2029,000000	8,208500
2028,000000	8,216700
2027,000000	8,224700
2026,000000	8,229900
2025,000000	8,239700
2024,000000	8,238600
2023,000000	8,249500
2022,000000	8,264400
2021,000000	8,258200
2020,000000	8,264700
2019,000000	8,270200
2018,000000	8,258400
2017,000000	8,244900
2016,000000	8,261000
2015,000000	8,262300
2014,000000	8,223500
2013,000000	8,227700
2012,000000	8,221700
2011,000000	8,227900
2010,000000	8,189300
2009,000000	8,169600
2008,000000	8,167200
2007,000000	8,150600
2006,000000	8,143800
2005,000000	8,122700
2004,000000	8,108500
2003,000000	8,083400
2002,000000	8,052000
2001,000000	8,035200
2000,000000	8,021600
1999,000000	7,978300
1998,000000	7,954800
1997,000000	7,915200
1996,000000	7,905400
1995,000000	7,870500
1994,000000	7,823500
1993,000000	7,799500
1992,000000	7,761500
1991,000000	7,752000
1990,000000	7,706000
1989,000000	7,665100
1988,000000	7,624000
1987,000000	7,587200
1986,000000	7,541200
1985,000000	7,517300
1984,000000	7,483500
1983,000000	7,428800
1982,000000	7,391600
1981,000000	7,366100
1980,000000	7,322700
1979,000000	7,291000
1978,000000	7,252900
1977,000000	7,221400
1976,000000	7,194200
1975,000000	7,159400
1974,000000	7,121600
1973,000000	7,087500
1972,000000	7,053400
1971,000000	7,024900
1970,000000	7,016400
1969,000000	6,952500
1968,000000	6,920400
1967,000000	6,898900
1966,000000	6,875500
1965,000000	6,840100
1964,000000	6,826700
1963,000000	6,800700
1962,000000	6,771500
1961,000000	6,729500
1960,000000	6,693300
1959,000000	6,696900
1958,000000	6,677500
1957,000000	6,649000
1956,000000	6,604200
1955,000000	6,602400
1954,000000	6,549100
1953,000000	6,539700
1952,000000	6,522600
1951,000000	6,481700
1950,000000	6,468900
1949,000000	6,458000
1948,000000	6,441700
1947,000000	6,441000
1946,000000	6,411800
1945,000000	6,419800
1944,000000	6,385900
1943,000000	6,378600
1942,000000	6,357600
1941,000000	6,351100
1940,000000	6,343600
1939,000000	6,356900
1938,000000	6,335400
1937,000000	6,343600
1936,000000	6,346600
1935,000000	6,333000
1934,000000	6,357500
1933,000000	6,342600
1932,000000	6,355700
1931,000000	6,358200
1930,000000	6,373200
1929,000000	6,412700
1928,000000	6,417700
1927,000000	6,435400
1926,000000	6,469500
1925,000000	6,505300
1924,000000	6,508300
1923,000000	6,528000
1922,000000	6,585100
1921,000000	6,617900
1920,000000	6,669500
1919,000000	6,712600
1918,000000	6,750400
1917,000000	6,789200
1916,000000	6,857500
1915,000000	6,881800
1914,000000	6,954300
1913,000000	7,004500
1912,000000	7,096700
1911,000000	7,155800
1910,000000	7,235900
1909,000000	7,295600
1908,000000	7,356800
1907,000000	7,450300
1906,000000	7,548600
1905,000000	7,655900
1904,000000	7,766200
1903,000000	7,855700
1902,000000	7,972500
1901,000000	8,087500
1900,000000	8,195500
1899,000000	8,346700
1898,000000	8,484000
1897,000000	8,637200
1896,000000	8,786000
1895,000000	8,931300
1894,000000	9,089600
1893,000000	9,255100
1892,000000	9,443800
1891,000000	9,675300
1890,000000	9,910700
1889,000000	10,156100
1888,000000	10,397100
1887,000000	10,671600
1886,000000	10,946600
1885,000000	11,285500
1884,000000	11,656000
1883,000000	12,050500
1882,000000	12,485100
1881,000000	12,902900
1880,000000	13,372200
1879,000000	13,817400
1878,000000	14,237800
1877,000000	14,706800
1876,000000	15,190200
1875,000000	15,621100
1874,000000	16,054900
1873,000000	16,475200
1872,000000	16,893500
1871,000000	17,289400
1870,000000	17,662600
1869,000000	18,001000
1868,000000	18,325900
1867,000000	18,583600
1866,000000	18,818000
1865,000000	19,016000
1864,000000	19,219400
1863,000000	19,391000
1862,000000	19,548600
1861,000000	19,729000
1860,000000	19,875900
1859,000000	20,023300
1858,000000	20,138000
1857,000000	20,240100
1856,000000	20,318100
1855,000000	20,384900
1854,000000	20,437000
1853,000000	20,453100
1852,000000	20,474600
1851,000000	20,496700
1850,000000	20,511800
1849,000000	20,537800
1848,000000	20,547000
1847,000000	20,529300
1846,000000	20,482300
1845,000000	20,450200
1844,000000	20,417700
1843,000000	20,407400
1842,000000	20,411200
1841,000000	20,426400
1840,000000	20,401700
1839,000000	20,378200
1838,000000	20,361600
1837,000000	20,331000
1836,000000	20,282700
1835,000000	20,242700
1834,000000	20,187000
1833,000000	20,119700
1832,000000	20,062700
1831,000000	20,014700
1830,000000	19,953400
1829,000000	19,899100
1828,000000	19,834400
1827,000000	19,755800
1826,000000	19,670100
1825,000000	19,606700
1824,000000	19,543100
1823,000000	19,499900
1822,000000	19,468100
1821,000000	19,447400
1820,000000	19,414800
1819,000000	19,362500
1818,000000	19,309000
1817,000000	19,293000
1816,000000	19,283800
1815,000000	19,248700
1814,000000	19,242600
1813,000000	19,228400
1812,000000	19,214400
1811,000000	19,190600
1810,000000	19,166500
1809,000000	19,134300
1808,000000	19,094700
1807,000000	19,056200
1806,000000	19,016000
1805,000000	18,966300
1804,000000	18,912700
1803,000000	18,875600
1802,000000	18,832500
1801,000000	18,772900
1800,000000	18,719500
1799,000000	18,661600
1798,000000	18,604700
1797,000000	18,562600
1796,000000	18,516700
1795,000000	18,470100
1794,000000	18,419800
1793,000000	18,370200
1792,000000	18,321200
1791,000000	18,272300
1790,000000	18,210600
1789,000000	18,148300
1788,000000	18,094200
1787,000000	18,033000
1786,000000	17,976500
1785,000000	17,914200
1784,000000	17,839400
1783,000000	17,763500
1782,000000	17,683500
1781,000000	17,623100
1780,000000	17,556100
1779,000000	17,480900
1778,000000	17,413900
1777,000000	17,321500
1776,000000	17,231300
1775,000000	17,145900
1774,000000	17,054800
1773,000000	16,951500
1772,000000	16,837200
1771,000000	16,733200
1770,000000	16,627100
1769,000000	16,506300
1768,000000	16,398200
1767,000000	16,294900
1766,000000	16,201100
1765,000000	16,112800
1764,000000	16,053200
1763,000000	16,012700
1762,000000	15,978500
1761,000000	15,979400
1760,000000	15,999700
1759,000000	16,063700
1758,000000	16,145400
1757,000000	16,193400
1756,000000	16,255600
1755,000000	16,321300
1754,000000	16,386700
1753,000000	16,414000
1752,000000	16,424300
1751,000000	16,441000
1750,000000	16,439500
1749,000000	16,431500
1748,000000	16,412900
1747,000000	16,364500
1746,000000	16,308100
1745,000000	16,236400
1744,000000	16,152100
1743,000000	16,035000
1742,000000	15,899800
1741,000000	15,746100
1740,000000	15,557200
1739,000000	15,366200
1738,000000	15,177700
1737,000000	14,987800
1736,000000	14,831000
1735,000000	14,671200
1734,000000	14,578400
1733,000000	14,510100
1732,000000	14,462700
1731,000000	14,504400
1730,000000	14,563900
1729,000000	14,640100
1728,000000	14,748000
1727,000000	14,863800
1726,000000	14,952300
1725,000000	15,060300
1724,000000	15,143100
1723,000000	15,213700
1722,000000	15,271900
1721,000000	15,295500
1720,000000	15,311700
1719,000000	15,332900
1718,000000	15,340100
1717,000000	15,370500
1716,000000	15,398800
1715,000000	15,441400
1714,000000	15,483100
1713,000000	15,547200
1712,000000	15,605700
1711,000000	15,640200
1710,000000	15,670100
1709,000000	15,693600
1708,000000	15,694900
1707,000000	15,682500
1706,000000	15,676600
1705,000000	15,639500
1704,000000	15,579800
1703,000000	15,544700
1702,000000	15,454100
1701,000000	15,344100
1700,000000	15,234500
1699,000000	15,098900
1698,000000	14,961900
1697,000000	14,838200
1696,000000	14,709000
1695,000000	14,625000
1694,000000	14,620400
1693,000000	14,645800
1692,000000	14,742300
1691,000000	14,873100
1690,000000	15,028700
1689,000000	15,161500
1688,000000	15,315300
1687,000000	15,409800
1686,000000	15,470000
1685,000000	15,509700
1684,000000	15,535600
1683,000000	15,602300
1682,000000	15,744500
1681,000000	16,002600
1680,000000	16,361100
1679,000000	16,804900
1678,000000	17,295200
1677,000000	17,813500
1676,000000	18,353100
1675,000000	18,808000
1674,000000	19,255900
1673,000000	19,615800
1672,000000	19,931600
1671,000000	20,212500
1670,000000	20,436800
1669,000000	20,631700
1668,000000	20,796900
1667,000000	21,000900
1666,000000	21,112900
1665,000000	21,243200
1664,000000	21,332900
1663,000000	21,418300
1662,000000	21,495000
1661,000000	21,563500
1660,000000	21,618100
1659,000000	21,662100
1658,000000	21,707300
1657,000000	21,753700
1656,000000	21,762500
1655,000000	21,765900
1654,000000	21,777300
1653,000000	21,771700
1652,000000	21,759500
1651,000000	21,723400
1650,000000	21,716100
1649,000000	21,682000
1648,000000	21,604800
1647,000000	21,610300
1646,000000	21,538600
1645,000000	21,481300
1644,000000	21,413500
1643,000000	21,372800
1642,000000	21,308000
1641,000000	21,248500
1640,000000	21,210100
1639,000000	21,124000
1638,000000	21,064500
1637,000000	20,985000
1636,000000	20,911000
1635,000000	20,853700
1634,000000	20,782400
1633,000000	20,708500
1632,000000	20,626000
1631,000000	20,549500
1630,000000	20,468800
1629,000000	20,374300
1628,000000	20,292000
1627,000000	20,223700
1626,000000	20,128100
1625,000000	20,045300
1624,000000	19,953000
1623,000000	19,878200
1622,000000	19,787300
1621,000000	19,711900
1620,000000	19,631900
1619,000000	19,553100
1618,000000	19,474200
1617,000000	19,398100
1616,000000	19,341300
1615,000000	19,247900
1614,000000	19,151200
1613,000000	19,092800
1612,000000	19,033400
1611,000000	18,970400
1610,000000	18,880300
1609,000000	18,818600
1608,000000	18,770500
1607,000000	18,694500
1606,000000	18,617900
1605,000000	18,547900
1604,000000	18,480600
1603,000000	18,406000
1602,000000	18,336300
1601,000000	18,279400
1600,000000	18,207700
1599,000000	18,146100
1598,000000	18,063400
1597,000000	18,010400
1596,000000	17,943000
1595,000000	17,885100
1594,000000	17,814200
1593,000000	17,755800
1592,000000	17,680300
1591,000000	17,623200
1590,000000	17,585100
1589,000000	17,525300
1588,000000	17,491100
1587,000000	17,429100
1586,000000	17,382100
1585,000000	17,329200
1584,000000	17,286800
1583,000000	17,246200
1582,000000	17,204200
1581,000000	17,150500
1580,000000	17,121700
1579,000000	17,106500
1578,000000	17,076300
1577,000000	17,047500
1576,000000	17,027800
1575,000000	16,998400
1574,000000	16,976200
1573,000000	16,960000
1572,000000	16,951000
1571,000000	16,934600
1570,000000	16,937800
1569,000000	16,940100
1568,000000	16,923100
1567,000000	16,902700
1566,000000	16,919800
1565,000000	16,918300
1564,000000	16,914300
1563,000000	16,917700
1562,000000	16,920300
1561,000000	16,906100
1560,000000	16,909200
1559,000000	16,914100
1558,000000	16,905300
1557,000000	16,897700
1556,000000	16,881700
1555,000000	16,865400
1554,000000	16,857800
1553,000000	16,844300
1552,000000	16,826800
1551,000000	16,800700
1550,000000	16,775400
1549,000000	16,756100
1548,000000	16,737100
1547,000000	16,717700
1546,000000	16,687600
1545,000000	16,663500
1544,000000	16,641200
1543,000000	16,623800
1542,000000	16,616200
1541,000000	16,592900
1540,000000	16,574000
1539,000000	16,549400
1538,000000	16,528600
1537,000000	16,513200
1536,000000	16,492800
1535,000000	16,469000
1534,000000	16,436700
1533,000000	16,411700
1532,000000	16,399200
1531,000000	16,371600
1530,000000	16,336000
1529,000000	16,301200
1528,000000	16,264300
1527,000000	16,228000
1526,000000	16,189200
1525,000000	16,150400
1524,000000	16,110000
1523,000000	16,068800
1522,000000	16,025900
1521,000000	15,977300
1520,000000	15,939500
1519,000000	15,912900
1518,000000	15,868600
1517,000000	15,821500
1516,000000	15,779200
1515,000000	15,725700
1514,000000	15,672100
1513,000000	15,631400
1512,000000	15,579800
1511,000000	15,525300
1510,000000	15,489200
1509,000000	15,450200
1508,000000	15,389600
1507,000000	15,337600
1506,000000	15,294100
1505,000000	15,243500
1504,000000	15,199300
1503,000000	15,134700
1502,000000	15,084400
1501,000000	15,044500
1500,000000	14,989400
1499,000000	14,950000
1498,000000	14,909300
1497,000000	14,864700
1496,000000	14,825800
1495,000000	14,771700
1494,000000	14,730800
1493,000000	14,704900
1492,000000	14,668000
1491,000000	14,633600
1490,000000	14,594600
1489,000000	14,576600
1488,000000	14,531900
1487,000000	14,481600
1486,000000	14,464200
1485,000000	14,438300
1484,000000	14,417200
1483,000000	14,388100
1482,000000	14,353900
1481,000000	14,342200
1480,000000	14,323800
1479,000000	14,294600
1478,000000	14,277300
1477,000000	14,260400
1476,000000	14,242400
1475,000000	14,227100
1474,000000	14,212000
1473,000000	14,211000
1472,000000	14,201000
1471,000000	14,195500
1470,000000	14,185500
1469,000000	14,174700
1468,000000	14,146100
1467,000000	14,148500
1466,000000	14,155000
1465,000000	14,156700
1464,000000	14,150900
1463,000000	14,158600
1462,000000	14,185300
1461,000000	14,198400
1460,000000	14,226600
1459,000000	14,246000
1458,000000	14,269000
1457,000000	14,315600
1456,000000	14,352700
1455,000000	14,379900
1454,000000	14,443200
1453,000000	14,500500
1452,000000	14,559300
1451,000000	14,615000
1450,000000	14,689700
1449,000000	14,750400
1448,000000	14,799800
1447,000000	14,860500
1446,000000	14,946000
1445,000000	15,026100
1444,000000	15,101100
1443,000000	15,180300
1442,000000	15,247100
1441,000000	15,330700
1440,000000	15,432400
1439,000000	15,516900
1438,000000	15,614000
1437,000000	15,695500
1436,000000	15,790300
1435,000000	15,897600
1434,000000	16,003900
1433,000000	16,118700
1432,000000	16,217000
1431,000000	16,324600
1430,000000	16,456700
1429,000000	16,575100
1428,000000	16,701700
1427,000000	16,856400
1426,000000	17,009700
1425,000000	17,159500
1424,000000	17,349100
1423,000000	17,528500
1422,000000	17,712900
1421,000000	17,890800
1420,000000	18,100200
1419,000000	18,325500
1418,000000	18,542900
1417,000000	18,769200
1416,000000	18,974400
1415,000000	19,230700
1414,000000	19,478200
1413,000000	19,735000
1412,000000	20,008200
1411,000000	20,259800
1410,000000	20,562700
1409,000000	20,901100
1408,000000	21,261800
1407,000000	21,646800
1406,000000	22,040400
1405,000000	22,435600
1404,000000	22,926800
1403,000000	23,281600
1402,000000	23,708600
1401,000000	24,148700
1400,000000	24,622700
1399,000000	25,071500
1398,000000	25,432600
1397,000000	25,756200
1396,000000	26,132900
1395,000000	26,549000
1394,000000	26,938500
1393,000000	27,253700
1392,000000	27,551700
1391,000000	27,960400
1390,000000	28,311100
1389,000000	28,711400
1388,000000	29,129800
1387,000000	29,636900
1386,000000	30,166100
1385,000000	30,701600
1384,000000	31,285100
1383,000000	31,908400
1382,000000	32,558400
1381,000000	33,184200
1380,000000	33,692300
1379,000000	34,076000
1378,000000	34,381200
1377,000000	34,635800
1376,000000	34,897400
1375,000000	35,121200
1374,000000	35,372900
1373,000000	35,671700
1372,000000	36,033600
1371,000000	36,438200
1370,000000	36,828300
1369,000000	37,225600
1368,000000	37,574500
1367,000000	37,917500
1366,000000	38,222500
1365,000000	38,497000
1364,000000	38,748600
1363,000000	38,973900
1362,000000	39,194700
1361,000000	39,414300
1360,000000	39,557600
1359,000000	39,690400
1358,000000	39,794900
1357,000000	39,915800
1356,000000	40,068200
1355,000000	40,325400
1354,000000	40,670800
1353,000000	41,100600
1352,000000	41,515400
1351,000000	42,079800
1350,000000	42,598800
1349,000000	43,075000
1348,000000	43,530900
1347,000000	43,951100
1346,000000	44,355200
1345,000000	44,738400
1344,000000	45,111300
1343,000000	45,509000
1342,000000	45,844000
1341,000000	46,189300
1340,000000	46,527700
1339,000000	46,875700
1338,000000	47,204100
1337,000000	47,540000
1336,000000	47,870500
1335,000000	48,187600
1334,000000	48,489100
1333,000000	48,785300
1332,000000	49,064500
1331,000000	49,363300
1330,000000	49,641900
1329,000000	49,909500
1328,000000	50,173300
1327,000000	50,418200
1326,000000	50,637800
1325,000000	50,881700
1324,000000	51,107900
1323,000000	51,313200
1322,000000	51,525400
1321,000000	51,713800
1320,000000	51,901100
1319,000000	52,086800
1318,000000	52,265800
1317,000000	52,438800
1316,000000	52,602500
1315,000000	52,763800
1314,000000	52,901100
1313,000000	53,046300
1312,000000	53,182500
1311,000000	53,324500
1310,000000	53,448800
1309,000000	53,551200
1308,000000	53,653900
1307,000000	53,753100
1306,000000	53,842600
1305,000000	53,916700
1304,000000	53,991700
1303,000000	54,056200
1302,000000	54,125800
1301,000000	54,179900
1300,000000	54,221700
1299,000000	54,264500
1298,000000	54,301400
1297,000000	54,332000
1296,000000	54,355500
1295,000000	54,381300
1294,000000	54,403800
1293,000000	54,411100
1292,000000	54,420000
1291,000000	54,436700
1290,000000	54,426800
1289,000000	54,411400
1288,000000	54,404400
1287,000000	54,379400
1286,000000	54,353600
1285,000000	54,314300
1284,000000	54,274400
1283,000000	54,228200
1282,000000	54,180400
1281,000000	54,140800
1280,000000	54,087400
1279,000000	54,038400
1278,000000	53,982700
1277,000000	53,927300
1276,000000	53,883500
1275,000000	53,832900
1274,000000	53,784100
1273,000000	53,741700
1272,000000	53,707200
1271,000000	53,670900
1270,000000	53,634000
1269,000000	53,592400
1268,000000	53,555600
1267,000000	53,511500
1266,000000	53,466800
1265,000000	53,425900
1264,000000	53,384400
1263,000000	53,331800
1262,000000	53,284700
1261,000000	53,245100
1260,000000	53,189800
1259,000000	53,128700
1258,000000	53,062000
1257,000000	53,000800
1256,000000	52,938700
1255,000000	52,879800
1254,000000	52,805100
1253,000000	52,729400
1252,000000	52,666100
1251,000000	52,578700
1250,000000	52,488100
1249,000000	52,409500
1248,000000	52,304500
1247,000000	52,197400
1246,000000	52,102400
1245,000000	51,992300
1244,000000	51,873100
1243,000000	51,734500
1242,000000	51,613600
1241,000000	51,486400
1240,000000	51,329000
1239,000000	51,183600
1238,000000	51,048500
1237,000000	50,905200
1236,000000	50,749400
1235,000000	50,592100
1234,000000	50,430400
1233,000000	50,249500
1232,000000	50,071500
1231,000000	49,895200
1230,000000	49,709800
1229,000000	49,529200
1228,000000	49,336000
1227,000000	49,138700
1226,000000	48,938000
1225,000000	48,732300
1224,000000	48,533800
1223,000000	48,340400
1222,000000	48,133800
1221,000000	47,930900
1220,000000	47,722200
1219,000000	47,508700
1218,000000	47,320800
1217,000000	47,127500
1216,000000	46,930500
1215,000000	46,758100
1214,000000	46,586000
1213,000000	46,426900
1212,000000	46,275600
1211,000000	46,119600
1210,000000	45,953000
1209,000000	45,828100
1208,000000	45,699000
1207,000000	45,555600
1206,000000	45,440800
1205,000000	45,355600
1204,000000	45,276000
1203,000000	45,207800
1202,000000	45,156100
1201,000000	45,109800
1200,000000	45,060500
1199,000000	45,009300
1198,000000	44,926200
1197,000000	44,822200
1196,000000	44,697100
1195,000000	44,527800
1194,000000	44,310900
1193,000000	44,005800
1192,000000	43,648000
1191,000000	43,231300
1190,000000	42,773400
1189,000000	42,323400
1188,000000	41,898500
1187,000000	41,555100
1186,000000	41,335900
1185,000000	41,229700
1184,000000	41,261800
1183,000000	41,429100
1182,000000	41,728100
1181,000000	42,144000
1180,000000	42,648100
1179,000000	43,173100
1178,000000	43,696500
1177,000000	44,187100
1176,000000	44,616300
1175,000000	45,001300
1174,000000	45,347300
1173,000000	45,688600
1172,000000	46,009800
1171,000000	46,349300
1170,000000	46,682800
1169,000000	47,048300
1168,000000	47,410700
1167,000000	47,766400
1166,000000	48,122500
1165,000000	48,509100
1164,000000	48,872100
1163,000000	49,242200
1162,000000	49,634900
1161,000000	50,039200
1160,000000	50,420300
1159,000000	50,790800
1158,000000	51,171400
1157,000000	51,535700
1156,000000	51,858700
1155,000000	52,172100
1154,000000	52,452600
1153,000000	52,679800
1152,000000	52,855200
1151,000000	52,996000
1150,000000	53,086700
1149,000000	53,181300
1148,000000	53,273800
1147,000000	53,370400
1146,000000	53,485800
1145,000000	53,652100
1144,000000	53,892300
1143,000000	54,174400
1142,000000	54,478700
1141,000000	54,866700
1140,000000	55,256900
1139,000000	55,662000
1138,000000	56,046600
1137,000000	56,469700
1136,000000	56,906000
1135,000000	57,376000
1134,000000	57,831100
1133,000000	58,251600
1132,000000	58,638900
1131,000000	59,024200
1130,000000	59,378200
1129,000000	59,687500
1128,000000	59,959700
1127,000000	60,175600
1126,000000	60,344500
1125,000000	60,491700
1124,000000	60,597500
1123,000000	60,707000
1122,000000	60,777200
1121,000000	60,866100
1120,000000	60,914600
1119,000000	60,960600
1118,000000	61,004600
1117,000000	61,009800
1116,000000	61,032400
1115,000000	61,027500
1114,000000	61,025100
1113,000000	61,015300
1112,000000	61,009500
1111,000000	61,012800
1110,000000	60,992800
1109,000000	60,988500
1108,000000	60,984500
1107,000000	60,964500
1106,000000	60,932700
1105,000000	60,943400
1104,000000	60,941400
1103,000000	60,916300
1102,000000	60,914100
1101,000000	60,908700
1100,000000	60,863400
1099,000000	60,851300
1098,000000	60,836100
1097,000000	60,813300
1096,000000	60,796700
1095,000000	60,764600
1094,000000	60,722200
1093,000000	60,698200
1092,000000	60,657800
1091,000000	60,611300
1090,000000	60,593200
1089,000000	60,550700
1088,000000	60,520200
1087,000000	60,463300
1086,000000	60,382500
1085,000000	60,357100
1084,000000	60,307300
1083,000000	60,260700
1082,000000	60,207200
1081,000000	60,125700
1080,000000	60,086800
1079,000000	60,047400
1078,000000	59,990300
1077,000000	59,928700
1076,000000	59,880600
1075,000000	59,833000
1074,000000	59,776300
1073,000000	59,736100
1072,000000	59,667100
1071,000000	59,598200
1070,000000	59,547600
1069,000000	59,502800
1068,000000	59,447000
1067,000000	59,377300
1066,000000	59,320200
1065,000000	59,274700
1064,000000	59,206500
1063,000000	59,148400
1062,000000	59,080300
1061,000000	59,022800
1060,000000	58,974000
1059,000000	58,894800
1058,000000	58,842300
1057,000000	58,773000
1056,000000	58,710000
1055,000000	58,638800
1054,000000	58,565200
1053,000000	58,510800
1052,000000	58,447100
1051,000000	58,376000
1050,000000	58,314000
1049,000000	58,269900
1048,000000	58,193800
1047,000000	58,164100
1046,000000	58,108800
1045,000000	58,057300
1044,000000	58,007300
1043,000000	57,945900
1042,000000	57,890500
1041,000000	57,867400
1040,000000	57,821800
1039,000000	57,768000
1038,000000	57,711900
1037,000000	57,660800
1036,000000	57,608500
1035,000000	57,540600
1034,000000	57,500300
1033,000000	57,444700
1032,000000	57,392900
1031,000000	57,332900
1030,000000	57,259200
1029,000000	57,192000
1028,000000	57,145700
1027,000000	57,077800
1026,000000	57,009400
1025,000000	56,931700
1024,000000	56,867800
1023,000000	56,811800
1022,000000	56,729800
1021,000000	56,659500
1020,000000	56,599800
1019,000000	56,541800
1018,000000	56,486000
1017,000000	56,425000
1016,000000	56,360900
1015,000000	56,315300
1014,000000	56,286700
1013,000000	56,245500
1012,000000	56,216400
1011,000000	56,180300
1010,000000	56,174500
1009,000000	56,159000
1008,000000	56,139200
1007,000000	56,146200
1006,000000	56,148900
1005,000000	56,144500
1004,000000	56,152400
1003,000000	56,154300
1002,000000	56,153900
1001,000000	56,168500
1000,000000	56,168300
999,000000	56,163900
998,000000	56,158700
997,000000	56,160700
996,000000	56,158700
995,000000	56,183700
994,000000	56,192700
993,000000	56,181200
992,000000	56,203200
991,000000	56,220800
990,000000	56,229200
989,000000	56,232900
988,000000	56,251300
987,000000	56,277900
986,000000	56,305900
985,000000	56,331900
984,000000	56,346800
983,000000	56,378300
982,000000	56,401500
981,000000	56,422000
980,000000	56,448900
979,000000	56,473000
978,000000	56,506300
977,000000	56,537100
976,000000	56,558000
975,000000	56,572900
974,000000	56,598600
973,000000	56,625000
972,000000	56,655300
971,000000	56,678400
970,000000	56,697000
969,000000	56,715600
968,000000	56,743300
967,000000	56,778900
966,000000	56,788100
965,000000	56,812700
964,000000	56,851200
963,000000	56,872200
962,000000	56,888900
961,000000	56,918500
960,000000	56,957800
959,000000	56,983700
958,000000	57,013800
957,000000	57,053300
956,000000	57,062700
955,000000	57,098300
954,000000	57,118900
953,000000	57,123300
952,000000	57,146500
951,000000	57,152800
950,000000	57,151100
949,000000	57,164600
948,000000	57,173700
947,000000	57,171600
946,000000	57,169000
945,000000	57,164500
944,000000	57,160100
943,000000	57,154100
942,000000	57,152100
941,000000	57,135600
940,000000	57,098500
939,000000	57,064700
938,000000	57,054100
937,000000	57,023900
936,000000	56,985200
935,000000	56,948900
934,000000	56,918300
933,000000	56,882200
932,000000	56,854600
931,000000	56,817900
930,000000	56,765800
929,000000	56,715200
928,000000	56,684500
927,000000	56,633500
926,000000	56,572700
925,000000	56,516600
924,000000	56,478000
923,000000	56,425900
922,000000	56,352200
921,000000	56,282400
920,000000	56,211000
919,000000	56,151900
918,000000	56,076200
917,000000	55,985600
916,000000	55,909700
915,000000	55,826400
914,000000	55,766700
913,000000	55,676700
912,000000	55,567600
911,000000	55,465400
910,000000	55,367400
909,000000	55,279500
908,000000	55,184100
907,000000	55,099200
906,000000	55,039200
905,000000	54,971800
904,000000	54,904200
903,000000	54,840100
902,000000	54,774300
901,000000	54,723300
900,000000	54,681200
899,000000	54,632100
898,000000	54,555200
897,000000	54,483000
896,000000	54,428600
895,000000	54,374200
894,000000	54,305500
893,000000	54,201600
892,000000	54,114900
891,000000	54,041000
890,000000	53,921500
889,000000	53,822500
888,000000	53,733000
887,000000	53,615700
886,000000	53,484800
885,000000	53,360700
884,000000	53,191900
883,000000	53,040200
882,000000	52,885800
881,000000	52,733700
880,000000	52,542800
879,000000	52,361600
878,000000	52,139500
877,000000	51,896700
876,000000	51,658600
875,000000	51,438700
874,000000	51,168900
873,000000	50,881600
872,000000	50,614600
871,000000	50,393300
870,000000	50,250100
869,000000	50,162800
868,000000	50,083000
867,000000	50,034300
866,000000	49,959600
865,000000	49,852300
864,000000	49,758400
863,000000	49,642100
862,000000	49,535200
861,000000	49,428600
860,000000	49,310600
859,000000	49,196900
858,000000	49,098200
857,000000	51,639100
856,000000	51,588100
855,000000	51,847800
854,000000	51,192100
853,000000	51,554400
852,000000	51,116000
851,000000	51,199000
850,000000	51,380100
849,000000	51,162300
848,000000	51,029900
847,000000	50,777300
846,000000	50,487300
845,000000	50,369300
844,000000	50,272100
843,000000	50,224500
842,000000	50,128300
841,000000	50,018800
840,000000	49,738400
839,000000	49,648800
838,000000	49,341000
837,000000	49,308700
836,000000	49,280400
835,000000	49,100500
834,000000	48,965200
833,000000	48,793600
832,000000	48,575900
831,000000	48,485700
830,000000	48,462500
829,000000	48,435200
828,000000	48,195800
827,000000	48,015900
826,000000	48,013000
825,000000	47,971100
824,000000	47,916700
823,000000	47,688200
822,000000	47,608900
821,000000	47,642500
820,000000	47,424100
819,000000	47,532800
818,000000	47,363000
817,000000	47,298500
816,000000	47,045100
815,000000	47,114000
814,000000	47,082700
813,000000	46,908000
812,000000	46,859400
811,000000	46,708600
810,000000	46,751300
809,000000	46,647900
808,000000	46,761200
807,000000	46,566000
806,000000	46,612600
805,000000	46,535500
804,000000	46,530400
803,000000	46,603500
802,000000	46,464000
801,000000	46,555500
800,000000	46,410000
799,000000	46,414200
798,000000	46,480000
797,000000	46,438500
796,000000	46,338300
795,000000	46,402500
794,000000	46,369600
793,000000	46,438400
792,000000	46,367100
791,000000	46,398100
790,000000	46,337900
789,000000	46,265800
788,000000	46,312400
787,000000	46,422500
786,000000	46,396800
785,000000	46,241600
784,000000	46,248600
783,000000	46,201400
782,000000	46,160400
781,000000	46,169800
780,000000	46,244500
779,000000	46,062100
778,000000	46,019800
777,000000	45,938500
776,000000	45,913500
775,000000	45,894200
774,000000	45,863400
773,000000	45,840500
772,000000	45,729200
771,000000	45,656600
770,000000	45,659200
769,000000	45,561200
768,000000	45,566000
767,000000	45,382600
766,000000	45,336400
765,000000	45,235500
764,000000	45,169500
763,000000	45,119700
762,000000	45,052800
761,000000	44,950000
760,000000	44,874500
759,000000	44,724600
758,000000	44,603600
757,000000	44,439700
756,000000	44,462900
755,000000	44,353400
754,000000	44,254300
753,000000	44,123900
752,000000	44,045700
751,000000	43,912900
750,000000	43,819700
749,000000	43,796700
748,000000	43,671300
747,000000	43,604200
746,000000	43,502800
745,000000	43,389500
744,000000	43,256100
743,000000	43,074400
742,000000	42,953500
741,000000	42,913100
740,000000	42,739800
739,000000	42,757200
738,000000	42,601100
737,000000	42,420200
736,000000	42,293300
735,000000	42,153800
734,000000	42,058800
733,000000	41,933800
732,000000	41,796200
731,000000	41,700900
730,000000	41,536800
729,000000	41,384400
728,000000	41,271700
727,000000	41,106000
726,000000	40,906800
725,000000	40,779100
724,000000	40,604600
723,000000	40,456100
722,000000	40,284800
721,000000	40,134900
720,000000	39,917500
719,000000	39,757700
718,000000	39,544200
717,000000	39,314100
716,000000	39,125900
715,000000	38,965500
714,000000	38,746000
713,000000	38,536300
712,000000	38,320000
711,000000	38,063600
710,000000	37,862300
709,000000	37,605300
708,000000	37,323100
707,000000	37,096400
706,000000	36,844700
705,000000	36,559000
704,000000	36,335200
703,000000	36,071400
702,000000	35,763700
701,000000	35,454100
700,000000	35,174900
699,000000	34,919600
698,000000	34,616800
697,000000	34,336100
696,000000	34,070500
695,000000	33,796900
694,000000	33,506300
693,000000	33,248700
692,000000	32,968900
691,000000	32,710000
690,000000	32,416700
689,000000	32,151200
688,000000	31,892500
687,000000	31,634200
686,000000	31,389400
685,000000	31,151200
684,000000	30,898000
683,000000	30,663900
682,000000	30,465300
681,000000	30,208400
680,000000	29,982200
679,000000	29,791800
678,000000	29,632500
677,000000	29,441100
676,000000	29,211300
675,000000	29,016100
674,000000	28,827300
673,000000	28,690600
672,000000	28,520000
671,000000	28,341000
670,000000	28,179500
669,000000	28,045300
668,000000	27,912400
667,000000	27,757200
666,000000	27,649200
665,000000	27,552100
664,000000	27,423600
663,000000	27,323300
662,000000	27,242900
661,000000	27,144600
660,000000	27,072400
659,000000	26,980300
658,000000	26,867200
657,000000	26,792900
656,000000	26,725600
655,000000	26,684300
654,000000	26,633600
653,000000	26,601800
652,000000	26,569600
651,000000	26,526400
650,000000	26,515400
649,000000	26,491300
648,000000	26,482100
647,000000	26,475600
646,000000	26,478400
645,000000	26,493600
644,000000	26,474600
643,000000	26,496500
642,000000	26,527200
641,000000	26,533100
640,000000	26,579400
639,000000	26,632300
638,000000	26,657200
637,000000	26,704500
636,000000	26,771200
635,000000	26,814100
634,000000	26,874500
633,000000	26,937200
632,000000	27,000800
631,000000	27,064300
630,000000	27,139400
629,000000	27,219500
628,000000	27,295500
627,000000	27,376200
626,000000	27,463200
625,000000	27,531900
624,000000	27,618700
623,000000	27,744800
622,000000	27,849200
621,000000	27,915300
620,000000	27,991600
619,000000	28,068200
618,000000	28,158500
617,000000	28,235300
616,000000	28,285400
615,000000	28,356400
614,000000	28,447000
613,000000	28,555400
612,000000	28,637100
611,000000	28,681100
610,000000	28,732500
609,000000	28,811900
608,000000	28,869000
607,000000	28,938300
606,000000	28,988600
605,000000	29,019500
604,000000	29,058600
603,000000	29,086700
602,000000	29,119500
601,000000	29,155400
600,000000	29,167700
599,000000	29,170700
598,000000	29,172100
597,000000	29,181300
596,000000	29,197700
595,000000	29,175400
594,000000	29,170100
593,000000	29,153700
592,000000	29,129900
591,000000	29,102200
590,000000	29,056600
589,000000	29,023800
588,000000	28,976900
587,000000	28,937900
586,000000	28,915200
585,000000	28,864300
584,000000	28,796600
583,000000	28,751300
582,000000	28,688100
581,000000	28,611100
580,000000	28,516900
579,000000	28,453700
578,000000	28,365600
577,000000	28,293100
576,000000	28,210500
575,000000	28,117200
574,000000	28,017200
573,000000	27,915300
572,000000	27,792100
571,000000	27,690800
570,000000	27,559200
569,000000	27,419700
568,000000	27,293900
567,000000	27,158600
566,000000	27,018600
565,000000	26,845300
564,000000	26,682200
563,000000	26,511700
562,000000	26,366300
561,000000	26,155000
560,000000	25,952000
559,000000	25,662600
558,000000	25,436000
557,000000	25,257500
556,000000	25,040100
555,000000	24,837900
554,000000	24,629200
553,000000	24,396800
552,000000	24,163300
551,000000	23,939900
550,000000	23,704400
549,000000	23,474100
548,000000	23,234600
547,000000	22,992700
546,000000	22,739900
545,000000	22,487300
544,000000	22,218400
543,000000	21,946900
542,000000	21,686700
541,000000	21,425100
540,000000	21,171600
539,000000	20,896600
538,000000	20,643400
537,000000	20,374400
536,000000	20,110500
535,000000	19,833700
534,000000	19,564700
533,000000	19,280900
532,000000	19,027700
531,000000	18,775500
530,000000	18,520500
529,000000	18,278200
528,000000	18,044300
527,000000	17,795000
526,000000	17,551300
525,000000	17,326100
524,000000	17,103900
523,000000	16,891600
522,000000	16,682400
521,000000	16,483400
520,000000	16,291700
519,000000	16,088200
518,000000	15,904400
517,000000	15,716000
516,000000	15,560500
515,000000	15,393100
514,000000	15,259300
513,000000	15,095000
512,000000	14,973200
511,000000	14,833500
510,000000	14,700700
509,000000	14,584400
508,000000	14,486000
507,000000	14,386100
506,000000	14,289900
505,000000	14,204000
504,000000	14,101500
503,000000	14,033400
502,000000	13,945400
501,000000	13,863100
500,000000	13,798600
499,000000	13,730800
498,000000	13,656800
497,000000	13,608500
496,000000	13,540900
495,000000	13,511500
494,000000	13,421700
493,000000	13,383300
492,000000	13,350400
491,000000	13,288700
490,000000	13,231100
489,000000	13,189500
488,000000	13,140800
487,000000	13,101300
486,000000	13,049800
485,000000	12,988200
484,000000	12,957100
483,000000	12,891400
482,000000	12,802700
481,000000	12,720600
480,000000	12,645200
479,000000	12,544100
478,000000	12,456200
477,000000	12,378400
476,000000	12,307500
475,000000	12,208800
474,000000	12,131300
473,000000	12,038400
472,000000	11,959100
471,000000	11,889100
470,000000	11,811000
469,000000	11,702700
468,000000	11,622900
467,000000	11,553600
466,000000	11,473800
465,000000	11,376000
464,000000	11,284900
463,000000	11,206200
462,000000	11,119900
461,000000	11,021000
460,000000	10,939900
459,000000	10,848500
458,000000	10,768600
457,000000	10,664100
456,000000	10,571700
455,000000	10,483200
454,000000	10,393500
453,000000	10,287000
452,000000	10,171700
451,000000	10,073400
450,000000	9,975600
449,000000	9,870700
448,000000	9,779400
447,000000	9,672500
446,000000	9,522600
445,000000	9,426800
444,000000	9,295900
443,000000	9,179800
442,000000	9,075400
441,000000	8,945300
440,000000	8,831700
439,000000	8,711700
438,000000	8,589700
437,000000	8,456900
436,000000	8,348400
435,000000	8,214600
434,000000	8,102200
433,000000	7,996700
432,000000	7,873000
431,000000	7,767600
430,000000	7,671400
429,000000	7,556700
428,000000	7,472700
427,000000	7,366200
426,000000	7,252100
425,000000	7,154800
424,000000	7,066700
423,000000	6,959200
422,000000	6,881400
421,000000	6,803400
420,000000	6,714100
419,000000	6,636500
418,000000	6,574600
417,000000	6,487900
416,000000	6,416800
415,000000	6,349900
414,000000	6,282100
413,000000	6,211800
412,000000	6,142400
411,000000	6,072600
410,000000	6,011600
409,000000	5,953100
408,000000	5,900400
407,000000	5,845000
406,000000	5,785700
405,000000	5,731800
404,000000	5,676900
403,000000	5,636000
402,000000	5,608800
401,000000	5,564700
400,000000	5,494600
399,000000	5,451500
398,000000	5,429700
397,000000	5,375200
396,000000	5,332900
395,000000	5,312900
394,000000	5,281700
393,000000	5,228700
392,000000	5,201200
391,000000	5,177200
390,000000	5,141200
389,000000	5,103800
388,000000	5,085100
387,000000	5,066000
386,000000	5,044500
385,000000	5,008900
384,000000	4,995600
383,000000	4,980600
382,000000	4,953100
381,000000	4,940400
380,000000	4,923500
379,000000	4,891300
378,000000	4,896200
377,000000	4,903400
376,000000	4,778900
375,000000	4,570500
374,000000	4,487900
373,000000	4,518400
372,000000	4,392100
371,000000	4,415800
370,000000	4,530000
369,000000	4,598400
368,000000	4,706500
367,000000	4,654300
366,000000	4,530600
365,000000	4,680700
364,000000	4,723700
363,000000	4,636500
362,000000	4,643800
361,000000	4,673100
360,000000	4,636300
359,000000	4,681300
358,000000	4,704300
357,000000	4,681900
356,000000	4,609800
355,000000	4,634200
354,000000	4,736600
353,000000	4,673100
352,000000	4,742500
351,000000	4,784300
350,000000	4,800900
349,000000	4,758500
348,000000	4,730000
347,000000	4,879200
346,000000	4,771900
345,000000	4,670100
344,000000	4,856300
343,000000	4,823900
342,000000	4,861100
341,000000	4,807800
340,000000	4,903700
339,000000	4,874600
338,000000	4,780900
337,000000	4,749300
336,000000	4,769000
335,000000	4,640600
334,000000	4,581700
333,000000	4,735700
332,000000	4,844100
331,000000	4,881500
330,000000	4,982400
329,000000	5,059900
328,000000	5,142900
327,000000	5,227600
326,000000	5,113700
325,000000	5,136300
324,000000	5,184500
323,000000	5,265400
322,000000	5,348800
321,000000	5,059000
320,000000	4,864000
319,000000	5,241100
318,000000	5,280000
317,000000	5,300000
316,000000	5,030900
315,000000	4,663100
314,000000	4,692200
313,000000	4,714500
312,000000	4,688200
311,000000	4,726200
310,000000	4,716800
309,000000	4,700500
308,000000	4,745300
307,000000	4,792300
306,000000	4,782400
305,000000	4,759000
304,000000	4,770800
303,000000	4,776700
302,000000	4,758900
301,000000	4,745300
300,000000	4,746500
299,000000	4,764300
298,000000	4,776700
297,000000	4,786200
296,000000	4,780900
295,000000	4,759900
294,000000	4,773300
293,000000	4,764100
292,000000	4,799600
291,000000	4,780100
290,000000	4,776200
289,000000	4,777300
288,000000	4,821500
287,000000	4,838200
286,000000	4,809500
285,000000	4,804100
284,000000	4,819500
283,000000	4,833700
282,000000	4,845500
281,000000	4,864700
280,000000	4,870700
279,000000	4,873200
278,000000	4,886100
277,000000	4,907300
276,000000	4,908100
275,000000	4,954200
274,000000	4,938600
273,000000	4,914800
272,000000	4,953700
271,000000	4,978800
270,000000	5,019300
269,000000	5,026300
268,000000	5,071900
267,000000	5,048400
266,000000	5,033600
265,000000	5,071100
264,000000	5,090700
263,000000	5,136900
262,000000	5,157000
261,000000	5,170200
260,000000	5,205200
259,000000	5,207800
258,000000	5,229700
257,000000	5,225600
256,000000	5,262600
255,000000	5,250600
254,000000	5,291500
253,000000	5,328200
252,000000	5,319300
251,000000	5,360500
250,000000	5,368300
