PE UV       SUBTECH     SPECTRUM    ASCII       PEDS        4.00        
   -1
CICIMAUCR0232-1.ASC
24/06/14
11:54:46.00
24/06/14
11:54:46.00
Vinicio Soto Monge
C. resplendens. Sex M. Ventral 
250,000000
1
Lambda 1050
1050L1511233
PerkinElmer UV WinLab 6.3.2.0749 / 2.02.05 Lambda 900 UV/VIS/NIR, Aug  7 2015 09:38:08

0
0
3350/servo 860,8/2
0
0
UV/VIS
1
1
1
DoubleDePol,CommonBeamDepol,RBeamAtt,SBeamAtt,60mm sphere, WB InGaAs Detector
0
0
0
0
Program
Program
3350/servo 860,8/2
3350/0,2 860,8/0,2
3350/0,2 860,8/0,2
0
15.00
 
 
 
0
 
860,8
319,2
860,8
Front
100
on
S:100 R:100
0
0
0
0
 
0
 
 
 
0
 
 
0
0
0
0
0
 
 
 
 
0
0


0
0
#HDR
-1
-1
#GR
nm
%R
1.0
0.0
2500,000000
-1,000000
2251
8
57,243100
4,709900
#DATA
2500,000000	5,274000
2499,000000	5,126300
2498,000000	5,153500
2497,000000	5,004000
2496,000000	5,017700
2495,000000	5,074100
2494,000000	4,966500
2493,000000	5,071600
2492,000000	4,994500
2491,000000	4,987900
2490,000000	4,973400
2489,000000	4,981700
2488,000000	5,012800
2487,000000	4,921800
2486,000000	4,983800
2485,000000	5,011200
2484,000000	4,887300
2483,000000	4,925600
2482,000000	4,905800
2481,000000	4,919300
2480,000000	4,901600
2479,000000	4,915600
2478,000000	4,964000
2477,000000	4,902700
2476,000000	4,905100
2475,000000	4,903900
2474,000000	4,897200
2473,000000	4,908700
2472,000000	4,873300
2471,000000	4,899600
2470,000000	4,928100
2469,000000	4,910400
2468,000000	4,890600
2467,000000	4,910700
2466,000000	4,883300
2465,000000	4,892200
2464,000000	4,899500
2463,000000	4,914600
2462,000000	4,958600
2461,000000	4,887000
2460,000000	4,929200
2459,000000	4,935300
2458,000000	4,945800
2457,000000	4,962700
2456,000000	4,991900
2455,000000	4,957200
2454,000000	4,989900
2453,000000	5,007600
2452,000000	5,037100
2451,000000	5,047800
2450,000000	5,059400
2449,000000	5,098200
2448,000000	5,107100
2447,000000	5,137600
2446,000000	5,164900
2445,000000	5,183700
2444,000000	5,193200
2443,000000	5,213800
2442,000000	5,244800
2441,000000	5,258800
2440,000000	5,279700
2439,000000	5,290700
2438,000000	5,312900
2437,000000	5,336900
2436,000000	5,340900
2435,000000	5,351900
2434,000000	5,383900
2433,000000	5,418400
2432,000000	5,422300
2431,000000	5,441000
2430,000000	5,458000
2429,000000	5,474100
2428,000000	5,482600
2427,000000	5,501700
2426,000000	5,515100
2425,000000	5,532500
2424,000000	5,531800
2423,000000	5,547500
2422,000000	5,588400
2421,000000	5,582400
2420,000000	5,597700
2419,000000	5,608100
2418,000000	5,605900
2417,000000	5,633300
2416,000000	5,636100
2415,000000	5,646000
2414,000000	5,656600
2413,000000	5,677200
2412,000000	5,684800
2411,000000	5,693200
2410,000000	5,712200
2409,000000	5,712900
2408,000000	5,722600
2407,000000	5,734000
2406,000000	5,744900
2405,000000	5,755000
2404,000000	5,761600
2403,000000	5,788800
2402,000000	5,815500
2401,000000	5,839000
2400,000000	5,849300
2399,000000	5,862200
2398,000000	5,873300
2397,000000	5,887100
2396,000000	5,921000
2395,000000	5,933000
2394,000000	5,929400
2393,000000	5,928300
2392,000000	5,949200
2391,000000	5,967300
2390,000000	5,971800
2389,000000	5,981900
2388,000000	5,995500
2387,000000	6,002800
2386,000000	6,003700
2385,000000	5,998800
2384,000000	6,020900
2383,000000	6,031300
2382,000000	6,033100
2381,000000	6,038500
2380,000000	6,039500
2379,000000	6,043400
2378,000000	6,034300
2377,000000	6,021700
2376,000000	6,021700
2375,000000	6,027400
2374,000000	6,022000
2373,000000	6,012600
2372,000000	6,015800
2371,000000	6,008300
2370,000000	6,001500
2369,000000	5,994400
2368,000000	5,971800
2367,000000	5,958400
2366,000000	5,954100
2365,000000	5,940900
2364,000000	5,921800
2363,000000	5,910300
2362,000000	5,892800
2361,000000	5,874500
2360,000000	5,841700
2359,000000	5,817900
2358,000000	5,826600
2357,000000	5,810500
2356,000000	5,785600
2355,000000	5,783200
2354,000000	5,780400
2353,000000	5,774400
2352,000000	5,762300
2351,000000	5,776300
2350,000000	5,779700
2349,000000	5,779800
2348,000000	5,800300
2347,000000	5,804000
2346,000000	5,820800
2345,000000	5,840300
2344,000000	5,861100
2343,000000	5,879800
2342,000000	5,895100
2341,000000	5,915400
2340,000000	5,930600
2339,000000	5,937100
2338,000000	5,944000
2337,000000	5,953600
2336,000000	5,948100
2335,000000	5,945700
2334,000000	5,950600
2333,000000	5,943700
2332,000000	5,927400
2331,000000	5,916500
2330,000000	5,909000
2329,000000	5,906400
2328,000000	5,894500
2327,000000	5,853200
2326,000000	5,838400
2325,000000	5,831500
2324,000000	5,792200
2323,000000	5,766100
2322,000000	5,750400
2321,000000	5,716600
2320,000000	5,681000
2319,000000	5,649300
2318,000000	5,614900
2317,000000	5,582000
2316,000000	5,556600
2315,000000	5,523400
2314,000000	5,487000
2313,000000	5,453900
2312,000000	5,431700
2311,000000	5,395300
2310,000000	5,381000
2309,000000	5,338900
2308,000000	5,326200
2307,000000	5,332000
2306,000000	5,330500
2305,000000	5,323100
2304,000000	5,326700
2303,000000	5,335800
2302,000000	5,347000
2301,000000	5,362500
2300,000000	5,400600
2299,000000	5,419400
2298,000000	5,427800
2297,000000	5,455200
2296,000000	5,499100
2295,000000	5,534000
2294,000000	5,547200
2293,000000	5,575700
2292,000000	5,597300
2291,000000	5,615600
2290,000000	5,625300
2289,000000	5,635000
2288,000000	5,627000
2287,000000	5,631400
2286,000000	5,637000
2285,000000	5,642100
2284,000000	5,621700
2283,000000	5,614100
2282,000000	5,590600
2281,000000	5,569000
2280,000000	5,555100
2279,000000	5,545300
2278,000000	5,528800
2277,000000	5,514300
2276,000000	5,511000
2275,000000	5,507800
2274,000000	5,492700
2273,000000	5,488300
2272,000000	5,478500
2271,000000	5,486600
2270,000000	5,485700
2269,000000	5,497400
2268,000000	5,496200
2267,000000	5,528000
2266,000000	5,560400
2265,000000	5,582200
2264,000000	5,639900
2263,000000	5,687300
2262,000000	5,756700
2261,000000	5,785700
2260,000000	5,872400
2259,000000	5,940600
2258,000000	6,042100
2257,000000	6,138100
2256,000000	6,218100
2255,000000	6,321800
2254,000000	6,420200
2253,000000	6,526100
2252,000000	6,619800
2251,000000	6,697600
2250,000000	6,811500
2249,000000	6,894400
2248,000000	7,004400
2247,000000	7,077700
2246,000000	7,141400
2245,000000	7,225500
2244,000000	7,288600
2243,000000	7,350100
2242,000000	7,427700
2241,000000	7,483600
2240,000000	7,537900
2239,000000	7,599500
2238,000000	7,646500
2237,000000	7,678000
2236,000000	7,717700
2235,000000	7,769800
2234,000000	7,820100
2233,000000	7,834800
2232,000000	7,854400
2231,000000	7,905800
2230,000000	7,908500
2229,000000	7,949000
2228,000000	7,955700
2227,000000	7,945200
2226,000000	7,970700
2225,000000	7,968800
2224,000000	7,988900
2223,000000	7,988100
2222,000000	7,985300
2221,000000	7,977800
2220,000000	7,986500
2219,000000	7,969200
2218,000000	7,956100
2217,000000	7,969300
2216,000000	7,940500
2215,000000	7,948500
2214,000000	7,948600
2213,000000	7,929200
2212,000000	7,900000
2211,000000	7,889900
2210,000000	7,890500
2209,000000	7,886700
2208,000000	7,872000
2207,000000	7,864100
2206,000000	7,852400
2205,000000	7,861000
2204,000000	7,848800
2203,000000	7,835900
2202,000000	7,839800
2201,000000	7,852900
2200,000000	7,841200
2199,000000	7,834500
2198,000000	7,842600
2197,000000	7,815000
2196,000000	7,813500
2195,000000	7,808400
2194,000000	7,786100
2193,000000	7,802200
2192,000000	7,799500
2191,000000	7,788400
2190,000000	7,802800
2189,000000	7,778900
2188,000000	7,777000
2187,000000	7,781100
2186,000000	7,779000
2185,000000	7,766500
2184,000000	7,767300
2183,000000	7,747900
2182,000000	7,746100
2181,000000	7,738300
2180,000000	7,724700
2179,000000	7,721100
2178,000000	7,712400
2177,000000	7,735900
2176,000000	7,727100
2175,000000	7,713400
2174,000000	7,715900
2173,000000	7,712000
2172,000000	7,698400
2171,000000	7,708900
2170,000000	7,717100
2169,000000	7,707000
2168,000000	7,724300
2167,000000	7,739700
2166,000000	7,742100
2165,000000	7,737300
2164,000000	7,751500
2163,000000	7,748500
2162,000000	7,772600
2161,000000	7,770600
2160,000000	7,782100
2159,000000	7,798600
2158,000000	7,804500
2157,000000	7,813200
2156,000000	7,847400
2155,000000	7,864500
2154,000000	7,862700
2153,000000	7,879000
2152,000000	7,892700
2151,000000	7,915400
2150,000000	7,921600
2149,000000	7,936400
2148,000000	7,957900
2147,000000	7,970400
2146,000000	7,997700
2145,000000	7,993000
2144,000000	8,011400
2143,000000	8,025900
2142,000000	8,038200
2141,000000	8,045200
2140,000000	8,063400
2139,000000	8,087200
2138,000000	8,095100
2137,000000	8,093400
2136,000000	8,103200
2135,000000	8,116400
2134,000000	8,111200
2133,000000	8,131500
2132,000000	8,145600
2131,000000	8,134000
2130,000000	8,139000
2129,000000	8,149400
2128,000000	8,155900
2127,000000	8,139700
2126,000000	8,143300
2125,000000	8,135900
2124,000000	8,125100
2123,000000	8,120900
2122,000000	8,119600
2121,000000	8,121100
2120,000000	8,118400
2119,000000	8,100400
2118,000000	8,090400
2117,000000	8,082700
2116,000000	8,068300
2115,000000	8,053600
2114,000000	8,022700
2113,000000	8,016300
2112,000000	8,029500
2111,000000	8,012900
2110,000000	7,979200
2109,000000	7,962600
2108,000000	7,956500
2107,000000	7,962900
2106,000000	7,950400
2105,000000	7,929600
2104,000000	7,909800
2103,000000	7,890200
2102,000000	7,870200
2101,000000	7,852600
2100,000000	7,851500
2099,000000	7,846300
2098,000000	7,830500
2097,000000	7,813500
2096,000000	7,816800
2095,000000	7,800500
2094,000000	7,789400
2093,000000	7,775400
2092,000000	7,762100
2091,000000	7,752200
2090,000000	7,747400
2089,000000	7,745100
2088,000000	7,736800
2087,000000	7,726000
2086,000000	7,715000
2085,000000	7,710700
2084,000000	7,684500
2083,000000	7,667500
2082,000000	7,661800
2081,000000	7,651500
2080,000000	7,649900
2079,000000	7,634000
2078,000000	7,611700
2077,000000	7,600400
2076,000000	7,589300
2075,000000	7,584200
2074,000000	7,567200
2073,000000	7,535600
2072,000000	7,515400
2071,000000	7,502100
2070,000000	7,485200
2069,000000	7,478000
2068,000000	7,454900
2067,000000	7,424500
2066,000000	7,412200
2065,000000	7,407300
2064,000000	7,400800
2063,000000	7,374900
2062,000000	7,362300
2061,000000	7,371300
2060,000000	7,351200
2059,000000	7,334900
2058,000000	7,331700
2057,000000	7,322900
2056,000000	7,332300
2055,000000	7,347300
2054,000000	7,357600
2053,000000	7,374100
2052,000000	7,391000
2051,000000	7,410500
2050,000000	7,437900
2049,000000	7,460400
2048,000000	7,493000
2047,000000	7,519500
2046,000000	7,535900
2045,000000	7,568100
2044,000000	7,615400
2043,000000	7,660100
2042,000000	7,698200
2041,000000	7,730900
2040,000000	7,776200
2039,000000	7,819700
2038,000000	7,853800
2037,000000	7,896200
2036,000000	7,938600
2035,000000	7,976700
2034,000000	7,997800
2033,000000	8,030200
2032,000000	8,059400
2031,000000	8,088100
2030,000000	8,110200
2029,000000	8,127200
2028,000000	8,133200
2027,000000	8,153200
2026,000000	8,176200
2025,000000	8,200000
2024,000000	8,206300
2023,000000	8,221700
2022,000000	8,236400
2021,000000	8,241600
2020,000000	8,251700
2019,000000	8,258600
2018,000000	8,275600
2017,000000	8,278300
2016,000000	8,291700
2015,000000	8,271900
2014,000000	8,272900
2013,000000	8,267600
2012,000000	8,272300
2011,000000	8,279500
2010,000000	8,268700
2009,000000	8,251500
2008,000000	8,260300
2007,000000	8,231700
2006,000000	8,211400
2005,000000	8,202200
2004,000000	8,181800
2003,000000	8,158300
2002,000000	8,138000
2001,000000	8,125100
2000,000000	8,099600
1999,000000	8,068100
1998,000000	8,039700
1997,000000	8,023700
1996,000000	7,983400
1995,000000	7,963800
1994,000000	7,942200
1993,000000	7,910600
1992,000000	7,862200
1991,000000	7,836000
1990,000000	7,797000
1989,000000	7,762200
1988,000000	7,729500
1987,000000	7,692900
1986,000000	7,654700
1985,000000	7,626800
1984,000000	7,598100
1983,000000	7,579000
1982,000000	7,528900
1981,000000	7,500500
1980,000000	7,479500
1979,000000	7,415100
1978,000000	7,397800
1977,000000	7,356200
1976,000000	7,303100
1975,000000	7,290100
1974,000000	7,252600
1973,000000	7,213900
1972,000000	7,181900
1971,000000	7,160100
1970,000000	7,113000
1969,000000	7,074300
1968,000000	7,075100
1967,000000	7,037100
1966,000000	7,006500
1965,000000	6,988700
1964,000000	6,950500
1963,000000	6,927200
1962,000000	6,905600
1961,000000	6,866400
1960,000000	6,840700
1959,000000	6,806700
1958,000000	6,798600
1957,000000	6,738400
1956,000000	6,727400
1955,000000	6,725200
1954,000000	6,678200
1953,000000	6,664700
1952,000000	6,647500
1951,000000	6,590900
1950,000000	6,592700
1949,000000	6,575600
1948,000000	6,557700
1947,000000	6,534000
1946,000000	6,505400
1945,000000	6,514900
1944,000000	6,501000
1943,000000	6,484200
1942,000000	6,477600
1941,000000	6,472500
1940,000000	6,455900
1939,000000	6,436200
1938,000000	6,453200
1937,000000	6,428300
1936,000000	6,429400
1935,000000	6,444700
1934,000000	6,459500
1933,000000	6,466500
1932,000000	6,470100
1931,000000	6,465900
1930,000000	6,513500
1929,000000	6,508300
1928,000000	6,536900
1927,000000	6,566400
1926,000000	6,564300
1925,000000	6,626300
1924,000000	6,669200
1923,000000	6,688300
1922,000000	6,749300
1921,000000	6,801000
1920,000000	6,850100
1919,000000	6,905500
1918,000000	6,947500
1917,000000	7,013700
1916,000000	7,088700
1915,000000	7,146500
1914,000000	7,203100
1913,000000	7,286400
1912,000000	7,357900
1911,000000	7,453000
1910,000000	7,513400
1909,000000	7,602000
1908,000000	7,707800
1907,000000	7,788200
1906,000000	7,903100
1905,000000	8,024500
1904,000000	8,138200
1903,000000	8,256400
1902,000000	8,382000
1901,000000	8,499500
1900,000000	8,639800
1899,000000	8,808300
1898,000000	8,934300
1897,000000	9,112000
1896,000000	9,259100
1895,000000	9,423800
1894,000000	9,588200
1893,000000	9,762100
1892,000000	9,940600
1891,000000	10,172900
1890,000000	10,397800
1889,000000	10,616400
1888,000000	10,852200
1887,000000	11,094700
1886,000000	11,371100
1885,000000	11,666400
1884,000000	12,004200
1883,000000	12,366400
1882,000000	12,734200
1881,000000	13,125100
1880,000000	13,514800
1879,000000	13,900900
1878,000000	14,282300
1877,000000	14,686700
1876,000000	15,062400
1875,000000	15,422200
1874,000000	15,766400
1873,000000	16,115000
1872,000000	16,476800
1871,000000	16,794100
1870,000000	17,105400
1869,000000	17,399600
1868,000000	17,692100
1867,000000	17,880200
1866,000000	18,062500
1865,000000	18,232700
1864,000000	18,412400
1863,000000	18,549800
1862,000000	18,666300
1861,000000	18,806500
1860,000000	18,921200
1859,000000	19,037200
1858,000000	19,108500
1857,000000	19,178100
1856,000000	19,234000
1855,000000	19,266700
1854,000000	19,302800
1853,000000	19,336900
1852,000000	19,333400
1851,000000	19,329600
1850,000000	19,344700
1849,000000	19,339700
1848,000000	19,325400
1847,000000	19,305500
1846,000000	19,278000
1845,000000	19,244400
1844,000000	19,214200
1843,000000	19,182500
1842,000000	19,197500
1841,000000	19,204400
1840,000000	19,183600
1839,000000	19,165200
1838,000000	19,114400
1837,000000	19,073300
1836,000000	19,044100
1835,000000	19,016400
1834,000000	18,977500
1833,000000	18,921000
1832,000000	18,861400
1831,000000	18,819100
1830,000000	18,769100
1829,000000	18,713200
1828,000000	18,643000
1827,000000	18,572500
1826,000000	18,517900
1825,000000	18,472100
1824,000000	18,419300
1823,000000	18,381100
1822,000000	18,354300
1821,000000	18,344800
1820,000000	18,311200
1819,000000	18,273700
1818,000000	18,246600
1817,000000	18,222700
1816,000000	18,211300
1815,000000	18,216900
1814,000000	18,203900
1813,000000	18,184000
1812,000000	18,166300
1811,000000	18,150300
1810,000000	18,124300
1809,000000	18,087900
1808,000000	18,054100
1807,000000	18,027600
1806,000000	17,991500
1805,000000	17,930200
1804,000000	17,875900
1803,000000	17,836000
1802,000000	17,803600
1801,000000	17,768100
1800,000000	17,715400
1799,000000	17,672600
1798,000000	17,623800
1797,000000	17,577000
1796,000000	17,534800
1795,000000	17,485200
1794,000000	17,446000
1793,000000	17,411100
1792,000000	17,363100
1791,000000	17,309100
1790,000000	17,252400
1789,000000	17,205200
1788,000000	17,156000
1787,000000	17,101100
1786,000000	17,046100
1785,000000	16,978300
1784,000000	16,911700
1783,000000	16,843900
1782,000000	16,782900
1781,000000	16,707200
1780,000000	16,644400
1779,000000	16,584500
1778,000000	16,519800
1777,000000	16,452200
1776,000000	16,368000
1775,000000	16,277300
1774,000000	16,195700
1773,000000	16,095000
1772,000000	15,999800
1771,000000	15,912000
1770,000000	15,816500
1769,000000	15,710600
1768,000000	15,617200
1767,000000	15,527400
1766,000000	15,446000
1765,000000	15,368400
1764,000000	15,325900
1763,000000	15,308400
1762,000000	15,295600
1761,000000	15,310500
1760,000000	15,338000
1759,000000	15,390900
1758,000000	15,454800
1757,000000	15,516700
1756,000000	15,551200
1755,000000	15,607700
1754,000000	15,665200
1753,000000	15,693300
1752,000000	15,701900
1751,000000	15,716200
1750,000000	15,690200
1749,000000	15,665300
1748,000000	15,651100
1747,000000	15,594400
1746,000000	15,537000
1745,000000	15,447300
1744,000000	15,355400
1743,000000	15,246500
1742,000000	15,100700
1741,000000	14,952300
1740,000000	14,781500
1739,000000	14,601000
1738,000000	14,437500
1737,000000	14,289500
1736,000000	14,151900
1735,000000	14,034800
1734,000000	13,970200
1733,000000	13,918800
1732,000000	13,914100
1731,000000	13,954800
1730,000000	14,025100
1729,000000	14,106800
1728,000000	14,187500
1727,000000	14,270800
1726,000000	14,358700
1725,000000	14,447500
1724,000000	14,495400
1723,000000	14,532600
1722,000000	14,591200
1721,000000	14,624100
1720,000000	14,650900
1719,000000	14,672800
1718,000000	14,698400
1717,000000	14,712700
1716,000000	14,749500
1715,000000	14,798000
1714,000000	14,878900
1713,000000	14,944200
1712,000000	14,982800
1711,000000	15,019800
1710,000000	15,062100
1709,000000	15,049200
1708,000000	15,052100
1707,000000	15,041400
1706,000000	15,013400
1705,000000	14,984000
1704,000000	14,951400
1703,000000	14,885500
1702,000000	14,795800
1701,000000	14,698800
1700,000000	14,598600
1699,000000	14,469300
1698,000000	14,359600
1697,000000	14,234000
1696,000000	14,145600
1695,000000	14,108300
1694,000000	14,111800
1693,000000	14,138700
1692,000000	14,212800
1691,000000	14,335800
1690,000000	14,462300
1689,000000	14,602300
1688,000000	14,714200
1687,000000	14,749600
1686,000000	14,786800
1685,000000	14,813000
1684,000000	14,867700
1683,000000	14,963500
1682,000000	15,137200
1681,000000	15,403500
1680,000000	15,740200
1679,000000	16,166100
1678,000000	16,608500
1677,000000	17,078800
1676,000000	17,484500
1675,000000	17,890300
1674,000000	18,208900
1673,000000	18,544600
1672,000000	18,785700
1671,000000	19,012600
1670,000000	19,219200
1669,000000	19,409400
1668,000000	19,555400
1667,000000	19,681900
1666,000000	19,787500
1665,000000	19,889800
1664,000000	19,968600
1663,000000	20,034500
1662,000000	20,116400
1661,000000	20,162700
1660,000000	20,205900
1659,000000	20,268900
1658,000000	20,297900
1657,000000	20,329200
1656,000000	20,343300
1655,000000	20,339800
1654,000000	20,335300
1653,000000	20,325800
1652,000000	20,315900
1651,000000	20,319000
1650,000000	20,283800
1649,000000	20,234200
1648,000000	20,204000
1647,000000	20,170000
1646,000000	20,138100
1645,000000	20,100100
1644,000000	20,056300
1643,000000	19,986500
1642,000000	19,944600
1641,000000	19,902800
1640,000000	19,816500
1639,000000	19,767300
1638,000000	19,711200
1637,000000	19,637400
1636,000000	19,605700
1635,000000	19,535600
1634,000000	19,473000
1633,000000	19,401500
1632,000000	19,337600
1631,000000	19,243200
1630,000000	19,171100
1629,000000	19,105000
1628,000000	19,021100
1627,000000	18,953600
1626,000000	18,872400
1625,000000	18,816700
1624,000000	18,712600
1623,000000	18,645700
1622,000000	18,591800
1621,000000	18,501300
1620,000000	18,449500
1619,000000	18,376700
1618,000000	18,303300
1617,000000	18,237900
1616,000000	18,165500
1615,000000	18,095700
1614,000000	18,047800
1613,000000	17,969700
1612,000000	17,896000
1611,000000	17,855400
1610,000000	17,770300
1609,000000	17,733300
1608,000000	17,651500
1607,000000	17,596400
1606,000000	17,538300
1605,000000	17,478500
1604,000000	17,418400
1603,000000	17,356100
1602,000000	17,314100
1601,000000	17,244500
1600,000000	17,187500
1599,000000	17,124700
1598,000000	17,054000
1597,000000	16,995500
1596,000000	16,948000
1595,000000	16,885400
1594,000000	16,835300
1593,000000	16,781300
1592,000000	16,724200
1591,000000	16,673100
1590,000000	16,638400
1589,000000	16,592600
1588,000000	16,552000
1587,000000	16,507100
1586,000000	16,463800
1585,000000	16,423500
1584,000000	16,376600
1583,000000	16,349800
1582,000000	16,324800
1581,000000	16,297000
1580,000000	16,260700
1579,000000	16,227900
1578,000000	16,208000
1577,000000	16,179400
1576,000000	16,177800
1575,000000	16,157200
1574,000000	16,153000
1573,000000	16,132600
1572,000000	16,134500
1571,000000	16,121700
1570,000000	16,114600
1569,000000	16,132300
1568,000000	16,114800
1567,000000	16,128600
1566,000000	16,126200
1565,000000	16,121800
1564,000000	16,119300
1563,000000	16,141900
1562,000000	16,148200
1561,000000	16,149500
1560,000000	16,138800
1559,000000	16,140000
1558,000000	16,132000
1557,000000	16,124100
1556,000000	16,114100
1555,000000	16,105500
1554,000000	16,100300
1553,000000	16,088100
1552,000000	16,075600
1551,000000	16,069200
1550,000000	16,051700
1549,000000	16,025300
1548,000000	15,985500
1547,000000	15,956300
1546,000000	15,941200
1545,000000	15,942100
1544,000000	15,930800
1543,000000	15,904500
1542,000000	15,885800
1541,000000	15,881900
1540,000000	15,865400
1539,000000	15,852400
1538,000000	15,835500
1537,000000	15,812800
1536,000000	15,803600
1535,000000	15,787400
1534,000000	15,769900
1533,000000	15,746700
1532,000000	15,731000
1531,000000	15,707600
1530,000000	15,676100
1529,000000	15,638500
1528,000000	15,612500
1527,000000	15,584300
1526,000000	15,549300
1525,000000	15,518200
1524,000000	15,483800
1523,000000	15,451300
1522,000000	15,414200
1521,000000	15,376300
1520,000000	15,349300
1519,000000	15,315500
1518,000000	15,274000
1517,000000	15,226900
1516,000000	15,178400
1515,000000	15,145500
1514,000000	15,116300
1513,000000	15,071900
1512,000000	15,014600
1511,000000	14,975600
1510,000000	14,938200
1509,000000	14,895600
1508,000000	14,849300
1507,000000	14,805400
1506,000000	14,758700
1505,000000	14,716700
1504,000000	14,674200
1503,000000	14,628300
1502,000000	14,587400
1501,000000	14,541400
1500,000000	14,497700
1499,000000	14,456500
1498,000000	14,431500
1497,000000	14,409200
1496,000000	14,360500
1495,000000	14,318700
1494,000000	14,286800
1493,000000	14,260700
1492,000000	14,247800
1491,000000	14,216400
1490,000000	14,189700
1489,000000	14,173400
1488,000000	14,150900
1487,000000	14,126800
1486,000000	14,111100
1485,000000	14,099600
1484,000000	14,082400
1483,000000	14,068600
1482,000000	14,054300
1481,000000	14,043800
1480,000000	14,033200
1479,000000	14,020800
1478,000000	14,007500
1477,000000	13,991400
1476,000000	13,999900
1475,000000	13,996100
1474,000000	13,990700
1473,000000	13,990500
1472,000000	14,004700
1471,000000	14,008000
1470,000000	14,015000
1469,000000	14,008100
1468,000000	14,021200
1467,000000	14,018500
1466,000000	14,028200
1465,000000	14,044100
1464,000000	14,062300
1463,000000	14,078200
1462,000000	14,090900
1461,000000	14,119200
1460,000000	14,154000
1459,000000	14,189900
1458,000000	14,225300
1457,000000	14,258800
1456,000000	14,303100
1455,000000	14,350000
1454,000000	14,397100
1453,000000	14,455400
1452,000000	14,511900
1451,000000	14,570200
1450,000000	14,635100
1449,000000	14,694200
1448,000000	14,749800
1447,000000	14,831100
1446,000000	14,906500
1445,000000	14,995700
1444,000000	15,052500
1443,000000	15,111800
1442,000000	15,210900
1441,000000	15,303800
1440,000000	15,389300
1439,000000	15,461500
1438,000000	15,535100
1437,000000	15,652100
1436,000000	15,733100
1435,000000	15,835100
1434,000000	15,921400
1433,000000	16,022400
1432,000000	16,132500
1431,000000	16,240100
1430,000000	16,351500
1429,000000	16,474300
1428,000000	16,612900
1427,000000	16,745800
1426,000000	16,897600
1425,000000	17,039900
1424,000000	17,214300
1423,000000	17,391900
1422,000000	17,561600
1421,000000	17,744600
1420,000000	17,953900
1419,000000	18,167600
1418,000000	18,367800
1417,000000	18,545500
1416,000000	18,762700
1415,000000	19,002700
1414,000000	19,252500
1413,000000	19,508600
1412,000000	19,717300
1411,000000	19,970200
1410,000000	20,259200
1409,000000	20,577100
1408,000000	20,913400
1407,000000	21,270400
1406,000000	21,605400
1405,000000	21,973600
1404,000000	22,391900
1403,000000	22,787500
1402,000000	23,133400
1401,000000	23,548000
1400,000000	23,942800
1399,000000	24,339100
1398,000000	24,627900
1397,000000	24,895600
1396,000000	25,253800
1395,000000	25,618600
1394,000000	25,940400
1393,000000	26,178500
1392,000000	26,472900
1391,000000	26,815500
1390,000000	27,144500
1389,000000	27,454000
1388,000000	27,860300
1387,000000	28,347800
1386,000000	28,801400
1385,000000	29,252000
1384,000000	29,822100
1383,000000	30,395300
1382,000000	30,953600
1381,000000	31,489100
1380,000000	31,902000
1379,000000	32,173300
1378,000000	32,441100
1377,000000	32,657200
1376,000000	32,878900
1375,000000	33,075600
1374,000000	33,339000
1373,000000	33,624900
1372,000000	33,971500
1371,000000	34,341500
1370,000000	34,745100
1369,000000	35,069200
1368,000000	35,413900
1367,000000	35,751500
1366,000000	36,019300
1365,000000	36,221900
1364,000000	36,466500
1363,000000	36,657600
1362,000000	36,858800
1361,000000	37,046600
1360,000000	37,197700
1359,000000	37,246300
1358,000000	37,365300
1357,000000	37,504400
1356,000000	37,683000
1355,000000	37,978400
1354,000000	38,402400
1353,000000	38,846700
1352,000000	39,330500
1351,000000	39,846700
1350,000000	40,357900
1349,000000	40,839700
1348,000000	41,284300
1347,000000	41,709900
1346,000000	42,113500
1345,000000	42,495700
1344,000000	42,896800
1343,000000	43,241000
1342,000000	43,583100
1341,000000	43,928200
1340,000000	44,258500
1339,000000	44,601600
1338,000000	44,920900
1337,000000	45,230900
1336,000000	45,548700
1335,000000	45,860100
1334,000000	46,136200
1333,000000	46,436100
1332,000000	46,710900
1331,000000	46,991100
1330,000000	47,234800
1329,000000	47,497900
1328,000000	47,761800
1327,000000	48,006200
1326,000000	48,218900
1325,000000	48,434200
1324,000000	48,658400
1323,000000	48,848100
1322,000000	49,039600
1321,000000	49,219900
1320,000000	49,409800
1319,000000	49,573800
1318,000000	49,740900
1317,000000	49,888800
1316,000000	50,052800
1315,000000	50,190600
1314,000000	50,318600
1313,000000	50,465800
1312,000000	50,592400
1311,000000	50,707700
1310,000000	50,817400
1309,000000	50,936200
1308,000000	51,025900
1307,000000	51,124400
1306,000000	51,201700
1305,000000	51,267100
1304,000000	51,342100
1303,000000	51,403600
1302,000000	51,445500
1301,000000	51,479300
1300,000000	51,527200
1299,000000	51,554900
1298,000000	51,580700
1297,000000	51,613800
1296,000000	51,622800
1295,000000	51,644200
1294,000000	51,659800
1293,000000	51,666700
1292,000000	51,660200
1291,000000	51,637700
1290,000000	51,626600
1289,000000	51,614600
1288,000000	51,591400
1287,000000	51,560400
1286,000000	51,517900
1285,000000	51,458600
1284,000000	51,434300
1283,000000	51,376300
1282,000000	51,300600
1281,000000	51,250900
1280,000000	51,185400
1279,000000	51,108200
1278,000000	51,025600
1277,000000	50,978500
1276,000000	50,920200
1275,000000	50,857500
1274,000000	50,810000
1273,000000	50,746900
1272,000000	50,702800
1271,000000	50,661900
1270,000000	50,624100
1269,000000	50,582400
1268,000000	50,534300
1267,000000	50,484100
1266,000000	50,447100
1265,000000	50,401800
1264,000000	50,344700
1263,000000	50,293600
1262,000000	50,240700
1261,000000	50,188700
1260,000000	50,123300
1259,000000	50,038500
1258,000000	49,952100
1257,000000	49,882700
1256,000000	49,807800
1255,000000	49,742800
1254,000000	49,677900
1253,000000	49,598100
1252,000000	49,514600
1251,000000	49,416600
1250,000000	49,322100
1249,000000	49,236500
1248,000000	49,134100
1247,000000	49,017600
1246,000000	48,885200
1245,000000	48,757200
1244,000000	48,648500
1243,000000	48,511800
1242,000000	48,359200
1241,000000	48,206500
1240,000000	48,048200
1239,000000	47,893200
1238,000000	47,747300
1237,000000	47,595100
1236,000000	47,422200
1235,000000	47,247900
1234,000000	47,077300
1233,000000	46,892700
1232,000000	46,715500
1231,000000	46,530300
1230,000000	46,309600
1229,000000	46,113400
1228,000000	45,929100
1227,000000	45,724500
1226,000000	45,527100
1225,000000	45,323300
1224,000000	45,111100
1223,000000	44,909900
1222,000000	44,700900
1221,000000	44,487000
1220,000000	44,281400
1219,000000	44,088500
1218,000000	43,900500
1217,000000	43,711200
1216,000000	43,533300
1215,000000	43,372900
1214,000000	43,213600
1213,000000	43,029700
1212,000000	42,879500
1211,000000	42,734700
1210,000000	42,575300
1209,000000	42,427800
1208,000000	42,303800
1207,000000	42,188200
1206,000000	42,084500
1205,000000	41,974500
1204,000000	41,908200
1203,000000	41,855600
1202,000000	41,801100
1201,000000	41,759000
1200,000000	41,701400
1199,000000	41,630600
1198,000000	41,542700
1197,000000	41,433300
1196,000000	41,279300
1195,000000	41,074400
1194,000000	40,816500
1193,000000	40,495400
1192,000000	40,116200
1191,000000	39,682200
1190,000000	39,220200
1189,000000	38,779800
1188,000000	38,403300
1187,000000	38,108700
1186,000000	37,932900
1185,000000	37,896600
1184,000000	37,969300
1183,000000	38,176700
1182,000000	38,517700
1181,000000	38,960900
1180,000000	39,473200
1179,000000	39,975000
1178,000000	40,457700
1177,000000	40,922900
1176,000000	41,335400
1175,000000	41,693000
1174,000000	42,030300
1173,000000	42,346400
1172,000000	42,645400
1171,000000	42,974500
1170,000000	43,315400
1169,000000	43,675600
1168,000000	44,025400
1167,000000	44,379500
1166,000000	44,742700
1165,000000	45,098100
1164,000000	45,498100
1163,000000	45,876600
1162,000000	46,271700
1161,000000	46,656900
1160,000000	47,031100
1159,000000	47,390700
1158,000000	47,764400
1157,000000	48,107600
1156,000000	48,431800
1155,000000	48,730700
1154,000000	48,970700
1153,000000	49,158800
1152,000000	49,328500
1151,000000	49,434100
1150,000000	49,506500
1149,000000	49,569200
1148,000000	49,627800
1147,000000	49,710700
1146,000000	49,839400
1145,000000	50,005100
1144,000000	50,256300
1143,000000	50,555200
1142,000000	50,891700
1141,000000	51,262500
1140,000000	51,655600
1139,000000	52,055600
1138,000000	52,447800
1137,000000	52,874400
1136,000000	53,314900
1135,000000	53,779700
1134,000000	54,250400
1133,000000	54,686300
1132,000000	55,052100
1131,000000	55,393700
1130,000000	55,717800
1129,000000	56,025000
1128,000000	56,267200
1127,000000	56,475700
1126,000000	56,645500
1125,000000	56,770400
1124,000000	56,866200
1123,000000	56,949800
1122,000000	57,030900
1121,000000	57,106500
1120,000000	57,138300
1119,000000	57,184100
1118,000000	57,203200
1117,000000	57,236200
1116,000000	57,243100
1115,000000	57,242900
1114,000000	57,211400
1113,000000	57,206100
1112,000000	57,188900
1111,000000	57,182400
1110,000000	57,182300
1109,000000	57,161500
1108,000000	57,134800
1107,000000	57,131400
1106,000000	57,107000
1105,000000	57,110800
1104,000000	57,088600
1103,000000	57,057000
1102,000000	57,050700
1101,000000	57,020700
1100,000000	57,011300
1099,000000	56,972400
1098,000000	56,946600
1097,000000	56,932100
1096,000000	56,888100
1095,000000	56,842100
1094,000000	56,817300
1093,000000	56,785100
1092,000000	56,735300
1091,000000	56,688800
1090,000000	56,656300
1089,000000	56,605800
1088,000000	56,562300
1087,000000	56,512000
1086,000000	56,474400
1085,000000	56,428900
1084,000000	56,359200
1083,000000	56,314300
1082,000000	56,239000
1081,000000	56,188400
1080,000000	56,145900
1079,000000	56,091500
1078,000000	56,047300
1077,000000	55,990100
1076,000000	55,953000
1075,000000	55,882000
1074,000000	55,835500
1073,000000	55,765800
1072,000000	55,722000
1071,000000	55,669500
1070,000000	55,623000
1069,000000	55,571800
1068,000000	55,510100
1067,000000	55,447500
1066,000000	55,393500
1065,000000	55,331400
1064,000000	55,277500
1063,000000	55,204600
1062,000000	55,163600
1061,000000	55,107200
1060,000000	55,057000
1059,000000	54,999200
1058,000000	54,943100
1057,000000	54,882700
1056,000000	54,804400
1055,000000	54,755300
1054,000000	54,671900
1053,000000	54,633000
1052,000000	54,567400
1051,000000	54,540300
1050,000000	54,484500
1049,000000	54,424400
1048,000000	54,369500
1047,000000	54,348200
1046,000000	54,291200
1045,000000	54,248600
1044,000000	54,204400
1043,000000	54,161300
1042,000000	54,115200
1041,000000	54,086000
1040,000000	54,054900
1039,000000	54,022700
1038,000000	53,955200
1037,000000	53,899200
1036,000000	53,867700
1035,000000	53,812600
1034,000000	53,763300
1033,000000	53,717700
1032,000000	53,633500
1031,000000	53,586300
1030,000000	53,519300
1029,000000	53,467800
1028,000000	53,421800
1027,000000	53,369700
1026,000000	53,296300
1025,000000	53,256600
1024,000000	53,190600
1023,000000	53,122800
1022,000000	53,064900
1021,000000	53,018200
1020,000000	52,952300
1019,000000	52,901800
1018,000000	52,848700
1017,000000	52,818900
1016,000000	52,782000
1015,000000	52,736800
1014,000000	52,670900
1013,000000	52,632200
1012,000000	52,646000
1011,000000	52,630500
1010,000000	52,594300
1009,000000	52,590400
1008,000000	52,598100
1007,000000	52,597100
1006,000000	52,604000
1005,000000	52,605900
1004,000000	52,604900
1003,000000	52,616300
1002,000000	52,626400
1001,000000	52,619700
1000,000000	52,619100
999,000000	52,615600
998,000000	52,623800
997,000000	52,634000
996,000000	52,653500
995,000000	52,664100
994,000000	52,656500
993,000000	52,665800
992,000000	52,694500
991,000000	52,695900
990,000000	52,691700
989,000000	52,708800
988,000000	52,731000
987,000000	52,746300
986,000000	52,750300
985,000000	52,780800
984,000000	52,789700
983,000000	52,816500
982,000000	52,838600
981,000000	52,859500
980,000000	52,878000
979,000000	52,887600
978,000000	52,904900
977,000000	52,938200
976,000000	52,937200
975,000000	52,960900
974,000000	52,992200
973,000000	53,009500
972,000000	53,021100
971,000000	53,051100
970,000000	53,061200
969,000000	53,074500
968,000000	53,087300
967,000000	53,092900
966,000000	53,123200
965,000000	53,128300
964,000000	53,147600
963,000000	53,170800
962,000000	53,182400
961,000000	53,212300
960,000000	53,239800
959,000000	53,263700
958,000000	53,271900
957,000000	53,277100
956,000000	53,301700
955,000000	53,325800
954,000000	53,318700
953,000000	53,337800
952,000000	53,348200
951,000000	53,346400
950,000000	53,353900
949,000000	53,337400
948,000000	53,332200
947,000000	53,335700
946,000000	53,339900
945,000000	53,320300
944,000000	53,294900
943,000000	53,300000
942,000000	53,288300
941,000000	53,254000
940,000000	53,226700
939,000000	53,222300
938,000000	53,197300
937,000000	53,145200
936,000000	53,117000
935,000000	53,114800
934,000000	53,102300
933,000000	53,057700
932,000000	53,023300
931,000000	52,982900
930,000000	52,962600
929,000000	52,930500
928,000000	52,875300
927,000000	52,829700
926,000000	52,818100
925,000000	52,772800
924,000000	52,707700
923,000000	52,651100
922,000000	52,582900
921,000000	52,517700
920,000000	52,464700
919,000000	52,454900
918,000000	52,406100
917,000000	52,323200
916,000000	52,236100
915,000000	52,164000
914,000000	52,095600
913,000000	52,007400
912,000000	51,916800
911,000000	51,854900
910,000000	51,791900
909,000000	51,720500
908,000000	51,655500
907,000000	51,609600
906,000000	51,539700
905,000000	51,478400
904,000000	51,445800
903,000000	51,415900
902,000000	51,389600
901,000000	51,362600
900,000000	51,338500
899,000000	51,319000
898,000000	51,283900
897,000000	51,240800
896,000000	51,200700
895,000000	51,176000
894,000000	51,139100
893,000000	51,086400
892,000000	51,024100
891,000000	50,969000
890,000000	50,883000
889,000000	50,830500
888,000000	50,783300
887,000000	50,718700
886,000000	50,629100
885,000000	50,545600
884,000000	50,452300
883,000000	50,374200
882,000000	50,269200
881,000000	50,188300
880,000000	50,087000
879,000000	49,981000
878,000000	49,847300
877,000000	49,663600
876,000000	49,516000
875,000000	49,396600
874,000000	49,214200
873,000000	49,010900
872,000000	48,783000
871,000000	48,642500
870,000000	48,612500
869,000000	48,578900
868,000000	48,619300
867,000000	48,621600
866,000000	48,616600
865,000000	48,623000
864,000000	48,618500
863,000000	48,611500
862,000000	48,622000
861,000000	48,617300
860,000000	48,593800
859,000000	48,593100
858,000000	48,586900
857,000000	53,883100
856,000000	55,378300
855,000000	54,871800
854,000000	55,352800
853,000000	55,486300
852,000000	55,240400
851,000000	55,268600
850,000000	55,010400
849,000000	55,504300
848,000000	55,141800
847,000000	54,715700
846,000000	54,978900
845,000000	55,006800
844,000000	55,044900
843,000000	54,982100
842,000000	54,908800
841,000000	55,195600
840,000000	55,029800
839,000000	54,960800
838,000000	54,765600
837,000000	54,995600
836,000000	54,774900
835,000000	54,972800
834,000000	54,823300
833,000000	54,868500
832,000000	54,811100
831,000000	54,659300
830,000000	54,536100
829,000000	54,632600
828,000000	54,550500
827,000000	54,458700
826,000000	54,340100
825,000000	54,458300
824,000000	54,386800
823,000000	54,292200
822,000000	54,265200
821,000000	54,256900
820,000000	54,316500
819,000000	54,075100
818,000000	54,050600
817,000000	54,017900
816,000000	53,869100
815,000000	53,961900
814,000000	53,736000
813,000000	53,756000
812,000000	53,907200
811,000000	53,866800
810,000000	53,519400
809,000000	53,717700
808,000000	53,580700
807,000000	53,525000
806,000000	53,502000
805,000000	53,371600
804,000000	53,450300
803,000000	53,252700
802,000000	52,986200
801,000000	52,969500
800,000000	52,948300
799,000000	52,998200
798,000000	52,969200
797,000000	52,779300
796,000000	52,880100
795,000000	52,701000
794,000000	52,546800
793,000000	52,531500
792,000000	52,446400
791,000000	52,473700
790,000000	52,435800
789,000000	52,353200
788,000000	52,358000
787,000000	52,234600
786,000000	52,109800
785,000000	51,954200
784,000000	51,980000
783,000000	51,850500
782,000000	51,773600
781,000000	51,599500
780,000000	51,611300
779,000000	51,388300
778,000000	51,271400
777,000000	51,245700
776,000000	51,130500
775,000000	51,040100
774,000000	50,897900
773,000000	50,814400
772,000000	50,804000
771,000000	50,655300
770,000000	50,597400
769,000000	50,499800
768,000000	50,299100
767,000000	50,318900
766,000000	50,178000
765,000000	50,133200
764,000000	49,965400
763,000000	49,812000
762,000000	49,701700
761,000000	49,719600
760,000000	49,554700
759,000000	49,519100
758,000000	49,310800
757,000000	49,128300
756,000000	49,071100
755,000000	48,945200
754,000000	48,885700
753,000000	48,746800
752,000000	48,651700
751,000000	48,549500
750,000000	48,347500
749,000000	48,294900
748,000000	48,195900
747,000000	47,963800
746,000000	47,812900
745,000000	47,696700
744,000000	47,519400
743,000000	47,455500
742,000000	47,295200
741,000000	47,088700
740,000000	46,981500
739,000000	46,798200
738,000000	46,692800
737,000000	46,523800
736,000000	46,435400
735,000000	46,284900
734,000000	46,111000
733,000000	45,971300
732,000000	45,826200
731,000000	45,640800
730,000000	45,413400
729,000000	45,258600
728,000000	45,111500
727,000000	44,951500
726,000000	44,790600
725,000000	44,627000
724,000000	44,399600
723,000000	44,166700
722,000000	43,949400
721,000000	43,725500
720,000000	43,553700
719,000000	43,382400
718,000000	43,130700
717,000000	42,909500
716,000000	42,631500
715,000000	42,501900
714,000000	42,316000
713,000000	42,083200
712,000000	41,844300
711,000000	41,600900
710,000000	41,404400
709,000000	41,188900
708,000000	40,952600
707,000000	40,713500
706,000000	40,514200
705,000000	40,351600
704,000000	40,105600
703,000000	39,860200
702,000000	39,649700
701,000000	39,420100
700,000000	39,213500
699,000000	39,008600
698,000000	38,807800
697,000000	38,574000
696,000000	38,362900
695,000000	38,155600
694,000000	37,948100
693,000000	37,743100
692,000000	37,549000
691,000000	37,320700
690,000000	37,110600
689,000000	36,905400
688,000000	36,683400
687,000000	36,470700
686,000000	36,281500
685,000000	36,050700
684,000000	35,841700
683,000000	35,667800
682,000000	35,469300
681,000000	35,270300
680,000000	35,067100
679,000000	34,892600
678,000000	34,719900
677,000000	34,565700
676,000000	34,380400
675,000000	34,207800
674,000000	34,019800
673,000000	33,861200
672,000000	33,718100
671,000000	33,537100
670,000000	33,379000
669,000000	33,220800
668,000000	33,110200
667,000000	32,991700
666,000000	32,878000
665,000000	32,752200
664,000000	32,619300
663,000000	32,506300
662,000000	32,398900
661,000000	32,294500
660,000000	32,175500
659,000000	32,058200
658,000000	31,953400
657,000000	31,836700
656,000000	31,712800
655,000000	31,621600
654,000000	31,539800
653,000000	31,456000
652,000000	31,365200
651,000000	31,263900
650,000000	31,167800
649,000000	31,069000
648,000000	30,978700
647,000000	30,891000
646,000000	30,807300
645,000000	30,722400
644,000000	30,629600
643,000000	30,526700
642,000000	30,427100
641,000000	30,340500
640,000000	30,276300
639,000000	30,229000
638,000000	30,187300
637,000000	30,119600
636,000000	30,039700
635,000000	29,968100
634,000000	29,912400
633,000000	29,887200
632,000000	29,847400
631,000000	29,798200
630,000000	29,758800
629,000000	29,726300
628,000000	29,725800
627,000000	29,737900
626,000000	29,733800
625,000000	29,729800
624,000000	29,766600
623,000000	29,801700
622,000000	29,842900
621,000000	29,888100
620,000000	29,933600
619,000000	29,986000
618,000000	30,075200
617,000000	30,170400
616,000000	30,248700
615,000000	30,343800
614,000000	30,441600
613,000000	30,552100
612,000000	30,684800
611,000000	30,788200
610,000000	30,913100
609,000000	31,044900
608,000000	31,146500
607,000000	31,230400
606,000000	31,350200
605,000000	31,472100
604,000000	31,562900
603,000000	31,701300
602,000000	31,839900
601,000000	31,949100
600,000000	32,038400
599,000000	32,159200
598,000000	32,282600
597,000000	32,371500
596,000000	32,473000
595,000000	32,555100
594,000000	32,631400
593,000000	32,724100
592,000000	32,799300
591,000000	32,857400
590,000000	32,927800
589,000000	33,005000
588,000000	33,057300
587,000000	33,101800
586,000000	33,149700
585,000000	33,184400
584,000000	33,213100
583,000000	33,231000
582,000000	33,255600
581,000000	33,277100
580,000000	33,276700
579,000000	33,274200
578,000000	33,251100
577,000000	33,235400
576,000000	33,219800
575,000000	33,196100
574,000000	33,163100
573,000000	33,094500
572,000000	33,022300
571,000000	32,958600
570,000000	32,874700
569,000000	32,793100
568,000000	32,687600
567,000000	32,606900
566,000000	32,499500
565,000000	32,385700
564,000000	32,254500
563,000000	32,090500
562,000000	31,929100
561,000000	31,737000
560,000000	31,556400
559,000000	31,333200
558,000000	31,123400
557,000000	30,909900
556,000000	30,684300
555,000000	30,452100
554,000000	30,186500
553,000000	29,920100
552,000000	29,630800
551,000000	29,343900
550,000000	29,054800
549,000000	28,745700
548,000000	28,424300
547,000000	28,107200
546,000000	27,779700
545,000000	27,447900
544,000000	27,083200
543,000000	26,712300
542,000000	26,343000
541,000000	25,965400
540,000000	25,600500
539,000000	25,224600
538,000000	24,830200
537,000000	24,449500
536,000000	24,054100
535,000000	23,647000
534,000000	23,276000
533,000000	22,887000
532,000000	22,483500
531,000000	22,073500
530,000000	21,694800
529,000000	21,309300
528,000000	20,925200
527,000000	20,540900
526,000000	20,160600
525,000000	19,767600
524,000000	19,409300
523,000000	19,042400
522,000000	18,674900
521,000000	18,319000
520,000000	17,976400
519,000000	17,634700
518,000000	17,313900
517,000000	16,993400
516,000000	16,684400
515,000000	16,373800
514,000000	16,091200
513,000000	15,802800
512,000000	15,530800
511,000000	15,283100
510,000000	15,015000
509,000000	14,787600
508,000000	14,554300
507,000000	14,323900
506,000000	14,129000
505,000000	13,918000
504,000000	13,728600
503,000000	13,549100
502,000000	13,351400
501,000000	13,174400
500,000000	13,024200
499,000000	12,843400
498,000000	12,703300
497,000000	12,562700
496,000000	12,435600
495,000000	12,280200
494,000000	12,154900
493,000000	12,000600
492,000000	11,905100
491,000000	11,778400
490,000000	11,683000
489,000000	11,569800
488,000000	11,455800
487,000000	11,362900
486,000000	11,248500
485,000000	11,153200
484,000000	11,049400
483,000000	10,966100
482,000000	10,855500
481,000000	10,760200
480,000000	10,644100
479,000000	10,536300
478,000000	10,411600
477,000000	10,309200
476,000000	10,216600
475,000000	10,112500
474,000000	10,014400
473,000000	9,901600
472,000000	9,793000
471,000000	9,716200
470,000000	9,630100
469,000000	9,516600
468,000000	9,434100
467,000000	9,343600
466,000000	9,250500
465,000000	9,186100
464,000000	9,083200
463,000000	8,997800
462,000000	8,916100
461,000000	8,836000
460,000000	8,749700
459,000000	8,684900
458,000000	8,600600
457,000000	8,535700
456,000000	8,451200
455,000000	8,383300
454,000000	8,300000
453,000000	8,242000
452,000000	8,146900
451,000000	8,076600
450,000000	7,998300
449,000000	7,923200
448,000000	7,858300
447,000000	7,806800
446,000000	7,716000
445,000000	7,658800
444,000000	7,605800
443,000000	7,550100
442,000000	7,454800
441,000000	7,393200
440,000000	7,342800
439,000000	7,261600
438,000000	7,220100
437,000000	7,145500
436,000000	7,093600
435,000000	7,027200
434,000000	6,965700
433,000000	6,907800
432,000000	6,839900
431,000000	6,780200
430,000000	6,733900
429,000000	6,686400
428,000000	6,636200
427,000000	6,596200
426,000000	6,543400
425,000000	6,483800
424,000000	6,447600
423,000000	6,396400
422,000000	6,353200
421,000000	6,315700
420,000000	6,259400
419,000000	6,216600
418,000000	6,178200
417,000000	6,141700
416,000000	6,100900
415,000000	6,063200
414,000000	6,022700
413,000000	5,985100
412,000000	5,945200
411,000000	5,921800
410,000000	5,898900
409,000000	5,854400
408,000000	5,821200
407,000000	5,790800
406,000000	5,775100
405,000000	5,761600
404,000000	5,719200
403,000000	5,679400
402,000000	5,668300
401,000000	5,648300
400,000000	5,618600
399,000000	5,590900
398,000000	5,579300
397,000000	5,555000
396,000000	5,534400
395,000000	5,502000
394,000000	5,489900
393,000000	5,493600
392,000000	5,473500
391,000000	5,456800
390,000000	5,439100
389,000000	5,408300
388,000000	5,403600
387,000000	5,384500
386,000000	5,358700
385,000000	5,339500
384,000000	5,347700
383,000000	5,346900
382,000000	5,333700
381,000000	5,323000
380,000000	5,322000
379,000000	5,309600
378,000000	5,280300
377,000000	5,250200
376,000000	5,151200
375,000000	4,903500
374,000000	4,724400
373,000000	4,709900
372,000000	4,737700
371,000000	4,757000
370,000000	4,930800
369,000000	4,900900
368,000000	5,026600
367,000000	5,048500
366,000000	5,019500
365,000000	5,116500
364,000000	5,141800
363,000000	5,191900
362,000000	5,054900
361,000000	5,084500
360,000000	5,258200
359,000000	5,235700
358,000000	5,109900
357,000000	5,134000
356,000000	5,238900
355,000000	5,087900
354,000000	5,118400
353,000000	5,204100
352,000000	5,116300
351,000000	5,088600
350,000000	5,093600
349,000000	5,067700
348,000000	4,998200
347,000000	5,072300
346,000000	5,083200
345,000000	5,044500
344,000000	5,095600
343,000000	5,199300
342,000000	5,314600
341,000000	5,359100
340,000000	5,291000
339,000000	5,118700
338,000000	5,122200
337,000000	5,236500
336,000000	5,208200
335,000000	5,121000
334,000000	5,156400
333,000000	5,495800
332,000000	5,684000
331,000000	5,536600
330,000000	5,288800
329,000000	5,236800
328,000000	5,531300
327,000000	5,697400
326,000000	5,675700
325,000000	5,679800
324,000000	6,017900
323,000000	6,101800
322,000000	5,700600
321,000000	5,338900
320,000000	5,404900
319,000000	5,491100
318,000000	5,736000
317,000000	5,899200
316,000000	5,501100
315,000000	5,227700
314,000000	5,233500
313,000000	5,234500
312,000000	5,201700
311,000000	5,185600
310,000000	5,196200
309,000000	5,195500
308,000000	5,228000
307,000000	5,246300
306,000000	5,220900
305,000000	5,206000
304,000000	5,221000
303,000000	5,220600
302,000000	5,227300
301,000000	5,257300
300,000000	5,291400
299,000000	5,323300
298,000000	5,276800
297,000000	5,292600
296,000000	5,281200
295,000000	5,241100
294,000000	5,250200
293,000000	5,284700
292,000000	5,263100
291,000000	5,274200
290,000000	5,252900
289,000000	5,274700
288,000000	5,257100
287,000000	5,306900
286,000000	5,319600
285,000000	5,321300
284,000000	5,298300
283,000000	5,327900
282,000000	5,291600
281,000000	5,291800
280,000000	5,332500
279,000000	5,347900
278,000000	5,331100
277,000000	5,370400
276,000000	5,355500
275,000000	5,350200
274,000000	5,349000
273,000000	5,367500
272,000000	5,356500
271,000000	5,376300
270,000000	5,361800
269,000000	5,412100
268,000000	5,437900
267,000000	5,479700
266,000000	5,449400
265,000000	5,493400
264,000000	5,491100
263,000000	5,505500
262,000000	5,566400
261,000000	5,610200
260,000000	5,634700
259,000000	5,601100
258,000000	5,592700
257,000000	5,640000
256,000000	5,665800
255,000000	5,652900
254,000000	5,657500
253,000000	5,661500
252,000000	5,710600
251,000000	5,707400
250,000000	5,700500
