PE UV       SUBTECH     SPECTRUM    ASCII       PEDS        4.00        
   -1
CICIMAUCR0234-2.Sample.ASC
24/06/19
14:18:19.00
24/06/19
14:18:19.00
Vinicio Soto Monge
C. resplendens. Sex M. Ventral 
250,000000
1
Lambda 1050
1050L1511233
PerkinElmer UV WinLab 6.3.2.0749 / 2.02.05 Lambda 900 UV/VIS/NIR, Aug  7 2015 09:38:08

0
0
3350/servo 860,8/2
0
0
UV/VIS
1
1
1
DoubleDePol,CommonBeamDepol,RBeamAtt,SBeamAtt,60mm sphere, WB InGaAs Detector
0
0
0
0
Program
Program
3350/servo 860,8/2
3350/0,2 860,8/0,2
3350/0,2 860,8/0,2
0
15.00
 
 
 
0
 
860,8
319,2
860,8
Front
100
on
S:100 R:100
0
0
0
0
 
0
 
 
 
0
 
 
0
0
0
0
0
 
 
 
 
0
0


0
0
#HDR
-1
-1
#GR
nm
%R
1.0
0.0
2500,000000
-1,000000
2251
8
62,771200
4,564100
#DATA
2500,000000	7,394900
2499,000000	7,483300
2498,000000	7,443900
2497,000000	7,559300
2496,000000	7,522300
2495,000000	7,438200
2494,000000	7,508200
2493,000000	7,452400
2492,000000	7,339800
2491,000000	7,330500
2490,000000	7,414500
2489,000000	7,327200
2488,000000	7,283000
2487,000000	7,465100
2486,000000	7,353300
2485,000000	7,297500
2484,000000	7,311700
2483,000000	7,250400
2482,000000	7,310400
2481,000000	7,265200
2480,000000	7,251300
2479,000000	7,251500
2478,000000	7,258300
2477,000000	7,297400
2476,000000	7,264600
2475,000000	7,317300
2474,000000	7,370800
2473,000000	7,259000
2472,000000	7,288400
2471,000000	7,321500
2470,000000	7,277900
2469,000000	7,268400
2468,000000	7,291300
2467,000000	7,314000
2466,000000	7,356100
2465,000000	7,345700
2464,000000	7,359200
2463,000000	7,401000
2462,000000	7,383900
2461,000000	7,412900
2460,000000	7,440600
2459,000000	7,453900
2458,000000	7,487800
2457,000000	7,505700
2456,000000	7,527000
2455,000000	7,558100
2454,000000	7,614400
2453,000000	7,642300
2452,000000	7,675500
2451,000000	7,701400
2450,000000	7,735300
2449,000000	7,754300
2448,000000	7,820900
2447,000000	7,890700
2446,000000	7,921000
2445,000000	7,937300
2444,000000	7,992400
2443,000000	8,048500
2442,000000	8,111200
2441,000000	8,109200
2440,000000	8,158700
2439,000000	8,202500
2438,000000	8,247900
2437,000000	8,297200
2436,000000	8,349500
2435,000000	8,371600
2434,000000	8,418400
2433,000000	8,463000
2432,000000	8,494500
2431,000000	8,524300
2430,000000	8,545100
2429,000000	8,584500
2428,000000	8,617600
2427,000000	8,664700
2426,000000	8,679400
2425,000000	8,718800
2424,000000	8,761900
2423,000000	8,781600
2422,000000	8,796800
2421,000000	8,844400
2420,000000	8,870400
2419,000000	8,882000
2418,000000	8,913800
2417,000000	8,936400
2416,000000	8,961700
2415,000000	8,992100
2414,000000	9,010900
2413,000000	9,034100
2412,000000	9,057600
2411,000000	9,080200
2410,000000	9,103300
2409,000000	9,120800
2408,000000	9,147400
2407,000000	9,166900
2406,000000	9,185500
2405,000000	9,201000
2404,000000	9,223200
2403,000000	9,244900
2402,000000	9,250200
2401,000000	9,276300
2400,000000	9,310000
2399,000000	9,321500
2398,000000	9,334300
2397,000000	9,356000
2396,000000	9,376800
2395,000000	9,393600
2394,000000	9,402400
2393,000000	9,407700
2392,000000	9,420000
2391,000000	9,442000
2390,000000	9,464900
2389,000000	9,484900
2388,000000	9,487600
2387,000000	9,477700
2386,000000	9,483700
2385,000000	9,496500
2384,000000	9,510500
2383,000000	9,520400
2382,000000	9,525100
2381,000000	9,516000
2380,000000	9,516700
2379,000000	9,511700
2378,000000	9,511100
2377,000000	9,498900
2376,000000	9,496700
2375,000000	9,491700
2374,000000	9,477900
2373,000000	9,468600
2372,000000	9,466600
2371,000000	9,456500
2370,000000	9,434300
2369,000000	9,415500
2368,000000	9,391200
2367,000000	9,365800
2366,000000	9,344100
2365,000000	9,325600
2364,000000	9,309600
2363,000000	9,294200
2362,000000	9,274200
2361,000000	9,246500
2360,000000	9,213800
2359,000000	9,192200
2358,000000	9,179600
2357,000000	9,143100
2356,000000	9,106200
2355,000000	9,089800
2354,000000	9,084900
2353,000000	9,080900
2352,000000	9,074900
2351,000000	9,073600
2350,000000	9,064700
2349,000000	9,076300
2348,000000	9,091800
2347,000000	9,109300
2346,000000	9,129200
2345,000000	9,149100
2344,000000	9,162100
2343,000000	9,177000
2342,000000	9,177700
2341,000000	9,189900
2340,000000	9,210800
2339,000000	9,234400
2338,000000	9,247100
2337,000000	9,244100
2336,000000	9,254400
2335,000000	9,258500
2334,000000	9,245700
2333,000000	9,229600
2332,000000	9,223200
2331,000000	9,231200
2330,000000	9,225100
2329,000000	9,190000
2328,000000	9,167300
2327,000000	9,133400
2326,000000	9,094500
2325,000000	9,066800
2324,000000	9,035700
2323,000000	9,006600
2322,000000	8,963000
2321,000000	8,907900
2320,000000	8,863500
2319,000000	8,812800
2318,000000	8,746800
2317,000000	8,695900
2316,000000	8,647600
2315,000000	8,597400
2314,000000	8,535000
2313,000000	8,476500
2312,000000	8,440100
2311,000000	8,377800
2310,000000	8,307800
2309,000000	8,281600
2308,000000	8,253300
2307,000000	8,222300
2306,000000	8,207300
2305,000000	8,204000
2304,000000	8,192300
2303,000000	8,213700
2302,000000	8,231900
2301,000000	8,267000
2300,000000	8,286800
2299,000000	8,319400
2298,000000	8,374700
2297,000000	8,401000
2296,000000	8,452900
2295,000000	8,490100
2294,000000	8,538500
2293,000000	8,574200
2292,000000	8,622800
2291,000000	8,664800
2290,000000	8,672400
2289,000000	8,692800
2288,000000	8,702300
2287,000000	8,711700
2286,000000	8,706600
2285,000000	8,699900
2284,000000	8,709600
2283,000000	8,691900
2282,000000	8,686800
2281,000000	8,651900
2280,000000	8,620500
2279,000000	8,600200
2278,000000	8,588200
2277,000000	8,554000
2276,000000	8,534400
2275,000000	8,515800
2274,000000	8,494100
2273,000000	8,481500
2272,000000	8,470400
2271,000000	8,472100
2270,000000	8,483200
2269,000000	8,508000
2268,000000	8,523600
2267,000000	8,545600
2266,000000	8,595800
2265,000000	8,654800
2264,000000	8,740900
2263,000000	8,814400
2262,000000	8,919400
2261,000000	8,996700
2260,000000	9,105400
2259,000000	9,231700
2258,000000	9,349400
2257,000000	9,516500
2256,000000	9,672300
2255,000000	9,806900
2254,000000	9,934400
2253,000000	10,072400
2252,000000	10,221900
2251,000000	10,378700
2250,000000	10,506600
2249,000000	10,631900
2248,000000	10,755300
2247,000000	10,866400
2246,000000	10,969800
2245,000000	11,084000
2244,000000	11,161100
2243,000000	11,257300
2242,000000	11,360500
2241,000000	11,420700
2240,000000	11,508900
2239,000000	11,555700
2238,000000	11,620800
2237,000000	11,680600
2236,000000	11,734100
2235,000000	11,775300
2234,000000	11,819600
2233,000000	11,854700
2232,000000	11,860400
2231,000000	11,905100
2230,000000	11,900000
2229,000000	11,918500
2228,000000	11,923400
2227,000000	11,926100
2226,000000	11,943400
2225,000000	11,924900
2224,000000	11,924700
2223,000000	11,891800
2222,000000	11,876000
2221,000000	11,874900
2220,000000	11,819300
2219,000000	11,819300
2218,000000	11,808500
2217,000000	11,760400
2216,000000	11,749800
2215,000000	11,716700
2214,000000	11,688600
2213,000000	11,662800
2212,000000	11,643700
2211,000000	11,598900
2210,000000	11,581500
2209,000000	11,565600
2208,000000	11,542600
2207,000000	11,535300
2206,000000	11,507800
2205,000000	11,525200
2204,000000	11,493500
2203,000000	11,473700
2202,000000	11,459600
2201,000000	11,458100
2200,000000	11,427500
2199,000000	11,426800
2198,000000	11,407300
2197,000000	11,392900
2196,000000	11,401700
2195,000000	11,362000
2194,000000	11,374500
2193,000000	11,382700
2192,000000	11,354400
2191,000000	11,356200
2190,000000	11,354300
2189,000000	11,341000
2188,000000	11,335200
2187,000000	11,317600
2186,000000	11,312800
2185,000000	11,298900
2184,000000	11,292700
2183,000000	11,270100
2182,000000	11,284100
2181,000000	11,274300
2180,000000	11,264600
2179,000000	11,228400
2178,000000	11,238900
2177,000000	11,246200
2176,000000	11,229000
2175,000000	11,229800
2174,000000	11,211300
2173,000000	11,234600
2172,000000	11,242500
2171,000000	11,244100
2170,000000	11,240300
2169,000000	11,251400
2168,000000	11,244800
2167,000000	11,276600
2166,000000	11,268800
2165,000000	11,274300
2164,000000	11,298200
2163,000000	11,315200
2162,000000	11,341900
2161,000000	11,365600
2160,000000	11,363400
2159,000000	11,394300
2158,000000	11,416900
2157,000000	11,453400
2156,000000	11,487100
2155,000000	11,511100
2154,000000	11,523500
2153,000000	11,562100
2152,000000	11,607600
2151,000000	11,636400
2150,000000	11,659200
2149,000000	11,706500
2148,000000	11,726500
2147,000000	11,770400
2146,000000	11,796500
2145,000000	11,831900
2144,000000	11,857200
2143,000000	11,893700
2142,000000	11,932400
2141,000000	11,957500
2140,000000	11,963800
2139,000000	11,998800
2138,000000	12,041100
2137,000000	12,064800
2136,000000	12,097200
2135,000000	12,106700
2134,000000	12,119600
2133,000000	12,151700
2132,000000	12,171100
2131,000000	12,189900
2130,000000	12,194000
2129,000000	12,195400
2128,000000	12,214000
2127,000000	12,223700
2126,000000	12,220400
2125,000000	12,228900
2124,000000	12,244900
2123,000000	12,244500
2122,000000	12,232000
2121,000000	12,222600
2120,000000	12,213200
2119,000000	12,219900
2118,000000	12,203500
2117,000000	12,184700
2116,000000	12,179000
2115,000000	12,171500
2114,000000	12,155100
2113,000000	12,135400
2112,000000	12,125000
2111,000000	12,117400
2110,000000	12,093100
2109,000000	12,066000
2108,000000	12,064100
2107,000000	12,050500
2106,000000	12,030800
2105,000000	12,014900
2104,000000	11,992300
2103,000000	11,975000
2102,000000	11,952600
2101,000000	11,929900
2100,000000	11,914100
2099,000000	11,908200
2098,000000	11,885800
2097,000000	11,854800
2096,000000	11,843300
2095,000000	11,831700
2094,000000	11,815700
2093,000000	11,809100
2092,000000	11,799300
2091,000000	11,782400
2090,000000	11,764200
2089,000000	11,750900
2088,000000	11,747000
2087,000000	11,733800
2086,000000	11,715600
2085,000000	11,709800
2084,000000	11,687000
2083,000000	11,656200
2082,000000	11,636600
2081,000000	11,612100
2080,000000	11,591600
2079,000000	11,567100
2078,000000	11,535300
2077,000000	11,503200
2076,000000	11,464100
2075,000000	11,436800
2074,000000	11,407900
2073,000000	11,377200
2072,000000	11,349900
2071,000000	11,302900
2070,000000	11,252200
2069,000000	11,217900
2068,000000	11,176100
2067,000000	11,122200
2066,000000	11,079000
2065,000000	11,045100
2064,000000	11,003500
2063,000000	10,961900
2062,000000	10,923400
2061,000000	10,882700
2060,000000	10,846100
2059,000000	10,839000
2058,000000	10,827200
2057,000000	10,804800
2056,000000	10,795600
2055,000000	10,793400
2054,000000	10,788100
2053,000000	10,790300
2052,000000	10,807800
2051,000000	10,829900
2050,000000	10,866200
2049,000000	10,895500
2048,000000	10,945400
2047,000000	11,009700
2046,000000	11,046300
2045,000000	11,108200
2044,000000	11,173600
2043,000000	11,230300
2042,000000	11,276100
2041,000000	11,313300
2040,000000	11,376500
2039,000000	11,438500
2038,000000	11,494900
2037,000000	11,539600
2036,000000	11,586800
2035,000000	11,637200
2034,000000	11,673200
2033,000000	11,703800
2032,000000	11,735200
2031,000000	11,784000
2030,000000	11,801100
2029,000000	11,817600
2028,000000	11,860800
2027,000000	11,876000
2026,000000	11,893400
2025,000000	11,899000
2024,000000	11,920300
2023,000000	11,938400
2022,000000	11,951700
2021,000000	11,938200
2020,000000	11,937300
2019,000000	11,950200
2018,000000	11,962800
2017,000000	11,968300
2016,000000	11,955200
2015,000000	11,937300
2014,000000	11,934900
2013,000000	11,924200
2012,000000	11,920500
2011,000000	11,935000
2010,000000	11,911500
2009,000000	11,880800
2008,000000	11,859600
2007,000000	11,841100
2006,000000	11,814700
2005,000000	11,797700
2004,000000	11,753300
2003,000000	11,721800
2002,000000	11,693100
2001,000000	11,661800
2000,000000	11,628800
1999,000000	11,587800
1998,000000	11,556300
1997,000000	11,498300
1996,000000	11,448800
1995,000000	11,400100
1994,000000	11,335600
1993,000000	11,313100
1992,000000	11,257100
1991,000000	11,205300
1990,000000	11,171100
1989,000000	11,117600
1988,000000	11,069600
1987,000000	10,999400
1986,000000	10,949500
1985,000000	10,909100
1984,000000	10,838700
1983,000000	10,781300
1982,000000	10,709600
1981,000000	10,677600
1980,000000	10,600600
1979,000000	10,549800
1978,000000	10,500300
1977,000000	10,445200
1976,000000	10,392800
1975,000000	10,344900
1974,000000	10,287700
1973,000000	10,223200
1972,000000	10,185800
1971,000000	10,153600
1970,000000	10,093100
1969,000000	10,040200
1968,000000	9,988400
1967,000000	9,933300
1966,000000	9,886400
1965,000000	9,840100
1964,000000	9,805200
1963,000000	9,765900
1962,000000	9,741000
1961,000000	9,661400
1960,000000	9,617200
1959,000000	9,576600
1958,000000	9,537300
1957,000000	9,510700
1956,000000	9,451100
1955,000000	9,421100
1954,000000	9,382300
1953,000000	9,327200
1952,000000	9,296600
1951,000000	9,268500
1950,000000	9,215200
1949,000000	9,196900
1948,000000	9,158500
1947,000000	9,120100
1946,000000	9,101400
1945,000000	9,092100
1944,000000	9,048300
1943,000000	9,025100
1942,000000	9,007700
1941,000000	8,985400
1940,000000	8,987800
1939,000000	8,993400
1938,000000	8,966200
1937,000000	8,967600
1936,000000	8,976400
1935,000000	8,962300
1934,000000	8,986900
1933,000000	8,986000
1932,000000	9,000700
1931,000000	9,037400
1930,000000	9,080700
1929,000000	9,091100
1928,000000	9,141300
1927,000000	9,174900
1926,000000	9,224900
1925,000000	9,257900
1924,000000	9,317800
1923,000000	9,382600
1922,000000	9,447900
1921,000000	9,524000
1920,000000	9,626500
1919,000000	9,707700
1918,000000	9,778100
1917,000000	9,887400
1916,000000	9,959400
1915,000000	10,044100
1914,000000	10,166200
1913,000000	10,308900
1912,000000	10,446200
1911,000000	10,578500
1910,000000	10,706600
1909,000000	10,818900
1908,000000	10,963700
1907,000000	11,089100
1906,000000	11,253400
1905,000000	11,482300
1904,000000	11,679300
1903,000000	11,856400
1902,000000	12,057300
1901,000000	12,270800
1900,000000	12,499700
1899,000000	12,728100
1898,000000	13,009100
1897,000000	13,269900
1896,000000	13,521800
1895,000000	13,761500
1894,000000	14,009300
1893,000000	14,276200
1892,000000	14,575600
1891,000000	14,952800
1890,000000	15,318000
1889,000000	15,679800
1888,000000	16,030400
1887,000000	16,409200
1886,000000	16,810000
1885,000000	17,224900
1884,000000	17,645800
1883,000000	18,125200
1882,000000	18,658900
1881,000000	19,094900
1880,000000	19,565200
1879,000000	19,978400
1878,000000	20,409300
1877,000000	20,879600
1876,000000	21,294400
1875,000000	21,682700
1874,000000	22,095600
1873,000000	22,492500
1872,000000	22,897100
1871,000000	23,242500
1870,000000	23,625400
1869,000000	23,963600
1868,000000	24,286600
1867,000000	24,546400
1866,000000	24,761600
1865,000000	24,936400
1864,000000	25,133000
1863,000000	25,276200
1862,000000	25,399100
1861,000000	25,554000
1860,000000	25,727800
1859,000000	25,875600
1858,000000	26,007900
1857,000000	26,111000
1856,000000	26,207400
1855,000000	26,262000
1854,000000	26,340100
1853,000000	26,391600
1852,000000	26,413500
1851,000000	26,432400
1850,000000	26,466400
1849,000000	26,472900
1848,000000	26,499500
1847,000000	26,547300
1846,000000	26,555300
1845,000000	26,514100
1844,000000	26,489800
1843,000000	26,444400
1842,000000	26,428900
1841,000000	26,478200
1840,000000	26,483900
1839,000000	26,473100
1838,000000	26,434400
1837,000000	26,388700
1836,000000	26,375900
1835,000000	26,381100
1834,000000	26,333500
1833,000000	26,273100
1832,000000	26,196500
1831,000000	26,145000
1830,000000	26,119100
1829,000000	26,070800
1828,000000	26,022400
1827,000000	25,952400
1826,000000	25,900100
1825,000000	25,869300
1824,000000	25,812400
1823,000000	25,757300
1822,000000	25,716200
1821,000000	25,721900
1820,000000	25,726200
1819,000000	25,705200
1818,000000	25,673400
1817,000000	25,624400
1816,000000	25,599500
1815,000000	25,587700
1814,000000	25,563600
1813,000000	25,555600
1812,000000	25,543800
1811,000000	25,511200
1810,000000	25,473600
1809,000000	25,444600
1808,000000	25,409100
1807,000000	25,363900
1806,000000	25,331300
1805,000000	25,286100
1804,000000	25,239800
1803,000000	25,195700
1802,000000	25,157600
1801,000000	25,111300
1800,000000	25,065700
1799,000000	25,025000
1798,000000	24,978100
1797,000000	24,929000
1796,000000	24,887300
1795,000000	24,846400
1794,000000	24,805300
1793,000000	24,763900
1792,000000	24,707800
1791,000000	24,661700
1790,000000	24,624200
1789,000000	24,585300
1788,000000	24,538700
1787,000000	24,495300
1786,000000	24,449900
1785,000000	24,403600
1784,000000	24,356800
1783,000000	24,299800
1782,000000	24,249100
1781,000000	24,190000
1780,000000	24,132600
1779,000000	24,065400
1778,000000	24,003300
1777,000000	23,936200
1776,000000	23,855900
1775,000000	23,780600
1774,000000	23,702900
1773,000000	23,616900
1772,000000	23,538500
1771,000000	23,451100
1770,000000	23,351600
1769,000000	23,255000
1768,000000	23,169700
1767,000000	23,078700
1766,000000	22,995200
1765,000000	22,926000
1764,000000	22,878700
1763,000000	22,835200
1762,000000	22,814200
1761,000000	22,828600
1760,000000	22,857700
1759,000000	22,887300
1758,000000	22,931300
1757,000000	22,992300
1756,000000	23,044800
1755,000000	23,099000
1754,000000	23,135700
1753,000000	23,163600
1752,000000	23,202400
1751,000000	23,200300
1750,000000	23,196700
1749,000000	23,202900
1748,000000	23,168700
1747,000000	23,125600
1746,000000	23,079700
1745,000000	22,996400
1744,000000	22,929500
1743,000000	22,821300
1742,000000	22,718400
1741,000000	22,579800
1740,000000	22,411900
1739,000000	22,253600
1738,000000	22,095400
1737,000000	21,942800
1736,000000	21,812600
1735,000000	21,696000
1734,000000	21,589400
1733,000000	21,547000
1732,000000	21,531200
1731,000000	21,529100
1730,000000	21,567300
1729,000000	21,611000
1728,000000	21,667000
1727,000000	21,744100
1726,000000	21,822400
1725,000000	21,888700
1724,000000	21,940800
1723,000000	21,991100
1722,000000	22,041100
1721,000000	22,082600
1720,000000	22,137600
1719,000000	22,199300
1718,000000	22,266900
1717,000000	22,326500
1716,000000	22,414900
1715,000000	22,514800
1714,000000	22,606700
1713,000000	22,691200
1712,000000	22,777200
1711,000000	22,853300
1710,000000	22,916900
1709,000000	22,963100
1708,000000	22,995400
1707,000000	23,012100
1706,000000	22,974300
1705,000000	22,967700
1704,000000	22,929000
1703,000000	22,887000
1702,000000	22,827200
1701,000000	22,754700
1700,000000	22,667800
1699,000000	22,556900
1698,000000	22,454000
1697,000000	22,347000
1696,000000	22,267500
1695,000000	22,226500
1694,000000	22,208600
1693,000000	22,240300
1692,000000	22,296300
1691,000000	22,392000
1690,000000	22,500600
1689,000000	22,622200
1688,000000	22,730500
1687,000000	22,823400
1686,000000	22,910700
1685,000000	22,983800
1684,000000	23,082200
1683,000000	23,230000
1682,000000	23,420400
1681,000000	23,686400
1680,000000	24,031200
1679,000000	24,422000
1678,000000	24,829100
1677,000000	25,263500
1676,000000	25,669000
1675,000000	26,045200
1674,000000	26,377500
1673,000000	26,716100
1672,000000	26,942800
1671,000000	27,192500
1670,000000	27,398600
1669,000000	27,594400
1668,000000	27,769300
1667,000000	27,930800
1666,000000	28,072100
1665,000000	28,168000
1664,000000	28,259300
1663,000000	28,348400
1662,000000	28,444400
1661,000000	28,511900
1660,000000	28,585700
1659,000000	28,638400
1658,000000	28,682000
1657,000000	28,748200
1656,000000	28,752600
1655,000000	28,775000
1654,000000	28,781900
1653,000000	28,770300
1652,000000	28,783100
1651,000000	28,762500
1650,000000	28,754200
1649,000000	28,739900
1648,000000	28,708800
1647,000000	28,657300
1646,000000	28,619700
1645,000000	28,594000
1644,000000	28,545200
1643,000000	28,490200
1642,000000	28,434100
1641,000000	28,402300
1640,000000	28,360100
1639,000000	28,293400
1638,000000	28,242400
1637,000000	28,192200
1636,000000	28,147300
1635,000000	28,087700
1634,000000	28,017800
1633,000000	27,955000
1632,000000	27,878400
1631,000000	27,817600
1630,000000	27,761800
1629,000000	27,679400
1628,000000	27,601700
1627,000000	27,529100
1626,000000	27,466000
1625,000000	27,388900
1624,000000	27,290000
1623,000000	27,225800
1622,000000	27,135400
1621,000000	27,046800
1620,000000	26,990500
1619,000000	26,926000
1618,000000	26,862300
1617,000000	26,781800
1616,000000	26,728200
1615,000000	26,651000
1614,000000	26,576900
1613,000000	26,509600
1612,000000	26,443900
1611,000000	26,364800
1610,000000	26,298400
1609,000000	26,223400
1608,000000	26,151400
1607,000000	26,068700
1606,000000	26,000400
1605,000000	25,946400
1604,000000	25,871100
1603,000000	25,772400
1602,000000	25,693000
1601,000000	25,633800
1600,000000	25,554000
1599,000000	25,497100
1598,000000	25,408600
1597,000000	25,332300
1596,000000	25,269800
1595,000000	25,197800
1594,000000	25,132300
1593,000000	25,064000
1592,000000	24,986400
1591,000000	24,907000
1590,000000	24,868500
1589,000000	24,807400
1588,000000	24,741900
1587,000000	24,684000
1586,000000	24,625800
1585,000000	24,574700
1584,000000	24,537100
1583,000000	24,471500
1582,000000	24,423300
1581,000000	24,367900
1580,000000	24,317100
1579,000000	24,286600
1578,000000	24,255900
1577,000000	24,225200
1576,000000	24,186600
1575,000000	24,164400
1574,000000	24,130600
1573,000000	24,112900
1572,000000	24,101700
1571,000000	24,090800
1570,000000	24,083300
1569,000000	24,065600
1568,000000	24,058300
1567,000000	24,064600
1566,000000	24,059600
1565,000000	24,056000
1564,000000	24,056600
1563,000000	24,045500
1562,000000	24,036000
1561,000000	24,040400
1560,000000	24,015400
1559,000000	23,993500
1558,000000	23,960200
1557,000000	23,946000
1556,000000	23,911200
1555,000000	23,873200
1554,000000	23,851800
1553,000000	23,824800
1552,000000	23,777600
1551,000000	23,742300
1550,000000	23,694500
1549,000000	23,654100
1548,000000	23,592100
1547,000000	23,541700
1546,000000	23,506000
1545,000000	23,465700
1544,000000	23,426900
1543,000000	23,395200
1542,000000	23,362300
1541,000000	23,330300
1540,000000	23,308300
1539,000000	23,272200
1538,000000	23,242400
1537,000000	23,221200
1536,000000	23,194600
1535,000000	23,162500
1534,000000	23,126800
1533,000000	23,086200
1532,000000	23,048700
1531,000000	23,012400
1530,000000	22,956500
1529,000000	22,914300
1528,000000	22,880500
1527,000000	22,837200
1526,000000	22,774500
1525,000000	22,718600
1524,000000	22,679300
1523,000000	22,627200
1522,000000	22,566000
1521,000000	22,510000
1520,000000	22,463000
1519,000000	22,407800
1518,000000	22,349600
1517,000000	22,295900
1516,000000	22,235600
1515,000000	22,178800
1514,000000	22,127000
1513,000000	22,059700
1512,000000	21,997100
1511,000000	21,951500
1510,000000	21,883700
1509,000000	21,809200
1508,000000	21,742200
1507,000000	21,675500
1506,000000	21,613900
1505,000000	21,552400
1504,000000	21,491700
1503,000000	21,430900
1502,000000	21,364000
1501,000000	21,301400
1500,000000	21,248500
1499,000000	21,188900
1498,000000	21,138500
1497,000000	21,092900
1496,000000	21,041600
1495,000000	20,989900
1494,000000	20,943700
1493,000000	20,900400
1492,000000	20,864800
1491,000000	20,822600
1490,000000	20,787300
1489,000000	20,751800
1488,000000	20,706700
1487,000000	20,663800
1486,000000	20,644700
1485,000000	20,633500
1484,000000	20,601600
1483,000000	20,564200
1482,000000	20,539100
1481,000000	20,507600
1480,000000	20,478600
1479,000000	20,466800
1478,000000	20,458900
1477,000000	20,445100
1476,000000	20,423000
1475,000000	20,416900
1474,000000	20,431900
1473,000000	20,422100
1472,000000	20,430300
1471,000000	20,440200
1470,000000	20,441500
1469,000000	20,443800
1468,000000	20,439000
1467,000000	20,460900
1466,000000	20,474500
1465,000000	20,486200
1464,000000	20,511700
1463,000000	20,514900
1462,000000	20,536400
1461,000000	20,577500
1460,000000	20,612000
1459,000000	20,657700
1458,000000	20,706700
1457,000000	20,750400
1456,000000	20,811500
1455,000000	20,863400
1454,000000	20,926400
1453,000000	20,981300
1452,000000	21,064200
1451,000000	21,133700
1450,000000	21,208700
1449,000000	21,275000
1448,000000	21,325800
1447,000000	21,407000
1446,000000	21,503900
1445,000000	21,593500
1444,000000	21,697100
1443,000000	21,762400
1442,000000	21,838000
1441,000000	21,953200
1440,000000	22,049900
1439,000000	22,160700
1438,000000	22,269800
1437,000000	22,395700
1436,000000	22,478500
1435,000000	22,578700
1434,000000	22,708800
1433,000000	22,823700
1432,000000	22,972900
1431,000000	23,101200
1430,000000	23,225000
1429,000000	23,383000
1428,000000	23,545400
1427,000000	23,730500
1426,000000	23,906300
1425,000000	24,080000
1424,000000	24,276900
1423,000000	24,508200
1422,000000	24,711600
1421,000000	24,919200
1420,000000	25,147800
1419,000000	25,416800
1418,000000	25,693600
1417,000000	25,948800
1416,000000	26,180400
1415,000000	26,458300
1414,000000	26,773500
1413,000000	27,088700
1412,000000	27,391500
1411,000000	27,650000
1410,000000	28,008200
1409,000000	28,412300
1408,000000	28,821700
1407,000000	29,240600
1406,000000	29,616200
1405,000000	30,039400
1404,000000	30,495300
1403,000000	30,950500
1402,000000	31,324300
1401,000000	31,721700
1400,000000	32,270000
1399,000000	32,734800
1398,000000	33,083700
1397,000000	33,396100
1396,000000	33,774200
1395,000000	34,287500
1394,000000	34,742800
1393,000000	35,064300
1392,000000	35,464000
1391,000000	35,888300
1390,000000	36,325200
1389,000000	36,688300
1388,000000	37,224100
1387,000000	37,786000
1386,000000	38,306200
1385,000000	38,825000
1384,000000	39,390900
1383,000000	39,973600
1382,000000	40,534200
1381,000000	41,083300
1380,000000	41,509400
1379,000000	41,797200
1378,000000	42,105500
1377,000000	42,307300
1376,000000	42,555200
1375,000000	42,773900
1374,000000	42,990800
1373,000000	43,264100
1372,000000	43,544800
1371,000000	43,887600
1370,000000	44,225700
1369,000000	44,503600
1368,000000	44,804900
1367,000000	45,103200
1366,000000	45,335400
1365,000000	45,501800
1364,000000	45,725900
1363,000000	45,904000
1362,000000	46,100400
1361,000000	46,264400
1360,000000	46,437800
1359,000000	46,480000
1358,000000	46,620700
1357,000000	46,738300
1356,000000	46,877800
1355,000000	47,110900
1354,000000	47,407200
1353,000000	47,746200
1352,000000	48,070100
1351,000000	48,431700
1350,000000	48,844100
1349,000000	49,202300
1348,000000	49,548100
1347,000000	49,899300
1346,000000	50,231700
1345,000000	50,531500
1344,000000	50,838500
1343,000000	51,171000
1342,000000	51,436900
1341,000000	51,734700
1340,000000	52,022000
1339,000000	52,269000
1338,000000	52,542400
1337,000000	52,814000
1336,000000	53,071100
1335,000000	53,344500
1334,000000	53,569900
1333,000000	53,834700
1332,000000	54,073500
1331,000000	54,301800
1330,000000	54,527500
1329,000000	54,764800
1328,000000	54,972000
1327,000000	55,179700
1326,000000	55,371500
1325,000000	55,553100
1324,000000	55,731300
1323,000000	55,894200
1322,000000	56,075500
1321,000000	56,250700
1320,000000	56,373000
1319,000000	56,536400
1318,000000	56,689100
1317,000000	56,813600
1316,000000	56,960500
1315,000000	57,093900
1314,000000	57,212100
1313,000000	57,336900
1312,000000	57,445700
1311,000000	57,560100
1310,000000	57,660000
1309,000000	57,744100
1308,000000	57,837400
1307,000000	57,915700
1306,000000	57,990800
1305,000000	58,053500
1304,000000	58,125900
1303,000000	58,188100
1302,000000	58,236000
1301,000000	58,279200
1300,000000	58,324900
1299,000000	58,354500
1298,000000	58,393700
1297,000000	58,416300
1296,000000	58,452200
1295,000000	58,476800
1294,000000	58,494200
1293,000000	58,508400
1292,000000	58,516600
1291,000000	58,504900
1290,000000	58,509700
1289,000000	58,497900
1288,000000	58,488800
1287,000000	58,462400
1286,000000	58,445700
1285,000000	58,411800
1284,000000	58,385800
1283,000000	58,352600
1282,000000	58,313000
1281,000000	58,269000
1280,000000	58,230000
1279,000000	58,190800
1278,000000	58,140100
1277,000000	58,106900
1276,000000	58,076100
1275,000000	58,046500
1274,000000	58,031800
1273,000000	57,994800
1272,000000	57,971400
1271,000000	57,943400
1270,000000	57,929200
1269,000000	57,915800
1268,000000	57,897700
1267,000000	57,869900
1266,000000	57,846000
1265,000000	57,824500
1264,000000	57,792100
1263,000000	57,756600
1262,000000	57,711300
1261,000000	57,679600
1260,000000	57,652300
1259,000000	57,626700
1258,000000	57,578800
1257,000000	57,532800
1256,000000	57,492400
1255,000000	57,446200
1254,000000	57,386400
1253,000000	57,328200
1252,000000	57,273700
1251,000000	57,196700
1250,000000	57,126500
1249,000000	57,064000
1248,000000	56,975600
1247,000000	56,893900
1246,000000	56,811700
1245,000000	56,711400
1244,000000	56,618400
1243,000000	56,525500
1242,000000	56,416800
1241,000000	56,310100
1240,000000	56,197200
1239,000000	56,093300
1238,000000	55,986000
1237,000000	55,878800
1236,000000	55,771200
1235,000000	55,661000
1234,000000	55,549000
1233,000000	55,426000
1232,000000	55,294800
1231,000000	55,163800
1230,000000	55,029500
1229,000000	54,894000
1228,000000	54,762100
1227,000000	54,621700
1226,000000	54,468900
1225,000000	54,322100
1224,000000	54,176000
1223,000000	54,020900
1222,000000	53,862600
1221,000000	53,715900
1220,000000	53,563200
1219,000000	53,401000
1218,000000	53,241500
1217,000000	53,101900
1216,000000	52,967700
1215,000000	52,821700
1214,000000	52,687900
1213,000000	52,562000
1212,000000	52,438000
1211,000000	52,301300
1210,000000	52,160800
1209,000000	52,054700
1208,000000	51,935800
1207,000000	51,812700
1206,000000	51,707200
1205,000000	51,615800
1204,000000	51,538900
1203,000000	51,472300
1202,000000	51,414400
1201,000000	51,355600
1200,000000	51,294200
1199,000000	51,217200
1198,000000	51,139200
1197,000000	51,048200
1196,000000	50,920400
1195,000000	50,766600
1194,000000	50,584900
1193,000000	50,367000
1192,000000	50,112700
1191,000000	49,839500
1190,000000	49,532300
1189,000000	49,236800
1188,000000	48,975400
1187,000000	48,772400
1186,000000	48,626800
1185,000000	48,580300
1184,000000	48,628900
1183,000000	48,745100
1182,000000	48,970000
1181,000000	49,254100
1180,000000	49,603700
1179,000000	49,964500
1178,000000	50,297700
1177,000000	50,637200
1176,000000	50,925800
1175,000000	51,163700
1174,000000	51,424600
1173,000000	51,654700
1172,000000	51,883600
1171,000000	52,123700
1170,000000	52,353000
1169,000000	52,604700
1168,000000	52,857800
1167,000000	53,119600
1166,000000	53,380000
1165,000000	53,656400
1164,000000	53,915400
1163,000000	54,193500
1162,000000	54,492700
1161,000000	54,791800
1160,000000	55,076900
1159,000000	55,353900
1158,000000	55,625500
1157,000000	55,889800
1156,000000	56,148000
1155,000000	56,364000
1154,000000	56,568800
1153,000000	56,758400
1152,000000	56,900400
1151,000000	57,021700
1150,000000	57,122900
1149,000000	57,225100
1148,000000	57,308000
1147,000000	57,419500
1146,000000	57,541400
1145,000000	57,711500
1144,000000	57,914000
1143,000000	58,119800
1142,000000	58,356600
1141,000000	58,600500
1140,000000	58,892800
1139,000000	59,182800
1138,000000	59,475800
1137,000000	59,769500
1136,000000	60,098600
1135,000000	60,438300
1134,000000	60,796500
1133,000000	61,110200
1132,000000	61,339400
1131,000000	61,589100
1130,000000	61,797100
1129,000000	62,027700
1128,000000	62,192100
1127,000000	62,329600
1126,000000	62,426000
1125,000000	62,527500
1124,000000	62,585900
1123,000000	62,638500
1122,000000	62,686700
1121,000000	62,738000
1120,000000	62,736200
1119,000000	62,755400
1118,000000	62,760900
1117,000000	62,771200
1116,000000	62,733100
1115,000000	62,728600
1114,000000	62,692300
1113,000000	62,687600
1112,000000	62,662600
1111,000000	62,624200
1110,000000	62,587900
1109,000000	62,586400
1108,000000	62,556700
1107,000000	62,525700
1106,000000	62,493500
1105,000000	62,481500
1104,000000	62,442700
1103,000000	62,402000
1102,000000	62,377700
1101,000000	62,348800
1100,000000	62,324000
1099,000000	62,288000
1098,000000	62,241100
1097,000000	62,194100
1096,000000	62,163400
1095,000000	62,126400
1094,000000	62,073000
1093,000000	62,044700
1092,000000	61,958400
1091,000000	61,906700
1090,000000	61,882600
1089,000000	61,805400
1088,000000	61,753600
1087,000000	61,683600
1086,000000	61,641500
1085,000000	61,581100
1084,000000	61,519400
1083,000000	61,443600
1082,000000	61,379600
1081,000000	61,299500
1080,000000	61,237800
1079,000000	61,177700
1078,000000	61,087600
1077,000000	61,050500
1076,000000	60,966000
1075,000000	60,899200
1074,000000	60,834800
1073,000000	60,771500
1072,000000	60,716000
1071,000000	60,621300
1070,000000	60,552100
1069,000000	60,487900
1068,000000	60,407900
1067,000000	60,328300
1066,000000	60,264200
1065,000000	60,177100
1064,000000	60,107700
1063,000000	60,031300
1062,000000	59,969200
1061,000000	59,877900
1060,000000	59,801900
1059,000000	59,739100
1058,000000	59,658500
1057,000000	59,560200
1056,000000	59,476500
1055,000000	59,420100
1054,000000	59,314400
1053,000000	59,237400
1052,000000	59,128700
1051,000000	59,076200
1050,000000	59,013900
1049,000000	58,941500
1048,000000	58,835600
1047,000000	58,783100
1046,000000	58,723000
1045,000000	58,642400
1044,000000	58,580500
1043,000000	58,501600
1042,000000	58,444800
1041,000000	58,368400
1040,000000	58,313600
1039,000000	58,244800
1038,000000	58,147200
1037,000000	58,097400
1036,000000	58,025300
1035,000000	57,953600
1034,000000	57,881500
1033,000000	57,821100
1032,000000	57,746100
1031,000000	57,662400
1030,000000	57,583800
1029,000000	57,513700
1028,000000	57,438700
1027,000000	57,345500
1026,000000	57,284400
1025,000000	57,206100
1024,000000	57,116300
1023,000000	57,034000
1022,000000	56,970500
1021,000000	56,906200
1020,000000	56,813600
1019,000000	56,742800
1018,000000	56,662400
1017,000000	56,588900
1016,000000	56,522400
1015,000000	56,457300
1014,000000	56,408400
1013,000000	56,358000
1012,000000	56,316100
1011,000000	56,251300
1010,000000	56,219600
1009,000000	56,184100
1008,000000	56,148600
1007,000000	56,111400
1006,000000	56,081300
1005,000000	56,052700
1004,000000	56,027200
1003,000000	55,997500
1002,000000	55,971700
1001,000000	55,942500
1000,000000	55,920600
999,000000	55,900200
998,000000	55,887600
997,000000	55,852800
996,000000	55,809400
995,000000	55,798700
994,000000	55,785700
993,000000	55,757500
992,000000	55,733600
991,000000	55,721100
990,000000	55,705500
989,000000	55,696300
988,000000	55,664300
987,000000	55,658100
986,000000	55,630100
985,000000	55,629900
984,000000	55,615300
983,000000	55,594000
982,000000	55,596100
981,000000	55,605800
980,000000	55,592500
979,000000	55,592600
978,000000	55,568600
977,000000	55,534400
976,000000	55,526500
975,000000	55,533500
974,000000	55,543200
973,000000	55,525600
972,000000	55,500100
971,000000	55,508400
970,000000	55,522800
969,000000	55,508000
968,000000	55,492800
967,000000	55,496100
966,000000	55,507400
965,000000	55,530200
964,000000	55,527600
963,000000	55,517300
962,000000	55,518700
961,000000	55,535200
960,000000	55,554600
959,000000	55,554500
958,000000	55,546600
957,000000	55,544600
956,000000	55,557900
955,000000	55,576400
954,000000	55,566200
953,000000	55,560900
952,000000	55,552800
951,000000	55,534500
950,000000	55,547900
949,000000	55,557500
948,000000	55,541200
947,000000	55,522000
946,000000	55,502800
945,000000	55,506700
944,000000	55,511700
943,000000	55,487700
942,000000	55,462200
941,000000	55,452800
940,000000	55,430100
939,000000	55,419500
938,000000	55,400300
937,000000	55,367500
936,000000	55,345300
935,000000	55,321200
934,000000	55,315800
933,000000	55,291100
932,000000	55,262300
931,000000	55,241100
930,000000	55,202800
929,000000	55,186200
928,000000	55,152000
927,000000	55,094900
926,000000	55,050900
925,000000	55,039900
924,000000	55,013500
923,000000	54,937400
922,000000	54,872100
921,000000	54,831600
920,000000	54,782900
919,000000	54,727700
918,000000	54,714200
917,000000	54,673300
916,000000	54,619500
915,000000	54,535800
914,000000	54,455600
913,000000	54,448800
912,000000	54,417200
911,000000	54,354900
910,000000	54,278000
909,000000	54,218900
908,000000	54,177200
907,000000	54,138000
906,000000	54,100900
905,000000	54,070600
904,000000	54,044200
903,000000	54,022800
902,000000	54,010800
901,000000	53,991000
900,000000	53,958000
899,000000	53,934500
898,000000	53,888500
897,000000	53,853100
896,000000	53,834700
895,000000	53,806800
894,000000	53,781100
893,000000	53,717900
892,000000	53,674200
891,000000	53,627500
890,000000	53,560300
889,000000	53,524700
888,000000	53,485600
887,000000	53,443700
886,000000	53,363300
885,000000	53,289800
884,000000	53,217100
883,000000	53,152800
882,000000	53,068600
881,000000	52,978000
880,000000	52,902500
879,000000	52,813500
878,000000	52,683800
877,000000	52,525800
876,000000	52,385400
875,000000	52,259600
874,000000	52,091300
873,000000	51,878900
872,000000	51,663800
871,000000	51,523600
870,000000	51,517000
869,000000	51,536400
868,000000	51,575700
867,000000	51,601900
866,000000	51,615300
865,000000	51,636600
864,000000	51,670100
863,000000	51,716900
862,000000	51,736000
861,000000	51,753300
860,000000	51,779000
859,000000	51,785300
858,000000	51,810400
857,000000	56,789100
856,000000	58,267500
855,000000	57,941000
854,000000	57,939200
853,000000	58,241700
852,000000	58,243600
851,000000	58,292900
850,000000	58,316200
849,000000	58,288600
848,000000	58,170900
847,000000	57,977400
846,000000	58,233400
845,000000	58,163800
844,000000	58,346900
843,000000	58,248500
842,000000	58,339700
841,000000	58,267900
840,000000	58,059200
839,000000	57,919400
838,000000	58,043500
837,000000	57,992400
836,000000	57,824500
835,000000	57,960900
834,000000	57,783500
833,000000	57,832700
832,000000	57,683200
831,000000	57,416800
830,000000	57,698600
829,000000	57,580100
828,000000	57,591900
827,000000	57,413300
826,000000	57,328400
825,000000	57,377900
824,000000	57,244600
823,000000	57,223400
822,000000	57,058500
821,000000	56,930800
820,000000	56,935700
819,000000	56,846600
818,000000	56,840200
817,000000	56,552400
816,000000	56,539300
815,000000	56,306000
814,000000	56,299800
813,000000	56,354200
812,000000	56,127600
811,000000	56,062800
810,000000	55,877300
809,000000	55,793100
808,000000	55,692800
807,000000	55,484300
806,000000	55,497400
805,000000	55,319400
804,000000	55,223400
803,000000	54,958900
802,000000	54,991700
801,000000	54,808300
800,000000	54,630700
799,000000	54,635500
798,000000	54,433100
797,000000	54,199100
796,000000	54,008000
795,000000	53,964100
794,000000	53,723600
793,000000	53,565900
792,000000	53,307800
791,000000	53,168600
790,000000	53,030400
789,000000	52,957800
788,000000	52,768800
787,000000	52,379700
786,000000	52,233800
785,000000	52,076600
784,000000	51,843500
783,000000	51,653600
782,000000	51,461200
781,000000	51,249300
780,000000	51,090000
779,000000	50,755900
778,000000	50,347600
777,000000	50,242200
776,000000	49,932400
775,000000	49,684900
774,000000	49,451200
773,000000	49,150700
772,000000	48,876000
771,000000	48,636500
770,000000	48,372900
769,000000	48,073700
768,000000	47,710300
767,000000	47,462200
766,000000	47,087500
765,000000	46,724400
764,000000	46,542100
763,000000	46,212800
762,000000	45,927500
761,000000	45,620500
760,000000	45,130400
759,000000	44,884900
758,000000	44,496600
757,000000	44,297700
756,000000	43,944300
755,000000	43,552700
754,000000	43,222800
753,000000	42,922100
752,000000	42,539300
751,000000	42,289500
750,000000	41,874300
749,000000	41,588300
748,000000	41,302700
747,000000	41,036600
746,000000	40,673900
745,000000	40,390000
744,000000	40,015300
743,000000	39,752400
742,000000	39,397400
741,000000	39,075900
740,000000	38,728500
739,000000	38,498600
738,000000	38,222700
737,000000	37,956400
736,000000	37,635900
735,000000	37,336500
734,000000	37,106000
733,000000	36,880800
732,000000	36,599000
731,000000	36,349100
730,000000	36,123700
729,000000	35,826000
728,000000	35,607100
727,000000	35,373000
726,000000	35,109300
725,000000	34,859100
724,000000	34,647800
723,000000	34,397500
722,000000	34,226500
721,000000	33,976000
720,000000	33,779700
719,000000	33,560700
718,000000	33,368800
717,000000	33,157900
716,000000	32,933800
715,000000	32,748600
714,000000	32,564500
713,000000	32,338900
712,000000	32,162800
711,000000	31,988900
710,000000	31,786300
709,000000	31,612900
708,000000	31,483700
707,000000	31,287300
706,000000	31,126100
705,000000	30,915700
704,000000	30,742700
703,000000	30,595100
702,000000	30,455500
701,000000	30,297600
700,000000	30,134100
699,000000	29,960800
698,000000	29,823500
697,000000	29,724800
696,000000	29,593700
695,000000	29,452400
694,000000	29,309900
693,000000	29,174100
692,000000	29,051900
691,000000	28,911000
690,000000	28,781000
689,000000	28,653200
688,000000	28,524300
687,000000	28,423000
686,000000	28,336500
685,000000	28,227700
684,000000	28,120400
683,000000	28,002800
682,000000	27,915200
681,000000	27,820400
680,000000	27,718200
679,000000	27,643300
678,000000	27,553600
677,000000	27,478500
676,000000	27,403500
675,000000	27,330600
674,000000	27,233900
673,000000	27,172500
672,000000	27,120600
671,000000	27,063900
670,000000	26,987700
669,000000	26,942900
668,000000	26,892400
667,000000	26,826400
666,000000	26,795300
665,000000	26,748000
664,000000	26,707400
663,000000	26,687400
662,000000	26,679700
661,000000	26,631000
660,000000	26,598200
659,000000	26,575100
658,000000	26,543200
657,000000	26,506200
656,000000	26,483000
655,000000	26,471700
654,000000	26,442800
653,000000	26,414100
652,000000	26,421100
651,000000	26,432800
650,000000	26,423500
649,000000	26,414800
648,000000	26,411300
647,000000	26,416900
646,000000	26,418700
645,000000	26,434500
644,000000	26,464100
643,000000	26,491900
642,000000	26,518300
641,000000	26,554200
640,000000	26,594600
639,000000	26,628600
638,000000	26,668500
637,000000	26,720800
636,000000	26,778000
635,000000	26,840800
634,000000	26,904400
633,000000	26,976500
632,000000	27,054400
631,000000	27,135400
630,000000	27,224900
629,000000	27,297500
628,000000	27,381200
627,000000	27,457700
626,000000	27,541800
625,000000	27,636000
624,000000	27,747600
623,000000	27,854500
622,000000	27,952800
621,000000	28,056300
620,000000	28,148600
619,000000	28,251600
618,000000	28,351800
617,000000	28,454300
616,000000	28,537300
615,000000	28,621300
614,000000	28,721200
613,000000	28,802200
612,000000	28,892900
611,000000	29,007700
610,000000	29,092500
609,000000	29,161700
608,000000	29,250500
607,000000	29,316200
606,000000	29,382500
605,000000	29,464000
604,000000	29,521800
603,000000	29,583100
602,000000	29,645000
601,000000	29,684500
600,000000	29,731900
599,000000	29,783000
598,000000	29,812500
597,000000	29,827100
596,000000	29,832000
595,000000	29,847000
594,000000	29,897900
593,000000	29,895800
592,000000	29,882100
591,000000	29,872300
590,000000	29,844300
589,000000	29,823300
588,000000	29,815500
587,000000	29,765000
586,000000	29,723100
585,000000	29,666200
584,000000	29,610800
583,000000	29,573700
582,000000	29,487500
581,000000	29,436600
580,000000	29,357800
579,000000	29,269400
578,000000	29,180800
577,000000	29,073700
576,000000	28,970100
575,000000	28,868400
574,000000	28,745400
573,000000	28,613000
572,000000	28,498500
571,000000	28,341800
570,000000	28,202200
569,000000	28,053100
568,000000	27,883000
567,000000	27,733200
566,000000	27,575200
565,000000	27,418800
564,000000	27,243000
563,000000	27,048900
562,000000	26,856100
561,000000	26,675000
560,000000	26,475600
559,000000	26,286200
558,000000	26,083800
557,000000	25,864100
556,000000	25,667800
555,000000	25,430600
554,000000	25,211500
553,000000	24,996500
552,000000	24,769400
551,000000	24,529200
550,000000	24,278100
549,000000	24,048500
548,000000	23,805900
547,000000	23,583200
546,000000	23,321400
545,000000	23,075300
544,000000	22,833400
543,000000	22,566700
542,000000	22,301600
541,000000	22,031900
540,000000	21,789100
539,000000	21,529400
538,000000	21,277600
537,000000	21,006100
536,000000	20,732600
535,000000	20,477800
534,000000	20,207700
533,000000	19,948700
532,000000	19,670700
531,000000	19,413200
530,000000	19,155200
529,000000	18,913900
528,000000	18,671300
527,000000	18,411100
526,000000	18,156800
525,000000	17,899000
524,000000	17,643800
523,000000	17,402500
522,000000	17,159500
521,000000	16,917200
520,000000	16,683600
519,000000	16,470400
518,000000	16,243400
517,000000	16,016200
516,000000	15,818000
515,000000	15,582700
514,000000	15,373600
513,000000	15,177600
512,000000	14,986900
511,000000	14,793300
510,000000	14,628500
509,000000	14,448200
508,000000	14,271200
507,000000	14,103400
506,000000	13,939300
505,000000	13,789100
504,000000	13,643300
503,000000	13,504500
502,000000	13,355700
501,000000	13,228900
500,000000	13,078700
499,000000	12,949600
498,000000	12,834700
497,000000	12,727200
496,000000	12,616000
495,000000	12,507700
494,000000	12,401000
493,000000	12,296700
492,000000	12,199200
491,000000	12,115400
490,000000	12,018500
489,000000	11,959700
488,000000	11,873300
487,000000	11,782400
486,000000	11,704500
485,000000	11,639300
484,000000	11,547000
483,000000	11,473900
482,000000	11,398100
481,000000	11,302000
480,000000	11,213400
479,000000	11,124500
478,000000	11,030300
477,000000	10,946000
476,000000	10,867300
475,000000	10,777700
474,000000	10,690300
473,000000	10,611700
472,000000	10,518300
471,000000	10,443300
470,000000	10,374400
469,000000	10,293900
468,000000	10,199500
467,000000	10,131000
466,000000	10,050600
465,000000	9,978900
464,000000	9,897500
463,000000	9,827200
462,000000	9,763500
461,000000	9,689600
460,000000	9,631300
459,000000	9,527700
458,000000	9,458400
457,000000	9,361800
456,000000	9,320400
455,000000	9,245100
454,000000	9,176700
453,000000	9,094300
452,000000	9,017600
451,000000	8,938100
450,000000	8,866600
449,000000	8,798700
448,000000	8,710100
447,000000	8,646100
446,000000	8,557600
445,000000	8,484400
444,000000	8,417800
443,000000	8,343600
442,000000	8,261800
441,000000	8,173200
440,000000	8,097500
439,000000	8,031700
438,000000	7,943700
437,000000	7,863700
436,000000	7,789200
435,000000	7,719800
434,000000	7,642800
433,000000	7,576700
432,000000	7,494900
431,000000	7,436000
430,000000	7,349500
429,000000	7,276300
428,000000	7,223800
427,000000	7,155300
426,000000	7,089900
425,000000	7,030100
424,000000	6,958100
423,000000	6,899500
422,000000	6,840800
421,000000	6,767600
420,000000	6,725500
419,000000	6,654500
418,000000	6,597800
417,000000	6,539300
416,000000	6,490700
415,000000	6,440400
414,000000	6,375600
413,000000	6,321100
412,000000	6,266800
411,000000	6,211000
410,000000	6,154500
409,000000	6,100100
408,000000	6,053200
407,000000	5,988500
406,000000	5,950600
405,000000	5,920900
404,000000	5,872200
403,000000	5,823300
402,000000	5,767600
401,000000	5,744300
400,000000	5,711300
399,000000	5,632900
398,000000	5,587200
397,000000	5,567700
396,000000	5,531600
395,000000	5,496700
394,000000	5,436300
393,000000	5,406000
392,000000	5,378100
391,000000	5,332200
390,000000	5,297900
389,000000	5,259800
388,000000	5,237600
387,000000	5,213400
386,000000	5,169600
385,000000	5,141100
384,000000	5,119100
383,000000	5,110900
382,000000	5,072100
381,000000	5,054800
380,000000	5,043200
379,000000	5,024800
378,000000	5,005300
377,000000	4,965000
376,000000	4,918900
375,000000	4,751400
374,000000	4,569400
373,000000	4,708600
372,000000	4,767100
371,000000	4,636700
370,000000	4,617900
369,000000	4,663700
368,000000	4,757900
367,000000	4,702000
366,000000	4,735800
365,000000	4,778200
364,000000	4,773300
363,000000	4,740000
362,000000	4,712500
361,000000	4,814500
360,000000	4,795100
359,000000	4,706400
358,000000	4,782200
357,000000	4,735700
356,000000	4,834300
355,000000	4,861400
354,000000	4,818900
353,000000	4,756600
352,000000	4,696900
351,000000	4,684000
350,000000	4,680500
349,000000	4,693600
348,000000	4,733100
347,000000	4,746800
346,000000	4,759200
345,000000	4,853700
344,000000	4,778500
343,000000	4,798600
342,000000	4,955100
341,000000	4,795600
340,000000	4,602800
339,000000	4,727200
338,000000	4,793500
337,000000	4,593000
336,000000	4,564100
335,000000	4,914000
334,000000	4,992500
333,000000	4,809400
332,000000	4,737000
331,000000	4,754300
330,000000	4,859500
329,000000	5,007600
328,000000	4,974900
327,000000	5,020800
326,000000	4,806500
325,000000	5,005600
324,000000	5,128600
323,000000	4,719800
322,000000	4,848300
321,000000	5,333700
320,000000	5,126400
319,000000	4,809200
318,000000	4,931500
317,000000	5,634300
316,000000	5,372000
315,000000	4,735900
314,000000	4,742600
313,000000	4,745300
312,000000	4,771100
311,000000	4,747800
310,000000	4,683600
309,000000	4,705000
308,000000	4,760300
307,000000	4,768800
306,000000	4,765400
305,000000	4,771600
304,000000	4,756000
303,000000	4,811500
302,000000	4,783800
301,000000	4,790500
300,000000	4,819400
299,000000	4,837400
298,000000	4,849700
297,000000	4,814300
296,000000	4,802200
295,000000	4,835900
294,000000	4,862300
293,000000	4,878100
292,000000	4,852500
291,000000	4,844200
290,000000	4,870500
289,000000	4,864100
288,000000	4,885400
287,000000	4,891200
286,000000	4,893600
285,000000	4,901200
284,000000	4,884100
283,000000	4,906100
282,000000	4,943400
281,000000	4,957100
280,000000	4,943300
279,000000	4,946900
278,000000	4,957900
277,000000	4,973400
276,000000	5,011600
275,000000	5,011100
274,000000	5,048900
273,000000	5,028600
272,000000	5,040100
271,000000	5,051100
270,000000	5,067600
269,000000	5,071200
268,000000	5,061600
267,000000	5,112900
266,000000	5,160700
265,000000	5,149200
264,000000	5,179700
263,000000	5,207800
262,000000	5,201700
261,000000	5,248200
260,000000	5,278600
259,000000	5,256900
258,000000	5,289000
257,000000	5,298100
256,000000	5,296500
255,000000	5,340900
254,000000	5,334600
253,000000	5,385100
252,000000	5,351900
251,000000	5,343300
250,000000	5,358800
