PE UV       SUBTECH     SPECTRUM    ASCII       PEDS        4.00        
   -1
CICIMAUCR0236-1.Sample.ASC
24/06/19
14:03:29.00
24/06/19
14:03:29.00
Vinicio Soto Monge
C. resplendens. Sex M. Ventral 
250,000000
1
Lambda 1050
1050L1511233
PerkinElmer UV WinLab 6.3.2.0749 / 2.02.05 Lambda 900 UV/VIS/NIR, Aug  7 2015 09:38:08

0
0
3350/servo 860,8/2
0
0
UV/VIS
1
1
1
DoubleDePol,CommonBeamDepol,RBeamAtt,SBeamAtt,60mm sphere, WB InGaAs Detector
0
0
0
0
Program
Program
3350/servo 860,8/2
3350/0,2 860,8/0,2
3350/0,2 860,8/0,2
0
15.00
 
 
 
0
 
860,8
319,2
860,8
Front
100
on
S:100 R:100
0
0
0
0
 
0
 
 
 
0
 
 
0
0
0
0
0
 
 
 
 
0
0


0
0
#HDR
-1
-1
#GR
nm
%R
1.0
0.0
2500,000000
-1,000000
2251
8
62,605400
4,250900
#DATA
2500,000000	5,940500
2499,000000	6,033200
2498,000000	6,007700
2497,000000	5,912500
2496,000000	5,964800
2495,000000	5,889500
2494,000000	5,886200
2493,000000	5,795600
2492,000000	5,868000
2491,000000	5,927400
2490,000000	5,869200
2489,000000	5,806700
2488,000000	5,839900
2487,000000	5,795700
2486,000000	5,794400
2485,000000	5,760700
2484,000000	5,757600
2483,000000	5,858700
2482,000000	5,767500
2481,000000	5,766500
2480,000000	5,728600
2479,000000	5,714300
2478,000000	5,722300
2477,000000	5,761000
2476,000000	5,726300
2475,000000	5,761400
2474,000000	5,775800
2473,000000	5,722900
2472,000000	5,708900
2471,000000	5,680300
2470,000000	5,720600
2469,000000	5,712900
2468,000000	5,762200
2467,000000	5,711300
2466,000000	5,731300
2465,000000	5,776300
2464,000000	5,751700
2463,000000	5,733500
2462,000000	5,769400
2461,000000	5,779600
2460,000000	5,824900
2459,000000	5,790400
2458,000000	5,796400
2457,000000	5,815500
2456,000000	5,824300
2455,000000	5,830200
2454,000000	5,874300
2453,000000	5,891700
2452,000000	5,920500
2451,000000	5,941800
2450,000000	5,961500
2449,000000	5,964600
2448,000000	6,002400
2447,000000	6,037800
2446,000000	6,045700
2445,000000	6,080600
2444,000000	6,114900
2443,000000	6,139300
2442,000000	6,150400
2441,000000	6,158400
2440,000000	6,194000
2439,000000	6,229100
2438,000000	6,231800
2437,000000	6,293300
2436,000000	6,310900
2435,000000	6,332200
2434,000000	6,346100
2433,000000	6,378100
2432,000000	6,377400
2431,000000	6,394200
2430,000000	6,446600
2429,000000	6,466200
2428,000000	6,464000
2427,000000	6,480000
2426,000000	6,477800
2425,000000	6,522700
2424,000000	6,536600
2423,000000	6,567800
2422,000000	6,579600
2421,000000	6,587600
2420,000000	6,598700
2419,000000	6,605900
2418,000000	6,642400
2417,000000	6,666100
2416,000000	6,679900
2415,000000	6,691400
2414,000000	6,692700
2413,000000	6,707900
2412,000000	6,708000
2411,000000	6,722200
2410,000000	6,727800
2409,000000	6,757600
2408,000000	6,780700
2407,000000	6,789900
2406,000000	6,799800
2405,000000	6,817200
2404,000000	6,819600
2403,000000	6,832900
2402,000000	6,842400
2401,000000	6,850700
2400,000000	6,873900
2399,000000	6,887100
2398,000000	6,895600
2397,000000	6,916000
2396,000000	6,921800
2395,000000	6,929400
2394,000000	6,953500
2393,000000	6,966500
2392,000000	6,982500
2391,000000	6,996300
2390,000000	7,001400
2389,000000	7,014600
2388,000000	7,015800
2387,000000	7,018100
2386,000000	7,027100
2385,000000	7,040700
2384,000000	7,055800
2383,000000	7,051400
2382,000000	7,055000
2381,000000	7,045600
2380,000000	7,046000
2379,000000	7,052000
2378,000000	7,034700
2377,000000	7,039900
2376,000000	7,039600
2375,000000	7,043100
2374,000000	7,046600
2373,000000	7,026400
2372,000000	7,012800
2371,000000	7,007800
2370,000000	6,999300
2369,000000	6,986000
2368,000000	6,975900
2367,000000	6,957200
2366,000000	6,948200
2365,000000	6,929500
2364,000000	6,897800
2363,000000	6,885100
2362,000000	6,870500
2361,000000	6,839800
2360,000000	6,815300
2359,000000	6,810700
2358,000000	6,797700
2357,000000	6,772500
2356,000000	6,754800
2355,000000	6,736700
2354,000000	6,723800
2353,000000	6,716700
2352,000000	6,706000
2351,000000	6,711600
2350,000000	6,710400
2349,000000	6,712300
2348,000000	6,733800
2347,000000	6,749100
2346,000000	6,766400
2345,000000	6,784600
2344,000000	6,804100
2343,000000	6,823500
2342,000000	6,834900
2341,000000	6,856800
2340,000000	6,860700
2339,000000	6,868300
2338,000000	6,876500
2337,000000	6,882500
2336,000000	6,884700
2335,000000	6,875300
2334,000000	6,880500
2333,000000	6,880800
2332,000000	6,875000
2331,000000	6,863800
2330,000000	6,852400
2329,000000	6,845700
2328,000000	6,821000
2327,000000	6,804100
2326,000000	6,769400
2325,000000	6,735200
2324,000000	6,717100
2323,000000	6,689200
2322,000000	6,644500
2321,000000	6,621800
2320,000000	6,593000
2319,000000	6,547700
2318,000000	6,505800
2317,000000	6,468200
2316,000000	6,446200
2315,000000	6,402800
2314,000000	6,354400
2313,000000	6,329700
2312,000000	6,310300
2311,000000	6,253100
2310,000000	6,220700
2309,000000	6,178100
2308,000000	6,154600
2307,000000	6,139700
2306,000000	6,133800
2305,000000	6,123300
2304,000000	6,144200
2303,000000	6,157000
2302,000000	6,169000
2301,000000	6,175400
2300,000000	6,193400
2299,000000	6,237300
2298,000000	6,275200
2297,000000	6,289900
2296,000000	6,307500
2295,000000	6,350100
2294,000000	6,380000
2293,000000	6,404300
2292,000000	6,425700
2291,000000	6,456100
2290,000000	6,450200
2289,000000	6,464300
2288,000000	6,497100
2287,000000	6,472200
2286,000000	6,480300
2285,000000	6,483500
2284,000000	6,467800
2283,000000	6,470800
2282,000000	6,469400
2281,000000	6,446900
2280,000000	6,420000
2279,000000	6,393300
2278,000000	6,377700
2277,000000	6,347000
2276,000000	6,325200
2275,000000	6,312900
2274,000000	6,302900
2273,000000	6,291600
2272,000000	6,287300
2271,000000	6,293600
2270,000000	6,289500
2269,000000	6,299800
2268,000000	6,302700
2267,000000	6,334700
2266,000000	6,369600
2265,000000	6,402600
2264,000000	6,451000
2263,000000	6,509600
2262,000000	6,563300
2261,000000	6,617300
2260,000000	6,706400
2259,000000	6,801100
2258,000000	6,886600
2257,000000	6,992700
2256,000000	7,104100
2255,000000	7,225000
2254,000000	7,317400
2253,000000	7,447000
2252,000000	7,554600
2251,000000	7,644000
2250,000000	7,765200
2249,000000	7,871200
2248,000000	7,952200
2247,000000	8,047800
2246,000000	8,134700
2245,000000	8,227500
2244,000000	8,305200
2243,000000	8,367200
2242,000000	8,450600
2241,000000	8,515100
2240,000000	8,576500
2239,000000	8,634200
2238,000000	8,675000
2237,000000	8,727500
2236,000000	8,776000
2235,000000	8,811100
2234,000000	8,835900
2233,000000	8,904700
2232,000000	8,929000
2231,000000	8,936800
2230,000000	8,962000
2229,000000	8,993400
2228,000000	8,997400
2227,000000	9,005100
2226,000000	9,028000
2225,000000	9,034500
2224,000000	9,000400
2223,000000	9,005000
2222,000000	9,018000
2221,000000	9,007900
2220,000000	8,995800
2219,000000	9,005300
2218,000000	8,994200
2217,000000	8,950800
2216,000000	8,927900
2215,000000	8,935400
2214,000000	8,925300
2213,000000	8,905200
2212,000000	8,869300
2211,000000	8,896000
2210,000000	8,860700
2209,000000	8,852100
2208,000000	8,845800
2207,000000	8,827900
2206,000000	8,826500
2205,000000	8,829100
2204,000000	8,809400
2203,000000	8,797600
2202,000000	8,796200
2201,000000	8,786300
2200,000000	8,781100
2199,000000	8,814200
2198,000000	8,774400
2197,000000	8,759500
2196,000000	8,736600
2195,000000	8,752000
2194,000000	8,766700
2193,000000	8,753800
2192,000000	8,755700
2191,000000	8,729600
2190,000000	8,740100
2189,000000	8,730000
2188,000000	8,718200
2187,000000	8,711700
2186,000000	8,700600
2185,000000	8,687600
2184,000000	8,710300
2183,000000	8,690600
2182,000000	8,685300
2181,000000	8,682600
2180,000000	8,665800
2179,000000	8,658700
2178,000000	8,661200
2177,000000	8,635100
2176,000000	8,655100
2175,000000	8,643000
2174,000000	8,656800
2173,000000	8,653200
2172,000000	8,655300
2171,000000	8,665200
2170,000000	8,664900
2169,000000	8,653200
2168,000000	8,667600
2167,000000	8,665600
2166,000000	8,702200
2165,000000	8,703300
2164,000000	8,701800
2163,000000	8,713700
2162,000000	8,714900
2161,000000	8,738500
2160,000000	8,756800
2159,000000	8,748900
2158,000000	8,778100
2157,000000	8,812300
2156,000000	8,809400
2155,000000	8,828700
2154,000000	8,832300
2153,000000	8,873200
2152,000000	8,895500
2151,000000	8,895000
2150,000000	8,926600
2149,000000	8,968000
2148,000000	8,978300
2147,000000	8,977200
2146,000000	9,000100
2145,000000	9,027500
2144,000000	9,056400
2143,000000	9,056200
2142,000000	9,072100
2141,000000	9,085500
2140,000000	9,103900
2139,000000	9,112800
2138,000000	9,130500
2137,000000	9,125500
2136,000000	9,152300
2135,000000	9,155000
2134,000000	9,170500
2133,000000	9,182300
2132,000000	9,166600
2131,000000	9,192200
2130,000000	9,194300
2129,000000	9,184500
2128,000000	9,172700
2127,000000	9,182900
2126,000000	9,197000
2125,000000	9,188700
2124,000000	9,185200
2123,000000	9,170600
2122,000000	9,158100
2121,000000	9,149500
2120,000000	9,142800
2119,000000	9,131100
2118,000000	9,118200
2117,000000	9,111900
2116,000000	9,091300
2115,000000	9,075200
2114,000000	9,060000
2113,000000	9,031900
2112,000000	9,012100
2111,000000	8,995200
2110,000000	8,980100
2109,000000	8,955500
2108,000000	8,945200
2107,000000	8,918000
2106,000000	8,896800
2105,000000	8,891300
2104,000000	8,867700
2103,000000	8,845200
2102,000000	8,840100
2101,000000	8,813500
2100,000000	8,791800
2099,000000	8,776500
2098,000000	8,745900
2097,000000	8,731900
2096,000000	8,718500
2095,000000	8,701300
2094,000000	8,688800
2093,000000	8,664900
2092,000000	8,651800
2091,000000	8,624400
2090,000000	8,605000
2089,000000	8,597600
2088,000000	8,595000
2087,000000	8,566600
2086,000000	8,550000
2085,000000	8,542500
2084,000000	8,514500
2083,000000	8,496300
2082,000000	8,490500
2081,000000	8,472200
2080,000000	8,449000
2079,000000	8,428000
2078,000000	8,396800
2077,000000	8,369200
2076,000000	8,355200
2075,000000	8,324800
2074,000000	8,302000
2073,000000	8,282500
2072,000000	8,261100
2071,000000	8,243400
2070,000000	8,218600
2069,000000	8,181700
2068,000000	8,139400
2067,000000	8,120000
2066,000000	8,108400
2065,000000	8,076600
2064,000000	8,062700
2063,000000	8,054800
2062,000000	8,024900
2061,000000	8,006900
2060,000000	7,990700
2059,000000	7,961000
2058,000000	7,953500
2057,000000	7,961600
2056,000000	7,953000
2055,000000	7,942000
2054,000000	7,949300
2053,000000	7,977400
2052,000000	7,990300
2051,000000	8,000000
2050,000000	8,025300
2049,000000	8,034500
2048,000000	8,075500
2047,000000	8,106400
2046,000000	8,131300
2045,000000	8,155400
2044,000000	8,192100
2043,000000	8,225800
2042,000000	8,261200
2041,000000	8,304300
2040,000000	8,346900
2039,000000	8,374100
2038,000000	8,406000
2037,000000	8,441000
2036,000000	8,455400
2035,000000	8,481200
2034,000000	8,515000
2033,000000	8,527800
2032,000000	8,556400
2031,000000	8,572200
2030,000000	8,578400
2029,000000	8,589000
2028,000000	8,605000
2027,000000	8,619100
2026,000000	8,621200
2025,000000	8,626200
2024,000000	8,638400
2023,000000	8,645300
2022,000000	8,651300
2021,000000	8,659800
2020,000000	8,641900
2019,000000	8,639700
2018,000000	8,631900
2017,000000	8,637000
2016,000000	8,628200
2015,000000	8,628600
2014,000000	8,622400
2013,000000	8,604800
2012,000000	8,614400
2011,000000	8,594200
2010,000000	8,552600
2009,000000	8,537600
2008,000000	8,526400
2007,000000	8,519000
2006,000000	8,483400
2005,000000	8,458300
2004,000000	8,447100
2003,000000	8,433700
2002,000000	8,397700
2001,000000	8,354500
2000,000000	8,317900
1999,000000	8,314000
1998,000000	8,274900
1997,000000	8,242500
1996,000000	8,203400
1995,000000	8,175000
1994,000000	8,144700
1993,000000	8,121600
1992,000000	8,073200
1991,000000	8,026500
1990,000000	7,987500
1989,000000	7,956500
1988,000000	7,908700
1987,000000	7,883900
1986,000000	7,810400
1985,000000	7,787400
1984,000000	7,755300
1983,000000	7,709900
1982,000000	7,676700
1981,000000	7,631800
1980,000000	7,600100
1979,000000	7,545900
1978,000000	7,510100
1977,000000	7,471000
1976,000000	7,447400
1975,000000	7,423000
1974,000000	7,360900
1973,000000	7,315400
1972,000000	7,280700
1971,000000	7,264800
1970,000000	7,224800
1969,000000	7,184800
1968,000000	7,164400
1967,000000	7,126100
1966,000000	7,088200
1965,000000	7,051500
1964,000000	7,039800
1963,000000	7,013500
1962,000000	6,984800
1961,000000	6,950200
1960,000000	6,907100
1959,000000	6,889300
1958,000000	6,849600
1957,000000	6,815000
1956,000000	6,829000
1955,000000	6,787700
1954,000000	6,751300
1953,000000	6,736600
1952,000000	6,705900
1951,000000	6,692600
1950,000000	6,659200
1949,000000	6,641300
1948,000000	6,613200
1947,000000	6,578900
1946,000000	6,596700
1945,000000	6,566700
1944,000000	6,553600
1943,000000	6,537000
1942,000000	6,529700
1941,000000	6,512400
1940,000000	6,520800
1939,000000	6,514500
1938,000000	6,503400
1937,000000	6,500900
1936,000000	6,502200
1935,000000	6,502500
1934,000000	6,506000
1933,000000	6,519300
1932,000000	6,536600
1931,000000	6,554000
1930,000000	6,555600
1929,000000	6,586800
1928,000000	6,601500
1927,000000	6,643900
1926,000000	6,658600
1925,000000	6,678000
1924,000000	6,717100
1923,000000	6,757900
1922,000000	6,797300
1921,000000	6,859400
1920,000000	6,884700
1919,000000	6,957300
1918,000000	6,982300
1917,000000	7,052200
1916,000000	7,100300
1915,000000	7,147600
1914,000000	7,209300
1913,000000	7,309700
1912,000000	7,385800
1911,000000	7,478600
1910,000000	7,557500
1909,000000	7,610400
1908,000000	7,695000
1907,000000	7,796600
1906,000000	7,890000
1905,000000	8,016700
1904,000000	8,128900
1903,000000	8,255600
1902,000000	8,371300
1901,000000	8,503500
1900,000000	8,629000
1899,000000	8,790600
1898,000000	8,973700
1897,000000	9,123200
1896,000000	9,285300
1895,000000	9,424600
1894,000000	9,591500
1893,000000	9,803000
1892,000000	10,018900
1891,000000	10,265600
1890,000000	10,526200
1889,000000	10,786200
1888,000000	11,062900
1887,000000	11,340100
1886,000000	11,646400
1885,000000	12,010500
1884,000000	12,413200
1883,000000	12,819500
1882,000000	13,266000
1881,000000	13,728100
1880,000000	14,169300
1879,000000	14,588000
1878,000000	15,054200
1877,000000	15,521600
1876,000000	15,977600
1875,000000	16,427500
1874,000000	16,867500
1873,000000	17,295300
1872,000000	17,713300
1871,000000	18,094600
1870,000000	18,493600
1869,000000	18,815500
1868,000000	19,162000
1867,000000	19,437700
1866,000000	19,662200
1865,000000	19,863300
1864,000000	20,064900
1863,000000	20,230700
1862,000000	20,399500
1861,000000	20,584000
1860,000000	20,759200
1859,000000	20,908100
1858,000000	21,044200
1857,000000	21,148700
1856,000000	21,236900
1855,000000	21,286000
1854,000000	21,371900
1853,000000	21,426200
1852,000000	21,448700
1851,000000	21,472100
1850,000000	21,496000
1849,000000	21,518300
1848,000000	21,531800
1847,000000	21,526000
1846,000000	21,499500
1845,000000	21,462500
1844,000000	21,453800
1843,000000	21,436600
1842,000000	21,449500
1841,000000	21,458900
1840,000000	21,444400
1839,000000	21,415600
1838,000000	21,403300
1837,000000	21,371800
1836,000000	21,338800
1835,000000	21,295500
1834,000000	21,229200
1833,000000	21,168000
1832,000000	21,124200
1831,000000	21,080100
1830,000000	21,016600
1829,000000	20,952700
1828,000000	20,894400
1827,000000	20,822500
1826,000000	20,744200
1825,000000	20,679600
1824,000000	20,621900
1823,000000	20,574100
1822,000000	20,551600
1821,000000	20,540800
1820,000000	20,500400
1819,000000	20,465000
1818,000000	20,416500
1817,000000	20,373100
1816,000000	20,362900
1815,000000	20,359100
1814,000000	20,344000
1813,000000	20,324500
1812,000000	20,303100
1811,000000	20,265700
1810,000000	20,236600
1809,000000	20,198100
1808,000000	20,158700
1807,000000	20,123800
1806,000000	20,083500
1805,000000	20,032700
1804,000000	19,965600
1803,000000	19,919900
1802,000000	19,888300
1801,000000	19,839400
1800,000000	19,775100
1799,000000	19,716000
1798,000000	19,666200
1797,000000	19,614300
1796,000000	19,559300
1795,000000	19,516500
1794,000000	19,474000
1793,000000	19,429400
1792,000000	19,377900
1791,000000	19,322000
1790,000000	19,267700
1789,000000	19,202600
1788,000000	19,150100
1787,000000	19,090500
1786,000000	19,029200
1785,000000	18,971100
1784,000000	18,902700
1783,000000	18,837600
1782,000000	18,769900
1781,000000	18,697300
1780,000000	18,631500
1779,000000	18,553900
1778,000000	18,477200
1777,000000	18,405900
1776,000000	18,327100
1775,000000	18,237100
1774,000000	18,145200
1773,000000	18,050400
1772,000000	17,951000
1771,000000	17,828700
1770,000000	17,726700
1769,000000	17,640200
1768,000000	17,529800
1767,000000	17,434400
1766,000000	17,342400
1765,000000	17,261900
1764,000000	17,202800
1763,000000	17,167700
1762,000000	17,148700
1761,000000	17,155300
1760,000000	17,186100
1759,000000	17,240800
1758,000000	17,303700
1757,000000	17,373100
1756,000000	17,421600
1755,000000	17,488100
1754,000000	17,548400
1753,000000	17,571600
1752,000000	17,598400
1751,000000	17,604800
1750,000000	17,599900
1749,000000	17,578900
1748,000000	17,543900
1747,000000	17,494100
1746,000000	17,441500
1745,000000	17,371500
1744,000000	17,283100
1743,000000	17,183600
1742,000000	17,027600
1741,000000	16,867500
1740,000000	16,713300
1739,000000	16,526900
1738,000000	16,353200
1737,000000	16,175500
1736,000000	16,006400
1735,000000	15,889900
1734,000000	15,795400
1733,000000	15,753200
1732,000000	15,750900
1731,000000	15,781400
1730,000000	15,841700
1729,000000	15,907500
1728,000000	16,018300
1727,000000	16,117400
1726,000000	16,220200
1725,000000	16,298700
1724,000000	16,379000
1723,000000	16,460600
1722,000000	16,487700
1721,000000	16,521300
1720,000000	16,565300
1719,000000	16,592900
1718,000000	16,618700
1717,000000	16,653400
1716,000000	16,712700
1715,000000	16,771400
1714,000000	16,818700
1713,000000	16,868700
1712,000000	16,931900
1711,000000	16,987900
1710,000000	17,011900
1709,000000	17,037400
1708,000000	17,033200
1707,000000	17,017000
1706,000000	16,999100
1705,000000	16,949500
1704,000000	16,882000
1703,000000	16,835200
1702,000000	16,754800
1701,000000	16,652900
1700,000000	16,533100
1699,000000	16,384800
1698,000000	16,251200
1697,000000	16,116600
1696,000000	16,041100
1695,000000	15,975300
1694,000000	15,984600
1693,000000	16,008600
1692,000000	16,113100
1691,000000	16,235300
1690,000000	16,366000
1689,000000	16,532900
1688,000000	16,656800
1687,000000	16,751300
1686,000000	16,834700
1685,000000	16,881300
1684,000000	16,938900
1683,000000	17,043900
1682,000000	17,216900
1681,000000	17,516000
1680,000000	17,866500
1679,000000	18,303500
1678,000000	18,787000
1677,000000	19,293100
1676,000000	19,758500
1675,000000	20,197900
1674,000000	20,587400
1673,000000	20,935900
1672,000000	21,270000
1671,000000	21,509600
1670,000000	21,731700
1669,000000	21,941000
1668,000000	22,095400
1667,000000	22,253800
1666,000000	22,381000
1665,000000	22,475800
1664,000000	22,591700
1663,000000	22,666000
1662,000000	22,753700
1661,000000	22,784700
1660,000000	22,839800
1659,000000	22,892000
1658,000000	22,926100
1657,000000	22,937100
1656,000000	22,958200
1655,000000	22,962400
1654,000000	22,971800
1653,000000	22,965000
1652,000000	22,941900
1651,000000	22,921200
1650,000000	22,901900
1649,000000	22,851400
1648,000000	22,800400
1647,000000	22,760600
1646,000000	22,714100
1645,000000	22,666200
1644,000000	22,596200
1643,000000	22,515100
1642,000000	22,482200
1641,000000	22,409100
1640,000000	22,359700
1639,000000	22,265800
1638,000000	22,226700
1637,000000	22,149200
1636,000000	22,094900
1635,000000	22,009000
1634,000000	21,947700
1633,000000	21,853800
1632,000000	21,793400
1631,000000	21,699000
1630,000000	21,597000
1629,000000	21,523900
1628,000000	21,431200
1627,000000	21,360000
1626,000000	21,265900
1625,000000	21,180000
1624,000000	21,097600
1623,000000	21,008900
1622,000000	20,935400
1621,000000	20,848400
1620,000000	20,770700
1619,000000	20,688200
1618,000000	20,608700
1617,000000	20,533000
1616,000000	20,445700
1615,000000	20,384900
1614,000000	20,315300
1613,000000	20,213900
1612,000000	20,153000
1611,000000	20,072000
1610,000000	19,998000
1609,000000	19,936800
1608,000000	19,837000
1607,000000	19,767900
1606,000000	19,686700
1605,000000	19,630500
1604,000000	19,572400
1603,000000	19,484200
1602,000000	19,403200
1601,000000	19,334900
1600,000000	19,257000
1599,000000	19,168500
1598,000000	19,103800
1597,000000	19,035200
1596,000000	18,965000
1595,000000	18,894700
1594,000000	18,828700
1593,000000	18,768200
1592,000000	18,712200
1591,000000	18,632300
1590,000000	18,582200
1589,000000	18,521500
1588,000000	18,469400
1587,000000	18,405500
1586,000000	18,349400
1585,000000	18,308200
1584,000000	18,235400
1583,000000	18,194200
1582,000000	18,140700
1581,000000	18,095200
1580,000000	18,054100
1579,000000	18,019000
1578,000000	17,986800
1577,000000	17,958700
1576,000000	17,925000
1575,000000	17,895000
1574,000000	17,867000
1573,000000	17,841100
1572,000000	17,819700
1571,000000	17,803400
1570,000000	17,793200
1569,000000	17,780800
1568,000000	17,778200
1567,000000	17,769000
1566,000000	17,766500
1565,000000	17,758800
1564,000000	17,760200
1563,000000	17,748300
1562,000000	17,743000
1561,000000	17,753600
1560,000000	17,731100
1559,000000	17,706200
1558,000000	17,691100
1557,000000	17,673200
1556,000000	17,654800
1555,000000	17,615400
1554,000000	17,600800
1553,000000	17,572700
1552,000000	17,539500
1551,000000	17,518400
1550,000000	17,482900
1549,000000	17,446700
1548,000000	17,412600
1547,000000	17,372400
1546,000000	17,333600
1545,000000	17,306900
1544,000000	17,282500
1543,000000	17,267600
1542,000000	17,243400
1541,000000	17,195200
1540,000000	17,171900
1539,000000	17,160500
1538,000000	17,144300
1537,000000	17,106200
1536,000000	17,082800
1535,000000	17,046100
1534,000000	17,003600
1533,000000	16,977300
1532,000000	16,950700
1531,000000	16,918900
1530,000000	16,868100
1529,000000	16,813600
1528,000000	16,783000
1527,000000	16,753000
1526,000000	16,713100
1525,000000	16,659300
1524,000000	16,612300
1523,000000	16,571900
1522,000000	16,521600
1521,000000	16,469300
1520,000000	16,432400
1519,000000	16,386400
1518,000000	16,325900
1517,000000	16,270700
1516,000000	16,216000
1515,000000	16,166600
1514,000000	16,124300
1513,000000	16,065900
1512,000000	16,003100
1511,000000	15,946600
1510,000000	15,889900
1509,000000	15,836400
1508,000000	15,791800
1507,000000	15,731200
1506,000000	15,675700
1505,000000	15,625900
1504,000000	15,566100
1503,000000	15,509000
1502,000000	15,445300
1501,000000	15,402500
1500,000000	15,363300
1499,000000	15,299000
1498,000000	15,248800
1497,000000	15,209200
1496,000000	15,156700
1495,000000	15,100000
1494,000000	15,056700
1493,000000	15,030000
1492,000000	14,977500
1491,000000	14,934100
1490,000000	14,907600
1489,000000	14,864500
1488,000000	14,828200
1487,000000	14,787800
1486,000000	14,762500
1485,000000	14,735700
1484,000000	14,695700
1483,000000	14,661700
1482,000000	14,643300
1481,000000	14,623800
1480,000000	14,587100
1479,000000	14,549800
1478,000000	14,540300
1477,000000	14,540500
1476,000000	14,512800
1475,000000	14,485800
1474,000000	14,472300
1473,000000	14,472700
1472,000000	14,482700
1471,000000	14,455800
1470,000000	14,442300
1469,000000	14,450100
1468,000000	14,441800
1467,000000	14,431400
1466,000000	14,433500
1465,000000	14,432900
1464,000000	14,449200
1463,000000	14,455800
1462,000000	14,459400
1461,000000	14,479500
1460,000000	14,498400
1459,000000	14,526000
1458,000000	14,553300
1457,000000	14,581900
1456,000000	14,623900
1455,000000	14,679300
1454,000000	14,716100
1453,000000	14,774900
1452,000000	14,843900
1451,000000	14,906600
1450,000000	14,965900
1449,000000	15,012000
1448,000000	15,069700
1447,000000	15,157000
1446,000000	15,229400
1445,000000	15,306200
1444,000000	15,377700
1443,000000	15,452700
1442,000000	15,528600
1441,000000	15,632300
1440,000000	15,702900
1439,000000	15,801400
1438,000000	15,885700
1437,000000	15,980600
1436,000000	16,070200
1435,000000	16,169700
1434,000000	16,277000
1433,000000	16,388200
1432,000000	16,504900
1431,000000	16,619800
1430,000000	16,736000
1429,000000	16,871600
1428,000000	17,018600
1427,000000	17,165000
1426,000000	17,314600
1425,000000	17,480500
1424,000000	17,671800
1423,000000	17,863800
1422,000000	18,030000
1421,000000	18,240700
1420,000000	18,464200
1419,000000	18,685700
1418,000000	18,947300
1417,000000	19,147900
1416,000000	19,372800
1415,000000	19,625600
1414,000000	19,920000
1413,000000	20,226800
1412,000000	20,490500
1411,000000	20,774900
1410,000000	21,084000
1409,000000	21,458500
1408,000000	21,872800
1407,000000	22,258300
1406,000000	22,656600
1405,000000	23,069800
1404,000000	23,550800
1403,000000	23,991800
1402,000000	24,369400
1401,000000	24,829700
1400,000000	25,344300
1399,000000	25,811300
1398,000000	26,183400
1397,000000	26,524800
1396,000000	26,953400
1395,000000	27,406200
1394,000000	27,832900
1393,000000	28,177800
1392,000000	28,562700
1391,000000	28,994000
1390,000000	29,454400
1389,000000	29,851700
1388,000000	30,403200
1387,000000	30,958100
1386,000000	31,545000
1385,000000	32,147600
1384,000000	32,767700
1383,000000	33,449700
1382,000000	34,120200
1381,000000	34,754500
1380,000000	35,213800
1379,000000	35,617100
1378,000000	35,936900
1377,000000	36,187300
1376,000000	36,465500
1375,000000	36,727700
1374,000000	36,982000
1373,000000	37,309600
1372,000000	37,685400
1371,000000	38,083000
1370,000000	38,499500
1369,000000	38,862900
1368,000000	39,233800
1367,000000	39,560000
1366,000000	39,866400
1365,000000	40,091500
1364,000000	40,357000
1363,000000	40,554000
1362,000000	40,783000
1361,000000	41,005600
1360,000000	41,189600
1359,000000	41,245700
1358,000000	41,377500
1357,000000	41,521600
1356,000000	41,698900
1355,000000	41,986800
1354,000000	42,345200
1353,000000	42,787500
1352,000000	43,179100
1351,000000	43,725500
1350,000000	44,233300
1349,000000	44,708300
1348,000000	45,165400
1347,000000	45,576900
1346,000000	46,003200
1345,000000	46,325400
1344,000000	46,705700
1343,000000	47,102900
1342,000000	47,456300
1341,000000	47,782200
1340,000000	48,145500
1339,000000	48,495300
1338,000000	48,814700
1337,000000	49,160200
1336,000000	49,466400
1335,000000	49,790900
1334,000000	50,109000
1333,000000	50,417900
1332,000000	50,714600
1331,000000	51,029000
1330,000000	51,297600
1329,000000	51,584700
1328,000000	51,852600
1327,000000	52,104400
1326,000000	52,349700
1325,000000	52,590300
1324,000000	52,816600
1323,000000	53,045400
1322,000000	53,265900
1321,000000	53,469300
1320,000000	53,686500
1319,000000	53,862400
1318,000000	54,033500
1317,000000	54,217900
1316,000000	54,389400
1315,000000	54,555500
1314,000000	54,717900
1313,000000	54,870100
1312,000000	55,018200
1311,000000	55,156100
1310,000000	55,282300
1309,000000	55,396000
1308,000000	55,516200
1307,000000	55,638300
1306,000000	55,723900
1305,000000	55,796600
1304,000000	55,879200
1303,000000	55,966000
1302,000000	56,028200
1301,000000	56,070600
1300,000000	56,129500
1299,000000	56,170400
1298,000000	56,220400
1297,000000	56,242000
1296,000000	56,269400
1295,000000	56,296000
1294,000000	56,319600
1293,000000	56,336200
1292,000000	56,338800
1291,000000	56,358900
1290,000000	56,352800
1289,000000	56,345600
1288,000000	56,331600
1287,000000	56,305300
1286,000000	56,273700
1285,000000	56,234800
1284,000000	56,178800
1283,000000	56,138300
1282,000000	56,094100
1281,000000	56,041000
1280,000000	55,995600
1279,000000	55,941100
1278,000000	55,884000
1277,000000	55,828800
1276,000000	55,787500
1275,000000	55,745900
1274,000000	55,708900
1273,000000	55,661200
1272,000000	55,624600
1271,000000	55,593400
1270,000000	55,563700
1269,000000	55,524700
1268,000000	55,480900
1267,000000	55,446200
1266,000000	55,408800
1265,000000	55,364900
1264,000000	55,327600
1263,000000	55,272800
1262,000000	55,210400
1261,000000	55,173500
1260,000000	55,117400
1259,000000	55,062000
1258,000000	55,008400
1257,000000	54,954400
1256,000000	54,872800
1255,000000	54,795900
1254,000000	54,726200
1253,000000	54,658900
1252,000000	54,582300
1251,000000	54,485000
1250,000000	54,403000
1249,000000	54,311700
1248,000000	54,218700
1247,000000	54,102300
1246,000000	53,977100
1245,000000	53,855800
1244,000000	53,729400
1243,000000	53,596000
1242,000000	53,465000
1241,000000	53,331000
1240,000000	53,198400
1239,000000	53,059300
1238,000000	52,908000
1237,000000	52,765000
1236,000000	52,608900
1235,000000	52,452900
1234,000000	52,295400
1233,000000	52,131300
1232,000000	51,951400
1231,000000	51,780900
1230,000000	51,600500
1229,000000	51,407900
1228,000000	51,222100
1227,000000	51,031100
1226,000000	50,835100
1225,000000	50,626800
1224,000000	50,425900
1223,000000	50,242600
1222,000000	50,034400
1221,000000	49,808300
1220,000000	49,601600
1219,000000	49,406300
1218,000000	49,215700
1217,000000	49,021000
1216,000000	48,834900
1215,000000	48,644500
1214,000000	48,468900
1213,000000	48,310300
1212,000000	48,135600
1211,000000	47,968200
1210,000000	47,802000
1209,000000	47,644700
1208,000000	47,519000
1207,000000	47,383900
1206,000000	47,249800
1205,000000	47,160900
1204,000000	47,065000
1203,000000	46,971900
1202,000000	46,911200
1201,000000	46,855800
1200,000000	46,799800
1199,000000	46,734400
1198,000000	46,642400
1197,000000	46,529300
1196,000000	46,366700
1195,000000	46,165000
1194,000000	45,911800
1193,000000	45,620100
1192,000000	45,274000
1191,000000	44,855900
1190,000000	44,418300
1189,000000	43,992100
1188,000000	43,623500
1187,000000	43,322600
1186,000000	43,147200
1185,000000	43,088300
1184,000000	43,140400
1183,000000	43,344600
1182,000000	43,657000
1181,000000	44,081000
1180,000000	44,578700
1179,000000	45,082200
1178,000000	45,566200
1177,000000	46,021400
1176,000000	46,435900
1175,000000	46,803600
1174,000000	47,125200
1173,000000	47,445600
1172,000000	47,751200
1171,000000	48,070700
1170,000000	48,401600
1169,000000	48,742900
1168,000000	49,095400
1167,000000	49,447500
1166,000000	49,802400
1165,000000	50,141400
1164,000000	50,518800
1163,000000	50,912400
1162,000000	51,285000
1161,000000	51,668900
1160,000000	52,047800
1159,000000	52,419200
1158,000000	52,786500
1157,000000	53,128600
1156,000000	53,439300
1155,000000	53,754200
1154,000000	54,020300
1153,000000	54,233300
1152,000000	54,407400
1151,000000	54,550500
1150,000000	54,655100
1149,000000	54,766000
1148,000000	54,871800
1147,000000	54,991900
1146,000000	55,159400
1145,000000	55,344700
1144,000000	55,597900
1143,000000	55,878500
1142,000000	56,217600
1141,000000	56,598500
1140,000000	56,985100
1139,000000	57,403400
1138,000000	57,805900
1137,000000	58,241200
1136,000000	58,668000
1135,000000	59,156800
1134,000000	59,621700
1133,000000	60,071400
1132,000000	60,443100
1131,000000	60,812100
1130,000000	61,136000
1129,000000	61,431900
1128,000000	61,658500
1127,000000	61,878400
1126,000000	62,034100
1125,000000	62,184500
1124,000000	62,262000
1123,000000	62,343500
1122,000000	62,444600
1121,000000	62,502200
1120,000000	62,534400
1119,000000	62,563800
1118,000000	62,587300
1117,000000	62,605400
1116,000000	62,586100
1115,000000	62,589800
1114,000000	62,581000
1113,000000	62,542500
1112,000000	62,542000
1111,000000	62,501200
1110,000000	62,488000
1109,000000	62,477700
1108,000000	62,452700
1107,000000	62,436200
1106,000000	62,406000
1105,000000	62,399200
1104,000000	62,365700
1103,000000	62,332600
1102,000000	62,315500
1101,000000	62,279900
1100,000000	62,259300
1099,000000	62,217100
1098,000000	62,180100
1097,000000	62,143800
1096,000000	62,105700
1095,000000	62,063200
1094,000000	62,030400
1093,000000	61,961700
1092,000000	61,928100
1091,000000	61,863000
1090,000000	61,793000
1089,000000	61,742900
1088,000000	61,665900
1087,000000	61,622800
1086,000000	61,558500
1085,000000	61,493700
1084,000000	61,426600
1083,000000	61,342900
1082,000000	61,267900
1081,000000	61,195700
1080,000000	61,148000
1079,000000	61,037200
1078,000000	60,985400
1077,000000	60,910500
1076,000000	60,832500
1075,000000	60,769400
1074,000000	60,691700
1073,000000	60,614000
1072,000000	60,546800
1071,000000	60,464900
1070,000000	60,381100
1069,000000	60,299100
1068,000000	60,234200
1067,000000	60,134700
1066,000000	60,054000
1065,000000	59,976800
1064,000000	59,881700
1063,000000	59,785500
1062,000000	59,697200
1061,000000	59,634700
1060,000000	59,540400
1059,000000	59,449500
1058,000000	59,361000
1057,000000	59,263500
1056,000000	59,169000
1055,000000	59,075300
1054,000000	58,976200
1053,000000	58,875800
1052,000000	58,798000
1051,000000	58,708500
1050,000000	58,616000
1049,000000	58,520300
1048,000000	58,445200
1047,000000	58,358300
1046,000000	58,272800
1045,000000	58,206400
1044,000000	58,145000
1043,000000	58,064400
1042,000000	57,972800
1041,000000	57,901800
1040,000000	57,810700
1039,000000	57,733000
1038,000000	57,653200
1037,000000	57,557000
1036,000000	57,478000
1035,000000	57,401400
1034,000000	57,304000
1033,000000	57,216300
1032,000000	57,106500
1031,000000	57,008300
1030,000000	56,914500
1029,000000	56,826500
1028,000000	56,720900
1027,000000	56,616300
1026,000000	56,519800
1025,000000	56,434300
1024,000000	56,313400
1023,000000	56,236200
1022,000000	56,114700
1021,000000	56,009400
1020,000000	55,906900
1019,000000	55,815900
1018,000000	55,714700
1017,000000	55,638300
1016,000000	55,545900
1015,000000	55,475300
1014,000000	55,405600
1013,000000	55,333100
1012,000000	55,258300
1011,000000	55,216000
1010,000000	55,166000
1009,000000	55,117700
1008,000000	55,082300
1007,000000	55,021600
1006,000000	54,990200
1005,000000	54,958600
1004,000000	54,927900
1003,000000	54,885700
1002,000000	54,829500
1001,000000	54,786100
1000,000000	54,774700
999,000000	54,745900
998,000000	54,711600
997,000000	54,663300
996,000000	54,630700
995,000000	54,602800
994,000000	54,570200
993,000000	54,558400
992,000000	54,533700
991,000000	54,505700
990,000000	54,494100
989,000000	54,469200
988,000000	54,465300
987,000000	54,456000
986,000000	54,433000
985,000000	54,424900
984,000000	54,426200
983,000000	54,417100
982,000000	54,410400
981,000000	54,415900
980,000000	54,430300
979,000000	54,429300
978,000000	54,423800
977,000000	54,449500
976,000000	54,468200
975,000000	54,471900
974,000000	54,475200
973,000000	54,489700
972,000000	54,493100
971,000000	54,480300
970,000000	54,506200
969,000000	54,528900
968,000000	54,529800
967,000000	54,521500
966,000000	54,550700
965,000000	54,576100
964,000000	54,585300
963,000000	54,612100
962,000000	54,634000
961,000000	54,652900
960,000000	54,696300
959,000000	54,723200
958,000000	54,737300
957,000000	54,769100
956,000000	54,801800
955,000000	54,836300
954,000000	54,853500
953,000000	54,877600
952,000000	54,916300
951,000000	54,952400
950,000000	54,968000
949,000000	54,991900
948,000000	55,025200
947,000000	55,051700
946,000000	55,089000
945,000000	55,111300
944,000000	55,125300
943,000000	55,137600
942,000000	55,144800
941,000000	55,168800
940,000000	55,180000
939,000000	55,182000
938,000000	55,193400
937,000000	55,226200
936,000000	55,240700
935,000000	55,243400
934,000000	55,254700
933,000000	55,262400
932,000000	55,287700
931,000000	55,294900
930,000000	55,295400
929,000000	55,312200
928,000000	55,331400
927,000000	55,332300
926,000000	55,332300
925,000000	55,332900
924,000000	55,342700
923,000000	55,349000
922,000000	55,343700
921,000000	55,341200
920,000000	55,334000
919,000000	55,320500
918,000000	55,318000
917,000000	55,324000
916,000000	55,299500
915,000000	55,278500
914,000000	55,258500
913,000000	55,250200
912,000000	55,234800
911,000000	55,230500
910,000000	55,234500
909,000000	55,238400
908,000000	55,242600
907,000000	55,245200
906,000000	55,259800
905,000000	55,283700
904,000000	55,319700
903,000000	55,346700
902,000000	55,369400
901,000000	55,399800
900,000000	55,424400
899,000000	55,467100
898,000000	55,503200
897,000000	55,536400
896,000000	55,571100
895,000000	55,585800
894,000000	55,605800
893,000000	55,623200
892,000000	55,642300
891,000000	55,631500
890,000000	55,629100
889,000000	55,607900
888,000000	55,619200
887,000000	55,630900
886,000000	55,626600
885,000000	55,578700
884,000000	55,569500
883,000000	55,534200
882,000000	55,500400
881,000000	55,429000
880,000000	55,364500
879,000000	55,289400
878,000000	55,202300
877,000000	55,077400
876,000000	55,010000
875,000000	54,840100
874,000000	54,653000
873,000000	54,431000
872,000000	54,229000
871,000000	54,175400
870,000000	54,204500
869,000000	54,264000
868,000000	54,329800
867,000000	54,358500
866,000000	54,410200
865,000000	54,430800
864,000000	54,471800
863,000000	54,501600
862,000000	54,531700
861,000000	54,569200
860,000000	54,577200
859,000000	54,630400
858,000000	54,677900
857,000000	59,224900
856,000000	59,261400
855,000000	60,077900
854,000000	60,050300
853,000000	60,055900
852,000000	59,323700
851,000000	59,752900
850,000000	60,048400
849,000000	60,143300
848,000000	59,722300
847,000000	59,705800
846,000000	59,738500
845,000000	59,656900
844,000000	59,731300
843,000000	59,915500
842,000000	59,539600
841,000000	59,609300
840,000000	59,634600
839,000000	59,489300
838,000000	59,471000
837,000000	59,958800
836,000000	59,334100
835,000000	59,389400
834,000000	59,327500
833,000000	59,639700
832,000000	59,309400
831,000000	59,261500
830,000000	59,302500
829,000000	58,964600
828,000000	59,196800
827,000000	58,941400
826,000000	59,138000
825,000000	58,756400
824,000000	58,729800
823,000000	58,842800
822,000000	58,545000
821,000000	58,381100
820,000000	58,430800
819,000000	58,229200
818,000000	58,174700
817,000000	58,078400
816,000000	57,790600
815,000000	57,642700
814,000000	57,634400
813,000000	57,517500
812,000000	57,316300
811,000000	57,176100
810,000000	57,330400
809,000000	57,111000
808,000000	56,730000
807,000000	56,827000
806,000000	56,699900
805,000000	56,477400
804,000000	56,354900
803,000000	56,217900
802,000000	55,941600
801,000000	55,869900
800,000000	55,813500
799,000000	55,510500
798,000000	55,303400
797,000000	55,181200
796,000000	55,080800
795,000000	54,970900
794,000000	54,644000
793,000000	54,568000
792,000000	54,299900
791,000000	54,207400
790,000000	54,048000
789,000000	53,745900
788,000000	53,656600
787,000000	53,468800
786,000000	53,206600
785,000000	53,142600
784,000000	52,825800
783,000000	52,651400
782,000000	52,394200
781,000000	52,271000
780,000000	51,965300
779,000000	51,795500
778,000000	51,664100
777,000000	51,375400
776,000000	51,249900
775,000000	50,960500
774,000000	50,805600
773,000000	50,580200
772,000000	50,284600
771,000000	49,967200
770,000000	49,903500
769,000000	49,688900
768,000000	49,468500
767,000000	49,257600
766,000000	49,148700
765,000000	48,837900
764,000000	48,492600
763,000000	48,285400
762,000000	48,103900
761,000000	47,773600
760,000000	47,637300
759,000000	47,311800
758,000000	47,173000
757,000000	46,883100
756,000000	46,595500
755,000000	46,302300
754,000000	46,101500
753,000000	45,829900
752,000000	45,652400
751,000000	45,282100
750,000000	44,940100
749,000000	44,729500
748,000000	44,401900
747,000000	44,108700
746,000000	43,832900
745,000000	43,558500
744,000000	43,250300
743,000000	42,966800
742,000000	42,664000
741,000000	42,316300
740,000000	42,021200
739,000000	41,760200
738,000000	41,482400
737,000000	41,219200
736,000000	40,830600
735,000000	40,531900
734,000000	40,276300
733,000000	40,040600
732,000000	39,684100
731,000000	39,408100
730,000000	39,129500
729,000000	38,870500
728,000000	38,625900
727,000000	38,341200
726,000000	38,098900
725,000000	37,781700
724,000000	37,533600
723,000000	37,312600
722,000000	37,056700
721,000000	36,788800
720,000000	36,594400
719,000000	36,310400
718,000000	36,063700
717,000000	35,864800
716,000000	35,646900
715,000000	35,464900
714,000000	35,246200
713,000000	35,020000
712,000000	34,771100
711,000000	34,588500
710,000000	34,402100
709,000000	34,189700
708,000000	34,025300
707,000000	33,837200
706,000000	33,662300
705,000000	33,509400
704,000000	33,342200
703,000000	33,132900
702,000000	32,915900
701,000000	32,704800
700,000000	32,546100
699,000000	32,374700
698,000000	32,158000
697,000000	31,993700
696,000000	31,861400
695,000000	31,702200
694,000000	31,511900
693,000000	31,328800
692,000000	31,184100
691,000000	31,080400
690,000000	30,898400
689,000000	30,758200
688,000000	30,579600
687,000000	30,442400
686,000000	30,310800
685,000000	30,150400
684,000000	30,007000
683,000000	29,840900
682,000000	29,724600
681,000000	29,606700
680,000000	29,489300
679,000000	29,362300
678,000000	29,248600
677,000000	29,178200
676,000000	29,094000
675,000000	28,959400
674,000000	28,877000
673,000000	28,791300
672,000000	28,696000
671,000000	28,623200
670,000000	28,526700
669,000000	28,418100
668,000000	28,356900
667,000000	28,310100
666,000000	28,271000
665,000000	28,203300
664,000000	28,155900
663,000000	28,113500
662,000000	28,067600
661,000000	28,038400
660,000000	28,003400
659,000000	27,969400
658,000000	27,956500
657,000000	27,945700
656,000000	27,937600
655,000000	27,920000
654,000000	27,937500
653,000000	27,983700
652,000000	28,006000
651,000000	28,039500
650,000000	28,118600
649,000000	28,201300
648,000000	28,280000
647,000000	28,370000
646,000000	28,473700
645,000000	28,599400
644,000000	28,726400
643,000000	28,862000
642,000000	29,000100
641,000000	29,143100
640,000000	29,300200
639,000000	29,484700
638,000000	29,665600
637,000000	29,829100
636,000000	30,000700
635,000000	30,181700
634,000000	30,389400
633,000000	30,601300
632,000000	30,790300
631,000000	30,982700
630,000000	31,179200
629,000000	31,353300
628,000000	31,539200
627,000000	31,732900
626,000000	31,919400
625,000000	32,123600
624,000000	32,298400
623,000000	32,482400
622,000000	32,648600
621,000000	32,823800
620,000000	32,982800
619,000000	33,153800
618,000000	33,325700
617,000000	33,472300
616,000000	33,628300
615,000000	33,767300
614,000000	33,926800
613,000000	34,045500
612,000000	34,138600
611,000000	34,256600
610,000000	34,373700
609,000000	34,491000
608,000000	34,592100
607,000000	34,689800
606,000000	34,777600
605,000000	34,868000
604,000000	34,941100
603,000000	35,020100
602,000000	35,067600
601,000000	35,077300
600,000000	35,121700
599,000000	35,170200
598,000000	35,193000
597,000000	35,213100
596,000000	35,216400
595,000000	35,203600
594,000000	35,198600
593,000000	35,193900
592,000000	35,145500
591,000000	35,103000
590,000000	35,058900
589,000000	35,014800
588,000000	34,987900
587,000000	34,909400
586,000000	34,837300
585,000000	34,766900
584,000000	34,682900
583,000000	34,551200
582,000000	34,438000
581,000000	34,318100
580,000000	34,183500
579,000000	34,048200
578,000000	33,905200
577,000000	33,718100
576,000000	33,548400
575,000000	33,346100
574,000000	33,140000
573,000000	32,934100
572,000000	32,721000
571,000000	32,494000
570,000000	32,209800
569,000000	31,916500
568,000000	31,638800
567,000000	31,353200
566,000000	31,041700
565,000000	30,707100
564,000000	30,353000
563,000000	30,016800
562,000000	29,668800
561,000000	29,278700
560,000000	28,871500
559,000000	28,494200
558,000000	28,110200
557,000000	27,698700
556,000000	27,301800
555,000000	26,890100
554,000000	26,457600
553,000000	26,042500
552,000000	25,635700
551,000000	25,221100
550,000000	24,824800
549,000000	24,438900
548,000000	24,053800
547,000000	23,653600
546,000000	23,305900
545,000000	22,946800
544,000000	22,572800
543,000000	22,230200
542,000000	21,899800
541,000000	21,558000
540,000000	21,243600
539,000000	20,951700
538,000000	20,644700
537,000000	20,362300
536,000000	20,098400
535,000000	19,815200
534,000000	19,553000
533,000000	19,301100
532,000000	19,052400
531,000000	18,796100
530,000000	18,557700
529,000000	18,339500
528,000000	18,122700
527,000000	17,919300
526,000000	17,689500
525,000000	17,491800
524,000000	17,304500
523,000000	17,108600
522,000000	16,918000
521,000000	16,733100
520,000000	16,569200
519,000000	16,398700
518,000000	16,250600
517,000000	16,079700
516,000000	15,938100
515,000000	15,781500
514,000000	15,634400
513,000000	15,495700
512,000000	15,372600
511,000000	15,256500
510,000000	15,133100
509,000000	15,012000
508,000000	14,922200
507,000000	14,803100
506,000000	14,694700
505,000000	14,611400
504,000000	14,520800
503,000000	14,417400
502,000000	14,329600
501,000000	14,243100
500,000000	14,165800
499,000000	14,057000
498,000000	14,002900
497,000000	13,915300
496,000000	13,826900
495,000000	13,764000
494,000000	13,667000
493,000000	13,622500
492,000000	13,539400
491,000000	13,481500
490,000000	13,392400
489,000000	13,340500
488,000000	13,276300
487,000000	13,201600
486,000000	13,130000
485,000000	13,051000
484,000000	12,979300
483,000000	12,917200
482,000000	12,839500
481,000000	12,741500
480,000000	12,635700
479,000000	12,506400
478,000000	12,402800
477,000000	12,292900
476,000000	12,210600
475,000000	12,107200
474,000000	11,994500
473,000000	11,890600
472,000000	11,777400
471,000000	11,671500
470,000000	11,559000
469,000000	11,481400
468,000000	11,371400
467,000000	11,263700
466,000000	11,183100
465,000000	11,063900
464,000000	10,962100
463,000000	10,857600
462,000000	10,768100
461,000000	10,661600
460,000000	10,557800
459,000000	10,459000
458,000000	10,368100
457,000000	10,266900
456,000000	10,175500
455,000000	10,078000
454,000000	9,957700
453,000000	9,868600
452,000000	9,767900
451,000000	9,650300
450,000000	9,559900
449,000000	9,452700
448,000000	9,331200
447,000000	9,239700
446,000000	9,138600
445,000000	9,050200
444,000000	8,961100
443,000000	8,844500
442,000000	8,732100
441,000000	8,613100
440,000000	8,522500
439,000000	8,410900
438,000000	8,330200
437,000000	8,222800
436,000000	8,127000
435,000000	8,029500
434,000000	7,942600
433,000000	7,840900
432,000000	7,721400
431,000000	7,638400
430,000000	7,562300
429,000000	7,467600
428,000000	7,380700
427,000000	7,287100
426,000000	7,188500
425,000000	7,105900
424,000000	7,045900
423,000000	6,949900
422,000000	6,877500
421,000000	6,810500
420,000000	6,732600
419,000000	6,647700
418,000000	6,571000
417,000000	6,505500
416,000000	6,435400
415,000000	6,375000
414,000000	6,307800
413,000000	6,258200
412,000000	6,186100
411,000000	6,124400
410,000000	6,052000
409,000000	5,998300
408,000000	5,940600
407,000000	5,894400
406,000000	5,841200
405,000000	5,762400
404,000000	5,732300
403,000000	5,670000
402,000000	5,640000
401,000000	5,612200
400,000000	5,554700
399,000000	5,508200
398,000000	5,451100
397,000000	5,400400
396,000000	5,381600
395,000000	5,353600
394,000000	5,330500
393,000000	5,299500
392,000000	5,233100
391,000000	5,215000
390,000000	5,193700
389,000000	5,167900
388,000000	5,149600
387,000000	5,110100
386,000000	5,085800
385,000000	5,047000
384,000000	5,033000
383,000000	5,026200
382,000000	5,009800
381,000000	4,977400
380,000000	4,953600
379,000000	4,941900
378,000000	4,935200
377,000000	4,908700
376,000000	4,733800
375,000000	4,469600
374,000000	4,486800
373,000000	4,385800
372,000000	4,367800
371,000000	4,564000
370,000000	4,569700
369,000000	4,703900
368,000000	4,786700
367,000000	4,691200
366,000000	4,594900
365,000000	4,642100
364,000000	4,680300
363,000000	4,658700
362,000000	4,631000
361,000000	4,578300
360,000000	4,669200
359,000000	4,790900
358,000000	4,768800
357,000000	4,656600
356,000000	4,523700
355,000000	4,541100
354,000000	4,684400
353,000000	4,595400
352,000000	4,594600
351,000000	4,677600
350,000000	4,734800
349,000000	4,695500
348,000000	4,630100
347,000000	4,601200
346,000000	4,551300
345,000000	4,751000
344,000000	4,770400
343,000000	4,498700
342,000000	4,563000
341,000000	4,816700
340,000000	4,534400
339,000000	4,448200
338,000000	4,651200
337,000000	4,557300
336,000000	4,620500
335,000000	4,723900
334,000000	4,662100
333,000000	4,894300
332,000000	4,932300
331,000000	4,667300
330,000000	4,831500
329,000000	4,988000
328,000000	4,856100
327,000000	4,554200
326,000000	4,417700
325,000000	4,480000
324,000000	4,749600
323,000000	4,642800
322,000000	4,574400
321,000000	4,860400
320,000000	4,981000
319,000000	4,738400
318,000000	4,682400
317,000000	4,814100
316,000000	4,531100
315,000000	4,339200
314,000000	4,332500
313,000000	4,307000
312,000000	4,312400
311,000000	4,325800
310,000000	4,332300
309,000000	4,322800
308,000000	4,324600
307,000000	4,333600
306,000000	4,327600
305,000000	4,293600
304,000000	4,292100
303,000000	4,297000
302,000000	4,320700
301,000000	4,322100
300,000000	4,317300
299,000000	4,323000
298,000000	4,345300
297,000000	4,362800
296,000000	4,304300
295,000000	4,301600
294,000000	4,280300
293,000000	4,279400
292,000000	4,271200
291,000000	4,263200
290,000000	4,258400
289,000000	4,261900
288,000000	4,281300
287,000000	4,255200
286,000000	4,250900
285,000000	4,284700
284,000000	4,304500
283,000000	4,299200
282,000000	4,309500
281,000000	4,309600
280,000000	4,344400
279,000000	4,339000
278,000000	4,363700
277,000000	4,358200
276,000000	4,303200
275,000000	4,343300
274,000000	4,399700
273,000000	4,382700
272,000000	4,419800
271,000000	4,425700
270,000000	4,434200
269,000000	4,443500
268,000000	4,504400
267,000000	4,515100
266,000000	4,534300
265,000000	4,520600
264,000000	4,545600
263,000000	4,545500
262,000000	4,605600
261,000000	4,648900
260,000000	4,647800
259,000000	4,681600
258,000000	4,649600
257,000000	4,635600
256,000000	4,683500
255,000000	4,717200
254,000000	4,693900
253,000000	4,750600
252,000000	4,733100
251,000000	4,740700
250,000000	4,718400
