PE UV       SUBTECH     SPECTRUM    ASCII       PEDS        4.00        
   -1
CICIMAUCR0233-2.ASC
24/06/14
13:27:51.00
24/06/14
13:27:51.00
Vinicio Soto Monge
C. resplendens. Sex F. Ventral 
250,000000
1
Lambda 1050
1050L1511233
PerkinElmer UV WinLab 6.3.2.0749 / 2.02.05 Lambda 900 UV/VIS/NIR, Aug  7 2015 09:38:08

0
0
3350/servo 860,8/2
0
0
UV/VIS
1
1
1
DoubleDePol,CommonBeamDepol,RBeamAtt,SBeamAtt,60mm sphere, WB InGaAs Detector
0
0
0
0
Program
Program
3350/servo 860,8/2
3350/0,2 860,8/0,2
3350/0,2 860,8/0,2
0
15.00
 
 
 
0
 
860,8
319,2
860,8
Front
100
on
S:100 R:100
0
0
0
0
 
0
 
 
 
0
 
 
0
0
0
0
0
 
 
 
 
0
0


0
0
#HDR
-1
-1
#GR
nm
%R
1.0
0.0
2500,000000
-1,000000
2251
8
52,740500
4,101400
#DATA
2500,000000	4,637500
2499,000000	4,773700
2498,000000	4,648600
2497,000000	4,519800
2496,000000	4,561400
2495,000000	4,563600
2494,000000	4,569100
2493,000000	4,552600
2492,000000	4,527300
2491,000000	4,623300
2490,000000	4,457700
2489,000000	4,446200
2488,000000	4,432000
2487,000000	4,511900
2486,000000	4,442700
2485,000000	4,460200
2484,000000	4,427200
2483,000000	4,403200
2482,000000	4,437300
2481,000000	4,421500
2480,000000	4,448400
2479,000000	4,412200
2478,000000	4,438500
2477,000000	4,471900
2476,000000	4,429200
2475,000000	4,391300
2474,000000	4,440100
2473,000000	4,447400
2472,000000	4,422800
2471,000000	4,370100
2470,000000	4,404100
2469,000000	4,376900
2468,000000	4,389800
2467,000000	4,394300
2466,000000	4,403400
2465,000000	4,403300
2464,000000	4,387600
2463,000000	4,370200
2462,000000	4,401600
2461,000000	4,397100
2460,000000	4,399200
2459,000000	4,389000
2458,000000	4,417800
2457,000000	4,443600
2456,000000	4,400700
2455,000000	4,414500
2454,000000	4,450300
2453,000000	4,455600
2452,000000	4,453700
2451,000000	4,458600
2450,000000	4,474000
2449,000000	4,467100
2448,000000	4,491600
2447,000000	4,493700
2446,000000	4,510900
2445,000000	4,519500
2444,000000	4,550900
2443,000000	4,550600
2442,000000	4,539600
2441,000000	4,570200
2440,000000	4,573900
2439,000000	4,603100
2438,000000	4,614700
2437,000000	4,611000
2436,000000	4,627700
2435,000000	4,620200
2434,000000	4,648900
2433,000000	4,671300
2432,000000	4,673000
2431,000000	4,672900
2430,000000	4,673900
2429,000000	4,690700
2428,000000	4,707800
2427,000000	4,707600
2426,000000	4,729400
2425,000000	4,733100
2424,000000	4,748400
2423,000000	4,765800
2422,000000	4,752800
2421,000000	4,740300
2420,000000	4,773200
2419,000000	4,794500
2418,000000	4,789200
2417,000000	4,802300
2416,000000	4,797600
2415,000000	4,802700
2414,000000	4,818600
2413,000000	4,825500
2412,000000	4,833400
2411,000000	4,824500
2410,000000	4,844600
2409,000000	4,836400
2408,000000	4,829100
2407,000000	4,845300
2406,000000	4,860700
2405,000000	4,868200
2404,000000	4,868500
2403,000000	4,876000
2402,000000	4,888600
2401,000000	4,864300
2400,000000	4,874500
2399,000000	4,884000
2398,000000	4,880800
2397,000000	4,881700
2396,000000	4,881400
2395,000000	4,891800
2394,000000	4,890400
2393,000000	4,890400
2392,000000	4,897500
2391,000000	4,904300
2390,000000	4,916200
2389,000000	4,904200
2388,000000	4,921100
2387,000000	4,913600
2386,000000	4,893000
2385,000000	4,911800
2384,000000	4,927300
2383,000000	4,926500
2382,000000	4,908500
2381,000000	4,900600
2380,000000	4,911100
2379,000000	4,935000
2378,000000	4,922100
2377,000000	4,914500
2376,000000	4,916200
2375,000000	4,914100
2374,000000	4,909200
2373,000000	4,896700
2372,000000	4,898200
2371,000000	4,891900
2370,000000	4,888000
2369,000000	4,884400
2368,000000	4,876400
2367,000000	4,869200
2366,000000	4,861000
2365,000000	4,860200
2364,000000	4,863300
2363,000000	4,860600
2362,000000	4,848300
2361,000000	4,844900
2360,000000	4,826000
2359,000000	4,829700
2358,000000	4,815600
2357,000000	4,788200
2356,000000	4,798000
2355,000000	4,801000
2354,000000	4,791400
2353,000000	4,773600
2352,000000	4,764900
2351,000000	4,778200
2350,000000	4,782700
2349,000000	4,772000
2348,000000	4,780500
2347,000000	4,788400
2346,000000	4,784200
2345,000000	4,793500
2344,000000	4,797300
2343,000000	4,803700
2342,000000	4,794500
2341,000000	4,806000
2340,000000	4,820700
2339,000000	4,822000
2338,000000	4,823000
2337,000000	4,829100
2336,000000	4,822200
2335,000000	4,826700
2334,000000	4,834400
2333,000000	4,832800
2332,000000	4,831400
2331,000000	4,823200
2330,000000	4,815100
2329,000000	4,800600
2328,000000	4,804500
2327,000000	4,785100
2326,000000	4,773500
2325,000000	4,770800
2324,000000	4,760500
2323,000000	4,755200
2322,000000	4,740500
2321,000000	4,727900
2320,000000	4,707600
2319,000000	4,697400
2318,000000	4,691300
2317,000000	4,678900
2316,000000	4,654600
2315,000000	4,626700
2314,000000	4,619700
2313,000000	4,599800
2312,000000	4,601200
2311,000000	4,588700
2310,000000	4,562300
2309,000000	4,551100
2308,000000	4,567300
2307,000000	4,546500
2306,000000	4,539400
2305,000000	4,540700
2304,000000	4,530100
2303,000000	4,526100
2302,000000	4,530900
2301,000000	4,538600
2300,000000	4,542400
2299,000000	4,553900
2298,000000	4,583000
2297,000000	4,586800
2296,000000	4,590400
2295,000000	4,596700
2294,000000	4,609000
2293,000000	4,624800
2292,000000	4,623500
2291,000000	4,637100
2290,000000	4,651800
2289,000000	4,653100
2288,000000	4,664700
2287,000000	4,661400
2286,000000	4,645400
2285,000000	4,677600
2284,000000	4,678200
2283,000000	4,654300
2282,000000	4,666500
2281,000000	4,649300
2280,000000	4,624900
2279,000000	4,639300
2278,000000	4,631400
2277,000000	4,628300
2276,000000	4,616700
2275,000000	4,605300
2274,000000	4,596400
2273,000000	4,600800
2272,000000	4,596800
2271,000000	4,585100
2270,000000	4,592900
2269,000000	4,583700
2268,000000	4,610400
2267,000000	4,612500
2266,000000	4,608500
2265,000000	4,629600
2264,000000	4,655800
2263,000000	4,659400
2262,000000	4,681400
2261,000000	4,710300
2260,000000	4,749000
2259,000000	4,791200
2258,000000	4,811200
2257,000000	4,852300
2256,000000	4,902500
2255,000000	4,955800
2254,000000	4,987600
2253,000000	5,031400
2252,000000	5,076400
2251,000000	5,149100
2250,000000	5,173500
2249,000000	5,223300
2248,000000	5,262200
2247,000000	5,305500
2246,000000	5,349400
2245,000000	5,380600
2244,000000	5,401900
2243,000000	5,440900
2242,000000	5,455600
2241,000000	5,490900
2240,000000	5,522700
2239,000000	5,534400
2238,000000	5,574100
2237,000000	5,596200
2236,000000	5,604400
2235,000000	5,629000
2234,000000	5,640200
2233,000000	5,658600
2232,000000	5,676900
2231,000000	5,677000
2230,000000	5,693100
2229,000000	5,679400
2228,000000	5,690000
2227,000000	5,728500
2226,000000	5,702800
2225,000000	5,709100
2224,000000	5,708200
2223,000000	5,702000
2222,000000	5,697700
2221,000000	5,718700
2220,000000	5,726300
2219,000000	5,697800
2218,000000	5,684500
2217,000000	5,670700
2216,000000	5,682200
2215,000000	5,646400
2214,000000	5,666900
2213,000000	5,653500
2212,000000	5,673500
2211,000000	5,664500
2210,000000	5,621800
2209,000000	5,647700
2208,000000	5,635700
2207,000000	5,634100
2206,000000	5,636500
2205,000000	5,606200
2204,000000	5,614200
2203,000000	5,616300
2202,000000	5,620500
2201,000000	5,602400
2200,000000	5,607900
2199,000000	5,607300
2198,000000	5,598800
2197,000000	5,601800
2196,000000	5,598400
2195,000000	5,597600
2194,000000	5,597900
2193,000000	5,584400
2192,000000	5,596400
2191,000000	5,576800
2190,000000	5,579200
2189,000000	5,585000
2188,000000	5,575600
2187,000000	5,573300
2186,000000	5,575500
2185,000000	5,570600
2184,000000	5,560400
2183,000000	5,561800
2182,000000	5,557600
2181,000000	5,544000
2180,000000	5,548700
2179,000000	5,550800
2178,000000	5,556500
2177,000000	5,543100
2176,000000	5,541700
2175,000000	5,540200
2174,000000	5,556100
2173,000000	5,565200
2172,000000	5,540600
2171,000000	5,555100
2170,000000	5,573400
2169,000000	5,556400
2168,000000	5,563200
2167,000000	5,558000
2166,000000	5,559500
2165,000000	5,568000
2164,000000	5,573100
2163,000000	5,584600
2162,000000	5,601800
2161,000000	5,603500
2160,000000	5,629700
2159,000000	5,598900
2158,000000	5,607600
2157,000000	5,630300
2156,000000	5,641500
2155,000000	5,652800
2154,000000	5,666300
2153,000000	5,677300
2152,000000	5,683200
2151,000000	5,688300
2150,000000	5,685000
2149,000000	5,720100
2148,000000	5,701600
2147,000000	5,698500
2146,000000	5,743600
2145,000000	5,758400
2144,000000	5,748700
2143,000000	5,753200
2142,000000	5,764100
2141,000000	5,776900
2140,000000	5,782800
2139,000000	5,784200
2138,000000	5,793300
2137,000000	5,795300
2136,000000	5,805000
2135,000000	5,811300
2134,000000	5,834000
2133,000000	5,835700
2132,000000	5,839000
2131,000000	5,837800
2130,000000	5,844400
2129,000000	5,843800
2128,000000	5,858700
2127,000000	5,843300
2126,000000	5,834400
2125,000000	5,844700
2124,000000	5,836900
2123,000000	5,837000
2122,000000	5,836800
2121,000000	5,842000
2120,000000	5,821800
2119,000000	5,816300
2118,000000	5,808900
2117,000000	5,799800
2116,000000	5,797400
2115,000000	5,776500
2114,000000	5,775100
2113,000000	5,779100
2112,000000	5,769700
2111,000000	5,756600
2110,000000	5,749200
2109,000000	5,749300
2108,000000	5,740900
2107,000000	5,726300
2106,000000	5,706700
2105,000000	5,704600
2104,000000	5,713600
2103,000000	5,703600
2102,000000	5,698600
2101,000000	5,689400
2100,000000	5,671400
2099,000000	5,670600
2098,000000	5,674400
2097,000000	5,653300
2096,000000	5,657800
2095,000000	5,661300
2094,000000	5,649400
2093,000000	5,636400
2092,000000	5,624800
2091,000000	5,621800
2090,000000	5,613800
2089,000000	5,610900
2088,000000	5,610300
2087,000000	5,602400
2086,000000	5,586400
2085,000000	5,576400
2084,000000	5,589200
2083,000000	5,585700
2082,000000	5,567200
2081,000000	5,565700
2080,000000	5,562100
2079,000000	5,549000
2078,000000	5,539300
2077,000000	5,542400
2076,000000	5,535400
2075,000000	5,519000
2074,000000	5,502500
2073,000000	5,485600
2072,000000	5,488800
2071,000000	5,494600
2070,000000	5,469300
2069,000000	5,443100
2068,000000	5,439600
2067,000000	5,441200
2066,000000	5,422500
2065,000000	5,400900
2064,000000	5,408100
2063,000000	5,392400
2062,000000	5,379900
2061,000000	5,366900
2060,000000	5,357400
2059,000000	5,354400
2058,000000	5,347300
2057,000000	5,346600
2056,000000	5,336000
2055,000000	5,323100
2054,000000	5,335700
2053,000000	5,344700
2052,000000	5,328400
2051,000000	5,322400
2050,000000	5,344000
2049,000000	5,363500
2048,000000	5,367000
2047,000000	5,369600
2046,000000	5,393500
2045,000000	5,412200
2044,000000	5,407700
2043,000000	5,422600
2042,000000	5,450000
2041,000000	5,445700
2040,000000	5,467200
2039,000000	5,493800
2038,000000	5,497200
2037,000000	5,507600
2036,000000	5,522600
2035,000000	5,530200
2034,000000	5,534800
2033,000000	5,563500
2032,000000	5,565900
2031,000000	5,544900
2030,000000	5,552500
2029,000000	5,576800
2028,000000	5,589100
2027,000000	5,581700
2026,000000	5,583000
2025,000000	5,590700
2024,000000	5,590600
2023,000000	5,595200
2022,000000	5,601200
2021,000000	5,600300
2020,000000	5,601200
2019,000000	5,586200
2018,000000	5,588700
2017,000000	5,592500
2016,000000	5,591400
2015,000000	5,593800
2014,000000	5,584300
2013,000000	5,577900
2012,000000	5,566600
2011,000000	5,562700
2010,000000	5,541800
2009,000000	5,547300
2008,000000	5,542400
2007,000000	5,528100
2006,000000	5,530300
2005,000000	5,507200
2004,000000	5,465400
2003,000000	5,478600
2002,000000	5,483200
2001,000000	5,463500
2000,000000	5,457000
1999,000000	5,425600
1998,000000	5,425400
1997,000000	5,409900
1996,000000	5,394100
1995,000000	5,374500
1994,000000	5,365100
1993,000000	5,340200
1992,000000	5,340000
1991,000000	5,325500
1990,000000	5,293100
1989,000000	5,285600
1988,000000	5,263800
1987,000000	5,242200
1986,000000	5,241700
1985,000000	5,216300
1984,000000	5,196800
1983,000000	5,178200
1982,000000	5,183800
1981,000000	5,154000
1980,000000	5,131200
1979,000000	5,126200
1978,000000	5,110900
1977,000000	5,088100
1976,000000	5,070400
1975,000000	5,048000
1974,000000	5,031400
1973,000000	5,026500
1972,000000	5,003800
1971,000000	5,004400
1970,000000	4,990200
1969,000000	4,972100
1968,000000	4,960200
1967,000000	4,943000
1966,000000	4,947200
1965,000000	4,926000
1964,000000	4,911700
1963,000000	4,898000
1962,000000	4,888500
1961,000000	4,894300
1960,000000	4,867600
1959,000000	4,856700
1958,000000	4,850700
1957,000000	4,839400
1956,000000	4,821600
1955,000000	4,829800
1954,000000	4,819600
1953,000000	4,786500
1952,000000	4,788200
1951,000000	4,779100
1950,000000	4,773100
1949,000000	4,742300
1948,000000	4,745200
1947,000000	4,753900
1946,000000	4,766400
1945,000000	4,745000
1944,000000	4,735400
1943,000000	4,734700
1942,000000	4,724500
1941,000000	4,724900
1940,000000	4,708200
1939,000000	4,703700
1938,000000	4,714600
1937,000000	4,716300
1936,000000	4,719000
1935,000000	4,714700
1934,000000	4,719900
1933,000000	4,727100
1932,000000	4,755100
1931,000000	4,743700
1930,000000	4,751400
1929,000000	4,753600
1928,000000	4,777600
1927,000000	4,791300
1926,000000	4,790900
1925,000000	4,787100
1924,000000	4,811400
1923,000000	4,825500
1922,000000	4,858200
1921,000000	4,865800
1920,000000	4,870600
1919,000000	4,905400
1918,000000	4,934800
1917,000000	4,955200
1916,000000	4,978600
1915,000000	5,004700
1914,000000	5,011200
1913,000000	5,066600
1912,000000	5,095700
1911,000000	5,128900
1910,000000	5,165500
1909,000000	5,196100
1908,000000	5,204600
1907,000000	5,268200
1906,000000	5,303400
1905,000000	5,366000
1904,000000	5,408200
1903,000000	5,458700
1902,000000	5,494400
1901,000000	5,559600
1900,000000	5,626200
1899,000000	5,676300
1898,000000	5,756600
1897,000000	5,812800
1896,000000	5,888100
1895,000000	5,939100
1894,000000	6,023000
1893,000000	6,099000
1892,000000	6,191100
1891,000000	6,308200
1890,000000	6,433300
1889,000000	6,517800
1888,000000	6,638000
1887,000000	6,781300
1886,000000	6,911400
1885,000000	7,063700
1884,000000	7,218200
1883,000000	7,401700
1882,000000	7,609800
1881,000000	7,786300
1880,000000	7,967700
1879,000000	8,153700
1878,000000	8,359400
1877,000000	8,567600
1876,000000	8,772300
1875,000000	8,992200
1874,000000	9,205900
1873,000000	9,431900
1872,000000	9,627700
1871,000000	9,850200
1870,000000	10,048800
1869,000000	10,245700
1868,000000	10,450500
1867,000000	10,580800
1866,000000	10,720600
1865,000000	10,840600
1864,000000	10,939200
1863,000000	11,042100
1862,000000	11,158700
1861,000000	11,269500
1860,000000	11,371700
1859,000000	11,481800
1858,000000	11,564600
1857,000000	11,640100
1856,000000	11,715800
1855,000000	11,763300
1854,000000	11,821600
1853,000000	11,852600
1852,000000	11,875000
1851,000000	11,904400
1850,000000	11,917200
1849,000000	11,940900
1848,000000	11,956800
1847,000000	11,990000
1846,000000	12,002300
1845,000000	11,982900
1844,000000	11,975600
1843,000000	11,967100
1842,000000	11,975900
1841,000000	11,981800
1840,000000	11,991000
1839,000000	12,001300
1838,000000	11,981700
1837,000000	11,954100
1836,000000	11,945500
1835,000000	11,941500
1834,000000	11,921100
1833,000000	11,888400
1832,000000	11,851700
1831,000000	11,828100
1830,000000	11,805700
1829,000000	11,764900
1828,000000	11,737900
1827,000000	11,711600
1826,000000	11,674200
1825,000000	11,637900
1824,000000	11,601100
1823,000000	11,578800
1822,000000	11,567000
1821,000000	11,543100
1820,000000	11,537100
1819,000000	11,522400
1818,000000	11,500600
1817,000000	11,482200
1816,000000	11,458500
1815,000000	11,445500
1814,000000	11,438600
1813,000000	11,417800
1812,000000	11,422700
1811,000000	11,415800
1810,000000	11,391600
1809,000000	11,367700
1808,000000	11,342900
1807,000000	11,308400
1806,000000	11,293400
1805,000000	11,281100
1804,000000	11,252000
1803,000000	11,218500
1802,000000	11,187700
1801,000000	11,172000
1800,000000	11,142600
1799,000000	11,098400
1798,000000	11,081900
1797,000000	11,047700
1796,000000	11,012100
1795,000000	11,005600
1794,000000	10,980500
1793,000000	10,949000
1792,000000	10,921000
1791,000000	10,889100
1790,000000	10,861900
1789,000000	10,829900
1788,000000	10,801900
1787,000000	10,774900
1786,000000	10,747200
1785,000000	10,723900
1784,000000	10,695700
1783,000000	10,658900
1782,000000	10,616300
1781,000000	10,580700
1780,000000	10,540900
1779,000000	10,516600
1778,000000	10,485700
1777,000000	10,440400
1776,000000	10,407000
1775,000000	10,372400
1774,000000	10,316900
1773,000000	10,270700
1772,000000	10,224600
1771,000000	10,189200
1770,000000	10,145400
1769,000000	10,076500
1768,000000	10,033400
1767,000000	9,994100
1766,000000	9,950600
1765,000000	9,928500
1764,000000	9,889300
1763,000000	9,865700
1762,000000	9,857500
1761,000000	9,864900
1760,000000	9,894500
1759,000000	9,916500
1758,000000	9,939400
1757,000000	9,979100
1756,000000	10,016700
1755,000000	10,028400
1754,000000	10,052700
1753,000000	10,085900
1752,000000	10,109600
1751,000000	10,116000
1750,000000	10,131600
1749,000000	10,138600
1748,000000	10,121500
1747,000000	10,104800
1746,000000	10,091000
1745,000000	10,064600
1744,000000	10,035600
1743,000000	9,971900
1742,000000	9,908900
1741,000000	9,849900
1740,000000	9,777900
1739,000000	9,689700
1738,000000	9,593200
1737,000000	9,499900
1736,000000	9,414800
1735,000000	9,360300
1734,000000	9,306500
1733,000000	9,281000
1732,000000	9,269900
1731,000000	9,269000
1730,000000	9,282900
1729,000000	9,317800
1728,000000	9,359800
1727,000000	9,392200
1726,000000	9,440100
1725,000000	9,474300
1724,000000	9,516400
1723,000000	9,557700
1722,000000	9,584600
1721,000000	9,605300
1720,000000	9,651200
1719,000000	9,676000
1718,000000	9,695300
1717,000000	9,716800
1716,000000	9,760700
1715,000000	9,790100
1714,000000	9,823800
1713,000000	9,881200
1712,000000	9,921300
1711,000000	9,950000
1710,000000	9,984300
1709,000000	10,000700
1708,000000	10,016600
1707,000000	10,018800
1706,000000	10,000000
1705,000000	9,975600
1704,000000	9,959200
1703,000000	9,928200
1702,000000	9,890400
1701,000000	9,847600
1700,000000	9,777900
1699,000000	9,714200
1698,000000	9,653900
1697,000000	9,590700
1696,000000	9,530700
1695,000000	9,493000
1694,000000	9,459400
1693,000000	9,478200
1692,000000	9,516400
1691,000000	9,549800
1690,000000	9,628100
1689,000000	9,686600
1688,000000	9,737800
1687,000000	9,790700
1686,000000	9,849100
1685,000000	9,877200
1684,000000	9,901800
1683,000000	9,943400
1682,000000	10,026200
1681,000000	10,162400
1680,000000	10,332300
1679,000000	10,543800
1678,000000	10,773200
1677,000000	11,030400
1676,000000	11,265000
1675,000000	11,533800
1674,000000	11,733400
1673,000000	11,921400
1672,000000	12,067800
1671,000000	12,233500
1670,000000	12,373400
1669,000000	12,495600
1668,000000	12,591200
1667,000000	12,678200
1666,000000	12,748100
1665,000000	12,805200
1664,000000	12,857100
1663,000000	12,914600
1662,000000	12,959300
1661,000000	12,991300
1660,000000	13,033900
1659,000000	13,045500
1658,000000	13,090600
1657,000000	13,095100
1656,000000	13,116900
1655,000000	13,143400
1654,000000	13,109500
1653,000000	13,132900
1652,000000	13,113400
1651,000000	13,097800
1650,000000	13,081500
1649,000000	13,059300
1648,000000	13,043700
1647,000000	13,017100
1646,000000	12,983500
1645,000000	12,957300
1644,000000	12,930200
1643,000000	12,916000
1642,000000	12,851500
1641,000000	12,823200
1640,000000	12,775500
1639,000000	12,765400
1638,000000	12,734900
1637,000000	12,663300
1636,000000	12,638400
1635,000000	12,588500
1634,000000	12,563300
1633,000000	12,517100
1632,000000	12,470400
1631,000000	12,446100
1630,000000	12,377000
1629,000000	12,322300
1628,000000	12,301800
1627,000000	12,231100
1626,000000	12,195600
1625,000000	12,162100
1624,000000	12,094300
1623,000000	12,046900
1622,000000	11,999000
1621,000000	11,947800
1620,000000	11,908900
1619,000000	11,869800
1618,000000	11,823000
1617,000000	11,769200
1616,000000	11,727700
1615,000000	11,697400
1614,000000	11,639600
1613,000000	11,609200
1612,000000	11,578200
1611,000000	11,540500
1610,000000	11,498900
1609,000000	11,447900
1608,000000	11,400000
1607,000000	11,361100
1606,000000	11,324100
1605,000000	11,293600
1604,000000	11,253600
1603,000000	11,197200
1602,000000	11,152100
1601,000000	11,128100
1600,000000	11,081700
1599,000000	11,050100
1598,000000	10,988900
1597,000000	10,956500
1596,000000	10,915300
1595,000000	10,871200
1594,000000	10,842300
1593,000000	10,813600
1592,000000	10,783500
1591,000000	10,748800
1590,000000	10,711500
1589,000000	10,680600
1588,000000	10,635900
1587,000000	10,613900
1586,000000	10,583700
1585,000000	10,552700
1584,000000	10,522400
1583,000000	10,500200
1582,000000	10,467700
1581,000000	10,465000
1580,000000	10,428800
1579,000000	10,396100
1578,000000	10,374400
1577,000000	10,358000
1576,000000	10,337200
1575,000000	10,316300
1574,000000	10,318800
1573,000000	10,297500
1572,000000	10,275300
1571,000000	10,265700
1570,000000	10,252500
1569,000000	10,240100
1568,000000	10,231200
1567,000000	10,222900
1566,000000	10,213100
1565,000000	10,224100
1564,000000	10,212100
1563,000000	10,202300
1562,000000	10,187500
1561,000000	10,183800
1560,000000	10,168500
1559,000000	10,155300
1558,000000	10,151300
1557,000000	10,135200
1556,000000	10,127800
1555,000000	10,115200
1554,000000	10,103800
1553,000000	10,082500
1552,000000	10,058500
1551,000000	10,050500
1550,000000	10,023300
1549,000000	10,010500
1548,000000	9,983800
1547,000000	9,958800
1546,000000	9,942200
1545,000000	9,926100
1544,000000	9,914600
1543,000000	9,903100
1542,000000	9,886000
1541,000000	9,861600
1540,000000	9,855800
1539,000000	9,841600
1538,000000	9,819600
1537,000000	9,810600
1536,000000	9,792600
1535,000000	9,771900
1534,000000	9,742700
1533,000000	9,729800
1532,000000	9,708800
1531,000000	9,688700
1530,000000	9,669400
1529,000000	9,636500
1528,000000	9,611600
1527,000000	9,590100
1526,000000	9,561400
1525,000000	9,526300
1524,000000	9,502400
1523,000000	9,482900
1522,000000	9,459800
1521,000000	9,432700
1520,000000	9,407400
1519,000000	9,376300
1518,000000	9,342900
1517,000000	9,319100
1516,000000	9,284000
1515,000000	9,260000
1514,000000	9,239500
1513,000000	9,193900
1512,000000	9,148700
1511,000000	9,117300
1510,000000	9,090700
1509,000000	9,058700
1508,000000	9,035600
1507,000000	9,004300
1506,000000	8,962200
1505,000000	8,932900
1504,000000	8,904400
1503,000000	8,875400
1502,000000	8,850600
1501,000000	8,814200
1500,000000	8,780200
1499,000000	8,758500
1498,000000	8,737100
1497,000000	8,711000
1496,000000	8,684500
1495,000000	8,654300
1494,000000	8,622800
1493,000000	8,611800
1492,000000	8,587500
1491,000000	8,569800
1490,000000	8,542800
1489,000000	8,519900
1488,000000	8,510100
1487,000000	8,497100
1486,000000	8,476000
1485,000000	8,453400
1484,000000	8,435600
1483,000000	8,425000
1482,000000	8,412900
1481,000000	8,398300
1480,000000	8,386800
1479,000000	8,373100
1478,000000	8,349700
1477,000000	8,350600
1476,000000	8,347000
1475,000000	8,326900
1474,000000	8,305300
1473,000000	8,311300
1472,000000	8,323400
1471,000000	8,320000
1470,000000	8,325300
1469,000000	8,314900
1468,000000	8,321300
1467,000000	8,336700
1466,000000	8,319300
1465,000000	8,309900
1464,000000	8,317400
1463,000000	8,309600
1462,000000	8,321900
1461,000000	8,331400
1460,000000	8,337400
1459,000000	8,368300
1458,000000	8,385300
1457,000000	8,384000
1456,000000	8,403600
1455,000000	8,428200
1454,000000	8,469300
1453,000000	8,480100
1452,000000	8,494800
1451,000000	8,529200
1450,000000	8,572500
1449,000000	8,613200
1448,000000	8,621500
1447,000000	8,651800
1446,000000	8,710600
1445,000000	8,730600
1444,000000	8,754800
1443,000000	8,789000
1442,000000	8,827600
1441,000000	8,874600
1440,000000	8,907100
1439,000000	8,959700
1438,000000	9,006700
1437,000000	9,046000
1436,000000	9,097300
1435,000000	9,136400
1434,000000	9,190400
1433,000000	9,253700
1432,000000	9,303200
1431,000000	9,348500
1430,000000	9,424300
1429,000000	9,487200
1428,000000	9,559500
1427,000000	9,649200
1426,000000	9,727000
1425,000000	9,816600
1424,000000	9,888400
1423,000000	10,005700
1422,000000	10,089500
1421,000000	10,201000
1420,000000	10,315700
1419,000000	10,427200
1418,000000	10,563400
1417,000000	10,674300
1416,000000	10,795800
1415,000000	10,938900
1414,000000	11,104700
1413,000000	11,269900
1412,000000	11,426700
1411,000000	11,566400
1410,000000	11,743900
1409,000000	11,942700
1408,000000	12,189100
1407,000000	12,418000
1406,000000	12,652700
1405,000000	12,877400
1404,000000	13,154600
1403,000000	13,452000
1402,000000	13,696400
1401,000000	13,959600
1400,000000	14,272600
1399,000000	14,606700
1398,000000	14,864200
1397,000000	15,094600
1396,000000	15,366900
1395,000000	15,701000
1394,000000	16,052200
1393,000000	16,298900
1392,000000	16,599200
1391,000000	16,951900
1390,000000	17,314200
1389,000000	17,626700
1388,000000	18,020500
1387,000000	18,491200
1386,000000	18,943800
1385,000000	19,408000
1384,000000	19,884500
1383,000000	20,422400
1382,000000	20,963200
1381,000000	21,484300
1380,000000	21,954400
1379,000000	22,286100
1378,000000	22,588100
1377,000000	22,839800
1376,000000	23,096700
1375,000000	23,304900
1374,000000	23,565200
1373,000000	23,807400
1372,000000	24,114700
1371,000000	24,423700
1370,000000	24,780400
1369,000000	25,085000
1368,000000	25,384300
1367,000000	25,680100
1366,000000	25,942600
1365,000000	26,158700
1364,000000	26,397500
1363,000000	26,561200
1362,000000	26,767100
1361,000000	26,989800
1360,000000	27,164900
1359,000000	27,260800
1358,000000	27,365000
1357,000000	27,502900
1356,000000	27,654200
1355,000000	27,868500
1354,000000	28,138400
1353,000000	28,507300
1352,000000	28,855400
1351,000000	29,299800
1350,000000	29,755200
1349,000000	30,176100
1348,000000	30,594200
1347,000000	30,988100
1346,000000	31,375100
1345,000000	31,710100
1344,000000	32,082600
1343,000000	32,463700
1342,000000	32,793400
1341,000000	33,135500
1340,000000	33,509100
1339,000000	33,846700
1338,000000	34,189000
1337,000000	34,518500
1336,000000	34,863600
1335,000000	35,221400
1334,000000	35,539700
1333,000000	35,887700
1332,000000	36,233100
1331,000000	36,570800
1330,000000	36,879700
1329,000000	37,187600
1328,000000	37,481000
1327,000000	37,806500
1326,000000	38,100800
1325,000000	38,372000
1324,000000	38,662100
1323,000000	38,931100
1322,000000	39,179400
1321,000000	39,437500
1320,000000	39,677100
1319,000000	39,909400
1318,000000	40,153900
1317,000000	40,372300
1316,000000	40,579900
1315,000000	40,775000
1314,000000	40,985100
1313,000000	41,185100
1312,000000	41,373600
1311,000000	41,554500
1310,000000	41,717900
1309,000000	41,875000
1308,000000	42,011400
1307,000000	42,172300
1306,000000	42,316700
1305,000000	42,415000
1304,000000	42,538300
1303,000000	42,639900
1302,000000	42,740200
1301,000000	42,825500
1300,000000	42,912600
1299,000000	42,984100
1298,000000	43,045700
1297,000000	43,111100
1296,000000	43,164000
1295,000000	43,207400
1294,000000	43,248100
1293,000000	43,288900
1292,000000	43,320800
1291,000000	43,341500
1290,000000	43,357000
1289,000000	43,373400
1288,000000	43,377600
1287,000000	43,359200
1286,000000	43,354400
1285,000000	43,339100
1284,000000	43,297900
1283,000000	43,267100
1282,000000	43,239800
1281,000000	43,184600
1280,000000	43,138400
1279,000000	43,098100
1278,000000	43,049000
1277,000000	42,997200
1276,000000	42,949000
1275,000000	42,904000
1274,000000	42,871000
1273,000000	42,833200
1272,000000	42,787300
1271,000000	42,745600
1270,000000	42,706000
1269,000000	42,666800
1268,000000	42,630100
1267,000000	42,599100
1266,000000	42,561100
1265,000000	42,505300
1264,000000	42,450900
1263,000000	42,397700
1262,000000	42,342400
1261,000000	42,291900
1260,000000	42,240000
1259,000000	42,175200
1258,000000	42,119600
1257,000000	42,053000
1256,000000	41,981100
1255,000000	41,930800
1254,000000	41,854400
1253,000000	41,774200
1252,000000	41,694100
1251,000000	41,596400
1250,000000	41,511600
1249,000000	41,436800
1248,000000	41,343700
1247,000000	41,232400
1246,000000	41,113100
1245,000000	41,007200
1244,000000	40,876100
1243,000000	40,742800
1242,000000	40,620200
1241,000000	40,481000
1240,000000	40,343300
1239,000000	40,213900
1238,000000	40,070800
1237,000000	39,926700
1236,000000	39,773400
1235,000000	39,615500
1234,000000	39,460000
1233,000000	39,298600
1232,000000	39,127800
1231,000000	38,946500
1230,000000	38,778500
1229,000000	38,609400
1228,000000	38,415300
1227,000000	38,217800
1226,000000	38,028900
1225,000000	37,840700
1224,000000	37,643700
1223,000000	37,445100
1222,000000	37,248800
1221,000000	37,045100
1220,000000	36,842000
1219,000000	36,648600
1218,000000	36,450000
1217,000000	36,251300
1216,000000	36,070200
1215,000000	35,906800
1214,000000	35,746600
1213,000000	35,572300
1212,000000	35,395600
1211,000000	35,256200
1210,000000	35,104800
1209,000000	34,955800
1208,000000	34,816900
1207,000000	34,683000
1206,000000	34,571200
1205,000000	34,468700
1204,000000	34,374900
1203,000000	34,295000
1202,000000	34,238600
1201,000000	34,188100
1200,000000	34,138800
1199,000000	34,082900
1198,000000	34,008100
1197,000000	33,899700
1196,000000	33,772400
1195,000000	33,619700
1194,000000	33,425700
1193,000000	33,177600
1192,000000	32,886400
1191,000000	32,549600
1190,000000	32,177800
1189,000000	31,804300
1188,000000	31,451200
1187,000000	31,160500
1186,000000	30,970200
1185,000000	30,877200
1184,000000	30,891600
1183,000000	31,025900
1182,000000	31,290600
1181,000000	31,639100
1180,000000	32,063500
1179,000000	32,530100
1178,000000	33,006100
1177,000000	33,447000
1176,000000	33,846400
1175,000000	34,203600
1174,000000	34,529200
1173,000000	34,831400
1172,000000	35,136200
1171,000000	35,465300
1170,000000	35,776700
1169,000000	36,104900
1168,000000	36,431900
1167,000000	36,764700
1166,000000	37,117900
1165,000000	37,487900
1164,000000	37,861500
1163,000000	38,230900
1162,000000	38,626200
1161,000000	39,027000
1160,000000	39,419600
1159,000000	39,807500
1158,000000	40,216900
1157,000000	40,601500
1156,000000	40,974800
1155,000000	41,320800
1154,000000	41,615200
1153,000000	41,899800
1152,000000	42,154100
1151,000000	42,354100
1150,000000	42,523700
1149,000000	42,681700
1148,000000	42,841500
1147,000000	43,028300
1146,000000	43,220100
1145,000000	43,463400
1144,000000	43,762400
1143,000000	44,114500
1142,000000	44,512100
1141,000000	44,954500
1140,000000	45,416900
1139,000000	45,902200
1138,000000	46,414400
1137,000000	46,939500
1136,000000	47,481600
1135,000000	48,036200
1134,000000	48,656600
1133,000000	49,247800
1132,000000	49,725200
1131,000000	50,174000
1130,000000	50,619600
1129,000000	51,019900
1128,000000	51,344800
1127,000000	51,613200
1126,000000	51,856600
1125,000000	52,036100
1124,000000	52,173400
1123,000000	52,326500
1122,000000	52,425300
1121,000000	52,510400
1120,000000	52,586200
1119,000000	52,644600
1118,000000	52,679900
1117,000000	52,707600
1116,000000	52,721500
1115,000000	52,732800
1114,000000	52,737200
1113,000000	52,739100
1112,000000	52,740500
1111,000000	52,709000
1110,000000	52,720500
1109,000000	52,712000
1108,000000	52,692900
1107,000000	52,674600
1106,000000	52,651900
1105,000000	52,659300
1104,000000	52,640500
1103,000000	52,639700
1102,000000	52,615500
1101,000000	52,608700
1100,000000	52,603700
1099,000000	52,579400
1098,000000	52,551600
1097,000000	52,510400
1096,000000	52,507000
1095,000000	52,463400
1094,000000	52,413500
1093,000000	52,372600
1092,000000	52,334000
1091,000000	52,290700
1090,000000	52,244300
1089,000000	52,202200
1088,000000	52,131600
1087,000000	52,070300
1086,000000	52,020000
1085,000000	51,951100
1084,000000	51,864800
1083,000000	51,823000
1082,000000	51,733600
1081,000000	51,673400
1080,000000	51,634100
1079,000000	51,535200
1078,000000	51,470100
1077,000000	51,398300
1076,000000	51,329000
1075,000000	51,234700
1074,000000	51,181700
1073,000000	51,106200
1072,000000	51,006700
1071,000000	50,938800
1070,000000	50,872700
1069,000000	50,801900
1068,000000	50,710700
1067,000000	50,622800
1066,000000	50,542300
1065,000000	50,454400
1064,000000	50,362800
1063,000000	50,291100
1062,000000	50,202100
1061,000000	50,105700
1060,000000	50,010700
1059,000000	49,919500
1058,000000	49,807900
1057,000000	49,719500
1056,000000	49,631200
1055,000000	49,528700
1054,000000	49,429200
1053,000000	49,315300
1052,000000	49,225800
1051,000000	49,132800
1050,000000	49,031200
1049,000000	48,969000
1048,000000	48,870700
1047,000000	48,762300
1046,000000	48,676100
1045,000000	48,597700
1044,000000	48,489300
1043,000000	48,417700
1042,000000	48,313600
1041,000000	48,229700
1040,000000	48,152700
1039,000000	48,072200
1038,000000	47,972500
1037,000000	47,867100
1036,000000	47,775100
1035,000000	47,670800
1034,000000	47,597100
1033,000000	47,494400
1032,000000	47,379400
1031,000000	47,289100
1030,000000	47,180800
1029,000000	47,058400
1028,000000	46,966400
1027,000000	46,854500
1026,000000	46,753000
1025,000000	46,626000
1024,000000	46,523500
1023,000000	46,397000
1022,000000	46,279300
1021,000000	46,161200
1020,000000	46,057900
1019,000000	45,948200
1018,000000	45,846000
1017,000000	45,735800
1016,000000	45,637300
1015,000000	45,554200
1014,000000	45,448100
1013,000000	45,370000
1012,000000	45,306900
1011,000000	45,240400
1010,000000	45,174900
1009,000000	45,126500
1008,000000	45,060600
1007,000000	45,015100
1006,000000	44,987400
1005,000000	44,942300
1004,000000	44,893200
1003,000000	44,860200
1002,000000	44,826300
1001,000000	44,780500
1000,000000	44,731600
999,000000	44,681900
998,000000	44,647100
997,000000	44,623800
996,000000	44,583100
995,000000	44,539400
994,000000	44,514500
993,000000	44,492300
992,000000	44,478100
991,000000	44,449900
990,000000	44,421700
989,000000	44,400800
988,000000	44,387500
987,000000	44,377100
986,000000	44,371200
985,000000	44,354200
984,000000	44,349400
983,000000	44,351300
982,000000	44,343200
981,000000	44,340300
980,000000	44,338300
979,000000	44,343400
978,000000	44,351600
977,000000	44,349900
976,000000	44,339700
975,000000	44,336300
974,000000	44,340600
973,000000	44,348300
972,000000	44,366800
971,000000	44,382000
970,000000	44,383500
969,000000	44,393000
968,000000	44,411100
967,000000	44,437500
966,000000	44,465600
965,000000	44,488200
964,000000	44,497700
963,000000	44,528800
962,000000	44,555000
961,000000	44,594900
960,000000	44,637300
959,000000	44,660700
958,000000	44,696400
957,000000	44,727900
956,000000	44,762300
955,000000	44,798000
954,000000	44,830800
953,000000	44,871700
952,000000	44,909900
951,000000	44,934200
950,000000	44,977100
949,000000	45,032900
948,000000	45,060100
947,000000	45,086200
946,000000	45,124800
945,000000	45,157600
944,000000	45,170700
943,000000	45,188000
942,000000	45,204700
941,000000	45,207500
940,000000	45,211400
939,000000	45,219800
938,000000	45,241100
937,000000	45,240500
936,000000	45,223300
935,000000	45,230900
934,000000	45,244500
933,000000	45,256300
932,000000	45,250900
931,000000	45,239800
930,000000	45,227800
929,000000	45,224000
928,000000	45,223700
927,000000	45,210700
926,000000	45,192600
925,000000	45,193700
924,000000	45,195100
923,000000	45,176700
922,000000	45,151000
921,000000	45,137300
920,000000	45,113200
919,000000	45,090900
918,000000	45,086700
917,000000	45,063900
916,000000	45,063700
915,000000	45,034000
914,000000	44,974700
913,000000	44,933300
912,000000	44,908900
911,000000	44,871800
910,000000	44,831400
909,000000	44,818000
908,000000	44,800000
907,000000	44,767400
906,000000	44,747000
905,000000	44,746400
904,000000	44,758300
903,000000	44,754900
902,000000	44,745200
901,000000	44,775200
900,000000	44,785200
899,000000	44,782400
898,000000	44,782400
897,000000	44,793100
896,000000	44,812200
895,000000	44,827800
894,000000	44,809900
893,000000	44,804300
892,000000	44,826000
891,000000	44,825300
890,000000	44,799800
889,000000	44,788500
888,000000	44,781300
887,000000	44,748500
886,000000	44,750700
885,000000	44,723800
884,000000	44,696300
883,000000	44,670800
882,000000	44,658100
881,000000	44,624800
880,000000	44,584800
879,000000	44,562800
878,000000	44,552900
877,000000	44,513200
876,000000	44,454700
875,000000	44,430600
874,000000	44,363000
873,000000	44,307400
872,000000	44,238700
871,000000	44,211000
870,000000	44,197100
869,000000	44,224700
868,000000	44,268100
867,000000	44,289200
866,000000	44,295900
865,000000	44,326400
864,000000	44,363400
863,000000	44,382100
862,000000	44,391100
861,000000	44,395600
860,000000	44,419500
859,000000	44,433200
858,000000	44,469000
857,000000	48,152500
856,000000	49,555800
855,000000	49,748600
854,000000	49,267200
853,000000	49,837600
852,000000	48,669900
851,000000	48,917300
850,000000	49,299400
849,000000	48,765600
848,000000	49,356500
847,000000	49,316000
846,000000	49,302300
845,000000	49,795100
844,000000	49,547400
843,000000	49,450300
842,000000	49,420600
841,000000	49,467800
840,000000	49,300500
839,000000	49,379000
838,000000	49,361900
837,000000	49,456300
836,000000	49,357800
835,000000	49,441000
834,000000	49,358500
833,000000	49,182500
832,000000	49,050500
831,000000	49,143000
830,000000	49,049400
829,000000	49,100900
828,000000	49,020400
827,000000	48,925500
826,000000	48,962600
825,000000	48,833400
824,000000	48,708300
823,000000	48,740500
822,000000	48,797700
821,000000	48,653300
820,000000	48,590500
819,000000	48,415700
818,000000	48,576100
817,000000	48,291800
816,000000	48,274300
815,000000	48,281700
814,000000	48,301100
813,000000	48,002500
812,000000	47,961300
811,000000	47,931400
810,000000	47,920900
809,000000	47,827500
808,000000	47,699200
807,000000	47,871700
806,000000	47,526700
805,000000	47,444500
804,000000	47,456300
803,000000	47,321800
802,000000	47,162700
801,000000	47,234300
800,000000	47,197800
799,000000	46,940300
798,000000	46,854800
797,000000	46,850400
796,000000	46,701000
795,000000	46,490200
794,000000	46,457100
793,000000	46,364200
792,000000	46,384900
791,000000	46,188600
790,000000	46,041900
789,000000	46,049600
788,000000	45,854200
787,000000	45,762200
786,000000	45,726900
785,000000	45,479400
784,000000	45,468700
783,000000	45,217300
782,000000	45,173800
781,000000	45,147400
780,000000	45,003500
779,000000	44,800100
778,000000	44,754700
777,000000	44,605400
776,000000	44,387000
775,000000	44,364500
774,000000	44,333900
773,000000	44,227500
772,000000	43,904800
771,000000	43,799700
770,000000	43,753300
769,000000	43,658800
768,000000	43,510900
767,000000	43,345600
766,000000	43,213400
765,000000	43,073200
764,000000	43,055200
763,000000	42,818700
762,000000	42,709200
761,000000	42,536400
760,000000	42,418100
759,000000	42,257400
758,000000	42,055700
757,000000	42,005000
756,000000	41,833300
755,000000	41,690800
754,000000	41,546200
753,000000	41,370800
752,000000	41,239500
751,000000	41,050600
750,000000	40,887300
749,000000	40,750200
748,000000	40,614400
747,000000	40,448400
746,000000	40,239400
745,000000	40,163500
744,000000	39,968600
743,000000	39,828900
742,000000	39,611200
741,000000	39,511700
740,000000	39,216700
739,000000	39,103200
738,000000	38,923500
737,000000	38,723600
736,000000	38,529900
735,000000	38,363700
734,000000	38,191400
733,000000	38,027300
732,000000	37,852300
731,000000	37,639200
730,000000	37,470000
729,000000	37,261200
728,000000	37,068800
727,000000	36,854300
726,000000	36,649000
725,000000	36,456100
724,000000	36,234900
723,000000	36,033600
722,000000	35,830600
721,000000	35,583600
720,000000	35,403800
719,000000	35,175800
718,000000	34,916800
717,000000	34,748500
716,000000	34,552900
715,000000	34,296200
714,000000	34,147900
713,000000	33,919800
712,000000	33,694300
711,000000	33,496200
710,000000	33,285600
709,000000	33,040200
708,000000	32,808000
707,000000	32,641500
706,000000	32,402400
705,000000	32,157900
704,000000	31,973600
703,000000	31,737900
702,000000	31,538800
701,000000	31,335300
700,000000	31,138100
699,000000	30,941600
698,000000	30,716900
697,000000	30,536600
696,000000	30,327400
695,000000	30,151800
694,000000	29,977700
693,000000	29,775000
692,000000	29,538600
691,000000	29,361700
690,000000	29,154000
689,000000	28,974500
688,000000	28,790100
687,000000	28,605600
686,000000	28,415200
685,000000	28,230700
684,000000	28,074500
683,000000	27,923800
682,000000	27,755600
681,000000	27,563100
680,000000	27,412600
679,000000	27,258600
678,000000	27,091000
677,000000	26,938700
676,000000	26,778400
675,000000	26,623400
674,000000	26,473800
673,000000	26,358700
672,000000	26,207400
671,000000	26,047500
670,000000	25,913600
669,000000	25,774300
668,000000	25,637700
667,000000	25,512600
666,000000	25,406500
665,000000	25,297700
664,000000	25,195200
663,000000	25,078900
662,000000	24,969200
661,000000	24,851800
660,000000	24,729600
659,000000	24,626300
658,000000	24,516700
657,000000	24,438600
656,000000	24,373700
655,000000	24,272500
654,000000	24,154100
653,000000	24,087700
652,000000	24,015500
651,000000	23,916400
650,000000	23,854400
649,000000	23,800400
648,000000	23,726600
647,000000	23,642900
646,000000	23,577700
645,000000	23,527500
644,000000	23,476700
643,000000	23,405500
642,000000	23,338100
641,000000	23,300200
640,000000	23,277400
639,000000	23,230100
638,000000	23,171700
637,000000	23,121100
636,000000	23,090000
635,000000	23,069800
634,000000	23,043100
633,000000	23,009300
632,000000	22,972600
631,000000	22,944500
630,000000	22,924400
629,000000	22,917700
628,000000	22,890400
627,000000	22,870200
626,000000	22,877200
625,000000	22,877700
624,000000	22,881800
623,000000	22,876300
622,000000	22,882900
621,000000	22,889100
620,000000	22,896600
619,000000	22,907400
618,000000	22,913100
617,000000	22,943700
616,000000	22,963400
615,000000	22,992500
614,000000	23,023000
613,000000	23,049800
612,000000	23,066600
611,000000	23,100100
610,000000	23,145300
609,000000	23,186000
608,000000	23,224400
607,000000	23,268800
606,000000	23,318600
605,000000	23,355900
604,000000	23,400500
603,000000	23,442700
602,000000	23,477100
601,000000	23,527300
600,000000	23,590500
599,000000	23,622800
598,000000	23,673700
597,000000	23,716600
596,000000	23,755900
595,000000	23,795800
594,000000	23,847700
593,000000	23,886600
592,000000	23,919900
591,000000	23,948200
590,000000	23,991700
589,000000	24,029100
588,000000	24,075400
587,000000	24,106900
586,000000	24,126500
585,000000	24,144800
584,000000	24,143300
583,000000	24,164300
582,000000	24,184000
581,000000	24,200800
580,000000	24,204000
579,000000	24,229000
578,000000	24,216900
577,000000	24,232600
576,000000	24,194300
575,000000	24,187600
574,000000	24,171300
573,000000	24,130600
572,000000	24,102100
571,000000	24,065200
570,000000	24,018100
569,000000	23,973800
568,000000	23,936000
567,000000	23,864200
566,000000	23,798700
565,000000	23,733300
564,000000	23,663000
563,000000	23,574900
562,000000	23,487900
561,000000	23,379000
560,000000	23,303600
559,000000	23,199300
558,000000	23,085000
557,000000	23,000000
556,000000	22,897300
555,000000	22,763200
554,000000	22,619600
553,000000	22,485700
552,000000	22,352400
551,000000	22,207900
550,000000	22,062900
549,000000	21,902600
548,000000	21,746600
547,000000	21,593000
546,000000	21,441500
545,000000	21,262800
544,000000	21,063600
543,000000	20,889100
542,000000	20,694800
541,000000	20,499400
540,000000	20,313600
539,000000	20,118300
538,000000	19,919100
537,000000	19,715700
536,000000	19,503200
535,000000	19,286900
534,000000	19,076900
533,000000	18,854900
532,000000	18,634100
531,000000	18,403900
530,000000	18,182200
529,000000	17,956700
528,000000	17,735800
527,000000	17,508700
526,000000	17,285100
525,000000	17,046500
524,000000	16,801900
523,000000	16,589600
522,000000	16,344300
521,000000	16,099700
520,000000	15,869300
519,000000	15,646700
518,000000	15,432500
517,000000	15,212400
516,000000	14,990100
515,000000	14,786300
514,000000	14,549800
513,000000	14,370400
512,000000	14,178900
511,000000	13,978600
510,000000	13,798600
509,000000	13,620300
508,000000	13,446900
507,000000	13,268900
506,000000	13,130800
505,000000	12,955700
504,000000	12,810300
503,000000	12,673800
502,000000	12,539600
501,000000	12,412100
500,000000	12,259100
499,000000	12,138700
498,000000	12,051100
497,000000	11,924300
496,000000	11,817200
495,000000	11,732300
494,000000	11,615000
493,000000	11,536500
492,000000	11,463200
491,000000	11,367500
490,000000	11,301400
489,000000	11,227600
488,000000	11,142300
487,000000	11,090600
486,000000	10,996300
485,000000	10,949900
484,000000	10,889000
483,000000	10,816400
482,000000	10,761700
481,000000	10,701300
480,000000	10,626800
479,000000	10,559200
478,000000	10,487500
477,000000	10,410900
476,000000	10,354100
475,000000	10,300600
474,000000	10,216100
473,000000	10,168000
472,000000	10,108000
471,000000	10,050500
470,000000	9,994400
469,000000	9,937000
468,000000	9,893300
467,000000	9,850000
466,000000	9,783500
465,000000	9,730700
464,000000	9,693300
463,000000	9,648700
462,000000	9,595100
461,000000	9,553300
460,000000	9,514900
459,000000	9,451800
458,000000	9,428300
457,000000	9,393100
456,000000	9,340900
455,000000	9,305400
454,000000	9,270000
453,000000	9,238100
452,000000	9,196600
451,000000	9,147900
450,000000	9,104000
449,000000	9,041000
448,000000	8,991400
447,000000	8,938200
446,000000	8,936500
445,000000	8,868400
444,000000	8,848900
443,000000	8,788900
442,000000	8,744700
441,000000	8,694300
440,000000	8,647000
439,000000	8,592300
438,000000	8,549800
437,000000	8,490400
436,000000	8,434300
435,000000	8,370900
434,000000	8,317900
433,000000	8,257400
432,000000	8,205900
431,000000	8,146400
430,000000	8,094100
429,000000	8,026400
428,000000	7,973000
427,000000	7,919400
426,000000	7,877900
425,000000	7,814800
424,000000	7,765000
423,000000	7,714600
422,000000	7,649500
421,000000	7,617100
420,000000	7,549600
419,000000	7,491400
418,000000	7,438500
417,000000	7,365100
416,000000	7,323200
415,000000	7,258600
414,000000	7,216200
413,000000	7,138100
412,000000	7,089200
411,000000	7,036500
410,000000	6,987800
409,000000	6,914900
408,000000	6,844300
407,000000	6,776600
406,000000	6,713900
405,000000	6,676200
404,000000	6,618600
403,000000	6,539100
402,000000	6,470900
401,000000	6,405300
400,000000	6,357800
399,000000	6,320100
398,000000	6,247400
397,000000	6,175000
396,000000	6,108400
395,000000	6,042200
394,000000	5,978500
393,000000	5,901000
392,000000	5,842400
391,000000	5,804400
390,000000	5,737800
389,000000	5,661500
388,000000	5,613600
387,000000	5,551500
386,000000	5,500100
385,000000	5,436600
384,000000	5,375100
383,000000	5,328700
382,000000	5,272000
381,000000	5,193900
380,000000	5,171000
379,000000	5,120000
378,000000	5,085100
377,000000	5,031800
376,000000	4,844300
375,000000	4,544900
374,000000	4,439700
373,000000	4,343100
372,000000	4,273800
371,000000	4,263700
370,000000	4,266700
369,000000	4,446000
368,000000	4,502900
367,000000	4,462100
366,000000	4,410200
365,000000	4,372500
364,000000	4,362300
363,000000	4,307800
362,000000	4,335300
361,000000	4,520400
360,000000	4,507300
359,000000	4,501100
358,000000	4,632200
357,000000	4,639300
356,000000	4,551600
355,000000	4,341300
354,000000	4,468700
353,000000	4,712900
352,000000	4,579900
351,000000	4,478400
350,000000	4,596300
349,000000	4,506600
348,000000	4,567100
347,000000	4,714500
346,000000	4,679600
345,000000	4,577300
344,000000	4,475800
343,000000	4,422400
342,000000	4,405600
341,000000	4,409800
340,000000	4,635700
339,000000	4,594000
338,000000	4,317700
337,000000	4,246500
336,000000	4,257600
335,000000	4,263700
334,000000	4,168000
333,000000	4,345800
332,000000	4,591400
331,000000	4,532700
330,000000	4,306100
329,000000	4,311300
328,000000	4,659000
327,000000	4,629600
326,000000	4,481300
325,000000	4,820800
324,000000	4,821800
323,000000	4,867200
322,000000	5,255600
321,000000	4,829500
320,000000	4,421400
319,000000	4,939800
318,000000	5,020800
317,000000	4,517100
316,000000	4,176100
315,000000	4,101400
314,000000	4,174500
313,000000	4,182700
312,000000	4,195900
311,000000	4,176200
310,000000	4,181700
309,000000	4,174500
308,000000	4,175900
307,000000	4,180500
306,000000	4,172200
305,000000	4,194000
304,000000	4,163400
303,000000	4,143100
302,000000	4,179200
301,000000	4,180800
300,000000	4,213000
299,000000	4,219100
298,000000	4,241100
297,000000	4,257700
296,000000	4,241100
295,000000	4,238300
294,000000	4,200600
293,000000	4,251700
292,000000	4,279500
291,000000	4,240700
290,000000	4,236300
289,000000	4,269300
288,000000	4,253800
287,000000	4,247700
286,000000	4,240800
285,000000	4,236500
284,000000	4,280900
283,000000	4,316500
282,000000	4,323800
281,000000	4,321400
280,000000	4,341500
279,000000	4,343500
278,000000	4,326500
277,000000	4,324300
276,000000	4,325400
275,000000	4,314300
274,000000	4,347100
273,000000	4,369300
272,000000	4,414300
271,000000	4,411200
270,000000	4,395000
269,000000	4,384900
268,000000	4,410600
267,000000	4,452700
266,000000	4,490500
265,000000	4,516000
264,000000	4,538100
263,000000	4,534400
262,000000	4,557300
261,000000	4,535500
260,000000	4,562500
259,000000	4,607700
258,000000	4,640300
257,000000	4,644200
256,000000	4,631400
255,000000	4,608000
254,000000	4,609900
253,000000	4,626200
252,000000	4,695200
251,000000	4,679800
250,000000	4,683200
