PE UV       SUBTECH     SPECTRUM    ASCII       PEDS        4.00        
   -1
CICIMAUCR0248-2.ASC
24/06/27
14:42:40.00
24/06/27
14:42:40.00
Vinicio Soto Monge
C. resplendens. Sex F. Ventral
250,000000
1
Lambda 1050
1050L1511233
PerkinElmer UV WinLab 6.3.2.0749 / 2.02.05 Lambda 900 UV/VIS/NIR, Aug  7 2015 09:38:08

0
0
3350/servo 860,8/2
0
0
UV/VIS
1
1
1
DoubleDePol,CommonBeamDepol,RBeamAtt,SBeamAtt,60mm sphere, WB InGaAs Detector
0
0
0
0
Program
Program
3350/servo 860,8/2
3350/0,2 860,8/0,2
3350/0,2 860,8/0,2
0
15.00
 
 
 
0
 
860,8
319,2
860,8
Front
100
on
S:100 R:100
0
0
0
0
 
0
 
 
 
0
 
 
0
0
0
0
0
 
 
 
 
0
0


0
0
#HDR
-1
-1
#GR
nm
%R
1.0
0.0
2500,000000
-1,000000
2251
8
63,654100
4,573200
#DATA
2500,000000	5,503500
2499,000000	5,447900
2498,000000	5,540100
2497,000000	5,499100
2496,000000	5,410700
2495,000000	5,489600
2494,000000	5,425000
2493,000000	5,354400
2492,000000	5,361100
2491,000000	5,350800
2490,000000	5,400900
2489,000000	5,303300
2488,000000	5,353200
2487,000000	5,331200
2486,000000	5,310400
2485,000000	5,279200
2484,000000	5,369700
2483,000000	5,318900
2482,000000	5,375000
2481,000000	5,264800
2480,000000	5,304200
2479,000000	5,281000
2478,000000	5,222800
2477,000000	5,269200
2476,000000	5,292000
2475,000000	5,288000
2474,000000	5,303400
2473,000000	5,333500
2472,000000	5,256800
2471,000000	5,320300
2470,000000	5,301000
2469,000000	5,303700
2468,000000	5,317400
2467,000000	5,317100
2466,000000	5,314100
2465,000000	5,328700
2464,000000	5,321400
2463,000000	5,304400
2462,000000	5,322200
2461,000000	5,352800
2460,000000	5,355500
2459,000000	5,354000
2458,000000	5,374300
2457,000000	5,387000
2456,000000	5,379200
2455,000000	5,412400
2454,000000	5,405600
2453,000000	5,445500
2452,000000	5,447500
2451,000000	5,472800
2450,000000	5,518600
2449,000000	5,512400
2448,000000	5,543900
2447,000000	5,560800
2446,000000	5,589900
2445,000000	5,608000
2444,000000	5,649600
2443,000000	5,648600
2442,000000	5,651900
2441,000000	5,689800
2440,000000	5,719600
2439,000000	5,737200
2438,000000	5,767500
2437,000000	5,803300
2436,000000	5,818000
2435,000000	5,823700
2434,000000	5,851700
2433,000000	5,869500
2432,000000	5,906500
2431,000000	5,933000
2430,000000	5,940500
2429,000000	5,971200
2428,000000	5,975900
2427,000000	6,003800
2426,000000	6,031800
2425,000000	6,062000
2424,000000	6,071500
2423,000000	6,087100
2422,000000	6,096700
2421,000000	6,110000
2420,000000	6,129800
2419,000000	6,146200
2418,000000	6,161300
2417,000000	6,179600
2416,000000	6,196100
2415,000000	6,209200
2414,000000	6,228600
2413,000000	6,234600
2412,000000	6,261300
2411,000000	6,286000
2410,000000	6,275100
2409,000000	6,278700
2408,000000	6,296800
2407,000000	6,312400
2406,000000	6,318800
2405,000000	6,339400
2404,000000	6,358900
2403,000000	6,383600
2402,000000	6,417300
2401,000000	6,444200
2400,000000	6,439600
2399,000000	6,445600
2398,000000	6,453200
2397,000000	6,468400
2396,000000	6,482500
2395,000000	6,496200
2394,000000	6,497100
2393,000000	6,502300
2392,000000	6,523500
2391,000000	6,547400
2390,000000	6,557500
2389,000000	6,561800
2388,000000	6,574100
2387,000000	6,580500
2386,000000	6,585600
2385,000000	6,601300
2384,000000	6,607000
2383,000000	6,603400
2382,000000	6,605100
2381,000000	6,612000
2380,000000	6,625500
2379,000000	6,629600
2378,000000	6,621100
2377,000000	6,624400
2376,000000	6,618000
2375,000000	6,615300
2374,000000	6,609400
2373,000000	6,599600
2372,000000	6,610900
2371,000000	6,627800
2370,000000	6,615400
2369,000000	6,607300
2368,000000	6,596800
2367,000000	6,587600
2366,000000	6,592000
2365,000000	6,583600
2364,000000	6,570600
2363,000000	6,561200
2362,000000	6,555300
2361,000000	6,550200
2360,000000	6,538200
2359,000000	6,529900
2358,000000	6,524000
2357,000000	6,506500
2356,000000	6,500300
2355,000000	6,494200
2354,000000	6,480000
2353,000000	6,477200
2352,000000	6,477500
2351,000000	6,464500
2350,000000	6,473300
2349,000000	6,499800
2348,000000	6,492300
2347,000000	6,482700
2346,000000	6,500400
2345,000000	6,514700
2344,000000	6,523500
2343,000000	6,535600
2342,000000	6,552700
2341,000000	6,560500
2340,000000	6,570400
2339,000000	6,585700
2338,000000	6,594200
2337,000000	6,609000
2336,000000	6,617700
2335,000000	6,612500
2334,000000	6,608000
2333,000000	6,603600
2332,000000	6,604900
2331,000000	6,614400
2330,000000	6,615100
2329,000000	6,605200
2328,000000	6,598600
2327,000000	6,592200
2326,000000	6,586100
2325,000000	6,576300
2324,000000	6,566700
2323,000000	6,544000
2322,000000	6,523300
2321,000000	6,505300
2320,000000	6,492500
2319,000000	6,463700
2318,000000	6,452900
2317,000000	6,423100
2316,000000	6,381300
2315,000000	6,351300
2314,000000	6,332000
2313,000000	6,291700
2312,000000	6,279500
2311,000000	6,263600
2310,000000	6,241700
2309,000000	6,222500
2308,000000	6,182500
2307,000000	6,183100
2306,000000	6,164800
2305,000000	6,145600
2304,000000	6,143900
2303,000000	6,145300
2302,000000	6,169300
2301,000000	6,177900
2300,000000	6,183100
2299,000000	6,202900
2298,000000	6,220600
2297,000000	6,235900
2296,000000	6,268200
2295,000000	6,287300
2294,000000	6,319600
2293,000000	6,339300
2292,000000	6,347300
2291,000000	6,381200
2290,000000	6,392700
2289,000000	6,407200
2288,000000	6,422400
2287,000000	6,432600
2286,000000	6,448800
2285,000000	6,445500
2284,000000	6,434200
2283,000000	6,447100
2282,000000	6,437500
2281,000000	6,413600
2280,000000	6,423700
2279,000000	6,420300
2278,000000	6,407500
2277,000000	6,387700
2276,000000	6,380600
2275,000000	6,372200
2274,000000	6,354800
2273,000000	6,352800
2272,000000	6,336900
2271,000000	6,343600
2270,000000	6,343300
2269,000000	6,348300
2268,000000	6,348700
2267,000000	6,371100
2266,000000	6,394800
2265,000000	6,407000
2264,000000	6,462100
2263,000000	6,505200
2262,000000	6,554200
2261,000000	6,610200
2260,000000	6,664800
2259,000000	6,733300
2258,000000	6,826400
2257,000000	6,896500
2256,000000	6,979000
2255,000000	7,075400
2254,000000	7,172400
2253,000000	7,281500
2252,000000	7,336600
2251,000000	7,451500
2250,000000	7,538800
2249,000000	7,614700
2248,000000	7,704400
2247,000000	7,782100
2246,000000	7,860100
2245,000000	7,929500
2244,000000	8,040600
2243,000000	8,080300
2242,000000	8,143400
2241,000000	8,200700
2240,000000	8,241400
2239,000000	8,288200
2238,000000	8,329600
2237,000000	8,397700
2236,000000	8,424400
2235,000000	8,453400
2234,000000	8,481200
2233,000000	8,496800
2232,000000	8,508600
2231,000000	8,537400
2230,000000	8,554100
2229,000000	8,574100
2228,000000	8,593500
2227,000000	8,556500
2226,000000	8,564300
2225,000000	8,583300
2224,000000	8,566100
2223,000000	8,558000
2222,000000	8,542400
2221,000000	8,514200
2220,000000	8,509000
2219,000000	8,517300
2218,000000	8,488500
2217,000000	8,484700
2216,000000	8,456100
2215,000000	8,434500
2214,000000	8,412100
2213,000000	8,397000
2212,000000	8,353400
2211,000000	8,358200
2210,000000	8,317400
2209,000000	8,311700
2208,000000	8,296700
2207,000000	8,279800
2206,000000	8,274200
2205,000000	8,267200
2204,000000	8,230800
2203,000000	8,245600
2202,000000	8,226400
2201,000000	8,221400
2200,000000	8,217400
2199,000000	8,211600
2198,000000	8,195900
2197,000000	8,189100
2196,000000	8,176000
2195,000000	8,194400
2194,000000	8,172900
2193,000000	8,156100
2192,000000	8,144400
2191,000000	8,154400
2190,000000	8,138300
2189,000000	8,152900
2188,000000	8,138200
2187,000000	8,107000
2186,000000	8,120000
2185,000000	8,101300
2184,000000	8,106700
2183,000000	8,101500
2182,000000	8,108500
2181,000000	8,083300
2180,000000	8,073000
2179,000000	8,069200
2178,000000	8,062000
2177,000000	8,062600
2176,000000	8,043400
2175,000000	8,032300
2174,000000	8,023300
2173,000000	8,051400
2172,000000	8,043300
2171,000000	8,041300
2170,000000	8,027900
2169,000000	8,039300
2168,000000	8,035400
2167,000000	8,041800
2166,000000	8,053300
2165,000000	8,057500
2164,000000	8,066500
2163,000000	8,093600
2162,000000	8,077800
2161,000000	8,084400
2160,000000	8,109600
2159,000000	8,114300
2158,000000	8,143500
2157,000000	8,152700
2156,000000	8,171500
2155,000000	8,205400
2154,000000	8,206000
2153,000000	8,242600
2152,000000	8,233600
2151,000000	8,270700
2150,000000	8,281500
2149,000000	8,312100
2148,000000	8,332800
2147,000000	8,351200
2146,000000	8,399400
2145,000000	8,421800
2144,000000	8,444200
2143,000000	8,467300
2142,000000	8,468600
2141,000000	8,491000
2140,000000	8,529100
2139,000000	8,536300
2138,000000	8,568700
2137,000000	8,595900
2136,000000	8,610500
2135,000000	8,612800
2134,000000	8,638200
2133,000000	8,647100
2132,000000	8,670200
2131,000000	8,680700
2130,000000	8,696500
2129,000000	8,700700
2128,000000	8,701200
2127,000000	8,708200
2126,000000	8,727700
2125,000000	8,726800
2124,000000	8,741200
2123,000000	8,744200
2122,000000	8,741500
2121,000000	8,740800
2120,000000	8,741400
2119,000000	8,735800
2118,000000	8,733600
2117,000000	8,732500
2116,000000	8,736600
2115,000000	8,727700
2114,000000	8,704400
2113,000000	8,698400
2112,000000	8,706400
2111,000000	8,694400
2110,000000	8,681800
2109,000000	8,671400
2108,000000	8,665800
2107,000000	8,653700
2106,000000	8,642700
2105,000000	8,619500
2104,000000	8,613000
2103,000000	8,623200
2102,000000	8,608500
2101,000000	8,586500
2100,000000	8,574500
2099,000000	8,561000
2098,000000	8,551500
2097,000000	8,543800
2096,000000	8,525300
2095,000000	8,507100
2094,000000	8,499600
2093,000000	8,490700
2092,000000	8,485400
2091,000000	8,475400
2090,000000	8,462700
2089,000000	8,453700
2088,000000	8,445800
2087,000000	8,435900
2086,000000	8,425100
2085,000000	8,419000
2084,000000	8,404600
2083,000000	8,401200
2082,000000	8,388700
2081,000000	8,362000
2080,000000	8,335600
2079,000000	8,308500
2078,000000	8,294500
2077,000000	8,278300
2076,000000	8,258400
2075,000000	8,241800
2074,000000	8,210800
2073,000000	8,179800
2072,000000	8,152000
2071,000000	8,132800
2070,000000	8,099800
2069,000000	8,056000
2068,000000	8,032100
2067,000000	8,004100
2066,000000	7,964500
2065,000000	7,927600
2064,000000	7,913900
2063,000000	7,881700
2062,000000	7,834500
2061,000000	7,813000
2060,000000	7,800200
2059,000000	7,767500
2058,000000	7,749000
2057,000000	7,752800
2056,000000	7,732200
2055,000000	7,702000
2054,000000	7,704800
2053,000000	7,708700
2052,000000	7,720100
2051,000000	7,724600
2050,000000	7,734000
2049,000000	7,745200
2048,000000	7,752000
2047,000000	7,785700
2046,000000	7,819800
2045,000000	7,858800
2044,000000	7,892400
2043,000000	7,927600
2042,000000	7,963100
2041,000000	7,994000
2040,000000	8,016600
2039,000000	8,041300
2038,000000	8,074800
2037,000000	8,103600
2036,000000	8,143800
2035,000000	8,173800
2034,000000	8,184100
2033,000000	8,195600
2032,000000	8,232500
2031,000000	8,249800
2030,000000	8,265600
2029,000000	8,268300
2028,000000	8,300800
2027,000000	8,317600
2026,000000	8,340100
2025,000000	8,332000
2024,000000	8,335100
2023,000000	8,341900
2022,000000	8,342700
2021,000000	8,366300
2020,000000	8,371600
2019,000000	8,364700
2018,000000	8,368900
2017,000000	8,370800
2016,000000	8,383000
2015,000000	8,374000
2014,000000	8,369400
2013,000000	8,368000
2012,000000	8,354600
2011,000000	8,330000
2010,000000	8,316800
2009,000000	8,315800
2008,000000	8,307500
2007,000000	8,285200
2006,000000	8,263400
2005,000000	8,236300
2004,000000	8,241100
2003,000000	8,215400
2002,000000	8,176900
2001,000000	8,166000
2000,000000	8,135500
1999,000000	8,125500
1998,000000	8,086400
1997,000000	8,064600
1996,000000	8,030800
1995,000000	8,003900
1994,000000	7,968500
1993,000000	7,941000
1992,000000	7,917400
1991,000000	7,875700
1990,000000	7,852800
1989,000000	7,815100
1988,000000	7,792000
1987,000000	7,750600
1986,000000	7,698200
1985,000000	7,675100
1984,000000	7,639900
1983,000000	7,598600
1982,000000	7,558500
1981,000000	7,543000
1980,000000	7,486200
1979,000000	7,472700
1978,000000	7,422500
1977,000000	7,402600
1976,000000	7,362000
1975,000000	7,324700
1974,000000	7,309200
1973,000000	7,271900
1972,000000	7,245600
1971,000000	7,201100
1970,000000	7,181800
1969,000000	7,141500
1968,000000	7,095900
1967,000000	7,082300
1966,000000	7,059900
1965,000000	7,024400
1964,000000	7,012300
1963,000000	6,979700
1962,000000	6,957300
1961,000000	6,935300
1960,000000	6,911700
1959,000000	6,876000
1958,000000	6,832500
1957,000000	6,811600
1956,000000	6,807000
1955,000000	6,775800
1954,000000	6,715500
1953,000000	6,722200
1952,000000	6,678000
1951,000000	6,657500
1950,000000	6,621200
1949,000000	6,623200
1948,000000	6,582700
1947,000000	6,598500
1946,000000	6,575500
1945,000000	6,526500
1944,000000	6,531900
1943,000000	6,533900
1942,000000	6,506800
1941,000000	6,515200
1940,000000	6,495700
1939,000000	6,486800
1938,000000	6,479800
1937,000000	6,461600
1936,000000	6,468100
1935,000000	6,445000
1934,000000	6,479700
1933,000000	6,466400
1932,000000	6,491700
1931,000000	6,513400
1930,000000	6,496500
1929,000000	6,550600
1928,000000	6,561400
1927,000000	6,589100
1926,000000	6,587400
1925,000000	6,641000
1924,000000	6,653300
1923,000000	6,699600
1922,000000	6,749000
1921,000000	6,788300
1920,000000	6,820600
1919,000000	6,865800
1918,000000	6,888000
1917,000000	6,955100
1916,000000	7,013800
1915,000000	7,083700
1914,000000	7,155900
1913,000000	7,209000
1912,000000	7,281600
1911,000000	7,344200
1910,000000	7,413100
1909,000000	7,506900
1908,000000	7,572800
1907,000000	7,676100
1906,000000	7,779100
1905,000000	7,874500
1904,000000	8,003600
1903,000000	8,143500
1902,000000	8,236200
1901,000000	8,392400
1900,000000	8,534200
1899,000000	8,686300
1898,000000	8,861700
1897,000000	9,013700
1896,000000	9,185900
1895,000000	9,349600
1894,000000	9,543000
1893,000000	9,733400
1892,000000	9,959300
1891,000000	10,187600
1890,000000	10,427100
1889,000000	10,689800
1888,000000	10,927800
1887,000000	11,221700
1886,000000	11,501300
1885,000000	11,812300
1884,000000	12,137200
1883,000000	12,480800
1882,000000	12,856500
1881,000000	13,180700
1880,000000	13,547200
1879,000000	13,918400
1878,000000	14,283700
1877,000000	14,638600
1876,000000	14,999700
1875,000000	15,339100
1874,000000	15,712700
1873,000000	16,049000
1872,000000	16,390900
1871,000000	16,722400
1870,000000	17,038300
1869,000000	17,340000
1868,000000	17,669500
1867,000000	17,919500
1866,000000	18,174500
1865,000000	18,369600
1864,000000	18,571500
1863,000000	18,762900
1862,000000	18,935300
1861,000000	19,108500
1860,000000	19,284200
1859,000000	19,453500
1858,000000	19,589000
1857,000000	19,719000
1856,000000	19,823500
1855,000000	19,927600
1854,000000	20,016900
1853,000000	20,103200
1852,000000	20,158800
1851,000000	20,196100
1850,000000	20,253600
1849,000000	20,296600
1848,000000	20,336600
1847,000000	20,362500
1846,000000	20,371000
1845,000000	20,361700
1844,000000	20,353800
1843,000000	20,362900
1842,000000	20,368800
1841,000000	20,396300
1840,000000	20,410200
1839,000000	20,400900
1838,000000	20,373500
1837,000000	20,345300
1836,000000	20,325500
1835,000000	20,317000
1834,000000	20,281500
1833,000000	20,235900
1832,000000	20,210900
1831,000000	20,196700
1830,000000	20,161300
1829,000000	20,116700
1828,000000	20,083000
1827,000000	20,028500
1826,000000	19,976400
1825,000000	19,948500
1824,000000	19,894800
1823,000000	19,857000
1822,000000	19,854600
1821,000000	19,852200
1820,000000	19,832300
1819,000000	19,797100
1818,000000	19,752100
1817,000000	19,721000
1816,000000	19,705800
1815,000000	19,700000
1814,000000	19,701200
1813,000000	19,664100
1812,000000	19,631800
1811,000000	19,611200
1810,000000	19,597300
1809,000000	19,566200
1808,000000	19,529000
1807,000000	19,489200
1806,000000	19,459700
1805,000000	19,429100
1804,000000	19,388300
1803,000000	19,350100
1802,000000	19,306900
1801,000000	19,281800
1800,000000	19,232400
1799,000000	19,170200
1798,000000	19,138300
1797,000000	19,114300
1796,000000	19,065500
1795,000000	19,023800
1794,000000	18,987000
1793,000000	18,937500
1792,000000	18,891600
1791,000000	18,844800
1790,000000	18,818000
1789,000000	18,785600
1788,000000	18,727500
1787,000000	18,691300
1786,000000	18,659600
1785,000000	18,622700
1784,000000	18,592600
1783,000000	18,561300
1782,000000	18,503900
1781,000000	18,442700
1780,000000	18,395700
1779,000000	18,354300
1778,000000	18,309500
1777,000000	18,254900
1776,000000	18,184700
1775,000000	18,134200
1774,000000	18,076300
1773,000000	17,998100
1772,000000	17,947100
1771,000000	17,885200
1770,000000	17,803800
1769,000000	17,747900
1768,000000	17,677600
1767,000000	17,602600
1766,000000	17,547600
1765,000000	17,504600
1764,000000	17,444800
1763,000000	17,405100
1762,000000	17,379300
1761,000000	17,382400
1760,000000	17,400600
1759,000000	17,429200
1758,000000	17,463200
1757,000000	17,525700
1756,000000	17,585400
1755,000000	17,620300
1754,000000	17,665000
1753,000000	17,700200
1752,000000	17,723400
1751,000000	17,755000
1750,000000	17,772000
1749,000000	17,778800
1748,000000	17,771400
1747,000000	17,757500
1746,000000	17,720500
1745,000000	17,679400
1744,000000	17,620100
1743,000000	17,555300
1742,000000	17,465100
1741,000000	17,352800
1740,000000	17,242900
1739,000000	17,127000
1738,000000	16,996000
1737,000000	16,855300
1736,000000	16,756200
1735,000000	16,652900
1734,000000	16,554600
1733,000000	16,489400
1732,000000	16,469700
1731,000000	16,427500
1730,000000	16,430700
1729,000000	16,475300
1728,000000	16,533400
1727,000000	16,588100
1726,000000	16,659200
1725,000000	16,708100
1724,000000	16,763100
1723,000000	16,819200
1722,000000	16,867800
1721,000000	16,912200
1720,000000	16,972000
1719,000000	17,024900
1718,000000	17,113000
1717,000000	17,164100
1716,000000	17,221700
1715,000000	17,298800
1714,000000	17,385600
1713,000000	17,463500
1712,000000	17,559700
1711,000000	17,632500
1710,000000	17,701600
1709,000000	17,739200
1708,000000	17,751100
1707,000000	17,777200
1706,000000	17,771700
1705,000000	17,761800
1704,000000	17,741600
1703,000000	17,700400
1702,000000	17,645300
1701,000000	17,586600
1700,000000	17,502200
1699,000000	17,414900
1698,000000	17,318600
1697,000000	17,220200
1696,000000	17,119800
1695,000000	17,034400
1694,000000	16,994000
1693,000000	16,993100
1692,000000	17,013000
1691,000000	17,051900
1690,000000	17,145700
1689,000000	17,238800
1688,000000	17,333800
1687,000000	17,408000
1686,000000	17,480300
1685,000000	17,562300
1684,000000	17,629700
1683,000000	17,723700
1682,000000	17,844400
1681,000000	18,013900
1680,000000	18,269500
1679,000000	18,573100
1678,000000	18,891500
1677,000000	19,253200
1676,000000	19,606200
1675,000000	19,943300
1674,000000	20,251600
1673,000000	20,529800
1672,000000	20,770700
1671,000000	21,011200
1670,000000	21,201500
1669,000000	21,389500
1668,000000	21,555500
1667,000000	21,716800
1666,000000	21,816500
1665,000000	21,934000
1664,000000	22,036900
1663,000000	22,118600
1662,000000	22,191800
1661,000000	22,241200
1660,000000	22,319800
1659,000000	22,379800
1658,000000	22,415400
1657,000000	22,454800
1656,000000	22,474900
1655,000000	22,497800
1654,000000	22,502000
1653,000000	22,511200
1652,000000	22,495600
1651,000000	22,484200
1650,000000	22,455600
1649,000000	22,454900
1648,000000	22,425700
1647,000000	22,390000
1646,000000	22,357800
1645,000000	22,314400
1644,000000	22,274800
1643,000000	22,233400
1642,000000	22,186000
1641,000000	22,139200
1640,000000	22,105400
1639,000000	22,040800
1638,000000	21,987300
1637,000000	21,939300
1636,000000	21,894200
1635,000000	21,831000
1634,000000	21,770900
1633,000000	21,710700
1632,000000	21,642000
1631,000000	21,581200
1630,000000	21,522300
1629,000000	21,448400
1628,000000	21,388400
1627,000000	21,313100
1626,000000	21,233500
1625,000000	21,161100
1624,000000	21,110100
1623,000000	21,026400
1622,000000	20,975200
1621,000000	20,883700
1620,000000	20,819000
1619,000000	20,757600
1618,000000	20,705400
1617,000000	20,642100
1616,000000	20,563200
1615,000000	20,495500
1614,000000	20,443300
1613,000000	20,370700
1612,000000	20,314100
1611,000000	20,244600
1610,000000	20,181400
1609,000000	20,120500
1608,000000	20,063100
1607,000000	19,994500
1606,000000	19,930600
1605,000000	19,848500
1604,000000	19,779700
1603,000000	19,712300
1602,000000	19,639000
1601,000000	19,564200
1600,000000	19,505800
1599,000000	19,427700
1598,000000	19,369300
1597,000000	19,300900
1596,000000	19,225600
1595,000000	19,149600
1594,000000	19,101800
1593,000000	19,039700
1592,000000	18,970400
1591,000000	18,904800
1590,000000	18,843400
1589,000000	18,806800
1588,000000	18,741200
1587,000000	18,679600
1586,000000	18,630900
1585,000000	18,579600
1584,000000	18,515100
1583,000000	18,470200
1582,000000	18,427700
1581,000000	18,367600
1580,000000	18,326400
1579,000000	18,287500
1578,000000	18,243400
1577,000000	18,186200
1576,000000	18,158200
1575,000000	18,132900
1574,000000	18,100900
1573,000000	18,065400
1572,000000	18,040700
1571,000000	18,012900
1570,000000	17,987200
1569,000000	17,986800
1568,000000	17,963500
1567,000000	17,947200
1566,000000	17,925600
1565,000000	17,915100
1564,000000	17,886600
1563,000000	17,877800
1562,000000	17,858500
1561,000000	17,844500
1560,000000	17,821300
1559,000000	17,791900
1558,000000	17,764500
1557,000000	17,736900
1556,000000	17,705800
1555,000000	17,684700
1554,000000	17,652300
1553,000000	17,604900
1552,000000	17,552300
1551,000000	17,508600
1550,000000	17,473000
1549,000000	17,431600
1548,000000	17,392100
1547,000000	17,339700
1546,000000	17,284900
1545,000000	17,244300
1544,000000	17,205400
1543,000000	17,160600
1542,000000	17,120200
1541,000000	17,085300
1540,000000	17,058900
1539,000000	17,024600
1538,000000	16,987000
1537,000000	16,960000
1536,000000	16,925900
1535,000000	16,886500
1534,000000	16,850000
1533,000000	16,809400
1532,000000	16,764500
1531,000000	16,720000
1530,000000	16,674900
1529,000000	16,629300
1528,000000	16,588700
1527,000000	16,531200
1526,000000	16,475900
1525,000000	16,421500
1524,000000	16,373600
1523,000000	16,328400
1522,000000	16,282700
1521,000000	16,219300
1520,000000	16,162100
1519,000000	16,112500
1518,000000	16,060900
1517,000000	16,002900
1516,000000	15,951200
1515,000000	15,905700
1514,000000	15,832300
1513,000000	15,770600
1512,000000	15,724000
1511,000000	15,655900
1510,000000	15,594700
1509,000000	15,548200
1508,000000	15,496700
1507,000000	15,446500
1506,000000	15,388300
1505,000000	15,321900
1504,000000	15,251600
1503,000000	15,192300
1502,000000	15,140600
1501,000000	15,076200
1500,000000	15,021600
1499,000000	14,977300
1498,000000	14,917800
1497,000000	14,859200
1496,000000	14,820000
1495,000000	14,779200
1494,000000	14,742400
1493,000000	14,709300
1492,000000	14,669500
1491,000000	14,624900
1490,000000	14,586800
1489,000000	14,559300
1488,000000	14,528200
1487,000000	14,495000
1486,000000	14,465800
1485,000000	14,436200
1484,000000	14,419600
1483,000000	14,395100
1482,000000	14,361000
1481,000000	14,334000
1480,000000	14,295600
1479,000000	14,279600
1478,000000	14,250500
1477,000000	14,228800
1476,000000	14,227200
1475,000000	14,225900
1474,000000	14,220000
1473,000000	14,226400
1472,000000	14,211200
1471,000000	14,207300
1470,000000	14,208200
1469,000000	14,196600
1468,000000	14,201300
1467,000000	14,200100
1466,000000	14,212400
1465,000000	14,214500
1464,000000	14,220600
1463,000000	14,227700
1462,000000	14,239200
1461,000000	14,260400
1460,000000	14,280600
1459,000000	14,300700
1458,000000	14,330400
1457,000000	14,364600
1456,000000	14,405000
1455,000000	14,441600
1454,000000	14,473200
1453,000000	14,526200
1452,000000	14,562800
1451,000000	14,615300
1450,000000	14,676600
1449,000000	14,718700
1448,000000	14,751800
1447,000000	14,814000
1446,000000	14,893000
1445,000000	14,956700
1444,000000	14,988700
1443,000000	15,047400
1442,000000	15,115200
1441,000000	15,184600
1440,000000	15,270700
1439,000000	15,335800
1438,000000	15,411400
1437,000000	15,504500
1436,000000	15,571400
1435,000000	15,658100
1434,000000	15,754100
1433,000000	15,854000
1432,000000	15,950800
1431,000000	16,047200
1430,000000	16,138300
1429,000000	16,238200
1428,000000	16,380700
1427,000000	16,504500
1426,000000	16,645300
1425,000000	16,791900
1424,000000	16,936700
1423,000000	17,091200
1422,000000	17,248100
1421,000000	17,403700
1420,000000	17,585100
1419,000000	17,809300
1418,000000	17,999600
1417,000000	18,202400
1416,000000	18,380000
1415,000000	18,636200
1414,000000	18,886300
1413,000000	19,138100
1412,000000	19,400800
1411,000000	19,608800
1410,000000	19,916800
1409,000000	20,248300
1408,000000	20,600900
1407,000000	20,937900
1406,000000	21,292500
1405,000000	21,646500
1404,000000	22,045100
1403,000000	22,414300
1402,000000	22,811000
1401,000000	23,204600
1400,000000	23,681900
1399,000000	24,120700
1398,000000	24,514600
1397,000000	24,869400
1396,000000	25,264800
1395,000000	25,768900
1394,000000	26,230700
1393,000000	26,633200
1392,000000	27,037000
1391,000000	27,529800
1390,000000	28,016500
1389,000000	28,481900
1388,000000	29,012200
1387,000000	29,611100
1386,000000	30,204100
1385,000000	30,783000
1384,000000	31,386700
1383,000000	32,001400
1382,000000	32,658800
1381,000000	33,265200
1380,000000	33,784200
1379,000000	34,207800
1378,000000	34,574200
1377,000000	34,908200
1376,000000	35,202700
1375,000000	35,477800
1374,000000	35,736700
1373,000000	36,023300
1372,000000	36,356700
1371,000000	36,687400
1370,000000	37,028800
1369,000000	37,357900
1368,000000	37,648700
1367,000000	37,968900
1366,000000	38,257000
1365,000000	38,499900
1364,000000	38,741200
1363,000000	38,954500
1362,000000	39,160200
1361,000000	39,370400
1360,000000	39,547800
1359,000000	39,683600
1358,000000	39,782500
1357,000000	39,921300
1356,000000	40,082600
1355,000000	40,287400
1354,000000	40,547700
1353,000000	40,879500
1352,000000	41,163200
1351,000000	41,574600
1350,000000	41,985700
1349,000000	42,407200
1348,000000	42,813700
1347,000000	43,204700
1346,000000	43,595700
1345,000000	43,915600
1344,000000	44,258900
1343,000000	44,650400
1342,000000	44,979700
1341,000000	45,304900
1340,000000	45,664800
1339,000000	46,000100
1338,000000	46,332700
1337,000000	46,649000
1336,000000	46,977900
1335,000000	47,301400
1334,000000	47,624600
1333,000000	47,948300
1332,000000	48,234400
1331,000000	48,533700
1330,000000	48,843700
1329,000000	49,135900
1328,000000	49,412400
1327,000000	49,698000
1326,000000	49,959600
1325,000000	50,225300
1324,000000	50,472900
1323,000000	50,730300
1322,000000	50,975600
1321,000000	51,194900
1320,000000	51,423900
1319,000000	51,636600
1318,000000	51,850400
1317,000000	52,048000
1316,000000	52,250300
1315,000000	52,451600
1314,000000	52,621000
1313,000000	52,803600
1312,000000	52,983000
1311,000000	53,149600
1310,000000	53,304100
1309,000000	53,459400
1308,000000	53,611600
1307,000000	53,725900
1306,000000	53,823200
1305,000000	53,961700
1304,000000	54,074400
1303,000000	54,163400
1302,000000	54,239700
1301,000000	54,334300
1300,000000	54,412600
1299,000000	54,491400
1298,000000	54,558900
1297,000000	54,604000
1296,000000	54,670600
1295,000000	54,701700
1294,000000	54,753000
1293,000000	54,797200
1292,000000	54,825000
1291,000000	54,845000
1290,000000	54,875600
1289,000000	54,878500
1288,000000	54,897200
1287,000000	54,884000
1286,000000	54,869700
1285,000000	54,863300
1284,000000	54,841900
1283,000000	54,819300
1282,000000	54,775900
1281,000000	54,736100
1280,000000	54,717600
1279,000000	54,676500
1278,000000	54,643500
1277,000000	54,610500
1276,000000	54,580700
1275,000000	54,549100
1274,000000	54,522500
1273,000000	54,478900
1272,000000	54,468600
1271,000000	54,447700
1270,000000	54,410400
1269,000000	54,383100
1268,000000	54,365500
1267,000000	54,337200
1266,000000	54,311700
1265,000000	54,287100
1264,000000	54,256000
1263,000000	54,209700
1262,000000	54,176200
1261,000000	54,147500
1260,000000	54,100700
1259,000000	54,064800
1258,000000	54,017000
1257,000000	53,979500
1256,000000	53,935300
1255,000000	53,876700
1254,000000	53,805200
1253,000000	53,760300
1252,000000	53,694200
1251,000000	53,618100
1250,000000	53,542000
1249,000000	53,442800
1248,000000	53,364500
1247,000000	53,291700
1246,000000	53,190200
1245,000000	53,084700
1244,000000	52,985400
1243,000000	52,888400
1242,000000	52,768900
1241,000000	52,641300
1240,000000	52,523100
1239,000000	52,412700
1238,000000	52,301700
1237,000000	52,174600
1236,000000	52,053200
1235,000000	51,936000
1234,000000	51,803800
1233,000000	51,673600
1232,000000	51,547200
1231,000000	51,409600
1230,000000	51,271200
1229,000000	51,137800
1228,000000	50,983000
1227,000000	50,824400
1226,000000	50,679500
1225,000000	50,523500
1224,000000	50,362500
1223,000000	50,195400
1222,000000	50,032300
1221,000000	49,873500
1220,000000	49,704200
1219,000000	49,543600
1218,000000	49,383500
1217,000000	49,220900
1216,000000	49,059500
1215,000000	48,916300
1214,000000	48,773300
1213,000000	48,620900
1212,000000	48,476100
1211,000000	48,334200
1210,000000	48,196600
1209,000000	48,050000
1208,000000	47,921000
1207,000000	47,797300
1206,000000	47,681700
1205,000000	47,557900
1204,000000	47,442300
1203,000000	47,375800
1202,000000	47,302900
1201,000000	47,220400
1200,000000	47,155200
1199,000000	47,089800
1198,000000	47,017900
1197,000000	46,931300
1196,000000	46,820500
1195,000000	46,684900
1194,000000	46,509700
1193,000000	46,294900
1192,000000	46,055000
1191,000000	45,778300
1190,000000	45,469300
1189,000000	45,144800
1188,000000	44,837500
1187,000000	44,573100
1186,000000	44,397300
1185,000000	44,282400
1184,000000	44,265300
1183,000000	44,362700
1182,000000	44,552900
1181,000000	44,829400
1180,000000	45,173000
1179,000000	45,574000
1178,000000	45,991400
1177,000000	46,383300
1176,000000	46,739100
1175,000000	47,069800
1174,000000	47,383900
1173,000000	47,652600
1172,000000	47,922200
1171,000000	48,194800
1170,000000	48,487400
1169,000000	48,760600
1168,000000	49,054500
1167,000000	49,347100
1166,000000	49,665200
1165,000000	49,976700
1164,000000	50,312400
1163,000000	50,662400
1162,000000	51,025000
1161,000000	51,358600
1160,000000	51,712900
1159,000000	52,057600
1158,000000	52,426300
1157,000000	52,762000
1156,000000	53,098200
1155,000000	53,420900
1154,000000	53,707100
1153,000000	53,980200
1152,000000	54,221600
1151,000000	54,418400
1150,000000	54,607000
1149,000000	54,792700
1148,000000	54,948400
1147,000000	55,119400
1146,000000	55,317900
1145,000000	55,564900
1144,000000	55,814500
1143,000000	56,115800
1142,000000	56,441900
1141,000000	56,812600
1140,000000	57,205600
1139,000000	57,625300
1138,000000	58,051000
1137,000000	58,496600
1136,000000	58,967300
1135,000000	59,455900
1134,000000	59,975000
1133,000000	60,477700
1132,000000	60,888600
1131,000000	61,269900
1130,000000	61,645300
1129,000000	61,979200
1128,000000	62,291100
1127,000000	62,525900
1126,000000	62,726000
1125,000000	62,921900
1124,000000	63,065800
1123,000000	63,195300
1122,000000	63,304800
1121,000000	63,381200
1120,000000	63,436100
1119,000000	63,498800
1118,000000	63,553800
1117,000000	63,594100
1116,000000	63,615100
1115,000000	63,626400
1114,000000	63,636300
1113,000000	63,640500
1112,000000	63,642100
1111,000000	63,654100
1110,000000	63,640800
1109,000000	63,647900
1108,000000	63,641800
1107,000000	63,648200
1106,000000	63,649200
1105,000000	63,648800
1104,000000	63,637000
1103,000000	63,640000
1102,000000	63,640200
1101,000000	63,630800
1100,000000	63,618100
1099,000000	63,611700
1098,000000	63,598400
1097,000000	63,587900
1096,000000	63,561200
1095,000000	63,543300
1094,000000	63,538600
1093,000000	63,479400
1092,000000	63,462600
1091,000000	63,455600
1090,000000	63,409900
1089,000000	63,381300
1088,000000	63,324900
1087,000000	63,298600
1086,000000	63,233800
1085,000000	63,214600
1084,000000	63,146800
1083,000000	63,111100
1082,000000	63,055500
1081,000000	62,993100
1080,000000	62,934100
1079,000000	62,867300
1078,000000	62,833700
1077,000000	62,761800
1076,000000	62,690800
1075,000000	62,660300
1074,000000	62,588600
1073,000000	62,511700
1072,000000	62,458100
1071,000000	62,385200
1070,000000	62,332300
1069,000000	62,256700
1068,000000	62,186900
1067,000000	62,118400
1066,000000	62,061400
1065,000000	61,979700
1064,000000	61,910600
1063,000000	61,830900
1062,000000	61,754400
1061,000000	61,668800
1060,000000	61,614400
1059,000000	61,530300
1058,000000	61,451300
1057,000000	61,345700
1056,000000	61,268300
1055,000000	61,182900
1054,000000	61,112500
1053,000000	61,012000
1052,000000	60,943100
1051,000000	60,850500
1050,000000	60,767100
1049,000000	60,668600
1048,000000	60,612500
1047,000000	60,533900
1046,000000	60,465600
1045,000000	60,379400
1044,000000	60,322600
1043,000000	60,221300
1042,000000	60,136200
1041,000000	60,085900
1040,000000	59,998500
1039,000000	59,920800
1038,000000	59,830200
1037,000000	59,760400
1036,000000	59,674000
1035,000000	59,584500
1034,000000	59,483800
1033,000000	59,405100
1032,000000	59,309500
1031,000000	59,228800
1030,000000	59,114300
1029,000000	59,034000
1028,000000	58,937800
1027,000000	58,837500
1026,000000	58,742400
1025,000000	58,657300
1024,000000	58,550100
1023,000000	58,439200
1022,000000	58,328800
1021,000000	58,221100
1020,000000	58,136900
1019,000000	58,030100
1018,000000	57,934300
1017,000000	57,836900
1016,000000	57,749800
1015,000000	57,691300
1014,000000	57,590800
1013,000000	57,514500
1012,000000	57,433600
1011,000000	57,379200
1010,000000	57,315400
1009,000000	57,260700
1008,000000	57,221200
1007,000000	57,186300
1006,000000	57,128000
1005,000000	57,088700
1004,000000	57,044300
1003,000000	57,020800
1002,000000	56,975900
1001,000000	56,941700
1000,000000	56,885000
999,000000	56,853800
998,000000	56,817100
997,000000	56,777000
996,000000	56,752400
995,000000	56,723000
994,000000	56,705000
993,000000	56,652800
992,000000	56,618000
991,000000	56,602600
990,000000	56,583900
989,000000	56,553500
988,000000	56,528700
987,000000	56,527300
986,000000	56,499900
985,000000	56,490900
984,000000	56,480400
983,000000	56,477400
982,000000	56,472900
981,000000	56,446200
980,000000	56,458900
979,000000	56,462000
978,000000	56,454400
977,000000	56,458600
976,000000	56,472100
975,000000	56,490800
974,000000	56,483400
973,000000	56,493100
972,000000	56,499500
971,000000	56,507100
970,000000	56,506800
969,000000	56,527000
968,000000	56,545100
967,000000	56,559900
966,000000	56,578000
965,000000	56,598100
964,000000	56,627800
963,000000	56,654900
962,000000	56,661200
961,000000	56,678300
960,000000	56,712900
959,000000	56,757800
958,000000	56,793800
957,000000	56,826200
956,000000	56,871500
955,000000	56,905100
954,000000	56,961400
953,000000	56,995100
952,000000	57,024000
951,000000	57,074900
950,000000	57,111200
949,000000	57,143700
948,000000	57,192700
947,000000	57,233200
946,000000	57,258200
945,000000	57,277300
944,000000	57,305800
943,000000	57,339400
942,000000	57,333800
941,000000	57,334100
940,000000	57,362500
939,000000	57,373900
938,000000	57,371200
937,000000	57,378800
936,000000	57,394800
935,000000	57,386100
934,000000	57,382300
933,000000	57,392500
932,000000	57,394500
931,000000	57,402600
930,000000	57,396500
929,000000	57,369100
928,000000	57,357100
927,000000	57,358200
926,000000	57,348400
925,000000	57,342300
924,000000	57,313400
923,000000	57,299800
922,000000	57,283200
921,000000	57,279900
920,000000	57,259300
919,000000	57,231500
918,000000	57,213400
917,000000	57,190000
916,000000	57,154200
915,000000	57,122600
914,000000	57,087500
913,000000	57,056500
912,000000	57,023800
911,000000	56,995100
910,000000	56,967500
909,000000	56,939600
908,000000	56,923800
907,000000	56,901400
906,000000	56,894100
905,000000	56,887700
904,000000	56,884600
903,000000	56,875700
902,000000	56,875400
901,000000	56,861000
900,000000	56,860400
899,000000	56,871300
898,000000	56,869200
897,000000	56,894000
896,000000	56,898700
895,000000	56,879300
894,000000	56,894900
893,000000	56,903300
892,000000	56,888800
891,000000	56,878200
890,000000	56,856900
889,000000	56,858200
888,000000	56,843400
887,000000	56,830000
886,000000	56,803800
885,000000	56,768300
884,000000	56,728300
883,000000	56,687500
882,000000	56,650200
881,000000	56,596800
880,000000	56,552900
879,000000	56,471300
878,000000	56,418100
877,000000	56,348100
876,000000	56,285000
875,000000	56,158800
874,000000	56,013900
873,000000	55,878500
872,000000	55,690400
871,000000	55,504400
870,000000	55,394700
869,000000	55,371900
868,000000	55,373600
867,000000	55,401700
866,000000	55,415500
865,000000	55,402500
864,000000	55,393500
863,000000	55,388700
862,000000	55,400100
861,000000	55,397200
860,000000	55,389800
859,000000	55,375900
858,000000	55,391100
857,000000	58,424000
856,000000	59,104300
855,000000	58,848800
854,000000	58,534300
853,000000	58,793400
852,000000	58,891700
851,000000	58,971200
850,000000	58,948800
849,000000	59,182100
848,000000	59,035300
847,000000	58,929700
846,000000	59,083000
845,000000	58,815000
844,000000	59,078600
843,000000	59,037000
842,000000	58,751000
841,000000	58,726800
840,000000	58,723100
839,000000	58,832000
838,000000	58,581000
837,000000	58,638700
836,000000	58,978700
835,000000	58,576500
834,000000	58,444700
833,000000	58,213200
832,000000	58,244100
831,000000	58,301200
830,000000	58,258600
829,000000	58,176900
828,000000	58,145200
827,000000	58,170100
826,000000	58,017000
825,000000	58,007200
824,000000	57,938400
823,000000	57,694800
822,000000	57,674100
821,000000	57,590100
820,000000	57,398300
819,000000	57,449600
818,000000	57,462800
817,000000	57,305400
816,000000	57,112000
815,000000	56,923000
814,000000	57,036000
813,000000	56,737100
812,000000	56,837700
811,000000	56,711200
810,000000	56,618600
809,000000	56,419300
808,000000	56,323200
807,000000	56,187500
806,000000	56,097000
805,000000	56,014400
804,000000	56,012700
803,000000	55,876700
802,000000	55,767400
801,000000	55,366900
800,000000	55,569700
799,000000	55,282500
798,000000	55,303300
797,000000	54,991200
796,000000	54,845100
795,000000	54,726700
794,000000	54,552700
793,000000	54,580500
792,000000	54,326200
791,000000	54,313600
790,000000	54,113500
789,000000	54,033900
788,000000	53,939400
787,000000	53,863800
786,000000	53,763900
785,000000	53,589000
784,000000	53,446600
783,000000	53,342700
782,000000	53,189200
781,000000	53,042900
780,000000	52,946900
779,000000	52,726600
778,000000	52,472000
777,000000	52,466700
776,000000	52,352000
775,000000	52,174200
774,000000	52,029600
773,000000	51,932100
772,000000	51,655000
771,000000	51,595800
770,000000	51,332600
769,000000	51,230000
768,000000	51,108300
767,000000	50,988700
766,000000	50,833900
765,000000	50,600100
764,000000	50,433300
763,000000	50,296400
762,000000	50,118500
761,000000	49,993500
760,000000	49,735500
759,000000	49,594200
758,000000	49,383800
757,000000	49,166600
756,000000	48,990600
755,000000	48,704200
754,000000	48,665000
753,000000	48,507800
752,000000	48,262400
751,000000	48,029400
750,000000	47,876500
749,000000	47,650000
748,000000	47,491700
747,000000	47,272100
746,000000	47,076400
745,000000	46,790600
744,000000	46,666100
743,000000	46,396800
742,000000	46,203200
741,000000	45,943200
740,000000	45,736800
739,000000	45,465300
738,000000	45,290900
737,000000	45,037600
736,000000	44,815100
735,000000	44,610000
734,000000	44,304800
733,000000	44,136700
732,000000	43,939400
731,000000	43,680000
730,000000	43,503900
729,000000	43,217900
728,000000	42,932500
727,000000	42,738300
726,000000	42,545700
725,000000	42,339400
724,000000	42,041400
723,000000	41,809900
722,000000	41,554300
721,000000	41,305200
720,000000	41,115100
719,000000	40,888200
718,000000	40,606900
717,000000	40,378900
716,000000	40,062500
715,000000	39,820900
714,000000	39,589800
713,000000	39,312500
712,000000	39,090400
711,000000	38,823100
710,000000	38,518500
709,000000	38,207200
708,000000	37,943800
707,000000	37,711500
706,000000	37,435000
705,000000	37,138700
704,000000	36,871900
703,000000	36,587500
702,000000	36,271900
701,000000	35,976800
700,000000	35,669000
699,000000	35,358000
698,000000	35,056900
697,000000	34,798700
696,000000	34,519800
695,000000	34,173800
694,000000	33,889200
693,000000	33,624200
692,000000	33,346400
691,000000	33,071100
690,000000	32,791700
689,000000	32,499900
688,000000	32,198100
687,000000	31,930800
686,000000	31,687700
685,000000	31,411200
684,000000	31,157000
683,000000	30,884200
682,000000	30,641800
681,000000	30,407300
680,000000	30,188800
679,000000	29,960900
678,000000	29,722900
677,000000	29,510900
676,000000	29,307900
675,000000	29,122900
674,000000	28,928600
673,000000	28,707500
672,000000	28,540000
671,000000	28,369400
670,000000	28,192200
669,000000	28,042600
668,000000	27,895200
667,000000	27,740800
666,000000	27,611300
665,000000	27,444700
664,000000	27,296900
663,000000	27,162100
662,000000	27,046300
661,000000	26,929700
660,000000	26,797700
659,000000	26,695700
658,000000	26,597900
657,000000	26,485200
656,000000	26,396200
655,000000	26,326600
654,000000	26,233400
653,000000	26,152900
652,000000	26,074700
651,000000	26,010700
650,000000	25,953200
649,000000	25,896800
648,000000	25,846900
647,000000	25,803000
646,000000	25,763900
645,000000	25,722100
644,000000	25,681400
643,000000	25,669400
642,000000	25,667400
641,000000	25,679200
640,000000	25,685700
639,000000	25,682800
638,000000	25,679300
637,000000	25,693400
636,000000	25,714200
635,000000	25,721500
634,000000	25,739500
633,000000	25,765500
632,000000	25,783400
631,000000	25,814200
630,000000	25,872700
629,000000	25,917800
628,000000	25,973100
627,000000	26,035800
626,000000	26,072600
625,000000	26,099800
624,000000	26,157700
623,000000	26,222000
622,000000	26,277300
621,000000	26,340100
620,000000	26,403100
619,000000	26,461100
618,000000	26,520300
617,000000	26,594800
616,000000	26,665500
615,000000	26,727000
614,000000	26,805500
613,000000	26,860000
612,000000	26,915600
611,000000	26,975400
610,000000	27,035500
609,000000	27,097100
608,000000	27,171500
607,000000	27,220400
606,000000	27,264400
605,000000	27,311300
604,000000	27,363000
603,000000	27,411800
602,000000	27,472000
601,000000	27,520300
600,000000	27,553700
599,000000	27,585200
598,000000	27,610700
597,000000	27,621700
596,000000	27,623100
595,000000	27,620600
594,000000	27,638200
593,000000	27,662700
592,000000	27,646300
591,000000	27,644200
590,000000	27,618500
589,000000	27,600000
588,000000	27,560400
587,000000	27,523800
586,000000	27,498100
585,000000	27,443400
584,000000	27,378300
583,000000	27,331400
582,000000	27,263600
581,000000	27,206500
580,000000	27,146600
579,000000	27,067700
578,000000	26,939300
577,000000	26,850800
576,000000	26,761900
575,000000	26,635200
574,000000	26,521400
573,000000	26,406900
572,000000	26,261000
571,000000	26,124400
570,000000	26,009300
569,000000	25,869700
568,000000	25,703300
567,000000	25,545100
566,000000	25,382100
565,000000	25,214700
564,000000	25,033100
563,000000	24,833100
562,000000	24,626100
561,000000	24,435800
560,000000	24,238000
559,000000	24,009900
558,000000	23,809000
557,000000	23,590200
556,000000	23,365000
555,000000	23,141600
554,000000	22,912100
553,000000	22,685300
552,000000	22,458600
551,000000	22,207500
550,000000	21,975700
549,000000	21,739800
548,000000	21,516100
547,000000	21,285200
546,000000	21,049700
545,000000	20,803500
544,000000	20,566600
543,000000	20,331000
542,000000	20,101600
541,000000	19,862500
540,000000	19,636000
539,000000	19,399000
538,000000	19,176900
537,000000	18,962400
536,000000	18,740700
535,000000	18,520200
534,000000	18,315700
533,000000	18,112400
532,000000	17,902300
531,000000	17,687900
530,000000	17,474000
529,000000	17,281800
528,000000	17,089700
527,000000	16,879800
526,000000	16,691800
525,000000	16,502800
524,000000	16,309200
523,000000	16,129100
522,000000	15,928800
521,000000	15,752700
520,000000	15,579000
519,000000	15,394200
518,000000	15,226700
517,000000	15,038200
516,000000	14,887200
515,000000	14,726500
514,000000	14,553800
513,000000	14,407400
512,000000	14,283200
511,000000	14,100900
510,000000	13,974800
509,000000	13,852300
508,000000	13,731300
507,000000	13,595400
506,000000	13,479200
505,000000	13,371500
504,000000	13,258200
503,000000	13,156600
502,000000	13,064200
501,000000	12,962100
500,000000	12,869900
499,000000	12,790100
498,000000	12,728900
497,000000	12,639000
496,000000	12,581400
495,000000	12,518100
494,000000	12,468900
493,000000	12,418100
492,000000	12,360800
491,000000	12,316400
490,000000	12,288400
489,000000	12,245600
488,000000	12,198000
487,000000	12,201900
486,000000	12,190500
485,000000	12,144300
484,000000	12,107800
483,000000	12,089300
482,000000	12,060500
481,000000	12,023700
480,000000	11,992100
479,000000	11,957100
478,000000	11,915200
477,000000	11,882100
476,000000	11,846100
475,000000	11,814200
474,000000	11,790000
473,000000	11,751300
472,000000	11,716000
471,000000	11,668400
470,000000	11,649300
469,000000	11,617700
468,000000	11,586000
467,000000	11,548500
466,000000	11,508600
465,000000	11,480200
464,000000	11,446400
463,000000	11,411400
462,000000	11,381800
461,000000	11,348800
460,000000	11,310200
459,000000	11,257900
458,000000	11,231000
457,000000	11,185400
456,000000	11,171400
455,000000	11,129500
454,000000	11,075400
453,000000	11,034100
452,000000	10,996600
451,000000	10,942000
450,000000	10,919000
449,000000	10,881100
448,000000	10,814000
447,000000	10,772200
446,000000	10,724500
445,000000	10,681200
444,000000	10,630100
443,000000	10,583100
442,000000	10,520300
441,000000	10,459400
440,000000	10,383500
439,000000	10,333200
438,000000	10,287500
437,000000	10,202700
436,000000	10,140800
435,000000	10,071900
434,000000	10,013500
433,000000	9,952500
432,000000	9,868800
431,000000	9,789700
430,000000	9,756100
429,000000	9,693900
428,000000	9,622600
427,000000	9,536800
426,000000	9,482700
425,000000	9,414400
424,000000	9,336000
423,000000	9,263500
422,000000	9,189000
421,000000	9,131300
420,000000	9,047300
419,000000	8,970800
418,000000	8,898900
417,000000	8,830200
416,000000	8,757500
415,000000	8,658600
414,000000	8,596800
413,000000	8,529800
412,000000	8,417900
411,000000	8,340000
410,000000	8,265600
409,000000	8,169000
408,000000	8,088900
407,000000	7,981100
406,000000	7,918700
405,000000	7,817100
404,000000	7,728000
403,000000	7,638900
402,000000	7,574300
401,000000	7,461200
400,000000	7,359500
399,000000	7,272300
398,000000	7,193500
397,000000	7,115700
396,000000	7,024900
395,000000	6,928700
394,000000	6,837700
393,000000	6,734400
392,000000	6,650800
391,000000	6,578300
390,000000	6,500800
389,000000	6,414800
388,000000	6,319500
387,000000	6,217200
386,000000	6,145200
385,000000	6,103400
384,000000	6,005300
383,000000	5,927200
382,000000	5,890200
381,000000	5,807100
380,000000	5,715800
379,000000	5,661900
378,000000	5,620800
377,000000	5,553700
376,000000	5,334200
375,000000	5,080800
374,000000	5,133900
373,000000	5,057800
372,000000	5,042100
371,000000	4,935600
370,000000	4,953000
369,000000	4,901900
368,000000	4,906800
367,000000	4,988300
366,000000	4,953800
365,000000	4,889500
364,000000	4,933000
363,000000	4,922900
362,000000	4,947600
361,000000	4,917300
360,000000	4,979600
359,000000	4,822000
358,000000	4,778300
357,000000	4,915400
356,000000	4,862600
355,000000	4,660300
354,000000	4,640400
353,000000	4,683300
352,000000	4,713100
351,000000	4,678300
350,000000	4,661100
349,000000	4,617600
348,000000	4,748300
347,000000	4,681600
346,000000	4,573200
345,000000	4,702200
344,000000	4,727000
343,000000	4,693100
342,000000	4,716500
341,000000	4,912800
340,000000	4,920600
339,000000	4,761100
338,000000	4,621600
337,000000	4,628500
336,000000	4,817100
335,000000	4,790500
334,000000	4,803900
333,000000	4,974600
332,000000	4,887700
331,000000	4,976900
330,000000	5,023600
329,000000	5,053400
328,000000	5,070900
327,000000	4,878100
326,000000	4,923600
325,000000	5,271800
324,000000	5,267800
323,000000	5,230200
322,000000	5,136100
321,000000	5,026300
320,000000	5,059100
319,000000	5,194100
318,000000	5,595600
317,000000	5,692600
316,000000	5,107800
315,000000	4,720300
314,000000	4,712700
313,000000	4,702500
312,000000	4,694200
311,000000	4,701900
310,000000	4,717600
309,000000	4,712500
308,000000	4,696400
307,000000	4,752900
306,000000	4,744400
305,000000	4,723700
304,000000	4,744700
303,000000	4,761700
302,000000	4,748700
301,000000	4,772700
300,000000	4,723800
299,000000	4,703500
298,000000	4,735800
297,000000	4,725100
296,000000	4,740700
295,000000	4,734700
294,000000	4,734200
293,000000	4,756700
292,000000	4,731800
291,000000	4,764200
290,000000	4,800900
289,000000	4,789600
288,000000	4,758400
287,000000	4,756200
286,000000	4,781500
285,000000	4,768700
284,000000	4,798000
283,000000	4,835800
282,000000	4,800200
281,000000	4,859100
280,000000	4,868900
279,000000	4,892500
278,000000	4,872700
277,000000	4,860000
276,000000	4,869000
275,000000	4,863200
274,000000	4,887700
273,000000	4,923300
272,000000	4,952500
271,000000	4,960100
270,000000	4,965700
269,000000	5,008600
268,000000	4,980800
267,000000	4,995100
266,000000	5,020600
265,000000	5,059900
264,000000	5,048300
263,000000	5,052500
262,000000	5,066600
261,000000	5,094700
260,000000	5,162700
259,000000	5,194000
258,000000	5,194500
257,000000	5,205600
256,000000	5,258100
255,000000	5,242900
254,000000	5,218600
253,000000	5,230200
252,000000	5,313400
251,000000	5,333700
250,000000	5,304500
