PE UV       SUBTECH     SPECTRUM    ASCII       PEDS        4.00        
   -1
CICIMAUCR0242-2.Sample.ASC
24/06/21
14:21:29.00
24/06/21
14:21:29.00
Vinicio Soto Monge
C. cupreomarginata. Ventral. Sex M
250,000000
1
Lambda 1050
1050L1511233
PerkinElmer UV WinLab 6.3.2.0749 / 2.02.05 Lambda 900 UV/VIS/NIR, Aug  7 2015 09:38:08

0
0
3350/servo 860,8/2
0
0
UV/VIS
1
1
1
DoubleDePol,CommonBeamDepol,RBeamAtt,SBeamAtt,60mm sphere, WB InGaAs Detector
0
0
0
0
Program
Program
3350/servo 860,8/2
3350/0,2 860,8/0,2
3350/0,2 860,8/0,2
0
15.00
 
 
 
0
 
860,8
319,2
860,8
Front
100
on
S:100 R:100
0
0
0
0
 
0
 
 
 
0
 
 
0
0
0
0
0
 
 
 
 
0
0


0
0
#HDR
-1
-1
#GR
nm
%R
1.0
0.0
2500,000000
-1,000000
2251
8
52,376100
4,098600
#DATA
2500,000000	5,275700
2499,000000	5,300100
2498,000000	5,190000
2497,000000	5,235700
2496,000000	5,196500
2495,000000	5,247300
2494,000000	5,243600
2493,000000	5,207500
2492,000000	5,253300
2491,000000	5,099200
2490,000000	5,074700
2489,000000	5,214300
2488,000000	5,066400
2487,000000	5,056400
2486,000000	5,077900
2485,000000	5,086200
2484,000000	5,073800
2483,000000	5,022800
2482,000000	5,068800
2481,000000	5,056900
2480,000000	5,043800
2479,000000	5,094900
2478,000000	5,074900
2477,000000	5,002300
2476,000000	4,982600
2475,000000	5,013000
2474,000000	4,986500
2473,000000	4,975700
2472,000000	5,019200
2471,000000	5,034900
2470,000000	4,975500
2469,000000	4,970000
2468,000000	5,002700
2467,000000	4,990800
2466,000000	4,971100
2465,000000	4,988200
2464,000000	4,975400
2463,000000	4,995900
2462,000000	4,993800
2461,000000	4,951400
2460,000000	4,981800
2459,000000	4,982600
2458,000000	4,976700
2457,000000	4,997100
2456,000000	4,973600
2455,000000	4,998200
2454,000000	5,022300
2453,000000	5,023100
2452,000000	5,031200
2451,000000	5,078000
2450,000000	5,063500
2449,000000	5,038600
2448,000000	5,062800
2447,000000	5,108400
2446,000000	5,106900
2445,000000	5,130600
2444,000000	5,145800
2443,000000	5,160500
2442,000000	5,158600
2441,000000	5,166900
2440,000000	5,198200
2439,000000	5,222800
2438,000000	5,216700
2437,000000	5,222400
2436,000000	5,263200
2435,000000	5,282300
2434,000000	5,272200
2433,000000	5,292000
2432,000000	5,301400
2431,000000	5,317300
2430,000000	5,348500
2429,000000	5,346400
2428,000000	5,354000
2427,000000	5,370400
2426,000000	5,379100
2425,000000	5,385600
2424,000000	5,393300
2423,000000	5,405700
2422,000000	5,422000
2421,000000	5,430500
2420,000000	5,419900
2419,000000	5,448600
2418,000000	5,443300
2417,000000	5,436300
2416,000000	5,449700
2415,000000	5,463700
2414,000000	5,465400
2413,000000	5,468600
2412,000000	5,487000
2411,000000	5,496800
2410,000000	5,497000
2409,000000	5,518700
2408,000000	5,514300
2407,000000	5,512100
2406,000000	5,536900
2405,000000	5,538200
2404,000000	5,551000
2403,000000	5,552400
2402,000000	5,555400
2401,000000	5,566100
2400,000000	5,562700
2399,000000	5,569500
2398,000000	5,587500
2397,000000	5,608000
2396,000000	5,626100
2395,000000	5,636100
2394,000000	5,643600
2393,000000	5,641800
2392,000000	5,664300
2391,000000	5,683900
2390,000000	5,680600
2389,000000	5,685400
2388,000000	5,697100
2387,000000	5,707500
2386,000000	5,708700
2385,000000	5,705000
2384,000000	5,715000
2383,000000	5,731900
2382,000000	5,737200
2381,000000	5,735500
2380,000000	5,732300
2379,000000	5,720900
2378,000000	5,721500
2377,000000	5,727400
2376,000000	5,724700
2375,000000	5,735500
2374,000000	5,739900
2373,000000	5,730900
2372,000000	5,723600
2371,000000	5,713100
2370,000000	5,717100
2369,000000	5,719700
2368,000000	5,711100
2367,000000	5,710700
2366,000000	5,697000
2365,000000	5,680300
2364,000000	5,680300
2363,000000	5,678700
2362,000000	5,669800
2361,000000	5,660600
2360,000000	5,640500
2359,000000	5,622800
2358,000000	5,620500
2357,000000	5,623500
2356,000000	5,629500
2355,000000	5,615600
2354,000000	5,606000
2353,000000	5,613800
2352,000000	5,606000
2351,000000	5,593100
2350,000000	5,607300
2349,000000	5,615200
2348,000000	5,609500
2347,000000	5,613100
2346,000000	5,628400
2345,000000	5,629800
2344,000000	5,629800
2343,000000	5,651600
2342,000000	5,649100
2341,000000	5,656100
2340,000000	5,669900
2339,000000	5,676400
2338,000000	5,674700
2337,000000	5,670800
2336,000000	5,677800
2335,000000	5,676200
2334,000000	5,679800
2333,000000	5,686700
2332,000000	5,676800
2331,000000	5,669500
2330,000000	5,652100
2329,000000	5,639200
2328,000000	5,618900
2327,000000	5,620900
2326,000000	5,619500
2325,000000	5,595900
2324,000000	5,588700
2323,000000	5,576400
2322,000000	5,562000
2321,000000	5,537800
2320,000000	5,512000
2319,000000	5,479100
2318,000000	5,458000
2317,000000	5,440500
2316,000000	5,414000
2315,000000	5,410100
2314,000000	5,382600
2313,000000	5,342500
2312,000000	5,320000
2311,000000	5,305800
2310,000000	5,298800
2309,000000	5,284700
2308,000000	5,267000
2307,000000	5,238900
2306,000000	5,248200
2305,000000	5,258100
2304,000000	5,252000
2303,000000	5,258900
2302,000000	5,249200
2301,000000	5,273000
2300,000000	5,264500
2299,000000	5,256300
2298,000000	5,291000
2297,000000	5,304100
2296,000000	5,322900
2295,000000	5,353500
2294,000000	5,349600
2293,000000	5,366000
2292,000000	5,374200
2291,000000	5,384300
2290,000000	5,405500
2289,000000	5,401900
2288,000000	5,394900
2287,000000	5,406400
2286,000000	5,389600
2285,000000	5,385900
2284,000000	5,402400
2283,000000	5,389100
2282,000000	5,381100
2281,000000	5,360200
2280,000000	5,364100
2279,000000	5,362300
2278,000000	5,342300
2277,000000	5,325000
2276,000000	5,314400
2275,000000	5,319400
2274,000000	5,309900
2273,000000	5,287500
2272,000000	5,306100
2271,000000	5,294900
2270,000000	5,307700
2269,000000	5,301400
2268,000000	5,298200
2267,000000	5,308100
2266,000000	5,337900
2265,000000	5,333200
2264,000000	5,360200
2263,000000	5,380300
2262,000000	5,401500
2261,000000	5,479400
2260,000000	5,512900
2259,000000	5,521100
2258,000000	5,599500
2257,000000	5,642900
2256,000000	5,685000
2255,000000	5,734800
2254,000000	5,809900
2253,000000	5,863900
2252,000000	5,920500
2251,000000	5,984300
2250,000000	6,040000
2249,000000	6,091400
2248,000000	6,146500
2247,000000	6,203800
2246,000000	6,237700
2245,000000	6,307600
2244,000000	6,333500
2243,000000	6,369200
2242,000000	6,394700
2241,000000	6,466500
2240,000000	6,489400
2239,000000	6,517100
2238,000000	6,537000
2237,000000	6,596300
2236,000000	6,617800
2235,000000	6,630300
2234,000000	6,657500
2233,000000	6,670500
2232,000000	6,690700
2231,000000	6,712200
2230,000000	6,732300
2229,000000	6,730900
2228,000000	6,728600
2227,000000	6,738600
2226,000000	6,750100
2225,000000	6,764200
2224,000000	6,774600
2223,000000	6,779400
2222,000000	6,771100
2221,000000	6,764600
2220,000000	6,743400
2219,000000	6,757000
2218,000000	6,773400
2217,000000	6,766200
2216,000000	6,740400
2215,000000	6,738100
2214,000000	6,727300
2213,000000	6,733400
2212,000000	6,732400
2211,000000	6,739300
2210,000000	6,698400
2209,000000	6,699100
2208,000000	6,676300
2207,000000	6,688100
2206,000000	6,672600
2205,000000	6,669100
2204,000000	6,658500
2203,000000	6,658300
2202,000000	6,653400
2201,000000	6,658700
2200,000000	6,650300
2199,000000	6,641300
2198,000000	6,642900
2197,000000	6,639000
2196,000000	6,632500
2195,000000	6,640900
2194,000000	6,639800
2193,000000	6,621900
2192,000000	6,612000
2191,000000	6,620200
2190,000000	6,600600
2189,000000	6,635100
2188,000000	6,616500
2187,000000	6,615600
2186,000000	6,618600
2185,000000	6,595100
2184,000000	6,578700
2183,000000	6,595600
2182,000000	6,584900
2181,000000	6,588900
2180,000000	6,585200
2179,000000	6,595000
2178,000000	6,588100
2177,000000	6,566800
2176,000000	6,585100
2175,000000	6,585100
2174,000000	6,598100
2173,000000	6,586700
2172,000000	6,592100
2171,000000	6,588800
2170,000000	6,596900
2169,000000	6,586800
2168,000000	6,603300
2167,000000	6,608900
2166,000000	6,597500
2165,000000	6,587300
2164,000000	6,622100
2163,000000	6,629400
2162,000000	6,637600
2161,000000	6,655700
2160,000000	6,651800
2159,000000	6,661800
2158,000000	6,689600
2157,000000	6,689000
2156,000000	6,691000
2155,000000	6,712500
2154,000000	6,722200
2153,000000	6,730700
2152,000000	6,755700
2151,000000	6,765200
2150,000000	6,779900
2149,000000	6,772900
2148,000000	6,782000
2147,000000	6,798900
2146,000000	6,825200
2145,000000	6,824100
2144,000000	6,829000
2143,000000	6,830000
2142,000000	6,844100
2141,000000	6,858800
2140,000000	6,859500
2139,000000	6,875700
2138,000000	6,873100
2137,000000	6,885100
2136,000000	6,901000
2135,000000	6,901200
2134,000000	6,891000
2133,000000	6,897500
2132,000000	6,903100
2131,000000	6,909400
2130,000000	6,889400
2129,000000	6,894400
2128,000000	6,904800
2127,000000	6,900200
2126,000000	6,904400
2125,000000	6,902800
2124,000000	6,889800
2123,000000	6,877700
2122,000000	6,868400
2121,000000	6,866000
2120,000000	6,848500
2119,000000	6,844200
2118,000000	6,842600
2117,000000	6,835200
2116,000000	6,826000
2115,000000	6,807100
2114,000000	6,796800
2113,000000	6,774100
2112,000000	6,773400
2111,000000	6,767800
2110,000000	6,734800
2109,000000	6,719300
2108,000000	6,719500
2107,000000	6,710200
2106,000000	6,702100
2105,000000	6,687000
2104,000000	6,662500
2103,000000	6,661500
2102,000000	6,657200
2101,000000	6,646500
2100,000000	6,648300
2099,000000	6,636500
2098,000000	6,628400
2097,000000	6,609900
2096,000000	6,584600
2095,000000	6,583900
2094,000000	6,578800
2093,000000	6,573100
2092,000000	6,555200
2091,000000	6,547400
2090,000000	6,550900
2089,000000	6,537100
2088,000000	6,515600
2087,000000	6,510400
2086,000000	6,510300
2085,000000	6,493100
2084,000000	6,483600
2083,000000	6,478800
2082,000000	6,463000
2081,000000	6,462400
2080,000000	6,449300
2079,000000	6,433800
2078,000000	6,432800
2077,000000	6,422900
2076,000000	6,410600
2075,000000	6,384500
2074,000000	6,367600
2073,000000	6,355400
2072,000000	6,335300
2071,000000	6,330000
2070,000000	6,329700
2069,000000	6,306900
2068,000000	6,292800
2067,000000	6,273600
2066,000000	6,259100
2065,000000	6,257500
2064,000000	6,235000
2063,000000	6,225600
2062,000000	6,219800
2061,000000	6,203700
2060,000000	6,194400
2059,000000	6,183200
2058,000000	6,175900
2057,000000	6,170600
2056,000000	6,162400
2055,000000	6,164500
2054,000000	6,165100
2053,000000	6,165100
2052,000000	6,171400
2051,000000	6,174300
2050,000000	6,186800
2049,000000	6,200500
2048,000000	6,210300
2047,000000	6,240700
2046,000000	6,248800
2045,000000	6,260300
2044,000000	6,282000
2043,000000	6,310800
2042,000000	6,326100
2041,000000	6,350000
2040,000000	6,374000
2039,000000	6,387200
2038,000000	6,399200
2037,000000	6,411000
2036,000000	6,444300
2035,000000	6,459900
2034,000000	6,472500
2033,000000	6,496300
2032,000000	6,511600
2031,000000	6,514700
2030,000000	6,527600
2029,000000	6,532000
2028,000000	6,539000
2027,000000	6,534900
2026,000000	6,537700
2025,000000	6,554200
2024,000000	6,574000
2023,000000	6,579400
2022,000000	6,586700
2021,000000	6,569300
2020,000000	6,559700
2019,000000	6,568500
2018,000000	6,570200
2017,000000	6,575800
2016,000000	6,581600
2015,000000	6,570500
2014,000000	6,566600
2013,000000	6,573100
2012,000000	6,553000
2011,000000	6,537200
2010,000000	6,549000
2009,000000	6,526900
2008,000000	6,521200
2007,000000	6,510500
2006,000000	6,491700
2005,000000	6,486600
2004,000000	6,474200
2003,000000	6,448300
2002,000000	6,426800
2001,000000	6,429200
2000,000000	6,407400
1999,000000	6,398100
1998,000000	6,369600
1997,000000	6,355800
1996,000000	6,331300
1995,000000	6,296100
1994,000000	6,298100
1993,000000	6,280900
1992,000000	6,244400
1991,000000	6,216000
1990,000000	6,197300
1989,000000	6,190800
1988,000000	6,159800
1987,000000	6,135000
1986,000000	6,099300
1985,000000	6,101800
1984,000000	6,082300
1983,000000	6,054000
1982,000000	6,025500
1981,000000	6,005500
1980,000000	5,995200
1979,000000	5,953700
1978,000000	5,926300
1977,000000	5,919200
1976,000000	5,899300
1975,000000	5,865300
1974,000000	5,870400
1973,000000	5,834100
1972,000000	5,809000
1971,000000	5,801300
1970,000000	5,768000
1969,000000	5,756100
1968,000000	5,738300
1967,000000	5,732900
1966,000000	5,705400
1965,000000	5,719500
1964,000000	5,672000
1963,000000	5,655100
1962,000000	5,648500
1961,000000	5,635000
1960,000000	5,600600
1959,000000	5,604500
1958,000000	5,594900
1957,000000	5,593600
1956,000000	5,576600
1955,000000	5,545600
1954,000000	5,549000
1953,000000	5,495500
1952,000000	5,520100
1951,000000	5,497400
1950,000000	5,494000
1949,000000	5,473000
1948,000000	5,471200
1947,000000	5,445100
1946,000000	5,463800
1945,000000	5,437400
1944,000000	5,440700
1943,000000	5,420000
1942,000000	5,415900
1941,000000	5,425500
1940,000000	5,405400
1939,000000	5,398900
1938,000000	5,392400
1937,000000	5,418100
1936,000000	5,401800
1935,000000	5,407800
1934,000000	5,406600
1933,000000	5,412100
1932,000000	5,432900
1931,000000	5,424700
1930,000000	5,442900
1929,000000	5,435700
1928,000000	5,455700
1927,000000	5,481200
1926,000000	5,501200
1925,000000	5,505700
1924,000000	5,543500
1923,000000	5,538800
1922,000000	5,575600
1921,000000	5,593600
1920,000000	5,632000
1919,000000	5,662800
1918,000000	5,690900
1917,000000	5,729300
1916,000000	5,733800
1915,000000	5,793300
1914,000000	5,796900
1913,000000	5,873500
1912,000000	5,922900
1911,000000	5,971000
1910,000000	6,009900
1909,000000	6,043100
1908,000000	6,079300
1907,000000	6,131400
1906,000000	6,194700
1905,000000	6,265300
1904,000000	6,357100
1903,000000	6,409700
1902,000000	6,461700
1901,000000	6,529600
1900,000000	6,628500
1899,000000	6,729000
1898,000000	6,798700
1897,000000	6,919800
1896,000000	6,996400
1895,000000	7,075000
1894,000000	7,160500
1893,000000	7,276300
1892,000000	7,387900
1891,000000	7,524400
1890,000000	7,681900
1889,000000	7,830100
1888,000000	7,969400
1887,000000	8,135000
1886,000000	8,302700
1885,000000	8,513700
1884,000000	8,724700
1883,000000	8,978900
1882,000000	9,260900
1881,000000	9,512700
1880,000000	9,811500
1879,000000	10,081100
1878,000000	10,351500
1877,000000	10,648800
1876,000000	10,948700
1875,000000	11,252100
1874,000000	11,560300
1873,000000	11,840200
1872,000000	12,148200
1871,000000	12,438200
1870,000000	12,715300
1869,000000	12,969400
1868,000000	13,208900
1867,000000	13,396600
1866,000000	13,566200
1865,000000	13,702400
1864,000000	13,859500
1863,000000	13,972700
1862,000000	14,062900
1861,000000	14,186300
1860,000000	14,318900
1859,000000	14,429900
1858,000000	14,529100
1857,000000	14,615300
1856,000000	14,671600
1855,000000	14,731700
1854,000000	14,760600
1853,000000	14,797500
1852,000000	14,812000
1851,000000	14,815000
1850,000000	14,822500
1849,000000	14,816500
1848,000000	14,811000
1847,000000	14,814400
1846,000000	14,820800
1845,000000	14,798000
1844,000000	14,765800
1843,000000	14,746600
1842,000000	14,723600
1841,000000	14,725300
1840,000000	14,733300
1839,000000	14,729900
1838,000000	14,719500
1837,000000	14,692100
1836,000000	14,668800
1835,000000	14,649900
1834,000000	14,606000
1833,000000	14,561900
1832,000000	14,504200
1831,000000	14,460300
1830,000000	14,417100
1829,000000	14,369400
1828,000000	14,335600
1827,000000	14,278800
1826,000000	14,214800
1825,000000	14,172300
1824,000000	14,133700
1823,000000	14,079600
1822,000000	14,056300
1821,000000	14,034500
1820,000000	14,016200
1819,000000	14,013300
1818,000000	13,980500
1817,000000	13,940800
1816,000000	13,920400
1815,000000	13,911700
1814,000000	13,912200
1813,000000	13,908600
1812,000000	13,895100
1811,000000	13,867500
1810,000000	13,837000
1809,000000	13,810400
1808,000000	13,786100
1807,000000	13,763700
1806,000000	13,731500
1805,000000	13,702800
1804,000000	13,669700
1803,000000	13,622000
1802,000000	13,574000
1801,000000	13,542100
1800,000000	13,509500
1799,000000	13,463300
1798,000000	13,430900
1797,000000	13,394900
1796,000000	13,352500
1795,000000	13,322300
1794,000000	13,284900
1793,000000	13,240200
1792,000000	13,200800
1791,000000	13,162100
1790,000000	13,119000
1789,000000	13,079600
1788,000000	13,040700
1787,000000	12,992700
1786,000000	12,938900
1785,000000	12,908600
1784,000000	12,879200
1783,000000	12,808500
1782,000000	12,740200
1781,000000	12,698700
1780,000000	12,656200
1779,000000	12,600300
1778,000000	12,534000
1777,000000	12,482300
1776,000000	12,425600
1775,000000	12,352500
1774,000000	12,288900
1773,000000	12,219200
1772,000000	12,155400
1771,000000	12,064900
1770,000000	11,990400
1769,000000	11,927700
1768,000000	11,844800
1767,000000	11,780200
1766,000000	11,724400
1765,000000	11,670900
1764,000000	11,617600
1763,000000	11,593400
1762,000000	11,586000
1761,000000	11,574500
1760,000000	11,589500
1759,000000	11,619200
1758,000000	11,671000
1757,000000	11,727300
1756,000000	11,767400
1755,000000	11,806000
1754,000000	11,849100
1753,000000	11,894300
1752,000000	11,909200
1751,000000	11,909300
1750,000000	11,910700
1749,000000	11,921200
1748,000000	11,890800
1747,000000	11,862700
1746,000000	11,819500
1745,000000	11,754300
1744,000000	11,709300
1743,000000	11,633000
1742,000000	11,539400
1741,000000	11,429600
1740,000000	11,298100
1739,000000	11,167800
1738,000000	11,035000
1737,000000	10,897100
1736,000000	10,804500
1735,000000	10,716000
1734,000000	10,643700
1733,000000	10,602200
1732,000000	10,590700
1731,000000	10,596100
1730,000000	10,623700
1729,000000	10,675500
1728,000000	10,764000
1727,000000	10,833000
1726,000000	10,890700
1725,000000	10,948600
1724,000000	10,993300
1723,000000	11,056200
1722,000000	11,098100
1721,000000	11,124400
1720,000000	11,142300
1719,000000	11,158500
1718,000000	11,185700
1717,000000	11,216800
1716,000000	11,239300
1715,000000	11,268600
1714,000000	11,322800
1713,000000	11,358600
1712,000000	11,393100
1711,000000	11,434800
1710,000000	11,458600
1709,000000	11,477500
1708,000000	11,466500
1707,000000	11,468100
1706,000000	11,435400
1705,000000	11,412900
1704,000000	11,393000
1703,000000	11,352100
1702,000000	11,292300
1701,000000	11,210600
1700,000000	11,152800
1699,000000	11,074100
1698,000000	10,970800
1697,000000	10,868000
1696,000000	10,797900
1695,000000	10,751300
1694,000000	10,737500
1693,000000	10,767200
1692,000000	10,803000
1691,000000	10,871900
1690,000000	10,966400
1689,000000	11,088300
1688,000000	11,168900
1687,000000	11,209300
1686,000000	11,250900
1685,000000	11,301500
1684,000000	11,318200
1683,000000	11,382500
1682,000000	11,474300
1681,000000	11,652800
1680,000000	11,907200
1679,000000	12,211200
1678,000000	12,557000
1677,000000	12,902400
1676,000000	13,298800
1675,000000	13,634700
1674,000000	13,913800
1673,000000	14,170900
1672,000000	14,406100
1671,000000	14,624900
1670,000000	14,799300
1669,000000	14,972000
1668,000000	15,077300
1667,000000	15,225100
1666,000000	15,316600
1665,000000	15,409200
1664,000000	15,464500
1663,000000	15,544300
1662,000000	15,602700
1661,000000	15,652200
1660,000000	15,675800
1659,000000	15,725800
1658,000000	15,738300
1657,000000	15,765300
1656,000000	15,802400
1655,000000	15,779700
1654,000000	15,788300
1653,000000	15,775900
1652,000000	15,766000
1651,000000	15,741100
1650,000000	15,742900
1649,000000	15,717400
1648,000000	15,675500
1647,000000	15,663500
1646,000000	15,608700
1645,000000	15,586000
1644,000000	15,525800
1643,000000	15,494200
1642,000000	15,439000
1641,000000	15,389400
1640,000000	15,345100
1639,000000	15,277000
1638,000000	15,258600
1637,000000	15,200800
1636,000000	15,130500
1635,000000	15,093300
1634,000000	15,036700
1633,000000	14,990300
1632,000000	14,915800
1631,000000	14,853900
1630,000000	14,793900
1629,000000	14,730500
1628,000000	14,667100
1627,000000	14,619800
1626,000000	14,548100
1625,000000	14,481000
1624,000000	14,441600
1623,000000	14,356500
1622,000000	14,305800
1621,000000	14,233900
1620,000000	14,178300
1619,000000	14,113800
1618,000000	14,077300
1617,000000	14,014100
1616,000000	13,953600
1615,000000	13,896000
1614,000000	13,830900
1613,000000	13,787600
1612,000000	13,738600
1611,000000	13,685900
1610,000000	13,631600
1609,000000	13,575500
1608,000000	13,523000
1607,000000	13,475100
1606,000000	13,422500
1605,000000	13,389200
1604,000000	13,313800
1603,000000	13,262100
1602,000000	13,226200
1601,000000	13,161900
1600,000000	13,105000
1599,000000	13,069900
1598,000000	13,017000
1597,000000	12,967600
1596,000000	12,923900
1595,000000	12,880000
1594,000000	12,835200
1593,000000	12,793500
1592,000000	12,742800
1591,000000	12,688300
1590,000000	12,657500
1589,000000	12,619300
1588,000000	12,592100
1587,000000	12,553100
1586,000000	12,503600
1585,000000	12,476300
1584,000000	12,445400
1583,000000	12,402400
1582,000000	12,387600
1581,000000	12,356700
1580,000000	12,330600
1579,000000	12,304600
1578,000000	12,259000
1577,000000	12,248100
1576,000000	12,243200
1575,000000	12,229000
1574,000000	12,218900
1573,000000	12,213100
1572,000000	12,218400
1571,000000	12,203400
1570,000000	12,168400
1569,000000	12,157800
1568,000000	12,171300
1567,000000	12,167200
1566,000000	12,175600
1565,000000	12,166200
1564,000000	12,167300
1563,000000	12,169000
1562,000000	12,161400
1561,000000	12,149300
1560,000000	12,142100
1559,000000	12,149200
1558,000000	12,138500
1557,000000	12,125700
1556,000000	12,129600
1555,000000	12,135300
1554,000000	12,116700
1553,000000	12,091700
1552,000000	12,082800
1551,000000	12,060500
1550,000000	12,029100
1549,000000	12,030700
1548,000000	12,018900
1547,000000	11,988700
1546,000000	11,970400
1545,000000	11,969400
1544,000000	11,953700
1543,000000	11,928700
1542,000000	11,916600
1541,000000	11,907700
1540,000000	11,898500
1539,000000	11,871800
1538,000000	11,866400
1537,000000	11,848300
1536,000000	11,828100
1535,000000	11,813800
1534,000000	11,787500
1533,000000	11,775400
1532,000000	11,751000
1531,000000	11,725800
1530,000000	11,707800
1529,000000	11,682900
1528,000000	11,667800
1527,000000	11,642400
1526,000000	11,610400
1525,000000	11,579300
1524,000000	11,547000
1523,000000	11,518300
1522,000000	11,488300
1521,000000	11,459700
1520,000000	11,433100
1519,000000	11,397100
1518,000000	11,372700
1517,000000	11,343300
1516,000000	11,303400
1515,000000	11,267300
1514,000000	11,236900
1513,000000	11,208700
1512,000000	11,160500
1511,000000	11,119900
1510,000000	11,094200
1509,000000	11,062300
1508,000000	11,020100
1507,000000	10,977100
1506,000000	10,944200
1505,000000	10,913900
1504,000000	10,882600
1503,000000	10,850000
1502,000000	10,829600
1501,000000	10,788400
1500,000000	10,740100
1499,000000	10,702700
1498,000000	10,672300
1497,000000	10,650300
1496,000000	10,631800
1495,000000	10,599000
1494,000000	10,561200
1493,000000	10,533100
1492,000000	10,514500
1491,000000	10,502100
1490,000000	10,474900
1489,000000	10,454500
1488,000000	10,436600
1487,000000	10,416500
1486,000000	10,393400
1485,000000	10,378900
1484,000000	10,351500
1483,000000	10,338700
1482,000000	10,326500
1481,000000	10,308400
1480,000000	10,308200
1479,000000	10,286200
1478,000000	10,284400
1477,000000	10,274300
1476,000000	10,270600
1475,000000	10,261300
1474,000000	10,257300
1473,000000	10,258200
1472,000000	10,256500
1471,000000	10,259200
1470,000000	10,235300
1469,000000	10,230500
1468,000000	10,246300
1467,000000	10,262400
1466,000000	10,248200
1465,000000	10,242500
1464,000000	10,248800
1463,000000	10,264800
1462,000000	10,281500
1461,000000	10,290000
1460,000000	10,301100
1459,000000	10,326200
1458,000000	10,348800
1457,000000	10,376700
1456,000000	10,388000
1455,000000	10,420200
1454,000000	10,460700
1453,000000	10,495700
1452,000000	10,529200
1451,000000	10,575600
1450,000000	10,618300
1449,000000	10,667600
1448,000000	10,701000
1447,000000	10,725000
1446,000000	10,796700
1445,000000	10,841400
1444,000000	10,897500
1443,000000	10,937400
1442,000000	10,984300
1441,000000	11,048800
1440,000000	11,128700
1439,000000	11,175300
1438,000000	11,249000
1437,000000	11,315700
1436,000000	11,372600
1435,000000	11,434900
1434,000000	11,503100
1433,000000	11,573800
1432,000000	11,654800
1431,000000	11,729900
1430,000000	11,811400
1429,000000	11,914400
1428,000000	12,014000
1427,000000	12,111700
1426,000000	12,223700
1425,000000	12,328200
1424,000000	12,446800
1423,000000	12,588300
1422,000000	12,722500
1421,000000	12,867200
1420,000000	13,006900
1419,000000	13,150400
1418,000000	13,335000
1417,000000	13,496500
1416,000000	13,637600
1415,000000	13,830800
1414,000000	14,026800
1413,000000	14,239200
1412,000000	14,423500
1411,000000	14,610700
1410,000000	14,844900
1409,000000	15,102800
1408,000000	15,390700
1407,000000	15,694400
1406,000000	15,988700
1405,000000	16,289200
1404,000000	16,668300
1403,000000	16,963600
1402,000000	17,295500
1401,000000	17,609000
1400,000000	17,998600
1399,000000	18,353100
1398,000000	18,662900
1397,000000	18,940700
1396,000000	19,233500
1395,000000	19,576100
1394,000000	19,897400
1393,000000	20,178000
1392,000000	20,429600
1391,000000	20,759200
1390,000000	21,111400
1389,000000	21,387700
1388,000000	21,753800
1387,000000	22,213800
1386,000000	22,688700
1385,000000	23,144600
1384,000000	23,636000
1383,000000	24,187800
1382,000000	24,769100
1381,000000	25,313800
1380,000000	25,809200
1379,000000	26,165100
1378,000000	26,424200
1377,000000	26,644100
1376,000000	26,901300
1375,000000	27,083300
1374,000000	27,325400
1373,000000	27,575000
1372,000000	27,907800
1371,000000	28,243900
1370,000000	28,659400
1369,000000	29,001700
1368,000000	29,277200
1367,000000	29,607000
1366,000000	29,914500
1365,000000	30,141200
1364,000000	30,372400
1363,000000	30,599000
1362,000000	30,771600
1361,000000	30,978500
1360,000000	31,160400
1359,000000	31,271100
1358,000000	31,383700
1357,000000	31,494800
1356,000000	31,653800
1355,000000	31,875600
1354,000000	32,202900
1353,000000	32,640000
1352,000000	33,049000
1351,000000	33,555100
1350,000000	34,074000
1349,000000	34,549500
1348,000000	34,986400
1347,000000	35,403100
1346,000000	35,840800
1345,000000	36,163100
1344,000000	36,531700
1343,000000	36,920000
1342,000000	37,245000
1341,000000	37,580800
1340,000000	37,938700
1339,000000	38,270100
1338,000000	38,600400
1337,000000	38,922300
1336,000000	39,248100
1335,000000	39,546500
1334,000000	39,863600
1333,000000	40,168200
1332,000000	40,469700
1331,000000	40,772500
1330,000000	41,056300
1329,000000	41,342300
1328,000000	41,601800
1327,000000	41,840200
1326,000000	42,097200
1325,000000	42,345400
1324,000000	42,572000
1323,000000	42,798100
1322,000000	43,013600
1321,000000	43,228100
1320,000000	43,398100
1319,000000	43,597600
1318,000000	43,780500
1317,000000	43,961400
1316,000000	44,131700
1315,000000	44,300700
1314,000000	44,462800
1313,000000	44,604400
1312,000000	44,755900
1311,000000	44,889700
1310,000000	45,028400
1309,000000	45,161100
1308,000000	45,271500
1307,000000	45,376300
1306,000000	45,454700
1305,000000	45,542000
1304,000000	45,626400
1303,000000	45,707500
1302,000000	45,757200
1301,000000	45,804500
1300,000000	45,862300
1299,000000	45,902300
1298,000000	45,950700
1297,000000	45,983100
1296,000000	46,014900
1295,000000	46,046500
1294,000000	46,068400
1293,000000	46,076100
1292,000000	46,091800
1291,000000	46,111400
1290,000000	46,087500
1289,000000	46,078000
1288,000000	46,063600
1287,000000	46,047600
1286,000000	46,024800
1285,000000	45,984300
1284,000000	45,932700
1283,000000	45,884000
1282,000000	45,840600
1281,000000	45,774200
1280,000000	45,732700
1279,000000	45,674800
1278,000000	45,607000
1277,000000	45,556400
1276,000000	45,497100
1275,000000	45,444400
1274,000000	45,400800
1273,000000	45,357200
1272,000000	45,320700
1271,000000	45,278500
1270,000000	45,234200
1269,000000	45,184200
1268,000000	45,132800
1267,000000	45,082700
1266,000000	45,025700
1265,000000	44,987100
1264,000000	44,937200
1263,000000	44,891500
1262,000000	44,840200
1261,000000	44,783300
1260,000000	44,722400
1259,000000	44,667500
1258,000000	44,593400
1257,000000	44,526400
1256,000000	44,470500
1255,000000	44,399700
1254,000000	44,332300
1253,000000	44,250100
1252,000000	44,167200
1251,000000	44,077500
1250,000000	43,991900
1249,000000	43,899500
1248,000000	43,784400
1247,000000	43,667400
1246,000000	43,570500
1245,000000	43,442200
1244,000000	43,313800
1243,000000	43,200200
1242,000000	43,063400
1241,000000	42,904900
1240,000000	42,759000
1239,000000	42,617800
1238,000000	42,466800
1237,000000	42,312000
1236,000000	42,160800
1235,000000	42,002700
1234,000000	41,818200
1233,000000	41,624300
1232,000000	41,439500
1231,000000	41,261300
1230,000000	41,080700
1229,000000	40,884700
1228,000000	40,683900
1227,000000	40,488300
1226,000000	40,289400
1225,000000	40,080800
1224,000000	39,870900
1223,000000	39,666100
1222,000000	39,457400
1221,000000	39,236500
1220,000000	39,025600
1219,000000	38,821300
1218,000000	38,619300
1217,000000	38,432700
1216,000000	38,255800
1215,000000	38,079100
1214,000000	37,906800
1213,000000	37,740500
1212,000000	37,579700
1211,000000	37,412200
1210,000000	37,254300
1209,000000	37,117200
1208,000000	36,975800
1207,000000	36,851200
1206,000000	36,741700
1205,000000	36,644400
1204,000000	36,554900
1203,000000	36,479500
1202,000000	36,432800
1201,000000	36,393600
1200,000000	36,352500
1199,000000	36,280200
1198,000000	36,201200
1197,000000	36,108700
1196,000000	35,976200
1195,000000	35,799800
1194,000000	35,576700
1193,000000	35,281400
1192,000000	34,946400
1191,000000	34,564800
1190,000000	34,118900
1189,000000	33,674700
1188,000000	33,272600
1187,000000	32,937800
1186,000000	32,726700
1185,000000	32,633200
1184,000000	32,654800
1183,000000	32,811700
1182,000000	33,098200
1181,000000	33,508800
1180,000000	33,972600
1179,000000	34,478000
1178,000000	34,991400
1177,000000	35,442600
1176,000000	35,855200
1175,000000	36,235000
1174,000000	36,567400
1173,000000	36,888900
1172,000000	37,203800
1171,000000	37,539500
1170,000000	37,863100
1169,000000	38,206700
1168,000000	38,554000
1167,000000	38,887300
1166,000000	39,249900
1165,000000	39,593500
1164,000000	39,948400
1163,000000	40,338900
1162,000000	40,728300
1161,000000	41,121400
1160,000000	41,490200
1159,000000	41,866200
1158,000000	42,241800
1157,000000	42,607000
1156,000000	42,918800
1155,000000	43,228600
1154,000000	43,495400
1153,000000	43,731100
1152,000000	43,901400
1151,000000	44,039400
1150,000000	44,135000
1149,000000	44,220600
1148,000000	44,298000
1147,000000	44,399500
1146,000000	44,520100
1145,000000	44,694100
1144,000000	44,952300
1143,000000	45,231100
1142,000000	45,552500
1141,000000	45,948500
1140,000000	46,344700
1139,000000	46,754900
1138,000000	47,176600
1137,000000	47,635600
1136,000000	48,077500
1135,000000	48,557200
1134,000000	49,078500
1133,000000	49,560100
1132,000000	49,970000
1131,000000	50,369600
1130,000000	50,712700
1129,000000	51,035700
1128,000000	51,333600
1127,000000	51,562500
1126,000000	51,734100
1125,000000	51,875200
1124,000000	51,981000
1123,000000	52,070400
1122,000000	52,158600
1121,000000	52,233300
1120,000000	52,285200
1119,000000	52,338500
1118,000000	52,348700
1117,000000	52,366800
1116,000000	52,376100
1115,000000	52,361300
1114,000000	52,348400
1113,000000	52,331900
1112,000000	52,305100
1111,000000	52,279900
1110,000000	52,251300
1109,000000	52,243900
1108,000000	52,223300
1107,000000	52,186200
1106,000000	52,167200
1105,000000	52,134600
1104,000000	52,105300
1103,000000	52,095900
1102,000000	52,070900
1101,000000	52,025000
1100,000000	51,960500
1099,000000	51,940200
1098,000000	51,905300
1097,000000	51,879300
1096,000000	51,830600
1095,000000	51,792400
1094,000000	51,745700
1093,000000	51,688000
1092,000000	51,628300
1091,000000	51,573600
1090,000000	51,502400
1089,000000	51,431200
1088,000000	51,380800
1087,000000	51,289400
1086,000000	51,240900
1085,000000	51,165000
1084,000000	51,086600
1083,000000	51,010200
1082,000000	50,944100
1081,000000	50,855900
1080,000000	50,782500
1079,000000	50,706100
1078,000000	50,615300
1077,000000	50,554100
1076,000000	50,455100
1075,000000	50,395300
1074,000000	50,294500
1073,000000	50,212100
1072,000000	50,141500
1071,000000	50,058900
1070,000000	49,965700
1069,000000	49,867300
1068,000000	49,783600
1067,000000	49,717200
1066,000000	49,623300
1065,000000	49,536600
1064,000000	49,436900
1063,000000	49,349600
1062,000000	49,262800
1061,000000	49,158200
1060,000000	49,060300
1059,000000	48,976200
1058,000000	48,875000
1057,000000	48,775100
1056,000000	48,663200
1055,000000	48,553800
1054,000000	48,466300
1053,000000	48,354400
1052,000000	48,224100
1051,000000	48,132600
1050,000000	48,029300
1049,000000	47,914100
1048,000000	47,827300
1047,000000	47,755500
1046,000000	47,645900
1045,000000	47,530600
1044,000000	47,451500
1043,000000	47,370100
1042,000000	47,275200
1041,000000	47,174400
1040,000000	47,066000
1039,000000	46,997600
1038,000000	46,903100
1037,000000	46,789200
1036,000000	46,676400
1035,000000	46,585000
1034,000000	46,455200
1033,000000	46,345000
1032,000000	46,253100
1031,000000	46,148500
1030,000000	46,023800
1029,000000	45,889200
1028,000000	45,798400
1027,000000	45,674000
1026,000000	45,531000
1025,000000	45,417700
1024,000000	45,291700
1023,000000	45,145900
1022,000000	45,028900
1021,000000	44,886800
1020,000000	44,749700
1019,000000	44,628300
1018,000000	44,501400
1017,000000	44,372900
1016,000000	44,260200
1015,000000	44,146800
1014,000000	44,029300
1013,000000	43,931800
1012,000000	43,822500
1011,000000	43,737400
1010,000000	43,643900
1009,000000	43,560800
1008,000000	43,498000
1007,000000	43,417700
1006,000000	43,363200
1005,000000	43,279600
1004,000000	43,209500
1003,000000	43,143400
1002,000000	43,070300
1001,000000	43,001000
1000,000000	42,925100
999,000000	42,849900
998,000000	42,781600
997,000000	42,707000
996,000000	42,630400
995,000000	42,563500
994,000000	42,491300
993,000000	42,430900
992,000000	42,365800
991,000000	42,280600
990,000000	42,222200
989,000000	42,157500
988,000000	42,086600
987,000000	42,030800
986,000000	41,974700
985,000000	41,917500
984,000000	41,857200
983,000000	41,808500
982,000000	41,744900
981,000000	41,680400
980,000000	41,629400
979,000000	41,569400
978,000000	41,510100
977,000000	41,452600
976,000000	41,388000
975,000000	41,335700
974,000000	41,262900
973,000000	41,205800
972,000000	41,140500
971,000000	41,089300
970,000000	41,030100
969,000000	40,960200
968,000000	40,897700
967,000000	40,834400
966,000000	40,769100
965,000000	40,717200
964,000000	40,668400
963,000000	40,611800
962,000000	40,568400
961,000000	40,514300
960,000000	40,463900
959,000000	40,421900
958,000000	40,373100
957,000000	40,330800
956,000000	40,272000
955,000000	40,211400
954,000000	40,159600
953,000000	40,094500
952,000000	40,023400
951,000000	39,976100
950,000000	39,912300
949,000000	39,839500
948,000000	39,775000
947,000000	39,694500
946,000000	39,615400
945,000000	39,544000
944,000000	39,475500
943,000000	39,392100
942,000000	39,299900
941,000000	39,213900
940,000000	39,113800
939,000000	39,020100
938,000000	38,931500
937,000000	38,824600
936,000000	38,735600
935,000000	38,643000
934,000000	38,548700
933,000000	38,466400
932,000000	38,376600
931,000000	38,288700
930,000000	38,189500
929,000000	38,082300
928,000000	37,991100
927,000000	37,900200
926,000000	37,783300
925,000000	37,672000
924,000000	37,574500
923,000000	37,483200
922,000000	37,385700
921,000000	37,270200
920,000000	37,158900
919,000000	37,048200
918,000000	36,939800
917,000000	36,827000
916,000000	36,705500
915,000000	36,601000
914,000000	36,484900
913,000000	36,367700
912,000000	36,247200
911,000000	36,140300
910,000000	36,032200
909,000000	35,924100
908,000000	35,821800
907,000000	35,736800
906,000000	35,652200
905,000000	35,574100
904,000000	35,498200
903,000000	35,447600
902,000000	35,404900
901,000000	35,355500
900,000000	35,307100
899,000000	35,262200
898,000000	35,218800
897,000000	35,173100
896,000000	35,134100
895,000000	35,098100
894,000000	35,047900
893,000000	34,989500
892,000000	34,955100
891,000000	34,903700
890,000000	34,847000
889,000000	34,777900
888,000000	34,706800
887,000000	34,645700
886,000000	34,577500
885,000000	34,514200
884,000000	34,447300
883,000000	34,382400
882,000000	34,305200
881,000000	34,208600
880,000000	34,122500
879,000000	34,043800
878,000000	33,945700
877,000000	33,823300
876,000000	33,681300
875,000000	33,554000
874,000000	33,392700
873,000000	33,222700
872,000000	33,115200
871,000000	33,004800
870,000000	32,947000
869,000000	32,956600
868,000000	32,947700
867,000000	32,963800
866,000000	32,971000
865,000000	32,947900
864,000000	32,955800
863,000000	32,953500
862,000000	32,963300
861,000000	32,947200
860,000000	32,970900
859,000000	32,993500
858,000000	32,988400
857,000000	34,962400
856,000000	35,149500
855,000000	35,784300
854,000000	35,518800
853,000000	35,633700
852,000000	35,335300
851,000000	35,218700
850,000000	35,436000
849,000000	35,323700
848,000000	35,449400
847,000000	35,567700
846,000000	35,707400
845,000000	35,936900
844,000000	35,860200
843,000000	36,050000
842,000000	36,227400
841,000000	36,284900
840,000000	36,192600
839,000000	36,210700
838,000000	36,505500
837,000000	36,357600
836,000000	36,734800
835,000000	36,556200
834,000000	36,804200
833,000000	36,804700
832,000000	36,815800
831,000000	37,020500
830,000000	37,117800
829,000000	37,106600
828,000000	37,474200
827,000000	37,552400
826,000000	37,539100
825,000000	37,653400
824,000000	37,912500
823,000000	37,918300
822,000000	38,159900
821,000000	38,222400
820,000000	38,234600
819,000000	38,282300
818,000000	38,279700
817,000000	38,364300
816,000000	38,496800
815,000000	38,659700
814,000000	38,806500
813,000000	38,857600
812,000000	38,948000
811,000000	39,028900
810,000000	39,053700
809,000000	39,161800
808,000000	39,349300
807,000000	39,320400
806,000000	39,459600
805,000000	39,651900
804,000000	39,629800
803,000000	39,752500
802,000000	39,892900
801,000000	39,854000
800,000000	39,978200
799,000000	39,955900
798,000000	40,075600
797,000000	40,086000
796,000000	40,121500
795,000000	40,268900
794,000000	40,324600
793,000000	40,332900
792,000000	40,327200
791,000000	40,544500
790,000000	40,579200
789,000000	40,588400
788,000000	40,708500
787,000000	40,689000
786,000000	40,776100
785,000000	40,832300
784,000000	40,796200
783,000000	40,731200
782,000000	40,884700
781,000000	40,860600
780,000000	40,935600
779,000000	40,804600
778,000000	40,897100
777,000000	40,916000
776,000000	40,863100
775,000000	40,811800
774,000000	40,866300
773,000000	40,898100
772,000000	40,907300
771,000000	40,919600
770,000000	40,986500
769,000000	40,990800
768,000000	40,960100
767,000000	40,906200
766,000000	40,870900
765,000000	40,921400
764,000000	40,924900
763,000000	40,930600
762,000000	40,965000
761,000000	40,875400
760,000000	40,793700
759,000000	40,725600
758,000000	40,711700
757,000000	40,713100
756,000000	40,580400
755,000000	40,581800
754,000000	40,561200
753,000000	40,503300
752,000000	40,367500
751,000000	40,410900
750,000000	40,438400
749,000000	40,324900
748,000000	40,256500
747,000000	40,180200
746,000000	40,181400
745,000000	40,074900
744,000000	40,015400
743,000000	40,003000
742,000000	39,855800
741,000000	39,725400
740,000000	39,670600
739,000000	39,682000
738,000000	39,529600
737,000000	39,426000
736,000000	39,334600
735,000000	39,315200
734,000000	39,178400
733,000000	39,083900
732,000000	39,029600
731,000000	38,898500
730,000000	38,830000
729,000000	38,710600
728,000000	38,637800
727,000000	38,535300
726,000000	38,422500
725,000000	38,324600
724,000000	38,224400
723,000000	38,081600
722,000000	37,920000
721,000000	37,788900
720,000000	37,675300
719,000000	37,601600
718,000000	37,470500
717,000000	37,338500
716,000000	37,241100
715,000000	37,086700
714,000000	36,923900
713,000000	36,763100
712,000000	36,647400
711,000000	36,490800
710,000000	36,333300
709,000000	36,172300
708,000000	36,040400
707,000000	35,872800
706,000000	35,701000
705,000000	35,492900
704,000000	35,311000
703,000000	35,115300
702,000000	34,936000
701,000000	34,719100
700,000000	34,600700
699,000000	34,405100
698,000000	34,226100
697,000000	34,045400
696,000000	33,893600
695,000000	33,729400
694,000000	33,475600
693,000000	33,273100
692,000000	33,117900
691,000000	32,919000
690,000000	32,697000
689,000000	32,512600
688,000000	32,309600
687,000000	32,082000
686,000000	31,892900
685,000000	31,715600
684,000000	31,490700
683,000000	31,283600
682,000000	31,082700
681,000000	30,868000
680,000000	30,686600
679,000000	30,459400
678,000000	30,257700
677,000000	30,090100
676,000000	29,917400
675,000000	29,703700
674,000000	29,509000
673,000000	29,296300
672,000000	29,076900
671,000000	28,868500
670,000000	28,631600
669,000000	28,441400
668,000000	28,257500
667,000000	28,060400
666,000000	27,887500
665,000000	27,714400
664,000000	27,518600
663,000000	27,353600
662,000000	27,187400
661,000000	26,993700
660,000000	26,847100
659,000000	26,703200
658,000000	26,539900
657,000000	26,382400
656,000000	26,209000
655,000000	26,059300
654,000000	25,957400
653,000000	25,861900
652,000000	25,757800
651,000000	25,656000
650,000000	25,569700
649,000000	25,500900
648,000000	25,452600
647,000000	25,388300
646,000000	25,311900
645,000000	25,258500
644,000000	25,193400
643,000000	25,166700
642,000000	25,160700
641,000000	25,126300
640,000000	25,115300
639,000000	25,134500
638,000000	25,142400
637,000000	25,155000
636,000000	25,178400
635,000000	25,204700
634,000000	25,225900
633,000000	25,259300
632,000000	25,307500
631,000000	25,351400
630,000000	25,383600
629,000000	25,405700
628,000000	25,448500
627,000000	25,524000
626,000000	25,599500
625,000000	25,660000
624,000000	25,717600
623,000000	25,779700
622,000000	25,842000
621,000000	25,902100
620,000000	25,977500
619,000000	26,052500
618,000000	26,120000
617,000000	26,187300
616,000000	26,245400
615,000000	26,292700
614,000000	26,346000
613,000000	26,417000
612,000000	26,475800
611,000000	26,530300
610,000000	26,591500
609,000000	26,649500
608,000000	26,738100
607,000000	26,785700
606,000000	26,807900
605,000000	26,857700
604,000000	26,905700
603,000000	26,946500
602,000000	26,973000
601,000000	27,002100
600,000000	27,024300
599,000000	27,064300
598,000000	27,085500
597,000000	27,120400
596,000000	27,158200
595,000000	27,155600
594,000000	27,160000
593,000000	27,177000
592,000000	27,172300
591,000000	27,192700
590,000000	27,199300
589,000000	27,195800
588,000000	27,209200
587,000000	27,204800
586,000000	27,193700
585,000000	27,179800
584,000000	27,166000
583,000000	27,163100
582,000000	27,119000
581,000000	27,074200
580,000000	27,048400
579,000000	27,012700
578,000000	26,968700
577,000000	26,913800
576,000000	26,880500
575,000000	26,842000
574,000000	26,798200
573,000000	26,729200
572,000000	26,667000
571,000000	26,589200
570,000000	26,508100
569,000000	26,425500
568,000000	26,336700
567,000000	26,243300
566,000000	26,173100
565,000000	26,074800
564,000000	25,962000
563,000000	25,834300
562,000000	25,715200
561,000000	25,592200
560,000000	25,473700
559,000000	25,353600
558,000000	25,247000
557,000000	25,129300
556,000000	24,998100
555,000000	24,849800
554,000000	24,720000
553,000000	24,592700
552,000000	24,445000
551,000000	24,287900
550,000000	24,150200
549,000000	24,006300
548,000000	23,855500
547,000000	23,719400
546,000000	23,572600
545,000000	23,405100
544,000000	23,244400
543,000000	23,092000
542,000000	22,921900
541,000000	22,725700
540,000000	22,564500
539,000000	22,403100
538,000000	22,234400
537,000000	22,055100
536,000000	21,868500
535,000000	21,670700
534,000000	21,485200
533,000000	21,298800
532,000000	21,097800
531,000000	20,873200
530,000000	20,671500
529,000000	20,460300
528,000000	20,251900
527,000000	20,024900
526,000000	19,795100
525,000000	19,568300
524,000000	19,327100
523,000000	19,093200
522,000000	18,840100
521,000000	18,609200
520,000000	18,368100
519,000000	18,112200
518,000000	17,877700
517,000000	17,647100
516,000000	17,388700
515,000000	17,155700
514,000000	16,909100
513,000000	16,681500
512,000000	16,444200
511,000000	16,222200
510,000000	15,998500
509,000000	15,788200
508,000000	15,586300
507,000000	15,393900
506,000000	15,185700
505,000000	15,010900
504,000000	14,794000
503,000000	14,621900
502,000000	14,429700
501,000000	14,247000
500,000000	14,095900
499,000000	13,898800
498,000000	13,770300
497,000000	13,634200
496,000000	13,457900
495,000000	13,322500
494,000000	13,182500
493,000000	13,061000
492,000000	12,937100
491,000000	12,820600
490,000000	12,731100
489,000000	12,596300
488,000000	12,501800
487,000000	12,403000
486,000000	12,317600
485,000000	12,213900
484,000000	12,123000
483,000000	12,045400
482,000000	11,952200
481,000000	11,853400
480,000000	11,723900
479,000000	11,625800
478,000000	11,517900
477,000000	11,420400
476,000000	11,328400
475,000000	11,237700
474,000000	11,160400
473,000000	11,066100
472,000000	10,995000
471,000000	10,915200
470,000000	10,841500
469,000000	10,775400
468,000000	10,707100
467,000000	10,631100
466,000000	10,576200
465,000000	10,521200
464,000000	10,466100
463,000000	10,407800
462,000000	10,389400
461,000000	10,336200
460,000000	10,271500
459,000000	10,219600
458,000000	10,183200
457,000000	10,132300
456,000000	10,097300
455,000000	10,040000
454,000000	9,999500
453,000000	9,954300
452,000000	9,916200
451,000000	9,858100
450,000000	9,790300
449,000000	9,745500
448,000000	9,698300
447,000000	9,605700
446,000000	9,547300
445,000000	9,504700
444,000000	9,446500
443,000000	9,363500
442,000000	9,293700
441,000000	9,227700
440,000000	9,137900
439,000000	9,068700
438,000000	8,985800
437,000000	8,897100
436,000000	8,818600
435,000000	8,752500
434,000000	8,664000
433,000000	8,569800
432,000000	8,479300
431,000000	8,393700
430,000000	8,313700
429,000000	8,220300
428,000000	8,142800
427,000000	8,081400
426,000000	8,002400
425,000000	7,913500
424,000000	7,832400
423,000000	7,753300
422,000000	7,665700
421,000000	7,581200
420,000000	7,506100
419,000000	7,414500
418,000000	7,321500
417,000000	7,246100
416,000000	7,159900
415,000000	7,058100
414,000000	6,975700
413,000000	6,908100
412,000000	6,816200
411,000000	6,724800
410,000000	6,647200
409,000000	6,563300
408,000000	6,478500
407,000000	6,398000
406,000000	6,310600
405,000000	6,233600
404,000000	6,142400
403,000000	6,080600
402,000000	5,991300
401,000000	5,926000
400,000000	5,869500
399,000000	5,795700
398,000000	5,716400
397,000000	5,643700
396,000000	5,577200
395,000000	5,489100
394,000000	5,427000
393,000000	5,373300
392,000000	5,310400
391,000000	5,233100
390,000000	5,191500
389,000000	5,136400
388,000000	5,098100
387,000000	5,041200
386,000000	4,996700
385,000000	4,952500
384,000000	4,906200
383,000000	4,879900
382,000000	4,812800
381,000000	4,774000
380,000000	4,759500
379,000000	4,720600
378,000000	4,689700
377,000000	4,680800
376,000000	4,713300
375,000000	4,627700
374,000000	4,285000
373,000000	4,223200
372,000000	4,284800
371,000000	4,309100
370,000000	4,366200
369,000000	4,305000
368,000000	4,284800
367,000000	4,339900
366,000000	4,282500
365,000000	4,160100
364,000000	4,245200
363,000000	4,320800
362,000000	4,287400
361,000000	4,300100
360,000000	4,247200
359,000000	4,176600
358,000000	4,283400
357,000000	4,195600
356,000000	4,132500
355,000000	4,162300
354,000000	4,264000
353,000000	4,354600
352,000000	4,341000
351,000000	4,397800
350,000000	4,411100
349,000000	4,375800
348,000000	4,236000
347,000000	4,179600
346,000000	4,303900
345,000000	4,241300
344,000000	4,098600
343,000000	4,225400
342,000000	4,330300
341,000000	4,189300
340,000000	4,209800
339,000000	4,334800
338,000000	4,239100
337,000000	4,193000
336,000000	4,198300
335,000000	4,351800
334,000000	4,344700
333,000000	4,196600
332,000000	4,296900
331,000000	4,368100
330,000000	4,375000
329,000000	4,421900
328,000000	4,406500
327,000000	4,276900
326,000000	4,292300
325,000000	4,384300
324,000000	4,366100
323,000000	4,540000
322,000000	4,505900
321,000000	4,520300
320,000000	4,526200
319,000000	4,457200
318,000000	4,682800
317,000000	4,859500
316,000000	4,522000
315,000000	4,253500
314,000000	4,283900
313,000000	4,295400
312,000000	4,265000
311,000000	4,252600
310,000000	4,247700
309,000000	4,249900
308,000000	4,245600
307,000000	4,241800
306,000000	4,236400
305,000000	4,256500
304,000000	4,268600
303,000000	4,256100
302,000000	4,239500
301,000000	4,237000
300,000000	4,238100
299,000000	4,264000
298,000000	4,284100
297,000000	4,272500
296,000000	4,261500
295,000000	4,218000
294,000000	4,231000
293,000000	4,237000
292,000000	4,262800
291,000000	4,244600
290,000000	4,242900
289,000000	4,262700
288,000000	4,240700
287,000000	4,228500
286,000000	4,262200
285,000000	4,271500
284,000000	4,274300
283,000000	4,304200
282,000000	4,259300
281,000000	4,242000
280,000000	4,259900
279,000000	4,288100
278,000000	4,280000
277,000000	4,265600
276,000000	4,272300
275,000000	4,302100
274,000000	4,312200
273,000000	4,326600
272,000000	4,303400
271,000000	4,332600
270,000000	4,352100
269,000000	4,335100
268,000000	4,380100
267,000000	4,381300
266,000000	4,418100
265,000000	4,415700
264,000000	4,447000
263,000000	4,481600
262,000000	4,475600
261,000000	4,517600
260,000000	4,531300
259,000000	4,517400
258,000000	4,535000
257,000000	4,577100
256,000000	4,590100
255,000000	4,587300
254,000000	4,611800
253,000000	4,624600
252,000000	4,601600
251,000000	4,626300
250,000000	4,617000
