PE UV       SUBTECH     SPECTRUM    ASCII       PEDS        4.00        
   -1
CICIMAUCR0212-1.Sample.ASC
24/06/12
11:41:40.00
24/06/12
11:41:40.00
Vinicio Soto Monge
C. resplendens. Sex F. Ventral
250,000000
1
Lambda 1050
1050L1511233
PerkinElmer UV WinLab 6.3.2.0749 / 2.02.05 Lambda 900 UV/VIS/NIR, Aug  7 2015 09:38:08

0
0
3350/servo 860,8/2
0
0
UV/VIS
1
1
1
DoubleDePol,CommonBeamDepol,RBeamAtt,SBeamAtt,60mm sphere, WB InGaAs Detector
0
0
0
0
Program
Program
3350/servo 860,8/2
3350/0,2 860,8/0,2
3350/0,2 860,8/0,2
0
15.00
 
 
 
0
 
860,8
319,2
860,8
Front
100
on
S:100 R:100
0
0
0
0
 
0
 
 
 
0
 
 
0
0
0
0
0
 
 
 
 
0
0


0
0
#HDR
-1
-1
#GR
nm
%R
1.0
0.0
2500,000000
-1,000000
2251
8
64,687900
3,751900
#DATA
2500,000000	5,717200
2499,000000	5,492700
2498,000000	5,754300
2497,000000	5,697400
2496,000000	5,648100
2495,000000	5,554000
2494,000000	5,524800
2493,000000	5,604700
2492,000000	5,382600
2491,000000	5,567400
2490,000000	5,407200
2489,000000	5,573900
2488,000000	5,474500
2487,000000	5,461400
2486,000000	5,509100
2485,000000	5,501400
2484,000000	5,324200
2483,000000	5,368000
2482,000000	5,518900
2481,000000	5,438700
2480,000000	5,376800
2479,000000	5,345700
2478,000000	5,291000
2477,000000	5,364300
2476,000000	5,474900
2475,000000	5,352800
2474,000000	5,344800
2473,000000	5,360200
2472,000000	5,313800
2471,000000	5,327600
2470,000000	5,285600
2469,000000	5,310000
2468,000000	5,351300
2467,000000	5,305600
2466,000000	5,273500
2465,000000	5,293400
2464,000000	5,352200
2463,000000	5,362400
2462,000000	5,353900
2461,000000	5,397500
2460,000000	5,378200
2459,000000	5,322800
2458,000000	5,386000
2457,000000	5,392500
2456,000000	5,292100
2455,000000	5,430800
2454,000000	5,441400
2453,000000	5,440100
2452,000000	5,455700
2451,000000	5,443500
2450,000000	5,480100
2449,000000	5,539300
2448,000000	5,523600
2447,000000	5,605900
2446,000000	5,626700
2445,000000	5,634500
2444,000000	5,684400
2443,000000	5,660800
2442,000000	5,682900
2441,000000	5,746200
2440,000000	5,727700
2439,000000	5,749900
2438,000000	5,813300
2437,000000	5,822800
2436,000000	5,911000
2435,000000	5,895400
2434,000000	5,853500
2433,000000	5,882700
2432,000000	5,925600
2431,000000	5,972900
2430,000000	6,004000
2429,000000	6,008600
2428,000000	6,016600
2427,000000	6,033000
2426,000000	6,062700
2425,000000	6,075300
2424,000000	6,093300
2423,000000	6,147400
2422,000000	6,160700
2421,000000	6,140400
2420,000000	6,164600
2419,000000	6,203000
2418,000000	6,205800
2417,000000	6,205000
2416,000000	6,233200
2415,000000	6,243900
2414,000000	6,247800
2413,000000	6,282300
2412,000000	6,289600
2411,000000	6,309900
2410,000000	6,313200
2409,000000	6,320900
2408,000000	6,358800
2407,000000	6,358500
2406,000000	6,339900
2405,000000	6,364000
2404,000000	6,384600
2403,000000	6,392200
2402,000000	6,407400
2401,000000	6,445900
2400,000000	6,463000
2399,000000	6,481500
2398,000000	6,489500
2397,000000	6,491900
2396,000000	6,512900
2395,000000	6,527900
2394,000000	6,545300
2393,000000	6,549400
2392,000000	6,561100
2391,000000	6,579400
2390,000000	6,579500
2389,000000	6,595200
2388,000000	6,603800
2387,000000	6,592400
2386,000000	6,613200
2385,000000	6,643100
2384,000000	6,656100
2383,000000	6,647500
2382,000000	6,649500
2381,000000	6,667200
2380,000000	6,649700
2379,000000	6,643000
2378,000000	6,666800
2377,000000	6,645900
2376,000000	6,648800
2375,000000	6,646800
2374,000000	6,644300
2373,000000	6,664800
2372,000000	6,663800
2371,000000	6,669200
2370,000000	6,660500
2369,000000	6,644300
2368,000000	6,635900
2367,000000	6,634600
2366,000000	6,639600
2365,000000	6,633400
2364,000000	6,606400
2363,000000	6,588100
2362,000000	6,590000
2361,000000	6,584600
2360,000000	6,564000
2359,000000	6,539500
2358,000000	6,523900
2357,000000	6,496600
2356,000000	6,495600
2355,000000	6,502500
2354,000000	6,460200
2353,000000	6,460500
2352,000000	6,479700
2351,000000	6,479000
2350,000000	6,478000
2349,000000	6,481300
2348,000000	6,480300
2347,000000	6,485100
2346,000000	6,501200
2345,000000	6,518300
2344,000000	6,540100
2343,000000	6,562300
2342,000000	6,588100
2341,000000	6,597900
2340,000000	6,630400
2339,000000	6,647300
2338,000000	6,642400
2337,000000	6,640100
2336,000000	6,659700
2335,000000	6,687500
2334,000000	6,684800
2333,000000	6,676600
2332,000000	6,676600
2331,000000	6,681200
2330,000000	6,676500
2329,000000	6,657700
2328,000000	6,636700
2327,000000	6,620000
2326,000000	6,620400
2325,000000	6,612400
2324,000000	6,575100
2323,000000	6,543600
2322,000000	6,520100
2321,000000	6,508700
2320,000000	6,477700
2319,000000	6,452400
2318,000000	6,411600
2317,000000	6,372400
2316,000000	6,338100
2315,000000	6,286100
2314,000000	6,259500
2313,000000	6,236500
2312,000000	6,199600
2311,000000	6,165700
2310,000000	6,121000
2309,000000	6,112900
2308,000000	6,102500
2307,000000	6,065500
2306,000000	6,064300
2305,000000	6,063900
2304,000000	6,051400
2303,000000	6,054000
2302,000000	6,070400
2301,000000	6,063600
2300,000000	6,066700
2299,000000	6,106400
2298,000000	6,138300
2297,000000	6,145900
2296,000000	6,178700
2295,000000	6,209600
2294,000000	6,252000
2293,000000	6,289700
2292,000000	6,313700
2291,000000	6,333000
2290,000000	6,361100
2289,000000	6,376400
2288,000000	6,373900
2287,000000	6,398900
2286,000000	6,396500
2285,000000	6,391300
2284,000000	6,410800
2283,000000	6,378700
2282,000000	6,381900
2281,000000	6,362300
2280,000000	6,337100
2279,000000	6,326200
2278,000000	6,320600
2277,000000	6,295100
2276,000000	6,265600
2275,000000	6,247900
2274,000000	6,229700
2273,000000	6,227600
2272,000000	6,207900
2271,000000	6,198600
2270,000000	6,187400
2269,000000	6,206700
2268,000000	6,209000
2267,000000	6,231900
2266,000000	6,253600
2265,000000	6,294800
2264,000000	6,319700
2263,000000	6,387400
2262,000000	6,423100
2261,000000	6,496000
2260,000000	6,570700
2259,000000	6,655500
2258,000000	6,733700
2257,000000	6,831200
2256,000000	6,947800
2255,000000	7,053100
2254,000000	7,149500
2253,000000	7,251700
2252,000000	7,362500
2251,000000	7,476200
2250,000000	7,578000
2249,000000	7,663400
2248,000000	7,780500
2247,000000	7,866300
2246,000000	7,937800
2245,000000	8,052300
2244,000000	8,083700
2243,000000	8,166500
2242,000000	8,231800
2241,000000	8,290800
2240,000000	8,358400
2239,000000	8,396600
2238,000000	8,458700
2237,000000	8,508700
2236,000000	8,520300
2235,000000	8,576000
2234,000000	8,606300
2233,000000	8,627500
2232,000000	8,649700
2231,000000	8,692400
2230,000000	8,712000
2229,000000	8,735500
2228,000000	8,734700
2227,000000	8,739000
2226,000000	8,746000
2225,000000	8,732400
2224,000000	8,740700
2223,000000	8,728000
2222,000000	8,713800
2221,000000	8,737200
2220,000000	8,712000
2219,000000	8,693700
2218,000000	8,687300
2217,000000	8,692600
2216,000000	8,650500
2215,000000	8,627700
2214,000000	8,636600
2213,000000	8,598500
2212,000000	8,581900
2211,000000	8,563200
2210,000000	8,546200
2209,000000	8,541700
2208,000000	8,564800
2207,000000	8,507100
2206,000000	8,513300
2205,000000	8,497300
2204,000000	8,466400
2203,000000	8,472700
2202,000000	8,468600
2201,000000	8,454500
2200,000000	8,459400
2199,000000	8,427700
2198,000000	8,411200
2197,000000	8,430700
2196,000000	8,416500
2195,000000	8,401600
2194,000000	8,405500
2193,000000	8,407400
2192,000000	8,398300
2191,000000	8,390900
2190,000000	8,392900
2189,000000	8,376500
2188,000000	8,363900
2187,000000	8,347800
2186,000000	8,358700
2185,000000	8,343500
2184,000000	8,330400
2183,000000	8,307000
2182,000000	8,308600
2181,000000	8,312500
2180,000000	8,295100
2179,000000	8,294800
2178,000000	8,281900
2177,000000	8,269600
2176,000000	8,269500
2175,000000	8,267900
2174,000000	8,257300
2173,000000	8,254400
2172,000000	8,259500
2171,000000	8,260500
2170,000000	8,268700
2169,000000	8,262800
2168,000000	8,266000
2167,000000	8,256600
2166,000000	8,271800
2165,000000	8,272000
2164,000000	8,279700
2163,000000	8,302000
2162,000000	8,320900
2161,000000	8,312200
2160,000000	8,308100
2159,000000	8,324500
2158,000000	8,346900
2157,000000	8,348200
2156,000000	8,357700
2155,000000	8,399100
2154,000000	8,401800
2153,000000	8,406700
2152,000000	8,440600
2151,000000	8,440200
2150,000000	8,460200
2149,000000	8,487400
2148,000000	8,493300
2147,000000	8,526700
2146,000000	8,531700
2145,000000	8,537500
2144,000000	8,549300
2143,000000	8,556400
2142,000000	8,582100
2141,000000	8,583500
2140,000000	8,609900
2139,000000	8,615700
2138,000000	8,630500
2137,000000	8,643400
2136,000000	8,651800
2135,000000	8,645500
2134,000000	8,641700
2133,000000	8,659200
2132,000000	8,658900
2131,000000	8,654700
2130,000000	8,646800
2129,000000	8,638000
2128,000000	8,628800
2127,000000	8,635300
2126,000000	8,635500
2125,000000	8,620300
2124,000000	8,626500
2123,000000	8,607300
2122,000000	8,591700
2121,000000	8,590800
2120,000000	8,587200
2119,000000	8,574200
2118,000000	8,562000
2117,000000	8,559200
2116,000000	8,540800
2115,000000	8,513500
2114,000000	8,493900
2113,000000	8,479400
2112,000000	8,458800
2111,000000	8,460300
2110,000000	8,432400
2109,000000	8,403900
2108,000000	8,389000
2107,000000	8,373200
2106,000000	8,356100
2105,000000	8,338400
2104,000000	8,314700
2103,000000	8,304400
2102,000000	8,285400
2101,000000	8,269100
2100,000000	8,245700
2099,000000	8,223000
2098,000000	8,198200
2097,000000	8,176100
2096,000000	8,157000
2095,000000	8,142600
2094,000000	8,131500
2093,000000	8,122700
2092,000000	8,101800
2091,000000	8,079600
2090,000000	8,069200
2089,000000	8,038300
2088,000000	8,004200
2087,000000	7,998900
2086,000000	7,986100
2085,000000	7,978700
2084,000000	7,968100
2083,000000	7,927800
2082,000000	7,902900
2081,000000	7,897300
2080,000000	7,881200
2079,000000	7,853700
2078,000000	7,819400
2077,000000	7,788500
2076,000000	7,773700
2075,000000	7,747700
2074,000000	7,719900
2073,000000	7,693400
2072,000000	7,660400
2071,000000	7,635600
2070,000000	7,627400
2069,000000	7,595100
2068,000000	7,553000
2067,000000	7,522000
2066,000000	7,500300
2065,000000	7,468900
2064,000000	7,434600
2063,000000	7,415900
2062,000000	7,394200
2061,000000	7,370200
2060,000000	7,349300
2059,000000	7,337400
2058,000000	7,312600
2057,000000	7,291200
2056,000000	7,287800
2055,000000	7,279200
2054,000000	7,267700
2053,000000	7,258400
2052,000000	7,284000
2051,000000	7,282100
2050,000000	7,276100
2049,000000	7,287500
2048,000000	7,296500
2047,000000	7,317300
2046,000000	7,335500
2045,000000	7,362200
2044,000000	7,364200
2043,000000	7,377200
2042,000000	7,407600
2041,000000	7,432700
2040,000000	7,432900
2039,000000	7,448900
2038,000000	7,479400
2037,000000	7,489300
2036,000000	7,497700
2035,000000	7,502500
2034,000000	7,504600
2033,000000	7,518200
2032,000000	7,515000
2031,000000	7,518000
2030,000000	7,528000
2029,000000	7,537200
2028,000000	7,539700
2027,000000	7,525500
2026,000000	7,514000
2025,000000	7,517900
2024,000000	7,523000
2023,000000	7,522300
2022,000000	7,516900
2021,000000	7,509200
2020,000000	7,487900
2019,000000	7,473900
2018,000000	7,476500
2017,000000	7,467300
2016,000000	7,445600
2015,000000	7,445400
2014,000000	7,425200
2013,000000	7,403500
2012,000000	7,377700
2011,000000	7,358500
2010,000000	7,334700
2009,000000	7,327500
2008,000000	7,305000
2007,000000	7,294100
2006,000000	7,251700
2005,000000	7,232300
2004,000000	7,220800
2003,000000	7,187000
2002,000000	7,160800
2001,000000	7,122400
2000,000000	7,097000
1999,000000	7,071100
1998,000000	7,051000
1997,000000	7,018900
1996,000000	6,989400
1995,000000	6,956700
1994,000000	6,932700
1993,000000	6,900000
1992,000000	6,863600
1991,000000	6,838900
1990,000000	6,800600
1989,000000	6,771900
1988,000000	6,738500
1987,000000	6,706000
1986,000000	6,660500
1985,000000	6,629300
1984,000000	6,600400
1983,000000	6,567000
1982,000000	6,517300
1981,000000	6,508900
1980,000000	6,488900
1979,000000	6,445100
1978,000000	6,407900
1977,000000	6,386900
1976,000000	6,344000
1975,000000	6,320500
1974,000000	6,290700
1973,000000	6,266700
1972,000000	6,236000
1971,000000	6,213600
1970,000000	6,178500
1969,000000	6,134500
1968,000000	6,119000
1967,000000	6,099600
1966,000000	6,071900
1965,000000	6,047600
1964,000000	6,032500
1963,000000	6,006900
1962,000000	5,977100
1961,000000	5,948500
1960,000000	5,939400
1959,000000	5,878200
1958,000000	5,876900
1957,000000	5,870300
1956,000000	5,849700
1955,000000	5,814600
1954,000000	5,816300
1953,000000	5,763200
1952,000000	5,740500
1951,000000	5,726500
1950,000000	5,724900
1949,000000	5,684500
1948,000000	5,663000
1947,000000	5,677600
1946,000000	5,662600
1945,000000	5,648500
1944,000000	5,637100
1943,000000	5,641500
1942,000000	5,652000
1941,000000	5,610100
1940,000000	5,608900
1939,000000	5,618400
1938,000000	5,622900
1937,000000	5,600700
1936,000000	5,596000
1935,000000	5,606600
1934,000000	5,611600
1933,000000	5,621000
1932,000000	5,622200
1931,000000	5,663400
1930,000000	5,646500
1929,000000	5,674100
1928,000000	5,681300
1927,000000	5,702500
1926,000000	5,729500
1925,000000	5,763600
1924,000000	5,776600
1923,000000	5,823900
1922,000000	5,861300
1921,000000	5,865800
1920,000000	5,920600
1919,000000	5,925700
1918,000000	5,972600
1917,000000	6,046300
1916,000000	6,088400
1915,000000	6,150900
1914,000000	6,215500
1913,000000	6,242000
1912,000000	6,283200
1911,000000	6,361000
1910,000000	6,434500
1909,000000	6,509500
1908,000000	6,592000
1907,000000	6,671600
1906,000000	6,765800
1905,000000	6,852100
1904,000000	6,946600
1903,000000	7,026900
1902,000000	7,145800
1901,000000	7,257700
1900,000000	7,380000
1899,000000	7,504100
1898,000000	7,641400
1897,000000	7,771200
1896,000000	7,922900
1895,000000	8,094400
1894,000000	8,282100
1893,000000	8,505800
1892,000000	8,687600
1891,000000	8,931000
1890,000000	9,159300
1889,000000	9,425600
1888,000000	9,720700
1887,000000	10,015100
1886,000000	10,364900
1885,000000	10,685200
1884,000000	11,065400
1883,000000	11,466100
1882,000000	11,867200
1881,000000	12,313400
1880,000000	12,750400
1879,000000	13,170200
1878,000000	13,609600
1877,000000	14,059900
1876,000000	14,496500
1875,000000	14,940100
1874,000000	15,391300
1873,000000	15,824200
1872,000000	16,229300
1871,000000	16,627400
1870,000000	16,985700
1869,000000	17,318000
1868,000000	17,660700
1867,000000	17,945300
1866,000000	18,212600
1865,000000	18,472700
1864,000000	18,712200
1863,000000	18,956100
1862,000000	19,173300
1861,000000	19,388400
1860,000000	19,596600
1859,000000	19,791800
1858,000000	19,953400
1857,000000	20,088200
1856,000000	20,218900
1855,000000	20,336100
1854,000000	20,431200
1853,000000	20,512100
1852,000000	20,576700
1851,000000	20,659900
1850,000000	20,729700
1849,000000	20,803500
1848,000000	20,828400
1847,000000	20,814000
1846,000000	20,799100
1845,000000	20,809400
1844,000000	20,818500
1843,000000	20,862400
1842,000000	20,920500
1841,000000	20,930600
1840,000000	20,914800
1839,000000	20,895900
1838,000000	20,877600
1837,000000	20,859400
1836,000000	20,843000
1835,000000	20,801400
1834,000000	20,762100
1833,000000	20,737200
1832,000000	20,694900
1831,000000	20,665700
1830,000000	20,628800
1829,000000	20,594500
1828,000000	20,534600
1827,000000	20,460400
1826,000000	20,388000
1825,000000	20,350600
1824,000000	20,313900
1823,000000	20,295600
1822,000000	20,301000
1821,000000	20,275700
1820,000000	20,214700
1819,000000	20,159700
1818,000000	20,129800
1817,000000	20,107100
1816,000000	20,089900
1815,000000	20,068000
1814,000000	20,058400
1813,000000	20,043900
1812,000000	20,017800
1811,000000	19,987800
1810,000000	19,947000
1809,000000	19,897200
1808,000000	19,871600
1807,000000	19,844600
1806,000000	19,801000
1805,000000	19,738700
1804,000000	19,697200
1803,000000	19,661000
1802,000000	19,618700
1801,000000	19,578800
1800,000000	19,515200
1799,000000	19,451300
1798,000000	19,405600
1797,000000	19,364400
1796,000000	19,319400
1795,000000	19,268400
1794,000000	19,217900
1793,000000	19,174100
1792,000000	19,123600
1791,000000	19,079300
1790,000000	19,037000
1789,000000	18,987500
1788,000000	18,939000
1787,000000	18,887700
1786,000000	18,845200
1785,000000	18,784300
1784,000000	18,734400
1783,000000	18,689700
1782,000000	18,630200
1781,000000	18,573900
1780,000000	18,513700
1779,000000	18,462100
1778,000000	18,405900
1777,000000	18,341500
1776,000000	18,287400
1775,000000	18,235700
1774,000000	18,168000
1773,000000	18,092100
1772,000000	18,022900
1771,000000	17,950500
1770,000000	17,860400
1769,000000	17,802100
1768,000000	17,716300
1767,000000	17,639600
1766,000000	17,573900
1765,000000	17,529200
1764,000000	17,499100
1763,000000	17,463800
1762,000000	17,454700
1761,000000	17,473100
1760,000000	17,518800
1759,000000	17,563600
1758,000000	17,624900
1757,000000	17,698400
1756,000000	17,772600
1755,000000	17,847300
1754,000000	17,900100
1753,000000	17,944600
1752,000000	17,971000
1751,000000	18,008300
1750,000000	18,036800
1749,000000	18,032800
1748,000000	18,024000
1747,000000	17,992800
1746,000000	17,975000
1745,000000	17,913000
1744,000000	17,838700
1743,000000	17,772200
1742,000000	17,678600
1741,000000	17,551300
1740,000000	17,421000
1739,000000	17,287000
1738,000000	17,140300
1737,000000	16,976800
1736,000000	16,856600
1735,000000	16,747200
1734,000000	16,668600
1733,000000	16,619400
1732,000000	16,615500
1731,000000	16,627700
1730,000000	16,678500
1729,000000	16,732800
1728,000000	16,814300
1727,000000	16,914100
1726,000000	17,010800
1725,000000	17,095600
1724,000000	17,170600
1723,000000	17,251600
1722,000000	17,316700
1721,000000	17,360300
1720,000000	17,410300
1719,000000	17,462800
1718,000000	17,507500
1717,000000	17,569100
1716,000000	17,625600
1715,000000	17,698800
1714,000000	17,767100
1713,000000	17,837700
1712,000000	17,901000
1711,000000	17,952700
1710,000000	18,005300
1709,000000	18,028200
1708,000000	18,033200
1707,000000	18,011000
1706,000000	17,994700
1705,000000	17,966200
1704,000000	17,902000
1703,000000	17,839700
1702,000000	17,768500
1701,000000	17,673500
1700,000000	17,540600
1699,000000	17,408600
1698,000000	17,287800
1697,000000	17,158500
1696,000000	17,052400
1695,000000	16,970600
1694,000000	16,975800
1693,000000	16,994300
1692,000000	17,059900
1691,000000	17,174200
1690,000000	17,284200
1689,000000	17,418400
1688,000000	17,549300
1687,000000	17,646500
1686,000000	17,729700
1685,000000	17,804500
1684,000000	17,882900
1683,000000	17,972900
1682,000000	18,131500
1681,000000	18,362100
1680,000000	18,675200
1679,000000	19,062100
1678,000000	19,456000
1677,000000	19,887700
1676,000000	20,297800
1675,000000	20,685200
1674,000000	21,016300
1673,000000	21,316600
1672,000000	21,568300
1671,000000	21,804200
1670,000000	22,008900
1669,000000	22,160700
1668,000000	22,328600
1667,000000	22,456200
1666,000000	22,532500
1665,000000	22,648900
1664,000000	22,721200
1663,000000	22,771900
1662,000000	22,829900
1661,000000	22,871200
1660,000000	22,927600
1659,000000	22,949100
1658,000000	22,983400
1657,000000	22,965600
1656,000000	22,954100
1655,000000	22,983000
1654,000000	22,968600
1653,000000	22,943400
1652,000000	22,917200
1651,000000	22,877200
1650,000000	22,868600
1649,000000	22,807800
1648,000000	22,779500
1647,000000	22,736000
1646,000000	22,668200
1645,000000	22,605800
1644,000000	22,558900
1643,000000	22,510300
1642,000000	22,457700
1641,000000	22,393100
1640,000000	22,333600
1639,000000	22,261000
1638,000000	22,205900
1637,000000	22,154600
1636,000000	22,055700
1635,000000	21,999400
1634,000000	21,920100
1633,000000	21,862900
1632,000000	21,789500
1631,000000	21,696000
1630,000000	21,639200
1629,000000	21,540200
1628,000000	21,456700
1627,000000	21,383600
1626,000000	21,309300
1625,000000	21,222000
1624,000000	21,126400
1623,000000	21,046100
1622,000000	20,959500
1621,000000	20,902700
1620,000000	20,822700
1619,000000	20,721700
1618,000000	20,653400
1617,000000	20,586100
1616,000000	20,518900
1615,000000	20,444200
1614,000000	20,381700
1613,000000	20,300400
1612,000000	20,214000
1611,000000	20,148300
1610,000000	20,057800
1609,000000	19,986700
1608,000000	19,929800
1607,000000	19,840200
1606,000000	19,761600
1605,000000	19,699700
1604,000000	19,630000
1603,000000	19,555400
1602,000000	19,465500
1601,000000	19,396300
1600,000000	19,315500
1599,000000	19,235900
1598,000000	19,173900
1597,000000	19,070300
1596,000000	19,013200
1595,000000	18,944600
1594,000000	18,862600
1593,000000	18,786000
1592,000000	18,738400
1591,000000	18,677300
1590,000000	18,608600
1589,000000	18,541900
1588,000000	18,466900
1587,000000	18,401600
1586,000000	18,328500
1585,000000	18,276300
1584,000000	18,216900
1583,000000	18,151000
1582,000000	18,106400
1581,000000	18,035200
1580,000000	17,991300
1579,000000	17,953400
1578,000000	17,887000
1577,000000	17,839800
1576,000000	17,794300
1575,000000	17,765900
1574,000000	17,719800
1573,000000	17,679800
1572,000000	17,649600
1571,000000	17,615000
1570,000000	17,586100
1569,000000	17,547300
1568,000000	17,509200
1567,000000	17,492500
1566,000000	17,465800
1565,000000	17,452400
1564,000000	17,429800
1563,000000	17,401100
1562,000000	17,366100
1561,000000	17,326900
1560,000000	17,289100
1559,000000	17,281000
1558,000000	17,262100
1557,000000	17,204700
1556,000000	17,163300
1555,000000	17,125600
1554,000000	17,079600
1553,000000	17,032400
1552,000000	16,996200
1551,000000	16,946000
1550,000000	16,904400
1549,000000	16,862000
1548,000000	16,797000
1547,000000	16,741700
1546,000000	16,709600
1545,000000	16,673500
1544,000000	16,621200
1543,000000	16,565500
1542,000000	16,529800
1541,000000	16,499800
1540,000000	16,445400
1539,000000	16,402300
1538,000000	16,355100
1537,000000	16,303400
1536,000000	16,282200
1535,000000	16,246900
1534,000000	16,179100
1533,000000	16,127400
1532,000000	16,084200
1531,000000	16,036000
1530,000000	15,981600
1529,000000	15,922600
1528,000000	15,870500
1527,000000	15,805500
1526,000000	15,734700
1525,000000	15,672400
1524,000000	15,621900
1523,000000	15,556700
1522,000000	15,499000
1521,000000	15,451700
1520,000000	15,384800
1519,000000	15,319900
1518,000000	15,263300
1517,000000	15,188500
1516,000000	15,108900
1515,000000	15,056100
1514,000000	14,988400
1513,000000	14,913600
1512,000000	14,858900
1511,000000	14,795800
1510,000000	14,713300
1509,000000	14,639700
1508,000000	14,566900
1507,000000	14,495600
1506,000000	14,434900
1505,000000	14,383000
1504,000000	14,313000
1503,000000	14,225400
1502,000000	14,154400
1501,000000	14,083900
1500,000000	14,014700
1499,000000	13,959300
1498,000000	13,904000
1497,000000	13,826600
1496,000000	13,762200
1495,000000	13,723300
1494,000000	13,665700
1493,000000	13,614300
1492,000000	13,565600
1491,000000	13,513000
1490,000000	13,460300
1489,000000	13,422000
1488,000000	13,374800
1487,000000	13,314000
1486,000000	13,264200
1485,000000	13,223800
1484,000000	13,189100
1483,000000	13,144200
1482,000000	13,098600
1481,000000	13,061100
1480,000000	13,025700
1479,000000	13,005200
1478,000000	12,986200
1477,000000	12,948700
1476,000000	12,910300
1475,000000	12,882800
1474,000000	12,864800
1473,000000	12,858700
1472,000000	12,847200
1471,000000	12,835200
1470,000000	12,811500
1469,000000	12,790700
1468,000000	12,778300
1467,000000	12,778100
1466,000000	12,783400
1465,000000	12,778800
1464,000000	12,766500
1463,000000	12,770500
1462,000000	12,776300
1461,000000	12,793000
1460,000000	12,807700
1459,000000	12,803100
1458,000000	12,822400
1457,000000	12,865900
1456,000000	12,897100
1455,000000	12,934900
1454,000000	12,992400
1453,000000	13,032400
1452,000000	13,072200
1451,000000	13,133000
1450,000000	13,167400
1449,000000	13,200400
1448,000000	13,255100
1447,000000	13,343700
1446,000000	13,401100
1445,000000	13,439700
1444,000000	13,494500
1443,000000	13,564500
1442,000000	13,632900
1441,000000	13,717200
1440,000000	13,777400
1439,000000	13,871300
1438,000000	13,965800
1437,000000	14,053500
1436,000000	14,138500
1435,000000	14,231100
1434,000000	14,334000
1433,000000	14,432200
1432,000000	14,542000
1431,000000	14,659000
1430,000000	14,776900
1429,000000	14,910100
1428,000000	15,046400
1427,000000	15,188500
1426,000000	15,340600
1425,000000	15,503800
1424,000000	15,672900
1423,000000	15,842400
1422,000000	16,017700
1421,000000	16,217400
1420,000000	16,451000
1419,000000	16,659200
1418,000000	16,883000
1417,000000	17,093200
1416,000000	17,353100
1415,000000	17,627800
1414,000000	17,886000
1413,000000	18,191900
1412,000000	18,454700
1411,000000	18,764600
1410,000000	19,114900
1409,000000	19,480300
1408,000000	19,855800
1407,000000	20,246500
1406,000000	20,643700
1405,000000	21,070400
1404,000000	21,526700
1403,000000	21,962300
1402,000000	22,372400
1401,000000	22,865800
1400,000000	23,373600
1399,000000	23,838600
1398,000000	24,219000
1397,000000	24,675100
1396,000000	25,207900
1395,000000	25,730400
1394,000000	26,203400
1393,000000	26,672900
1392,000000	27,215600
1391,000000	27,728500
1390,000000	28,263500
1389,000000	28,824700
1388,000000	29,480400
1387,000000	30,145400
1386,000000	30,801900
1385,000000	31,452500
1384,000000	32,155400
1383,000000	32,867600
1382,000000	33,562600
1381,000000	34,163600
1380,000000	34,600600
1379,000000	35,089300
1378,000000	35,443400
1377,000000	35,751900
1376,000000	36,050400
1375,000000	36,341600
1374,000000	36,631400
1373,000000	36,954000
1372,000000	37,317600
1371,000000	37,699100
1370,000000	38,055200
1369,000000	38,368300
1368,000000	38,727400
1367,000000	39,056400
1366,000000	39,283300
1365,000000	39,556200
1364,000000	39,783800
1363,000000	39,973700
1362,000000	40,215000
1361,000000	40,413000
1360,000000	40,576600
1359,000000	40,659100
1358,000000	40,783600
1357,000000	40,922300
1356,000000	41,102200
1355,000000	41,371300
1354,000000	41,655300
1353,000000	42,003300
1352,000000	42,376300
1351,000000	42,792800
1350,000000	43,232500
1349,000000	43,620600
1348,000000	44,017300
1347,000000	44,385900
1346,000000	44,719600
1345,000000	45,058800
1344,000000	45,431100
1343,000000	45,753800
1342,000000	46,078400
1341,000000	46,422600
1340,000000	46,753000
1339,000000	47,075400
1338,000000	47,407900
1337,000000	47,730900
1336,000000	48,058100
1335,000000	48,353600
1334,000000	48,669300
1333,000000	48,996400
1332,000000	49,291100
1331,000000	49,598600
1330,000000	49,886200
1329,000000	50,166500
1328,000000	50,449300
1327,000000	50,726300
1326,000000	50,985500
1325,000000	51,233500
1324,000000	51,493700
1323,000000	51,725300
1322,000000	51,961800
1321,000000	52,170500
1320,000000	52,395800
1319,000000	52,605900
1318,000000	52,825000
1317,000000	53,014200
1316,000000	53,218100
1315,000000	53,398900
1314,000000	53,564400
1313,000000	53,734000
1312,000000	53,917900
1311,000000	54,067300
1310,000000	54,217500
1309,000000	54,381700
1308,000000	54,487100
1307,000000	54,620400
1306,000000	54,734300
1305,000000	54,846300
1304,000000	54,956200
1303,000000	55,050700
1302,000000	55,135900
1301,000000	55,212100
1300,000000	55,289300
1299,000000	55,365700
1298,000000	55,421500
1297,000000	55,486100
1296,000000	55,531700
1295,000000	55,585200
1294,000000	55,626600
1293,000000	55,673600
1292,000000	55,712800
1291,000000	55,733800
1290,000000	55,750100
1289,000000	55,763100
1288,000000	55,774500
1287,000000	55,772600
1286,000000	55,764600
1285,000000	55,750200
1284,000000	55,723900
1283,000000	55,706100
1282,000000	55,678100
1281,000000	55,652200
1280,000000	55,623300
1279,000000	55,600900
1278,000000	55,559600
1277,000000	55,541500
1276,000000	55,509600
1275,000000	55,479600
1274,000000	55,458100
1273,000000	55,435900
1272,000000	55,407000
1271,000000	55,376800
1270,000000	55,359800
1269,000000	55,337500
1268,000000	55,304000
1267,000000	55,280300
1266,000000	55,251900
1265,000000	55,218900
1264,000000	55,186600
1263,000000	55,151200
1262,000000	55,114400
1261,000000	55,077300
1260,000000	55,031300
1259,000000	54,996100
1258,000000	54,958000
1257,000000	54,912900
1256,000000	54,870700
1255,000000	54,807600
1254,000000	54,757600
1253,000000	54,703100
1252,000000	54,630200
1251,000000	54,557400
1250,000000	54,482800
1249,000000	54,426500
1248,000000	54,350000
1247,000000	54,258400
1246,000000	54,162300
1245,000000	54,067300
1244,000000	53,973300
1243,000000	53,885200
1242,000000	53,779100
1241,000000	53,653700
1240,000000	53,543400
1239,000000	53,444800
1238,000000	53,340200
1237,000000	53,233400
1236,000000	53,119200
1235,000000	52,991600
1234,000000	52,871400
1233,000000	52,739600
1232,000000	52,606600
1231,000000	52,485200
1230,000000	52,347500
1229,000000	52,208100
1228,000000	52,059500
1227,000000	51,897400
1226,000000	51,750100
1225,000000	51,600000
1224,000000	51,446800
1223,000000	51,295700
1222,000000	51,132100
1221,000000	50,970100
1220,000000	50,816300
1219,000000	50,655600
1218,000000	50,492200
1217,000000	50,346000
1216,000000	50,208500
1215,000000	50,056700
1214,000000	49,905300
1213,000000	49,773700
1212,000000	49,629500
1211,000000	49,494900
1210,000000	49,362600
1209,000000	49,228400
1208,000000	49,100700
1207,000000	48,987100
1206,000000	48,868700
1205,000000	48,773800
1204,000000	48,701600
1203,000000	48,616000
1202,000000	48,538500
1201,000000	48,495800
1200,000000	48,446500
1199,000000	48,365300
1198,000000	48,285900
1197,000000	48,201100
1196,000000	48,079900
1195,000000	47,927400
1194,000000	47,731400
1193,000000	47,497900
1192,000000	47,222600
1191,000000	46,899600
1190,000000	46,545000
1189,000000	46,210200
1188,000000	45,909700
1187,000000	45,682200
1186,000000	45,536100
1185,000000	45,478100
1184,000000	45,523000
1183,000000	45,693200
1182,000000	45,977900
1181,000000	46,336400
1180,000000	46,744700
1179,000000	47,179600
1178,000000	47,615900
1177,000000	48,029500
1176,000000	48,378200
1175,000000	48,718400
1174,000000	49,008200
1173,000000	49,287700
1172,000000	49,568300
1171,000000	49,854900
1170,000000	50,150500
1169,000000	50,447700
1168,000000	50,754100
1167,000000	51,062700
1166,000000	51,379000
1165,000000	51,704800
1164,000000	52,046200
1163,000000	52,387600
1162,000000	52,740600
1161,000000	53,088700
1160,000000	53,445100
1159,000000	53,779700
1158,000000	54,123400
1157,000000	54,448500
1156,000000	54,769800
1155,000000	55,066500
1154,000000	55,339100
1153,000000	55,592000
1152,000000	55,804900
1151,000000	55,981400
1150,000000	56,163400
1149,000000	56,318700
1148,000000	56,483600
1147,000000	56,670900
1146,000000	56,866000
1145,000000	57,112400
1144,000000	57,389300
1143,000000	57,708400
1142,000000	58,064200
1141,000000	58,455500
1140,000000	58,858600
1139,000000	59,301900
1138,000000	59,702200
1137,000000	60,146600
1136,000000	60,623600
1135,000000	61,105500
1134,000000	61,575200
1133,000000	61,989500
1132,000000	62,359400
1131,000000	62,722100
1130,000000	63,033000
1129,000000	63,317000
1128,000000	63,582400
1127,000000	63,772500
1126,000000	63,925600
1125,000000	64,052700
1124,000000	64,191100
1123,000000	64,291700
1122,000000	64,383300
1121,000000	64,436900
1120,000000	64,483500
1119,000000	64,535300
1118,000000	64,584600
1117,000000	64,599800
1116,000000	64,627400
1115,000000	64,639700
1114,000000	64,637700
1113,000000	64,658000
1112,000000	64,657200
1111,000000	64,658100
1110,000000	64,658800
1109,000000	64,664300
1108,000000	64,661100
1107,000000	64,670800
1106,000000	64,676600
1105,000000	64,669400
1104,000000	64,682100
1103,000000	64,685000
1102,000000	64,686400
1101,000000	64,687900
1100,000000	64,679700
1099,000000	64,668600
1098,000000	64,686200
1097,000000	64,674700
1096,000000	64,646300
1095,000000	64,648200
1094,000000	64,614200
1093,000000	64,604300
1092,000000	64,598000
1091,000000	64,555200
1090,000000	64,524800
1089,000000	64,530400
1088,000000	64,507000
1087,000000	64,466700
1086,000000	64,430900
1085,000000	64,399000
1084,000000	64,373600
1083,000000	64,304700
1082,000000	64,284100
1081,000000	64,225100
1080,000000	64,187800
1079,000000	64,157700
1078,000000	64,107500
1077,000000	64,052200
1076,000000	64,016000
1075,000000	63,975600
1074,000000	63,924800
1073,000000	63,876600
1072,000000	63,818500
1071,000000	63,774800
1070,000000	63,726900
1069,000000	63,677700
1068,000000	63,612800
1067,000000	63,579300
1066,000000	63,504900
1065,000000	63,444000
1064,000000	63,398000
1063,000000	63,347200
1062,000000	63,278800
1061,000000	63,216700
1060,000000	63,162100
1059,000000	63,082000
1058,000000	63,016900
1057,000000	62,946200
1056,000000	62,900100
1055,000000	62,816300
1054,000000	62,747500
1053,000000	62,684700
1052,000000	62,617000
1051,000000	62,543700
1050,000000	62,486700
1049,000000	62,426700
1048,000000	62,360200
1047,000000	62,279100
1046,000000	62,244900
1045,000000	62,169200
1044,000000	62,084900
1043,000000	62,030000
1042,000000	61,955700
1041,000000	61,902800
1040,000000	61,823100
1039,000000	61,761000
1038,000000	61,715500
1037,000000	61,640000
1036,000000	61,567700
1035,000000	61,467900
1034,000000	61,407700
1033,000000	61,337800
1032,000000	61,260600
1031,000000	61,174700
1030,000000	61,083800
1029,000000	60,995200
1028,000000	60,919100
1027,000000	60,853000
1026,000000	60,763100
1025,000000	60,661800
1024,000000	60,580600
1023,000000	60,466000
1022,000000	60,384400
1021,000000	60,303800
1020,000000	60,214100
1019,000000	60,117900
1018,000000	60,038100
1017,000000	59,974800
1016,000000	59,887700
1015,000000	59,816700
1014,000000	59,756800
1013,000000	59,679700
1012,000000	59,625500
1011,000000	59,581900
1010,000000	59,526300
1009,000000	59,478000
1008,000000	59,448800
1007,000000	59,404500
1006,000000	59,368300
1005,000000	59,345600
1004,000000	59,325200
1003,000000	59,296600
1002,000000	59,260000
1001,000000	59,207700
1000,000000	59,185900
999,000000	59,167600
998,000000	59,142500
997,000000	59,111300
996,000000	59,094700
995,000000	59,074400
994,000000	59,052800
993,000000	59,036000
992,000000	59,014500
991,000000	58,998500
990,000000	58,984600
989,000000	58,968600
988,000000	58,957200
987,000000	58,952500
986,000000	58,951400
985,000000	58,953900
984,000000	58,952800
983,000000	58,969300
982,000000	58,965000
981,000000	58,955700
980,000000	58,973300
979,000000	58,989700
978,000000	58,990500
977,000000	58,997600
976,000000	59,003000
975,000000	59,032900
974,000000	59,064900
973,000000	59,070300
972,000000	59,069000
971,000000	59,093200
970,000000	59,126100
969,000000	59,135400
968,000000	59,151100
967,000000	59,176600
966,000000	59,214300
965,000000	59,255500
964,000000	59,273600
963,000000	59,304200
962,000000	59,341700
961,000000	59,379700
960,000000	59,433100
959,000000	59,466800
958,000000	59,498300
957,000000	59,542500
956,000000	59,592400
955,000000	59,643700
954,000000	59,688300
953,000000	59,747600
952,000000	59,790200
951,000000	59,823500
950,000000	59,885300
949,000000	59,925800
948,000000	59,957800
947,000000	60,010500
946,000000	60,054100
945,000000	60,080700
944,000000	60,091700
943,000000	60,133800
942,000000	60,159100
941,000000	60,158400
940,000000	60,166200
939,000000	60,184200
938,000000	60,198400
937,000000	60,200000
936,000000	60,210100
935,000000	60,221400
934,000000	60,220500
933,000000	60,228900
932,000000	60,233800
931,000000	60,223600
930,000000	60,215600
929,000000	60,223700
928,000000	60,212300
927,000000	60,188300
926,000000	60,181500
925,000000	60,185700
924,000000	60,174000
923,000000	60,147600
922,000000	60,140300
921,000000	60,131300
920,000000	60,104400
919,000000	60,087000
918,000000	60,066400
917,000000	60,032100
916,000000	60,000500
915,000000	59,979500
914,000000	59,943200
913,000000	59,910400
912,000000	59,878800
911,000000	59,846800
910,000000	59,810000
909,000000	59,790500
908,000000	59,781400
907,000000	59,771700
906,000000	59,760000
905,000000	59,752800
904,000000	59,750700
903,000000	59,762800
902,000000	59,760300
901,000000	59,766700
900,000000	59,806600
899,000000	59,823300
898,000000	59,831900
897,000000	59,849500
896,000000	59,898500
895,000000	59,943300
894,000000	59,968700
893,000000	60,008400
892,000000	60,042500
891,000000	60,052900
890,000000	60,074300
889,000000	60,090500
888,000000	60,111100
887,000000	60,125600
886,000000	60,136500
885,000000	60,143000
884,000000	60,148400
883,000000	60,155300
882,000000	60,170500
881,000000	60,164300
880,000000	60,176400
879,000000	60,147100
878,000000	60,141600
877,000000	60,140000
876,000000	60,126700
875,000000	60,133200
874,000000	60,137000
873,000000	60,085600
872,000000	60,073900
871,000000	60,107700
870,000000	60,076200
869,000000	60,059700
868,000000	60,051900
867,000000	60,046200
866,000000	60,035700
865,000000	59,982600
864,000000	59,973800
863,000000	59,940800
862,000000	59,934100
861,000000	59,890700
860,000000	59,883500
859,000000	59,829600
858,000000	59,794700
857,000000	60,758900
856,000000	60,472700
855,000000	61,315800
854,000000	61,243500
853,000000	61,097100
852,000000	61,833000
851,000000	61,620500
850,000000	61,137800
849,000000	60,582600
848,000000	60,755600
847,000000	61,082000
846,000000	61,321600
845,000000	60,741200
844,000000	60,606200
843,000000	60,571300
842,000000	61,024300
841,000000	60,501300
840,000000	60,539300
839,000000	59,997000
838,000000	60,482300
837,000000	60,289900
836,000000	60,043300
835,000000	59,760900
834,000000	59,885800
833,000000	60,220300
832,000000	60,205300
831,000000	59,774300
830,000000	59,962100
829,000000	60,003400
828,000000	59,592800
827,000000	59,216200
826,000000	59,363600
825,000000	59,467900
824,000000	59,374500
823,000000	58,912300
822,000000	58,870900
821,000000	58,693000
820,000000	58,823600
819,000000	58,777300
818,000000	58,441800
817,000000	58,357600
816,000000	58,192600
815,000000	57,945300
814,000000	57,978200
813,000000	57,851700
812,000000	57,864700
811,000000	57,718800
810,000000	57,672700
809,000000	57,539000
808,000000	57,469900
807,000000	57,366700
806,000000	57,133700
805,000000	57,095200
804,000000	57,103200
803,000000	57,010400
802,000000	56,616200
801,000000	56,677200
800,000000	56,545500
799,000000	56,353800
798,000000	55,979400
797,000000	55,964200
796,000000	55,801300
795,000000	55,653900
794,000000	55,678900
793,000000	55,701600
792,000000	55,153100
791,000000	55,398700
790,000000	55,147400
789,000000	55,025500
788,000000	55,107700
787,000000	54,888000
786,000000	54,684000
785,000000	54,536600
784,000000	54,399700
783,000000	54,454600
782,000000	54,110200
781,000000	53,899400
780,000000	53,783500
779,000000	53,722100
778,000000	53,436000
777,000000	53,248300
776,000000	53,154500
775,000000	53,118200
774,000000	52,919400
773,000000	52,911400
772,000000	52,510100
771,000000	52,679200
770,000000	52,475000
769,000000	51,983400
768,000000	52,156700
767,000000	51,888800
766,000000	51,799700
765,000000	51,508500
764,000000	51,547400
763,000000	51,372700
762,000000	51,232600
761,000000	50,918300
760,000000	50,864600
759,000000	50,482900
758,000000	50,301300
757,000000	50,255100
756,000000	50,057100
755,000000	49,781000
754,000000	49,631100
753,000000	49,660300
752,000000	49,329100
751,000000	49,192300
750,000000	49,080500
749,000000	48,875400
748,000000	48,806500
747,000000	48,517100
746,000000	48,417600
745,000000	48,144300
744,000000	48,018000
743,000000	47,776000
742,000000	47,509400
741,000000	47,214800
740,000000	47,127100
739,000000	46,911500
738,000000	46,688400
737,000000	46,547600
736,000000	46,413900
735,000000	46,189300
734,000000	45,993500
733,000000	45,751400
732,000000	45,640400
731,000000	45,455600
730,000000	45,224100
729,000000	44,982400
728,000000	44,736200
727,000000	44,534100
726,000000	44,268400
725,000000	44,012000
724,000000	43,765200
723,000000	43,590900
722,000000	43,299700
721,000000	43,101500
720,000000	42,864300
719,000000	42,510300
718,000000	42,369000
717,000000	42,172800
716,000000	41,929800
715,000000	41,694900
714,000000	41,409600
713,000000	41,134500
712,000000	40,873600
711,000000	40,666600
710,000000	40,465600
709,000000	40,179500
708,000000	39,877300
707,000000	39,685200
706,000000	39,383700
705,000000	39,115800
704,000000	38,848800
703,000000	38,560800
702,000000	38,246000
701,000000	38,033800
700,000000	37,790600
699,000000	37,520100
698,000000	37,246000
697,000000	36,998900
696,000000	36,714300
695,000000	36,451500
694,000000	36,241000
693,000000	35,988400
692,000000	35,675700
691,000000	35,412000
690,000000	35,183100
689,000000	34,913400
688,000000	34,690300
687,000000	34,425400
686,000000	34,173700
685,000000	33,941500
684,000000	33,703800
683,000000	33,495600
682,000000	33,243900
681,000000	33,055400
680,000000	32,815700
679,000000	32,551100
678,000000	32,358200
677,000000	32,150900
676,000000	31,890200
675,000000	31,685700
674,000000	31,518200
673,000000	31,283600
672,000000	31,083700
671,000000	30,868500
670,000000	30,644200
669,000000	30,466400
668,000000	30,299800
667,000000	30,069900
666,000000	29,929600
665,000000	29,757300
664,000000	29,610700
663,000000	29,396500
662,000000	29,205300
661,000000	29,062800
660,000000	28,904400
659,000000	28,738600
658,000000	28,576100
657,000000	28,419300
656,000000	28,267300
655,000000	28,107100
654,000000	27,949000
653,000000	27,764600
652,000000	27,604400
651,000000	27,474200
650,000000	27,340100
649,000000	27,212900
648,000000	27,067200
647,000000	26,923900
646,000000	26,765100
645,000000	26,648200
644,000000	26,548400
643,000000	26,405800
642,000000	26,248800
641,000000	26,098200
640,000000	25,965500
639,000000	25,896800
638,000000	25,792000
637,000000	25,675600
636,000000	25,557000
635,000000	25,444700
634,000000	25,371600
633,000000	25,262700
632,000000	25,129300
631,000000	24,990900
630,000000	24,899900
629,000000	24,837900
628,000000	24,724000
627,000000	24,596800
626,000000	24,508200
625,000000	24,446300
624,000000	24,386900
623,000000	24,315000
622,000000	24,218200
621,000000	24,115300
620,000000	24,039800
619,000000	23,982500
618,000000	23,887700
617,000000	23,787800
616,000000	23,736600
615,000000	23,656400
614,000000	23,557100
613,000000	23,475900
612,000000	23,410300
611,000000	23,343300
610,000000	23,272500
609,000000	23,200900
608,000000	23,124600
607,000000	23,050500
606,000000	22,980600
605,000000	22,895200
604,000000	22,838500
603,000000	22,773500
602,000000	22,704100
601,000000	22,619200
600,000000	22,536200
599,000000	22,497900
598,000000	22,424100
597,000000	22,316400
596,000000	22,288000
595,000000	22,240800
594,000000	22,157400
593,000000	22,062200
592,000000	22,025300
591,000000	21,953400
590,000000	21,891900
589,000000	21,798600
588,000000	21,710700
587,000000	21,628200
586,000000	21,559900
585,000000	21,491300
584,000000	21,431800
583,000000	21,331300
582,000000	21,267600
581,000000	21,212400
580,000000	21,119700
579,000000	21,020400
578,000000	20,938300
577,000000	20,890500
576,000000	20,801900
575,000000	20,708300
574,000000	20,598700
573,000000	20,507200
572,000000	20,418600
571,000000	20,331500
570,000000	20,261100
569,000000	20,176300
568,000000	20,070700
567,000000	19,983200
566,000000	19,869500
565,000000	19,746700
564,000000	19,660200
563,000000	19,545500
562,000000	19,439400
561,000000	19,336600
560,000000	19,227400
559,000000	19,095400
558,000000	18,965500
557,000000	18,879100
556,000000	18,771500
555,000000	18,685600
554,000000	18,555800
553,000000	18,431700
552,000000	18,310100
551,000000	18,187400
550,000000	18,058700
549,000000	17,925200
548,000000	17,794800
547,000000	17,684200
546,000000	17,552700
545,000000	17,415000
544,000000	17,277300
543,000000	17,158000
542,000000	17,040300
541,000000	16,890200
540,000000	16,741000
539,000000	16,593000
538,000000	16,464100
537,000000	16,308300
536,000000	16,162200
535,000000	16,001700
534,000000	15,862200
533,000000	15,723200
532,000000	15,566200
531,000000	15,419400
530,000000	15,261400
529,000000	15,128100
528,000000	14,952700
527,000000	14,783900
526,000000	14,626700
525,000000	14,486600
524,000000	14,327100
523,000000	14,158500
522,000000	13,998200
521,000000	13,852500
520,000000	13,658100
519,000000	13,515500
518,000000	13,350300
517,000000	13,195000
516,000000	13,031600
515,000000	12,869500
514,000000	12,709300
513,000000	12,554100
512,000000	12,416100
511,000000	12,229100
510,000000	12,111700
509,000000	11,944400
508,000000	11,829700
507,000000	11,690200
506,000000	11,582900
505,000000	11,438700
504,000000	11,303800
503,000000	11,167700
502,000000	11,048400
501,000000	10,941300
500,000000	10,824100
499,000000	10,694600
498,000000	10,603300
497,000000	10,511200
496,000000	10,436100
495,000000	10,329400
494,000000	10,254200
493,000000	10,117700
492,000000	10,049700
491,000000	9,991900
490,000000	9,894900
489,000000	9,816200
488,000000	9,751700
487,000000	9,661500
486,000000	9,616100
485,000000	9,549200
484,000000	9,450100
483,000000	9,439800
482,000000	9,339600
481,000000	9,265600
480,000000	9,188700
479,000000	9,141700
478,000000	9,066700
477,000000	9,014500
476,000000	8,939200
475,000000	8,881100
474,000000	8,837900
473,000000	8,796200
472,000000	8,722500
471,000000	8,674300
470,000000	8,612000
469,000000	8,571400
468,000000	8,523000
467,000000	8,468500
466,000000	8,436900
465,000000	8,373300
464,000000	8,343300
463,000000	8,300600
462,000000	8,244400
461,000000	8,215500
460,000000	8,178900
459,000000	8,172500
458,000000	8,111500
457,000000	8,105900
456,000000	8,045900
455,000000	8,026500
454,000000	7,985500
453,000000	7,965500
452,000000	7,948400
451,000000	7,896800
450,000000	7,843300
449,000000	7,849500
448,000000	7,811000
447,000000	7,748200
446,000000	7,746100
445,000000	7,703400
444,000000	7,678500
443,000000	7,648900
442,000000	7,643500
441,000000	7,613200
440,000000	7,549400
439,000000	7,547600
438,000000	7,483200
437,000000	7,466100
436,000000	7,418700
435,000000	7,408400
434,000000	7,371700
433,000000	7,316600
432,000000	7,286800
431,000000	7,262300
430,000000	7,240400
429,000000	7,199200
428,000000	7,151200
427,000000	7,114000
426,000000	7,081300
425,000000	7,042300
424,000000	7,024600
423,000000	6,995700
422,000000	6,957300
421,000000	6,922100
420,000000	6,873500
419,000000	6,845600
418,000000	6,816400
417,000000	6,776000
416,000000	6,718600
415,000000	6,694500
414,000000	6,654700
413,000000	6,603700
412,000000	6,579600
411,000000	6,544500
410,000000	6,502100
409,000000	6,452100
408,000000	6,396300
407,000000	6,392700
406,000000	6,316200
405,000000	6,279100
404,000000	6,235200
403,000000	6,184700
402,000000	6,148600
401,000000	6,064100
400,000000	6,020800
399,000000	5,962900
398,000000	5,944600
397,000000	5,921900
396,000000	5,852200
395,000000	5,782200
394,000000	5,728400
393,000000	5,678000
392,000000	5,625500
391,000000	5,577100
390,000000	5,535400
389,000000	5,470300
388,000000	5,424000
387,000000	5,340700
386,000000	5,273100
385,000000	5,249300
384,000000	5,204000
383,000000	5,142200
382,000000	5,108600
381,000000	5,067500
380,000000	4,992800
379,000000	4,968600
378,000000	4,924100
377,000000	4,887900
376,000000	4,789200
375,000000	4,692900
374,000000	4,660100
373,000000	4,546800
372,000000	4,620800
371,000000	4,565400
370,000000	4,461600
369,000000	4,470400
368,000000	4,435500
367,000000	4,485000
366,000000	4,392500
365,000000	4,446800
364,000000	4,540400
363,000000	4,459800
362,000000	4,426500
361,000000	4,340300
360,000000	4,145400
359,000000	4,192300
358,000000	4,278000
357,000000	4,192300
356,000000	4,154700
355,000000	4,185300
354,000000	4,110000
353,000000	4,101400
352,000000	4,319300
351,000000	4,244100
350,000000	4,214300
349,000000	4,237500
348,000000	4,189100
347,000000	4,101200
346,000000	4,021000
345,000000	4,038100
344,000000	4,069900
343,000000	4,083600
342,000000	4,079900
341,000000	4,114500
340,000000	4,091800
339,000000	4,064100
338,000000	4,084200
337,000000	4,017600
336,000000	3,965300
335,000000	4,193200
334,000000	4,156500
333,000000	3,969200
332,000000	4,139600
331,000000	4,109000
330,000000	3,868100
329,000000	3,751900
328,000000	3,784100
327,000000	4,043000
326,000000	4,391800
325,000000	4,295500
324,000000	4,265900
323,000000	4,181400
322,000000	4,063700
321,000000	3,945500
320,000000	3,856700
319,000000	3,921300
318,000000	3,887000
317,000000	4,019800
316,000000	4,023900
315,000000	3,969400
314,000000	3,969600
313,000000	3,920100
312,000000	3,937000
311,000000	3,942400
310,000000	3,873100
309,000000	3,874000
308,000000	3,890300
307,000000	3,940800
306,000000	3,933700
305,000000	3,914000
304,000000	3,920500
303,000000	3,927700
302,000000	3,922600
301,000000	3,953100
300,000000	3,971600
299,000000	3,993200
298,000000	3,992400
297,000000	3,979900
296,000000	3,970200
295,000000	3,964000
294,000000	3,933800
293,000000	3,906100
292,000000	3,954300
291,000000	3,953400
290,000000	3,987000
289,000000	3,935600
288,000000	3,926000
287,000000	3,966700
286,000000	3,953500
285,000000	3,967500
284,000000	3,993500
283,000000	3,989500
282,000000	3,957100
281,000000	3,966400
280,000000	3,968000
279,000000	4,026400
278,000000	4,026800
277,000000	4,002500
276,000000	4,028300
275,000000	4,039000
274,000000	4,060800
273,000000	4,017700
272,000000	4,035900
271,000000	4,091400
270,000000	4,106700
269,000000	4,066900
268,000000	4,047700
267,000000	4,108400
266,000000	4,173100
265,000000	4,150600
264,000000	4,166100
263,000000	4,180100
262,000000	4,188100
261,000000	4,195800
260,000000	4,239000
259,000000	4,270400
258,000000	4,259300
257,000000	4,254400
256,000000	4,239100
255,000000	4,254800
254,000000	4,290800
253,000000	4,286800
252,000000	4,322000
251,000000	4,347500
250,000000	4,299900
