PE UV       SUBTECH     SPECTRUM    ASCII       PEDS        4.00        
   -1
INBUCR0413-4.Sample.ASC
24/02/09
11:45:23.00
24/02/09
11:45:23.00
Vinicio Soto Monge
Chrysina batesi. Det: A. Solís. COSTA RICA. Prov. Limón. P. I. La Amistad. Est Valle del Silencio. 2475 m. 26-30 MAR 2003. R. Delgado. M. Alfaro. R. González. D. Rubí. Tp de Luz. L_S_340258_577465 #73640. INB0003714895.  Falta élitro izquierdo.
250,000000
1
Lambda 1050
1050L1511233
PerkinElmer UV WinLab 6.3.2.0749 / 2.02.05 Lambda 900 UV/VIS/NIR, Aug  7 2015 09:38:08

0
0
3350/servo 860,8/2
0
0
UV/VIS
1
1
1
DoubleDePol,CommonBeamDepol,RBeamAtt,SBeamAtt,60mm sphere, WB InGaAs Detector
0
0
0
0
Program
Program
3350/servo 860,8/2
3350/0,2 860,8/0,2
3350/0,2 860,8/0,2
0
15.00
 
 
 
0
 
860,8
319,2
860,8
Front
100
on
S:100 R:100
0
0
0
0
 
0
 
 
 
0
 
 
0
0
0
0
0
 
 
 
 
0
0


0
0
#HDR
-1
-1
#GR
nm
%R
1.0
0.0
2500,000000
-1,000000
2251
8
20,287000
2,009600
#DATA

250.000000	nan
251.000000	nan
252.000000	nan
253.000000	nan
254.000000	nan
255.000000	nan
256.000000	nan
257.000000	nan
258.000000	nan
259.000000	5.004186
260.000000	4.999469
261.000000	4.995130
262.000000	4.990578
263.000000	4.985592
264.000000	4.980853
265.000000	4.977317
266.000000	4.976510
267.000000	4.973877
268.000000	4.970097
269.000000	4.966177
270.000000	4.962362
271.000000	4.959255
272.000000	4.958034
273.000000	4.956034
274.000000	4.953886
275.000000	4.950550
276.000000	4.944923
277.000000	4.940854
278.000000	4.938685
279.000000	4.937444
280.000000	4.934747
281.000000	4.931523
282.000000	4.929026
283.000000	4.926966
284.000000	4.924838
285.000000	4.924408
286.000000	4.922925
287.000000	4.921213
288.000000	4.920443
289.000000	4.918514
290.000000	4.918974
291.000000	4.917712
292.000000	4.915882
293.000000	4.913721
294.000000	4.912465
295.000000	4.912201
296.000000	4.911068
297.000000	4.910398
298.000000	4.908617
299.000000	4.908704
300.000000	4.908401
301.000000	4.907392
302.000000	4.907388
303.000000	4.907328
304.000000	4.905442
305.000000	4.901662
306.000000	4.902775
307.000000	4.902432
308.000000	4.903715
309.000000	4.903114
310.000000	4.903761
311.000000	4.905965
312.000000	4.904873
313.000000	4.904905
314.000000	4.906043
315.000000	4.907522
316.000000	4.909145
317.000000	4.928975
318.000000	4.936404
319.000000	4.964795
320.000000	4.984974
321.000000	5.006279
322.000000	5.025502
323.000000	5.048145
324.000000	5.068057
325.000000	5.092264
326.000000	5.110386
327.000000	5.101700
328.000000	5.109639
329.000000	5.091179
330.000000	5.082708
331.000000	5.074533
332.000000	5.073870
333.000000	5.062110
334.000000	5.063157
335.000000	5.053744
336.000000	5.039975
337.000000	5.040967
338.000000	5.029321
339.000000	5.025171
340.000000	5.024213
341.000000	5.019303
342.000000	5.014793
343.000000	5.017996
344.000000	5.046420
345.000000	5.083586
346.000000	5.124024
347.000000	5.163384
348.000000	5.206695
349.000000	5.251081
350.000000	5.288328
351.000000	5.327527
352.000000	5.363394
353.000000	5.400882
354.000000	5.403070
355.000000	5.406378
356.000000	5.412217
357.000000	5.417900
358.000000	5.464139
359.000000	5.508894
360.000000	5.554444
361.000000	5.603834
362.000000	5.653649
363.000000	5.705667
364.000000	5.758927
365.000000	5.810221
366.000000	5.866693
367.000000	5.959036
368.000000	6.018048
369.000000	6.079076
370.000000	6.140618
371.000000	6.204661
372.000000	6.273264
373.000000	6.373001
374.000000	6.473860
375.000000	6.580446
376.000000	6.694974
377.000000	6.801283
378.000000	6.910655
379.000000	7.024151
380.000000	7.144906
381.000000	7.268280
382.000000	7.431693
383.000000	7.570067
384.000000	7.714390
385.000000	7.861668
386.000000	8.044047
387.000000	8.205365
388.000000	8.369694
389.000000	8.538294
390.000000	8.710387
391.000000	8.921037
392.000000	9.097121
393.000000	9.274809
394.000000	9.455004
395.000000	9.636412
396.000000	9.782535
397.000000	9.965155
398.000000	10.147361
399.000000	10.328596
400.000000	10.508857
401.000000	10.652181
402.000000	10.794068
403.000000	10.934260
404.000000	11.071557
405.000000	11.205506
406.000000	11.336093
407.000000	11.427911
408.000000	11.517025
409.000000	11.602956
410.000000	11.685064
411.000000	11.763682
412.000000	11.838862
413.000000	11.910202
414.000000	11.977771
415.000000	12.041624
416.000000	12.101769
417.000000	12.158305
418.000000	12.210974
419.000000	12.259576
420.000000	12.304843
421.000000	12.346143
422.000000	12.382872
423.000000	12.415294
424.000000	12.444059
425.000000	12.469503
426.000000	12.491552
427.000000	12.508917
428.000000	12.485332
429.000000	12.457116
430.000000	12.424439
431.000000	12.387480
432.000000	12.346418
433.000000	12.300684
434.000000	12.250005
435.000000	12.194285
436.000000	12.133609
437.000000	12.068870
438.000000	12.036636
439.000000	12.000255
440.000000	11.959367
441.000000	11.914263
442.000000	11.864936
443.000000	11.811670
444.000000	11.755092
445.000000	11.696973
446.000000	11.638078
447.000000	11.578088
448.000000	11.517147
449.000000	11.456370
450.000000	11.396442
451.000000	11.337597
452.000000	11.280814
453.000000	11.227171
454.000000	11.141411
455.000000	11.059238
456.000000	10.981002
457.000000	10.907409
458.000000	10.838398
459.000000	10.774561
460.000000	10.716695
461.000000	10.664610
462.000000	10.618236
463.000000	10.577426
464.000000	10.577370
465.000000	10.544686
466.000000	10.514636
467.000000	10.486527
468.000000	10.459887
469.000000	10.433704
470.000000	10.406799
471.000000	10.378515
472.000000	10.347806
473.000000	10.313745
474.000000	10.275749
475.000000	10.269538
476.000000	10.258705
477.000000	10.243513
478.000000	10.224079
479.000000	10.199743
480.000000	10.169580
481.000000	10.133515
482.000000	10.092599
483.000000	10.048295
484.000000	10.002223
485.000000	9.955597
486.000000	9.908866
487.000000	9.862554
488.000000	9.817211
489.000000	9.773927
490.000000	9.733638
491.000000	9.733555
492.000000	9.738019
493.000000	9.746303
494.000000	9.757862
495.000000	9.772646
496.000000	9.792021
497.000000	9.853024
498.000000	9.919978
499.000000	9.994291
500.000000	10.077709
501.000000	10.170942
502.000000	10.274183
503.000000	10.389127
504.000000	10.553737
505.000000	10.733208
506.000000	10.928360
507.000000	11.140954
508.000000	11.372933
509.000000	11.625842
510.000000	11.936718
511.000000	12.234138
512.000000	12.553884
513.000000	12.929285
514.000000	13.283387
515.000000	13.683736
516.000000	14.088409
517.000000	14.455101
518.000000	14.851000
519.000000	15.233934
520.000000	15.564316
521.000000	15.874948
522.000000	16.199482
523.000000	16.465961
524.000000	16.711484
525.000000	16.901349
526.000000	17.110555
527.000000	17.305059
528.000000	17.450578
529.000000	17.585634
530.000000	17.710599
531.000000	17.827063
532.000000	17.936070
533.000000	18.038096
534.000000	18.134567
535.000000	18.226261
536.000000	18.278080
537.000000	18.327939
538.000000	18.376067
539.000000	18.423790
540.000000	18.472337
541.000000	18.521180
542.000000	18.535055
543.000000	18.550041
544.000000	18.565918
545.000000	18.583401
546.000000	18.602108
547.000000	18.621865
548.000000	18.643093
549.000000	18.664464
550.000000	18.685322
551.000000	18.705708
552.000000	18.725756
553.000000	18.745023
554.000000	18.763603
555.000000	18.781289
556.000000	18.797904
557.000000	18.814049
558.000000	18.829464
559.000000	18.844309
560.000000	18.839759
561.000000	18.830983
562.000000	18.819938
563.000000	18.806751
564.000000	18.791486
565.000000	18.773764
566.000000	18.753877
567.000000	18.731014
568.000000	18.703810
569.000000	18.672757
570.000000	18.655179
571.000000	18.636048
572.000000	18.613267
573.000000	18.586184
574.000000	18.555539
575.000000	18.520811
576.000000	18.483534
577.000000	18.442608
578.000000	18.364731
579.000000	18.286702
580.000000	18.210178
581.000000	18.134965
582.000000	18.060636
583.000000	17.986505
584.000000	17.910705
585.000000	17.833271
586.000000	17.750427
587.000000	17.626567
588.000000	17.531796
589.000000	17.430011
590.000000	17.321923
591.000000	17.210002
592.000000	17.097994
593.000000	16.989541
594.000000	16.888210
595.000000	16.796850
596.000000	16.718439
597.000000	16.652648
598.000000	16.598103
599.000000	16.552299
600.000000	16.511121
601.000000	16.467440
602.000000	16.415257
603.000000	16.352914
604.000000	16.276496
605.000000	16.186433
606.000000	16.084027
607.000000	16.010261
608.000000	15.896949
609.000000	15.786177
610.000000	15.683779
611.000000	15.596813
612.000000	15.528931
613.000000	15.479015
614.000000	15.446855
615.000000	15.427124
616.000000	15.414634
617.000000	15.401343
618.000000	15.419855
619.000000	15.427208
620.000000	15.420642
621.000000	15.397442
622.000000	15.359266
623.000000	15.308307
624.000000	15.250422
625.000000	15.191154
626.000000	15.136651
627.000000	15.093376
628.000000	15.064663
629.000000	15.052961
630.000000	15.021985
631.000000	15.006428
632.000000	15.002191
633.000000	15.003966
634.000000	15.004878
635.000000	14.999975
636.000000	14.984082
637.000000	14.954039
638.000000	14.909760
639.000000	14.851527
640.000000	14.819027
641.000000	14.780901
642.000000	14.742117
643.000000	14.708923
644.000000	14.685879
645.000000	14.677272
646.000000	14.685217
647.000000	14.709966
648.000000	14.749619
649.000000	14.800168
650.000000	14.855672
651.000000	14.911691
652.000000	14.960944
653.000000	14.999388
654.000000	15.024221
655.000000	15.033349
656.000000	15.063590
657.000000	15.080680
658.000000	15.086520
659.000000	15.087317
660.000000	15.087868
661.000000	15.092389
662.000000	15.105858
663.000000	15.130783
664.000000	15.168420
665.000000	15.217361
666.000000	15.239140
667.000000	15.266798
668.000000	15.295208
669.000000	15.320125
670.000000	15.337460
671.000000	15.343101
672.000000	15.335471
673.000000	15.314311
674.000000	15.280979
675.000000	15.274493
676.000000	15.262675
677.000000	15.248667
678.000000	15.238741
679.000000	15.236345
680.000000	15.246141
681.000000	15.270557
682.000000	15.310685
683.000000	15.364291
684.000000	15.430223
685.000000	15.468984
686.000000	15.512863
687.000000	15.558284
688.000000	15.601826
689.000000	15.675272
690.000000	15.740329
691.000000	15.795055
692.000000	15.839642
693.000000	15.877639
694.000000	15.910432
695.000000	15.940795
696.000000	15.972901
697.000000	16.009434
698.000000	16.052725
699.000000	16.070261
700.000000	16.099066
701.000000	16.140309
702.000000	16.192574
703.000000	16.253919
704.000000	16.321327
705.000000	16.427711
706.000000	16.533689
707.000000	16.637463
708.000000	16.735799
709.000000	16.827342
710.000000	16.910607
711.000000	16.986054
712.000000	17.053140
713.000000	17.112647
714.000000	17.167790
715.000000	17.184881
716.000000	17.200911
717.000000	17.217937
718.000000	17.238308
719.000000	17.262668
720.000000	17.290875
721.000000	17.322433
722.000000	17.356998
723.000000	17.394549
724.000000	17.432524
725.000000	17.469795
726.000000	17.504997
727.000000	17.536088
728.000000	17.562900
729.000000	17.583809
730.000000	17.598621
731.000000	17.607635
732.000000	17.577065
733.000000	17.542649
734.000000	17.504506
735.000000	17.465119
736.000000	17.426092
737.000000	17.387771
738.000000	17.349640
739.000000	17.313566
740.000000	17.280111
741.000000	17.249772
742.000000	17.257169
743.000000	17.264520
744.000000	17.271311
745.000000	17.275236
746.000000	17.277018
747.000000	17.240120
748.000000	17.199662
749.000000	17.155620
750.000000	17.107735
751.000000	17.055354
752.000000	16.999588
753.000000	16.941684
754.000000	16.882777
755.000000	16.823997
756.000000	16.763258
757.000000	16.739684
758.000000	16.717815
759.000000	16.660054
760.000000	16.604163
761.000000	16.549911
762.000000	16.495848
763.000000	16.441412
764.000000	16.385982
765.000000	16.329158
766.000000	16.271397
767.000000	16.173323
768.000000	16.071568
769.000000	16.003467
770.000000	15.931960
771.000000	15.857428
772.000000	15.779786
773.000000	15.700064
774.000000	15.617643
775.000000	15.534320
776.000000	15.451520
777.000000	15.369731
778.000000	15.288397
779.000000	15.207748
780.000000	15.129222
781.000000	15.051447
782.000000	14.973995
783.000000	14.898197
784.000000	14.824093
785.000000	14.712629
786.000000	14.598647
787.000000	14.520457
788.000000	14.441234
789.000000	14.359831
790.000000	14.274334
791.000000	14.185754
792.000000	14.095930
793.000000	14.003217
794.000000	13.907262
795.000000	13.812032
796.000000	13.717713
797.000000	13.623131
798.000000	13.529213
799.000000	13.437541
800.000000	13.348100
801.000000	13.260272
802.000000	13.174967
803.000000	13.092101
804.000000	13.011139
805.000000	12.967965
806.000000	12.925739
807.000000	12.883209
808.000000	12.805888
809.000000	12.727894
810.000000	12.648905
811.000000	12.570256
812.000000	12.487611
813.000000	12.403674
814.000000	12.321211
815.000000	12.236179
816.000000	12.150731
817.000000	12.066160
818.000000	12.016964
819.000000	11.968307
820.000000	11.922237
821.000000	11.876006
822.000000	11.833773
823.000000	11.792444
824.000000	11.755410
825.000000	11.718987
826.000000	11.681828
827.000000	11.646085
828.000000	11.612171
829.000000	11.578747
830.000000	11.545607
831.000000	11.515987
832.000000	11.487897
833.000000	11.459300
834.000000	11.427271
835.000000	11.397382
836.000000	11.368912
837.000000	11.341130
838.000000	11.313521
839.000000	11.287990
840.000000	11.259641
841.000000	11.228557
842.000000	11.199982
843.000000	11.173767
844.000000	11.149636
845.000000	11.122635
846.000000	11.105803
847.000000	11.088072
848.000000	11.065561
849.000000	11.041468
850.000000	11.022152
851.000000	11.009942
852.000000	10.993689
853.000000	10.978501
854.000000	10.966805
855.000000	10.954852
856.000000	10.935672
857.000000	10.925610
858.000000	11.272995
859.000000	11.295924
860.000000	11.320021
861.000000	11.316912
862.000000	11.344125
863.000000	11.373960
864.000000	11.377489
865.000000	11.388297
866.000000	11.401559
867.000000	11.410865
868.000000	11.046322
869.000000	11.011180
870.000000	11.001783
871.000000	11.017435
872.000000	10.983748
873.000000	10.975003
874.000000	10.967657
875.000000	10.936350
876.000000	10.905552
877.000000	10.875158
878.000000	10.868968
879.000000	10.863630
880.000000	10.834410
881.000000	10.806605
882.000000	10.802555
883.000000	10.774885
884.000000	10.772457
885.000000	10.794517
886.000000	10.791682
887.000000	10.813752
888.000000	10.837875
889.000000	10.836417
890.000000	10.859855
891.000000	10.883218
892.000000	10.907490
893.000000	10.932142
894.000000	10.956862
895.000000	10.957558
896.000000	10.982975
897.000000	10.984690
898.000000	10.986683
899.000000	11.014380
900.000000	11.017518
901.000000	11.021503
902.000000	11.025607
903.000000	11.028720
904.000000	11.032438
905.000000	11.061595
906.000000	11.090687
907.000000	11.093518
908.000000	11.097247
909.000000	11.127590
910.000000	11.156488
911.000000	11.185450
912.000000	11.215795
913.000000	11.246380
914.000000	11.277378
915.000000	11.308093
916.000000	11.341000
917.000000	11.398405
918.000000	11.453935
919.000000	11.482667
920.000000	11.512612
921.000000	11.543185
922.000000	11.572825
923.000000	11.603625
924.000000	11.633142
925.000000	11.661252
926.000000	11.688352
927.000000	11.716303
928.000000	11.744872
929.000000	11.773175
930.000000	11.800685
931.000000	11.827082
932.000000	11.852628
933.000000	11.878747
934.000000	11.904763
935.000000	11.932405
936.000000	11.959793
937.000000	11.985542
938.000000	12.012943
939.000000	12.040895
940.000000	12.068845
941.000000	12.094975
942.000000	12.122535
943.000000	12.149070
944.000000	12.175408
945.000000	12.200825
946.000000	12.227280
947.000000	12.254257
948.000000	12.278557
949.000000	12.303212
950.000000	12.353880
951.000000	12.406340
952.000000	12.458587
953.000000	12.509275
954.000000	12.561153
955.000000	12.613810
956.000000	12.663820
957.000000	12.715113
958.000000	12.767647
959.000000	12.820000
960.000000	12.846427
961.000000	12.872635
962.000000	12.898735
963.000000	12.925810
964.000000	12.951317
965.000000	12.975655
966.000000	13.001323
967.000000	13.026822
968.000000	13.051780
969.000000	13.075498
970.000000	13.099912
971.000000	13.123622
972.000000	13.147348
973.000000	13.196427
974.000000	13.221052
975.000000	13.271242
976.000000	13.321392
977.000000	13.371278
978.000000	13.420960
979.000000	13.471922
980.000000	13.521773
981.000000	13.571990
982.000000	13.622185
983.000000	13.646852
984.000000	13.696360
985.000000	13.720710
986.000000	13.745152
987.000000	13.769252
988.000000	13.794175
989.000000	13.818305
990.000000	13.842350
991.000000	13.891432
992.000000	13.939933
993.000000	13.988437
994.000000	14.037110
995.000000	14.086410
996.000000	14.134533
997.000000	14.182643
998.000000	14.230863
999.000000	14.279882
1000.000000	14.329063
1001.000000	14.352915
1002.000000	14.376750
1003.000000	14.400893
1004.000000	14.424920
1005.000000	14.447820
1006.000000	14.471600
1007.000000	14.495173
1008.000000	14.517795
1009.000000	14.565127
1010.000000	14.612502
1011.000000	14.660383
1012.000000	14.708268
1013.000000	14.755365
1014.000000	14.802477
1015.000000	14.850433
1016.000000	14.898568
1017.000000	14.947295
1018.000000	14.996403
1019.000000	15.020202
1020.000000	15.043768
1021.000000	15.066790
1022.000000	15.090500
1023.000000	15.114812
1024.000000	15.138348
1025.000000	15.161200
1026.000000	15.208695
1027.000000	15.255980
1028.000000	15.303392
1029.000000	15.350262
1030.000000	15.397980
1031.000000	15.446475
1032.000000	15.493553
1033.000000	15.540168
1034.000000	15.587730
1035.000000	15.635537
1036.000000	15.658390
1037.000000	15.681213
1038.000000	15.703540
1039.000000	15.725845
1040.000000	15.747958
1041.000000	15.769590
1042.000000	15.816413
1043.000000	15.863127
1044.000000	15.909195
1045.000000	15.955670
1046.000000	16.001863
1047.000000	16.047685
1048.000000	16.094000
1049.000000	16.140860
1050.000000	16.188015
1051.000000	16.235340
1052.000000	16.257777
1053.000000	16.280297
1054.000000	16.303193
1055.000000	16.325055
1056.000000	16.347182
1057.000000	16.369795
1058.000000	16.417437
1059.000000	16.464517
1060.000000	16.510050
1061.000000	16.555578
1062.000000	16.601843
1063.000000	16.648090
1064.000000	16.694052
1065.000000	16.740488
1066.000000	16.787302
1067.000000	16.833717
1068.000000	16.854757
1069.000000	16.876235
1070.000000	16.898712
1071.000000	16.920952
1072.000000	16.942277
1073.000000	16.964237
1074.000000	16.985945
1075.000000	17.031827
1076.000000	17.077168
1077.000000	17.122825
1078.000000	17.169078
1079.000000	17.215557
1080.000000	17.261580
1081.000000	17.308020
1082.000000	17.353932
1083.000000	17.399445
1084.000000	17.445065
1085.000000	17.466573
1086.000000	17.488053
1087.000000	17.509300
1088.000000	17.529253
1089.000000	17.548927
1090.000000	17.568385
1091.000000	17.612490
1092.000000	17.657258
1093.000000	17.701775
1094.000000	17.746218
1095.000000	17.789822
1096.000000	17.833347
1097.000000	17.876210
1098.000000	17.919243
1099.000000	17.962125
1100.000000	18.005792
1101.000000	18.024215
1102.000000	18.041863
1103.000000	18.059655
1104.000000	18.076628
1105.000000	18.094350
1106.000000	18.112132
1107.000000	18.131183
1108.000000	18.149275
1109.000000	18.167435
1110.000000	18.185260
1111.000000	18.228357
1112.000000	18.271432
1113.000000	18.313785
1114.000000	18.356492
1115.000000	18.399603
1116.000000	18.441848
1117.000000	18.482638
1118.000000	18.524812
1119.000000	18.566498
1120.000000	18.607525
1121.000000	18.622622
1122.000000	18.638983
1123.000000	18.655117
1124.000000	18.671330
1125.000000	18.686988
1126.000000	18.702267
1127.000000	18.717245
1128.000000	18.732315
1129.000000	18.746968
1130.000000	18.761500
1131.000000	18.773553
1132.000000	18.782595
1133.000000	18.791550
1134.000000	18.827850
1135.000000	18.865012
1136.000000	18.901815
1137.000000	18.936875
1138.000000	18.969955
1139.000000	19.003535
1140.000000	19.036985
1141.000000	19.071433
1142.000000	19.106785
1143.000000	19.142795
1144.000000	19.150475
1145.000000	19.157835
1146.000000	19.165650
1147.000000	19.174798
1148.000000	19.184113
1149.000000	19.192663
1150.000000	19.202182
1151.000000	19.210878
1152.000000	19.221435
1153.000000	19.231750
1154.000000	19.241375
1155.000000	19.249905
1156.000000	19.256788
1157.000000	19.263303
1158.000000	19.269855
1159.000000	19.275823
1160.000000	19.280010
1161.000000	19.284343
1162.000000	19.286238
1163.000000	19.286292
1164.000000	19.286587
1165.000000	19.283995
1166.000000	19.282602
1167.000000	19.280427
1168.000000	19.278560
1169.000000	19.276580
1170.000000	19.274518
1171.000000	19.273643
1172.000000	19.273180
1173.000000	19.273225
1174.000000	19.274305
1175.000000	19.277188
1176.000000	19.280215
1177.000000	19.284467
1178.000000	19.288405
1179.000000	19.292665
1180.000000	19.298500
1181.000000	19.305658
1182.000000	19.311380
1183.000000	19.318420
1184.000000	19.324918
1185.000000	19.332023
1186.000000	19.340885
1187.000000	19.349448
1188.000000	19.358303
1189.000000	19.368762
1190.000000	19.377505
1191.000000	19.387643
1192.000000	19.425338
1193.000000	19.463468
1194.000000	19.502320
1195.000000	19.541930
1196.000000	19.580750
1197.000000	19.621090
1198.000000	19.662063
1199.000000	19.702860
1200.000000	19.744145
1201.000000	19.784465
1202.000000	19.799723
1203.000000	19.815307
1204.000000	19.831260
1205.000000	19.847930
1206.000000	19.864605
1207.000000	19.880043
1208.000000	19.896835
1209.000000	19.913660
1210.000000	19.956822
1211.000000	19.999562
1212.000000	20.042382
1213.000000	20.085820
1214.000000	20.128395
1215.000000	20.170787
1216.000000	20.213145
1217.000000	20.255672
1218.000000	20.295558
1219.000000	20.335160
1220.000000	20.348685
1221.000000	20.361722
1222.000000	20.374280
1223.000000	20.385780
1224.000000	20.397658
1225.000000	20.407705
1226.000000	20.417285
1227.000000	20.427275
1228.000000	20.437757
1229.000000	20.446953
1230.000000	20.457370
1231.000000	20.466788
1232.000000	20.476402
1233.000000	20.509705
1234.000000	20.542578
1235.000000	20.576132
1236.000000	20.609760
1237.000000	20.641777
1238.000000	20.674663
1239.000000	20.707945
1240.000000	20.739558
1241.000000	20.772452
1242.000000	20.805500
1243.000000	20.814522
1244.000000	20.824272
1245.000000	20.833440
1246.000000	20.843508
1247.000000	20.856057
1248.000000	20.868303
1249.000000	20.880625
1250.000000	20.895328
1251.000000	20.910290
1252.000000	20.925700
1253.000000	20.940615
1254.000000	20.955730
1255.000000	20.971755
1256.000000	20.987390
1257.000000	21.027583
1258.000000	21.068005
1259.000000	21.108220
1260.000000	21.147707
1261.000000	21.186425
1262.000000	21.224495
1263.000000	21.263303
1264.000000	21.301527
1265.000000	21.339112
1266.000000	21.375860
1267.000000	21.387160
1268.000000	21.397530
1269.000000	21.407650
1270.000000	21.417245
1271.000000	21.426477
1272.000000	21.435185
1273.000000	21.442595
1274.000000	21.449302
1275.000000	21.456595
1276.000000	21.464500
1277.000000	21.471547
1278.000000	21.478955
1279.000000	21.486640
1280.000000	21.493175
1281.000000	21.500242
1282.000000	21.508447
1283.000000	21.517665
1284.000000	21.528123
1285.000000	21.538380
1286.000000	21.548328
1287.000000	21.558540
1288.000000	21.568603
1289.000000	21.579555
1290.000000	21.615990
1291.000000	21.652043
1292.000000	21.687600
1293.000000	21.721750
1294.000000	21.755543
1295.000000	21.790515
1296.000000	21.826270
1297.000000	21.862452
1298.000000	21.897960
1299.000000	21.932480
1300.000000	21.942170
1301.000000	21.952345
1302.000000	21.962255
1303.000000	21.972488
1304.000000	21.982408
1305.000000	21.991073
1306.000000	21.998287
1307.000000	22.004360
1308.000000	22.010870
1309.000000	22.017055
1310.000000	22.022260
1311.000000	22.026865
1312.000000	22.030738
1313.000000	22.033765
1314.000000	22.035675
1315.000000	22.036560
1316.000000	22.036673
1317.000000	22.036378
1318.000000	22.035643
1319.000000	22.034900
1320.000000	22.034375
1321.000000	22.032940
1322.000000	22.030707
1323.000000	22.028037
1324.000000	22.025420
1325.000000	22.022655
1326.000000	22.019620
1327.000000	22.016750
1328.000000	22.013108
1329.000000	22.007520
1330.000000	22.001650
1331.000000	21.995090
1332.000000	21.987585
1333.000000	21.979738
1334.000000	21.971100
1335.000000	21.961525
1336.000000	21.951147
1337.000000	21.915333
1338.000000	21.878960
1339.000000	21.841748
1340.000000	21.803675
1341.000000	21.765420
1342.000000	21.727417
1343.000000	21.688522
1344.000000	21.647620
1345.000000	21.604990
1346.000000	21.561605
1347.000000	21.543073
1348.000000	21.523807
1349.000000	21.503895
1350.000000	21.482903
1351.000000	21.460277
1352.000000	21.435325
1353.000000	21.411327
1354.000000	21.391655
1355.000000	21.351143
1356.000000	21.311535
1357.000000	21.268217
1358.000000	21.224555
1359.000000	21.180118
1360.000000	21.139035
1361.000000	21.107598
1362.000000	21.078605
1363.000000	21.045325
1364.000000	21.010170
1365.000000	20.971763
1366.000000	20.928620
1367.000000	20.888462
1368.000000	20.849162
1369.000000	20.806447
1370.000000	20.757035
1371.000000	20.672432
1372.000000	20.580503
1373.000000	20.481468
1374.000000	20.372072
1375.000000	20.279830
1376.000000	20.155470
1377.000000	20.021697
1378.000000	19.875228
1379.000000	19.725940
1380.000000	19.575648
1381.000000	19.455045
1382.000000	19.317927
1383.000000	19.194010
1384.000000	19.076802
1385.000000	18.965913
1386.000000	18.891213
1387.000000	18.829963
1388.000000	18.786767
1389.000000	18.750505
1390.000000	18.717062
1391.000000	18.683975
1392.000000	18.651853
1393.000000	18.617815
1394.000000	18.587557
1395.000000	18.569975
1396.000000	18.556245
1397.000000	18.531690
1398.000000	18.495635
1399.000000	18.464835
1400.000000	18.447095
1401.000000	18.424410
1402.000000	18.415803
1403.000000	18.401353
1404.000000	18.388587
1405.000000	18.364368
1406.000000	18.307713
1407.000000	18.256455
1408.000000	18.209845
1409.000000	18.159365
1410.000000	18.093645
1411.000000	18.022980
1412.000000	17.957528
1413.000000	17.897490
1414.000000	17.835363
1415.000000	17.745410
1416.000000	17.677780
1417.000000	17.609717
1418.000000	17.543482
1419.000000	17.476900
1420.000000	17.411837
1421.000000	17.348057
1422.000000	17.285798
1423.000000	17.224318
1424.000000	17.135170
1425.000000	17.071815
1426.000000	17.013985
1427.000000	16.958000
1428.000000	16.899922
1429.000000	16.839548
1430.000000	16.782042
1431.000000	16.730660
1432.000000	16.680820
1433.000000	16.628483
1434.000000	16.602350
1435.000000	16.577678
1436.000000	16.554828
1437.000000	16.531225
1438.000000	16.511615
1439.000000	16.468483
1440.000000	16.424855
1441.000000	16.380560
1442.000000	16.337822
1443.000000	16.295617
1444.000000	16.255492
1445.000000	16.218680
1446.000000	16.182257
1447.000000	16.143873
1448.000000	16.102635
1449.000000	16.088835
1450.000000	16.077410
1451.000000	16.066537
1452.000000	16.052867
1453.000000	16.041505
1454.000000	16.028920
1455.000000	16.014565
1456.000000	15.998650
1457.000000	15.985702
1458.000000	15.973605
1459.000000	15.960080
1460.000000	15.920215
1461.000000	15.879993
1462.000000	15.840663
1463.000000	15.800518
1464.000000	15.760330
1465.000000	15.719910
1466.000000	15.680447
1467.000000	15.640373
1468.000000	15.600290
1469.000000	15.561700
1470.000000	15.549038
1471.000000	15.536988
1472.000000	15.526177
1473.000000	15.514647
1474.000000	15.502337
1475.000000	15.490025
1476.000000	15.478830
1477.000000	15.469050
1478.000000	15.459040
1479.000000	15.450263
1480.000000	15.440410
1481.000000	15.430122
1482.000000	15.420413
1483.000000	15.411620
1484.000000	15.404892
1485.000000	15.398957
1486.000000	15.392087
1487.000000	15.385522
1488.000000	15.379877
1489.000000	15.372380
1490.000000	15.366228
1491.000000	15.361120
1492.000000	15.355322
1493.000000	15.350265
1494.000000	15.345240
1495.000000	15.341403
1496.000000	15.339200
1497.000000	15.337590
1498.000000	15.336535
1499.000000	15.337520
1500.000000	15.339915
1501.000000	15.343500
1502.000000	15.349282
1503.000000	15.356405
1504.000000	15.364735
1505.000000	15.374632
1506.000000	15.385345
1507.000000	15.396865
1508.000000	15.410295
1509.000000	15.424425
1510.000000	15.438973
1511.000000	15.453257
1512.000000	15.468408
1513.000000	15.484655
1514.000000	15.501408
1515.000000	15.517555
1516.000000	15.533685
1517.000000	15.550867
1518.000000	15.567342
1519.000000	15.583855
1520.000000	15.600252
1521.000000	15.617583
1522.000000	15.658798
1523.000000	15.699180
1524.000000	15.739892
1525.000000	15.780537
1526.000000	15.820770
1527.000000	15.860375
1528.000000	15.900110
1529.000000	15.939975
1530.000000	15.978658
1531.000000	16.016840
1532.000000	16.030432
1533.000000	16.043753
1534.000000	16.057560
1535.000000	16.071247
1536.000000	16.083492
1537.000000	16.094960
1538.000000	16.106035
1539.000000	16.116708
1540.000000	16.127723
1541.000000	16.137530
1542.000000	16.146707
1543.000000	16.156498
1544.000000	16.164820
1545.000000	16.172760
1546.000000	16.183185
1547.000000	16.194218
1548.000000	16.205217
1549.000000	16.241600
1550.000000	16.279305
1551.000000	16.318877
1552.000000	16.358990
1553.000000	16.398798
1554.000000	16.438467
1555.000000	16.478137
1556.000000	16.516615
1557.000000	16.554012
1558.000000	16.590888
1559.000000	16.601993
1560.000000	16.610993
1561.000000	16.617943
1562.000000	16.623947
1563.000000	16.628870
1564.000000	16.632910
1565.000000	16.635900
1566.000000	16.637495
1567.000000	16.638000
1568.000000	16.638017
1569.000000	16.637102
1570.000000	16.635615
1571.000000	16.633715
1572.000000	16.631392
1573.000000	16.629482
1574.000000	16.628383
1575.000000	16.627987
1576.000000	16.628270
1577.000000	16.630108
1578.000000	16.632570
1579.000000	16.635075
1580.000000	16.638750
1581.000000	16.643617
1582.000000	16.649363
1583.000000	16.655855
1584.000000	16.662698
1585.000000	16.669687
1586.000000	16.677475
1587.000000	16.685413
1588.000000	16.694925
1589.000000	16.705127
1590.000000	16.714723
1591.000000	16.725170
1592.000000	16.736487
1593.000000	16.747368
1594.000000	16.758070
1595.000000	16.769443
1596.000000	16.780820
1597.000000	16.816920
1598.000000	16.852548
1599.000000	16.889367
1600.000000	16.928018
1601.000000	16.965680
1602.000000	17.002942
1603.000000	17.040800
1604.000000	17.079702
1605.000000	17.118473
1606.000000	17.157842
1607.000000	17.172865
1608.000000	17.187213
1609.000000	17.201072
1610.000000	17.214620
1611.000000	17.228372
1612.000000	17.240945
1613.000000	17.252502
1614.000000	17.263040
1615.000000	17.272810
1616.000000	17.282297
1617.000000	17.291840
1618.000000	17.300622
1619.000000	17.308453
1620.000000	17.315278
1621.000000	17.322870
1622.000000	17.330217
1623.000000	17.337060
1624.000000	17.343860
1625.000000	17.376602
1626.000000	17.409152
1627.000000	17.441370
1628.000000	17.474485
1629.000000	17.508277
1630.000000	17.541315
1631.000000	17.573580
1632.000000	17.607150
1633.000000	17.641025
1634.000000	17.674140
1635.000000	17.681865
1636.000000	17.689168
1637.000000	17.695828
1638.000000	17.701360
1639.000000	17.706470
1640.000000	17.711593
1641.000000	17.716822
1642.000000	17.721488
1643.000000	17.725793
1644.000000	17.730070
1645.000000	17.733983
1646.000000	17.736883
1647.000000	17.739528
1648.000000	17.742775
1649.000000	17.745375
1650.000000	17.748330
1651.000000	17.749963
1652.000000	17.750655
1653.000000	17.751168
1654.000000	17.750243
1655.000000	17.747953
1656.000000	17.744090
1657.000000	17.738955
1658.000000	17.732948
1659.000000	17.723870
1660.000000	17.687942
1661.000000	17.650320
1662.000000	17.610967
1663.000000	17.568832
1664.000000	17.525552
1665.000000	17.480342
1666.000000	17.434673
1667.000000	17.387520
1668.000000	17.332678
1669.000000	17.277205
1670.000000	17.244260
1671.000000	17.209543
1672.000000	17.148508
1673.000000	17.087788
1674.000000	17.025855
1675.000000	16.962890
1676.000000	16.899090
1677.000000	16.833537
1678.000000	16.771975
1679.000000	16.709193
1680.000000	16.644880
1681.000000	16.554755
1682.000000	16.489892
1683.000000	16.422823
1684.000000	16.355767
1685.000000	16.288553
1686.000000	16.222660
1687.000000	16.160533
1688.000000	16.101095
1689.000000	16.047550
1690.000000	15.999932
1691.000000	15.981700
1692.000000	15.968363
1693.000000	15.961782
1694.000000	15.960323
1695.000000	15.963752
1696.000000	15.969560
1697.000000	15.976477
1698.000000	15.983475
1699.000000	15.990217
1700.000000	15.995735
1701.000000	16.001505
1702.000000	16.005375
1703.000000	16.006965
1704.000000	16.005970
1705.000000	16.003158
1706.000000	15.998565
1707.000000	15.967110
1708.000000	15.935025
1709.000000	15.898907
1710.000000	15.861173
1711.000000	15.819763
1712.000000	15.775478
1713.000000	15.727502
1714.000000	15.676640
1715.000000	15.622512
1716.000000	15.564750
1717.000000	15.529298
1718.000000	15.491733
1719.000000	15.454080
1720.000000	15.414337
1721.000000	15.352480
1722.000000	15.290687
1723.000000	15.233105
1724.000000	15.179110
1725.000000	15.129428
1726.000000	15.085075
1727.000000	15.045603
1728.000000	15.011820
1729.000000	14.983280
1730.000000	14.959703
1731.000000	14.963037
1732.000000	14.970607
1733.000000	14.979230
1734.000000	14.989730
1735.000000	15.001703
1736.000000	15.040183
1737.000000	15.080217
1738.000000	15.119262
1739.000000	15.157772
1740.000000	15.198095
1741.000000	15.239910
1742.000000	15.281345
1743.000000	15.323900
1744.000000	15.366477
1745.000000	15.408993
1746.000000	15.426378
1747.000000	15.443445
1748.000000	15.460142
1749.000000	15.476773
1750.000000	15.491628
1751.000000	15.504978
1752.000000	15.518000
1753.000000	15.528048
1754.000000	15.537360
1755.000000	15.544635
1756.000000	15.550425
1757.000000	15.554038
1758.000000	15.557112
1759.000000	15.559363
1760.000000	15.562107
1761.000000	15.563595
1762.000000	15.564775
1763.000000	15.567057
1764.000000	15.569535
1765.000000	15.573880
1766.000000	15.578995
1767.000000	15.584415
1768.000000	15.590983
1769.000000	15.597995
1770.000000	15.605517
1771.000000	15.639615
1772.000000	15.673803
1773.000000	15.707667
1774.000000	15.741835
1775.000000	15.776658
1776.000000	15.811950
1777.000000	15.847977
1778.000000	15.884612
1779.000000	15.920760
1780.000000	15.956365
1781.000000	15.966375
1782.000000	15.975045
1783.000000	15.983845
1784.000000	15.992470
1785.000000	15.999287
1786.000000	16.004515
1787.000000	16.008862
1788.000000	16.011515
1789.000000	16.013058
1790.000000	16.013692
1791.000000	16.014040
1792.000000	16.015397
1793.000000	16.017038
1794.000000	16.018273
1795.000000	16.020180
1796.000000	16.021603
1797.000000	16.022168
1798.000000	16.021790
1799.000000	16.021853
1800.000000	16.024687
1801.000000	16.030080
1802.000000	16.034515
1803.000000	16.036210
1804.000000	16.036737
1805.000000	16.038445
1806.000000	16.043375
1807.000000	16.048885
1808.000000	16.053050
1809.000000	16.054922
1810.000000	16.055325
1811.000000	16.055867
1812.000000	16.058015
1813.000000	16.061215
1814.000000	16.065458
1815.000000	16.069138
1816.000000	16.068503
1817.000000	16.062725
1818.000000	16.055242
1819.000000	16.053070
1820.000000	16.058242
1821.000000	16.067525
1822.000000	16.073952
1823.000000	16.073460
1824.000000	16.067352
1825.000000	16.058685
1826.000000	16.052840
1827.000000	16.054327
1828.000000	16.061452
1829.000000	16.067627
1830.000000	16.093925
1831.000000	16.113633
1832.000000	16.131288
1833.000000	16.150325
1834.000000	16.171703
1835.000000	16.197920
1836.000000	16.228630
1837.000000	16.260515
1838.000000	16.290188
1839.000000	16.318360
1840.000000	16.323033
1841.000000	16.335845
1842.000000	16.355720
1843.000000	16.373955
1844.000000	16.381393
1845.000000	16.375982
1846.000000	16.368480
1847.000000	16.372910
1848.000000	16.391433
1849.000000	16.408722
1850.000000	16.409845
1851.000000	16.393477
1852.000000	16.372895
1853.000000	16.362965
1854.000000	16.369265
1855.000000	16.384430
1856.000000	16.390395
1857.000000	16.377158
1858.000000	16.354008
1859.000000	16.335853
1860.000000	16.330275
1861.000000	16.332408
1862.000000	16.330280
1863.000000	16.317452
1864.000000	16.268318
1865.000000	16.211375
1866.000000	16.153883
1867.000000	16.095693
1868.000000	16.029580
1869.000000	15.961658
1870.000000	15.897422
1871.000000	15.836037
1872.000000	15.781415
1873.000000	15.734925
1874.000000	15.694020
1875.000000	15.658085
1876.000000	15.622950
1877.000000	15.586372
1878.000000	15.545680
1879.000000	15.469560
1880.000000	15.376048
1881.000000	15.270845
1882.000000	15.157222
1883.000000	15.013197
1884.000000	14.890675
1885.000000	14.762897
1886.000000	14.629313
1887.000000	14.487918
1888.000000	14.316320
1889.000000	14.167725
1890.000000	14.022842
1891.000000	13.880045
1892.000000	13.711290
1893.000000	13.561410
1894.000000	13.403435
1895.000000	13.212772
1896.000000	13.017257
1897.000000	12.822522
1898.000000	12.658222
1899.000000	12.472985
1900.000000	12.287323
1901.000000	12.098195
1902.000000	11.929453
1903.000000	11.761928
1904.000000	11.578363
1905.000000	11.433082
1906.000000	11.297285
1907.000000	11.166433
1908.000000	11.008838
1909.000000	10.869837
1910.000000	10.729477
1911.000000	10.593962
1912.000000	10.469105
1913.000000	10.354088
1914.000000	10.240105
1915.000000	10.123720
1916.000000	10.006317
1917.000000	9.888480
1918.000000	9.800945
1919.000000	9.724400
1920.000000	9.656412
1921.000000	9.593505
1922.000000	9.530672
1923.000000	9.465490
1924.000000	9.400945
1925.000000	9.337637
1926.000000	9.281210
1927.000000	9.232585
1928.000000	9.188442
1929.000000	9.146990
1930.000000	9.106222
1931.000000	9.064517
1932.000000	9.022690
1933.000000	8.983923
1934.000000	8.973457
1935.000000	8.965890
1936.000000	8.959447
1937.000000	8.954745
1938.000000	8.953160
1939.000000	8.952648
1940.000000	8.954005
1941.000000	8.957757
1942.000000	8.963500
1943.000000	8.970417
1944.000000	8.979252
1945.000000	8.990825
1946.000000	9.003972
1947.000000	9.017818
1948.000000	9.030655
1949.000000	9.043252
1950.000000	9.055450
1951.000000	9.069390
1952.000000	9.085770
1953.000000	9.101975
1954.000000	9.119790
1955.000000	9.138642
1956.000000	9.156740
1957.000000	9.199882
1958.000000	9.243850
1959.000000	9.287482
1960.000000	9.332070
1961.000000	9.377215
1962.000000	9.421492
1963.000000	9.467027
1964.000000	9.510752
1965.000000	9.553625
1966.000000	9.597383
1967.000000	9.614932
1968.000000	9.632785
1969.000000	9.649623
1970.000000	9.666147
1971.000000	9.682678
1972.000000	9.699660
1973.000000	9.715248
1974.000000	9.732708
1975.000000	9.748900
1976.000000	9.765112
1977.000000	9.782305
1978.000000	9.822870
1979.000000	9.864857
1980.000000	9.908075
1981.000000	9.924748
1982.000000	9.967392
1983.000000	10.010840
1984.000000	10.053482
1985.000000	10.096560
1986.000000	10.138923
1987.000000	10.181490
1988.000000	10.199675
1989.000000	10.217598
1990.000000	10.234537
1991.000000	10.276745
1992.000000	10.292475
1993.000000	10.308047
1994.000000	10.323660
1995.000000	10.338025
1996.000000	10.352942
1997.000000	10.367990
1998.000000	10.381308
1999.000000	10.394293
2000.000000	10.406903
2001.000000	10.443642
2002.000000	10.480410
2003.000000	10.516282
2004.000000	10.550630
2005.000000	10.585810
2006.000000	10.619103
2007.000000	10.651565
2008.000000	10.682680
2009.000000	10.712635
2010.000000	10.740030
2011.000000	10.741570
2012.000000	10.741578
2013.000000	10.740795
2014.000000	10.713487
2015.000000	10.709843
2016.000000	10.704660
2017.000000	10.698285
2018.000000	10.691487
2019.000000	10.682555
2020.000000	10.673745
2021.000000	10.663222
2022.000000	10.651620
2023.000000	10.638283
2024.000000	10.649328
2025.000000	10.633320
2026.000000	10.591785
2027.000000	10.547630
2028.000000	10.502715
2029.000000	10.457498
2030.000000	10.410393
2031.000000	10.363008
2032.000000	10.314463
2033.000000	10.265173
2034.000000	10.214187
2035.000000	10.163175
2036.000000	10.135255
2037.000000	10.106542
2038.000000	10.076375
2039.000000	10.044957
2040.000000	10.013642
2041.000000	9.980657
2042.000000	9.946257
2043.000000	9.910972
2044.000000	9.876138
2045.000000	9.815515
2046.000000	9.755535
2047.000000	9.696343
2048.000000	9.638932
2049.000000	9.583740
2050.000000	9.554403
2051.000000	9.502193
2052.000000	9.453945
2053.000000	9.409560
2054.000000	9.367430
2055.000000	9.354437
2056.000000	9.345097
2057.000000	9.339660
2058.000000	9.362885
2059.000000	9.389078
2060.000000	9.394615
2061.000000	9.403987
2062.000000	9.440138
2063.000000	9.478515
2064.000000	9.519613
2065.000000	9.562667
2066.000000	9.608503
2067.000000	9.655378
2068.000000	9.677178
2069.000000	9.698643
2070.000000	9.720423
2071.000000	9.767363
2072.000000	9.788410
2073.000000	9.808485
2074.000000	9.827977
2075.000000	9.846278
2076.000000	9.862362
2077.000000	9.877360
2078.000000	9.916487
2079.000000	9.954587
2080.000000	9.990667
2081.000000	10.025055
2082.000000	10.058763
2083.000000	10.090990
2084.000000	10.121070
2085.000000	10.149817
2086.000000	10.177487
2087.000000	10.203602
2088.000000	10.203428
2089.000000	10.201625
2090.000000	10.198835
2091.000000	10.195245
2092.000000	10.190710
2093.000000	10.186013
2094.000000	10.181365
2095.000000	10.175702
2096.000000	10.169652
2097.000000	10.164092
2098.000000	10.158480
2099.000000	10.153680
2100.000000	10.149268
2101.000000	10.145085
2102.000000	10.140947
2103.000000	10.136070
2104.000000	10.131050
2105.000000	10.126370
2106.000000	10.121670
2107.000000	10.116963
2108.000000	10.112370
2109.000000	10.106700
2110.000000	10.100103
2111.000000	10.118993
2112.000000	10.137925
2113.000000	10.131705
2114.000000	10.124730
2115.000000	10.117060
2116.000000	10.134320
2117.000000	10.126127
2118.000000	10.117548
2119.000000	10.109655
2120.000000	10.101107
2121.000000	10.065302
2122.000000	10.028910
2123.000000	10.043048
2124.000000	10.057762
2125.000000	10.071815
2126.000000	10.060208
2127.000000	10.047520
2128.000000	10.034207
2129.000000	10.020220
2130.000000	10.006638
2131.000000	9.992480
2132.000000	9.977700
2133.000000	9.936467
2134.000000	9.894102
2135.000000	9.851645
2136.000000	9.808455
2137.000000	9.789360
2138.000000	9.769695
2139.000000	9.749425
2140.000000	9.727512
2141.000000	9.705725
2142.000000	9.684360
2143.000000	9.662690
2144.000000	9.640285
2145.000000	9.617450
2146.000000	9.569037
2147.000000	9.521023
2148.000000	9.472338
2149.000000	9.424435
2150.000000	9.377128
2151.000000	9.330052
2152.000000	9.282265
2153.000000	9.234547
2154.000000	9.187807
2155.000000	9.141282
2156.000000	9.119885
2157.000000	9.099780
2158.000000	9.081385
2159.000000	9.038032
2160.000000	9.020067
2161.000000	9.002908
2162.000000	8.962318
2163.000000	8.923375
2164.000000	8.885298
2165.000000	8.848422
2166.000000	8.812455
2167.000000	8.776990
2168.000000	8.741972
2169.000000	8.731245
2170.000000	8.696340
2171.000000	8.661867
2172.000000	8.653715
2173.000000	8.645372
2174.000000	8.635917
2175.000000	8.627085
2176.000000	8.619210
2177.000000	8.586078
2178.000000	8.552485
2179.000000	8.519530
2180.000000	8.486760
2181.000000	8.453430
2182.000000	8.418360
2183.000000	8.382795
2184.000000	8.347585
2185.000000	8.310308
2186.000000	8.271117
2187.000000	8.254450
2188.000000	8.236168
2189.000000	8.216110
2190.000000	8.193867
2191.000000	8.169217
2192.000000	8.116475
2193.000000	8.060422
2194.000000	8.002022
2195.000000	7.916570
2196.000000	7.853603
2197.000000	7.763475
2198.000000	7.671053
2199.000000	7.577075
2200.000000	7.482795
2201.000000	7.388595
2202.000000	7.320418
2203.000000	7.254300
2204.000000	7.164987
2205.000000	7.102398
2206.000000	7.018625
2207.000000	6.964270
2208.000000	6.914905
2209.000000	6.869777
2210.000000	6.829358
2211.000000	6.793732
2212.000000	6.762185
2213.000000	6.735835
2214.000000	6.739312
2215.000000	6.747443
2216.000000	6.784480
2217.000000	6.824892
2218.000000	6.867595
2219.000000	6.888875
2220.000000	6.911047
2221.000000	6.959933
2222.000000	7.009952
2223.000000	7.060393
2224.000000	7.110210
2225.000000	7.159710
2226.000000	7.182943
2227.000000	7.206265
2228.000000	7.227787
2229.000000	7.272260
2230.000000	7.315387
2231.000000	7.331532
2232.000000	7.345970
2233.000000	7.357453
2234.000000	7.366760
2235.000000	7.374902
2236.000000	7.380458
2237.000000	7.383097
2238.000000	7.384645
2239.000000	7.384060
2240.000000	7.406200
2241.000000	7.425758
2242.000000	7.419338
2243.000000	7.410980
2244.000000	7.402100
2245.000000	7.391118
2246.000000	7.404223
2247.000000	7.415623
2248.000000	7.426075
2249.000000	7.435285
2250.000000	7.394575
2251.000000	7.354323
2252.000000	7.336855
2253.000000	7.344678
2254.000000	7.352210
2255.000000	7.360053
2256.000000	7.317967
2257.000000	7.276637
2258.000000	7.261000
2259.000000	7.246435
2260.000000	7.257270
2261.000000	7.268842
2262.000000	7.281845
2263.000000	7.271175
2264.000000	7.261545
2265.000000	7.254138
2266.000000	7.272288
2267.000000	7.292780
2268.000000	7.290082
2269.000000	7.289888
2270.000000	7.290457
2271.000000	7.291795
2272.000000	7.295407
2273.000000	7.299292
2274.000000	7.303195
2275.000000	7.306422
2276.000000	7.312030
2277.000000	7.316440
2278.000000	7.319380
2279.000000	7.321995
2280.000000	7.324510
2281.000000	7.352645
2282.000000	7.380100
2283.000000	7.382465
2284.000000	7.385025
2285.000000	7.412448
2286.000000	7.438455
2287.000000	7.464847
2288.000000	7.492335
2289.000000	7.519110
2290.000000	7.546157
2291.000000	7.547017
2292.000000	7.548255
2293.000000	7.575120
2294.000000	7.602182
2295.000000	7.604358
2296.000000	7.607265
2297.000000	7.635813
2298.000000	7.638663
2299.000000	7.641450
2300.000000	7.645708
2301.000000	7.676260
2302.000000	7.706900
2303.000000	7.738367
2304.000000	7.770270
2305.000000	7.778240
2306.000000	7.810887
2307.000000	7.818763
2308.000000	7.853455
2309.000000	7.888023
2310.000000	7.921818
2311.000000	7.955845
2312.000000	7.990412
2313.000000	8.024287
2314.000000	8.057820
2315.000000	8.115787
2316.000000	8.148777
2317.000000	8.180708
2318.000000	8.186120
2319.000000	8.191260
2320.000000	8.220560
2321.000000	8.223840
2322.000000	8.225577
2323.000000	8.225812
2324.000000	8.225200
2325.000000	8.223410
2326.000000	8.220415
2327.000000	8.241758
2328.000000	8.287813
2329.000000	8.309225
2330.000000	8.305165
2331.000000	8.300455
2332.000000	8.295388
2333.000000	8.291270
2334.000000	8.288417
2335.000000	8.311198
2336.000000	8.334810
2337.000000	8.334553
2338.000000	8.334183
2339.000000	8.358213
2340.000000	8.383020
2341.000000	8.408590
2342.000000	8.460353
2343.000000	8.487325
2344.000000	8.537323
2345.000000	8.536798
2346.000000	8.537947
2347.000000	8.540765
2348.000000	8.545955
2349.000000	8.552995
2350.000000	8.584040
2351.000000	8.610750
2352.000000	8.583913
2353.000000	8.582438
2354.000000	8.558753
2355.000000	8.561267
2356.000000	8.563472
2357.000000	8.564842
2358.000000	8.564415
2359.000000	8.587772
2360.000000	8.586932
2361.000000	8.589950
2362.000000	8.621018
2363.000000	8.651388
2364.000000	8.680428
2365.000000	8.708983
2366.000000	8.735972
2367.000000	8.761913
2368.000000	8.787700
2369.000000	8.788593
2370.000000	8.790157
2371.000000	8.792205
2372.000000	8.794137
2373.000000	8.796218
2374.000000	8.798493
2375.000000	8.775995
2376.000000	8.778965
2377.000000	8.806625
2378.000000	8.834767
2379.000000	8.862607
2380.000000	8.863730
2381.000000	8.864305
2382.000000	8.865248
2383.000000	8.866198
2384.000000	8.866485
2385.000000	8.891012
2386.000000	8.889870
2387.000000	8.863047
2388.000000	8.835442
2389.000000	8.807258
2390.000000	8.830467
2391.000000	8.853518
2392.000000	8.875165
2393.000000	8.896385
2394.000000	8.917020
2395.000000	8.937318
2396.000000	8.982068
2397.000000	9.001423
2398.000000	8.994888
2399.000000	9.013630
2400.000000	9.005987
2401.000000	8.997475
2402.000000	8.989335
2403.000000	8.981133
2404.000000	8.971980
2405.000000	8.962267
2406.000000	8.927550
2407.000000	8.917610
2408.000000	8.933067
2409.000000	8.921775
2410.000000	8.934393
2411.000000	8.923025
2412.000000	8.936310
2413.000000	8.947933
2414.000000	8.934788
2415.000000	8.946632
2416.000000	8.981323
2417.000000	9.014653
2418.000000	9.021527
2419.000000	9.003522
2420.000000	8.960938
2421.000000	8.942128
2422.000000	8.897073
2423.000000	8.877142
2424.000000	8.856322
2425.000000	8.809507
2426.000000	8.764020
2427.000000	8.719485
2428.000000	8.699615
2429.000000	8.679208
2430.000000	8.658783
2431.000000	8.662937
2432.000000	8.667130
2433.000000	8.621040
2434.000000	8.625138
2435.000000	8.628655
2436.000000	8.607215
2437.000000	8.585913
2438.000000	8.564733
2439.000000	8.568750
2440.000000	8.597510
2441.000000	8.601920
2442.000000	8.604952
2443.000000	8.632437
2444.000000	8.611275
2445.000000	8.590030
2446.000000	8.568885
2447.000000	8.571272
2448.000000	8.574425
2449.000000	8.628283
2450.000000	8.657275
2451.000000	8.685728
2452.000000	8.716147
2453.000000	8.722690
2454.000000	8.754527
2455.000000	8.812050
2456.000000	8.895065
2457.000000	8.904565
2458.000000	8.964678
2459.000000	8.924542
2460.000000	8.884562
2461.000000	8.894327
2462.000000	8.854150
2463.000000	8.889810
2464.000000	8.974827
2465.000000	9.061407
2466.000000	9.074405
2467.000000	9.163642
2468.000000	9.227912
2469.000000	9.368022
2470.000000	9.509553
2471.000000	9.626963
2472.000000	9.770127
2473.000000	9.887340
2474.000000	9.955960
2475.000000	10.000732
2476.000000	9.996175
2477.000000	10.138608
2478.000000	10.282323
2479.000000	10.378305
2480.000000	10.526675
2481.000000	10.650125
2482.000000	10.798400
2483.000000	10.923825
2484.000000	11.048725
2485.000000	11.173245
2486.000000	11.422315
2487.000000	11.525960
2488.000000	11.578225
2489.000000	11.704180
2490.000000	11.851445
2491.000000	12.001907
2492.000000	12.131685
2493.000000	12.356970
2494.000000	12.586807
2495.000000	12.793212
2496.000000	13.045910
2497.000000	13.227822
2498.000000	13.436580
2499.000000	13.598268
2500.000000	13.737600
2501.000000	17.234198
2502.000000	21.152495
2503.000000	24.874760
2504.000000	29.092598
2505.000000	33.533698
2506.000000	37.803252
2507.000000	41.917388
2508.000000	46.030635
2509.000000	50.540840
2510.000000	55.200000
2511.000000	56.500000
2512.000000	57.200000
2513.000000	58.100000
2514.000000	58.400000
2515.000000	58.600000
2516.000000	58.900000
2517.000000	59.300000
2518.000000	60.300000
2519.000000	61.000000
2520.000000	61.800000
2521.000000	62.500000
2522.000000	63.700000
2523.000000	64.900000
2524.000000	66.300000
2525.000000	67.400000
2526.000000	68.500000
2527.000000	69.300000
2528.000000	69.600000
2529.000000	70.400000
2530.000000	70.900000
2531.000000	72.000000
2532.000000	72.700000
2533.000000	73.100000
2534.000000	73.700000
2535.000000	74.400000
2536.000000	75.600000
2537.000000	77.700000
2538.000000	78.800000
2539.000000	79.100000
2540.000000	79.100000
2541.000000	79.200000
2542.000000	79.800000
2543.000000	80.900000
2544.000000	81.700000
2545.000000	82.700000
2546.000000	83.700000
2547.000000	84.000000
2548.000000	85.700000
2549.000000	87.600000
2550.000000	89.100000
2551.000000	89.500000
2552.000000	89.700000
2553.000000	89.400000
2554.000000	89.800000
2555.000000	90.300000
2556.000000	90.100000
2557.000000	90.100000
2558.000000	90.100000
2559.000000	90.200000
2560.000000	90.700000
2561.000000	91.900000
2562.000000	92.900000
2563.000000	93.700000
2564.000000	93.000000
2565.000000	92.200000
2566.000000	91.400000
2567.000000	91.000000
2568.000000	90.200000
2569.000000	89.600000
2570.000000	89.600000
2571.000000	89.600000
2572.000000	89.600000
2573.000000	90.300000
2574.000000	92.300000
2575.000000	94.200000
2576.000000	96.000000
2577.000000	96.700000
2578.000000	97.300000
2579.000000	97.000000
2580.000000	96.500000
2581.000000	96.400000
2582.000000	97.200000
2583.000000	97.800000
2584.000000	97.700000
2585.000000	98.000000
2586.000000	98.500000
2587.000000	99.800000
2588.000000	100.600000
2589.000000	101.500000
2590.000000	102.400000
2591.000000	102.300000
2592.000000	101.300000
2593.000000	100.200000
2594.000000	98.900000
2595.000000	97.700000
2596.000000	97.100000
2597.000000	96.400000
2598.000000	96.600000
2599.000000	98.200000
2600.000000	99.200000
2601.000000	99.400000
2602.000000	99.800000
2603.000000	100.200000
2604.000000	100.600000
2605.000000	100.200000
2606.000000	99.400000
2607.000000	99.200000
2608.000000	98.700000
2609.000000	97.800000
2610.000000	97.700000
2611.000000	98.300000
2612.000000	98.800000
2613.000000	99.200000
2614.000000	99.700000
2615.000000	100.200000
2616.000000	100.400000
2617.000000	99.700000
2618.000000	98.900000
2619.000000	97.700000
2620.000000	96.200000
2621.000000	95.400000
2622.000000	95.000000
2623.000000	95.300000
2624.000000	95.400000
2625.000000	96.000000
2626.000000	96.600000
2627.000000	97.200000
2628.000000	97.800000
2629.000000	98.600000
2630.000000	98.600000
2631.000000	98.500000
2632.000000	98.000000
2633.000000	97.100000
2634.000000	97.200000
2635.000000	97.500000
2636.000000	97.500000
2637.000000	97.400000
2638.000000	97.700000
2639.000000	98.200000
2640.000000	99.300000
2641.000000	99.900000
2642.000000	100.000000
2643.000000	99.600000
2644.000000	99.100000
2645.000000	97.600000
2646.000000	96.900000
2647.000000	97.100000
2648.000000	96.900000
2649.000000	96.700000
2650.000000	97.200000
2651.000000	97.500000
2652.000000	98.600000
2653.000000	99.400000
2654.000000	99.100000
2655.000000	99.800000
2656.000000	100.500000
2657.000000	99.800000
2658.000000	99.000000
2659.000000	98.000000
2660.000000	96.400000
2661.000000	95.400000
2662.000000	94.600000
2663.000000	94.400000
2664.000000	95.300000
2665.000000	96.600000
2666.000000	97.500000
2667.000000	99.200000
2668.000000	101.000000
2669.000000	101.200000
2670.000000	101.300000
2671.000000	101.200000
2672.000000	100.900000
2673.000000	101.200000
2674.000000	101.200000
2675.000000	100.100000
2676.000000	99.000000
2677.000000	98.700000
2678.000000	97.500000
2679.000000	97.800000
2680.000000	99.100000
2681.000000	100.100000
2682.000000	100.100000
2683.000000	100.000000
2684.000000	99.400000
2685.000000	99.900000
2686.000000	100.500000
2687.000000	100.400000
2688.000000	100.000000
2689.000000	100.100000
2690.000000	99.000000
2691.000000	98.900000
2692.000000	99.200000
2693.000000	99.000000
2694.000000	100.200000
2695.000000	100.400000
2696.000000	100.300000
2697.000000	99.600000
2698.000000	100.700000
2699.000000	101.100000
2700.000000	101.600000
2701.000000	101.200000
2702.000000	100.900000
2703.000000	100.400000
2704.000000	98.900000
2705.000000	98.200000
2706.000000	98.500000
2707.000000	98.400000
2708.000000	98.300000
2709.000000	97.500000
2710.000000	97.800000
2711.000000	98.200000
2712.000000	98.700000
2713.000000	99.500000
2714.000000	99.900000
2715.000000	100.200000
2716.000000	99.700000
2717.000000	99.100000
2718.000000	98.000000
2719.000000	98.300000
2720.000000	98.400000
2721.000000	97.800000
2722.000000	98.700000
2723.000000	99.800000
2724.000000	100.600000
2725.000000	101.100000
2726.000000	102.200000
2727.000000	103.000000
2728.000000	102.800000
2729.000000	102.300000
2730.000000	101.500000
2731.000000	102.200000
2732.000000	100.700000
2733.000000	98.700000
2734.000000	98.700000
2735.000000	99.200000
2736.000000	98.500000
2737.000000	98.500000
2738.000000	100.400000
2739.000000	101.500000
2740.000000	102.000000
2741.000000	102.000000
2742.000000	102.200000
2743.000000	102.400000
2744.000000	102.000000
2745.000000	101.100000
2746.000000	100.300000
2747.000000	100.600000
2748.000000	100.200000
2749.000000	99.600000
2750.000000	99.300000
2751.000000	98.900000
2752.000000	99.700000
2753.000000	100.400000
2754.000000	100.500000
2755.000000	99.700000
2756.000000	99.700000
2757.000000	99.600000
2758.000000	98.000000
2759.000000	98.200000
2760.000000	98.500000
2761.000000	98.900000
2762.000000	98.600000
2763.000000	98.700000
2764.000000	98.300000
2765.000000	99.400000
2766.000000	99.100000
2767.000000	98.800000
2768.000000	99.900000
2769.000000	99.600000
2770.000000	99.400000
2771.000000	98.900000
2772.000000	99.200000
2773.000000	99.700000
2774.000000	99.600000
2775.000000	99.700000
2776.000000	100.400000
2777.000000	101.000000
2778.000000	101.000000
2779.000000	101.000000
2780.000000	100.600000
2781.000000	100.000000
2782.000000	98.700000
2783.000000	97.900000
2784.000000	98.900000
2785.000000	97.800000
2786.000000	98.100000
2787.000000	98.500000
2788.000000	98.200000
2789.000000	99.000000
2790.000000	99.000000
2791.000000	100.000000
2792.000000	100.800000
2793.000000	100.600000
2794.000000	99.600000
2795.000000	99.500000
2796.000000	98.600000
2797.000000	97.600000
2798.000000	97.700000
2799.000000	97.600000
2800.000000	99.100000
2801.000000	99.500000
2802.000000	99.400000
2803.000000	99.500000
2804.000000	100.100000
2805.000000	100.100000
2806.000000	99.400000
2807.000000	99.300000
2808.000000	99.400000
2809.000000	99.300000
2810.000000	99.100000
2811.000000	99.200000
2812.000000	99.200000
2813.000000	99.100000
2814.000000	98.900000
2815.000000	98.900000
2816.000000	100.000000
2817.000000	100.300000
2818.000000	100.000000
2819.000000	99.400000
2820.000000	97.700000
2821.000000	97.400000
2822.000000	97.900000
2823.000000	97.700000
2824.000000	97.400000
2825.000000	98.000000
2826.000000	98.100000
2827.000000	97.700000
2828.000000	97.800000
2829.000000	97.500000
2830.000000	97.800000
2831.000000	97.500000
2832.000000	96.800000
2833.000000	97.200000
2834.000000	97.100000
2835.000000	96.900000
2836.000000	97.600000
2837.000000	98.500000
2838.000000	98.800000
2839.000000	98.500000
2840.000000	98.200000
2841.000000	97.400000
2842.000000	96.900000
2843.000000	97.000000
2844.000000	97.500000
2845.000000	98.300000
2846.000000	98.300000
2847.000000	97.900000
2848.000000	97.800000
2849.000000	98.600000
2850.000000	99.000000
2851.000000	99.200000
2852.000000	99.400000
2853.000000	98.800000
2854.000000	98.100000
2855.000000	97.300000
2856.000000	96.500000
2857.000000	96.200000
2858.000000	95.900000
2859.000000	95.600000
2860.000000	96.300000
2861.000000	96.900000
2862.000000	97.300000
2863.000000	97.400000
2864.000000	97.200000
2865.000000	96.600000
2866.000000	96.500000
2867.000000	97.100000
2868.000000	98.000000
2869.000000	99.100000
2870.000000	99.100000
2871.000000	99.000000
2872.000000	98.900000
2873.000000	98.900000
2874.000000	99.100000
2875.000000	99.100000
2876.000000	98.600000
2877.000000	97.900000
2878.000000	97.200000
2879.000000	96.600000
2880.000000	96.800000
2881.000000	97.500000
2882.000000	98.100000
2883.000000	98.700000
2884.000000	99.300000
2885.000000	99.700000
2886.000000	100.200000
2887.000000	100.400000
2888.000000	100.400000
2889.000000	99.300000
2890.000000	98.700000
2891.000000	98.600000
2892.000000	98.700000
2893.000000	98.500000
2894.000000	98.300000
2895.000000	98.500000
2896.000000	97.800000
2897.000000	97.200000
2898.000000	96.900000
2899.000000	97.600000
2900.000000	98.000000
2901.000000	97.500000
2902.000000	97.500000
2903.000000	98.100000
2904.000000	98.300000
2905.000000	99.300000
2906.000000	101.100000
2907.000000	101.300000
2908.000000	101.700000
2909.000000	101.600000
2910.000000	100.600000
2911.000000	100.700000
2912.000000	99.900000
2913.000000	99.300000
2914.000000	100.200000
2915.000000	99.400000
2916.000000	98.200000
2917.000000	98.600000
2918.000000	98.800000
2919.000000	98.500000
2920.000000	98.200000
2921.000000	97.600000
2922.000000	97.800000
2923.000000	98.200000
2924.000000	97.300000
2925.000000	97.700000
2926.000000	97.800000
2927.000000	97.800000
2928.000000	98.100000
2929.000000	98.400000
2930.000000	98.400000
2931.000000	98.200000
2932.000000	98.500000
2933.000000	98.500000
2934.000000	98.700000
2935.000000	99.000000
2936.000000	99.900000
2937.000000	100.500000
2938.000000	100.100000
2939.000000	99.900000
2940.000000	100.000000
2941.000000	100.100000
2942.000000	99.300000
2943.000000	98.500000
2944.000000	98.500000
2945.000000	98.000000
2946.000000	97.200000
2947.000000	97.100000
2948.000000	97.800000
2949.000000	98.000000
2950.000000	99.100000
2951.000000	98.900000
2952.000000	99.200000
2953.000000	99.900000
2954.000000	99.200000
2955.000000	98.800000
2956.000000	99.300000
2957.000000	99.300000
2958.000000	99.400000
2959.000000	100.200000
2960.000000	99.400000
2961.000000	100.400000
2962.000000	100.600000
2963.000000	100.300000
2964.000000	100.700000
2965.000000	101.000000
2966.000000	100.300000
2967.000000	100.000000
2968.000000	99.600000
2969.000000	99.500000
2970.000000	100.600000
2971.000000	100.800000
2972.000000	100.500000
2973.000000	100.700000
2974.000000	100.500000
2975.000000	99.600000
2976.000000	100.400000
2977.000000	101.500000
2978.000000	101.400000
2979.000000	101.400000
2980.000000	101.000000
2981.000000	100.200000
2982.000000	100.400000
2983.000000	99.800000
2984.000000	99.300000
2985.000000	99.500000
2986.000000	99.600000
2987.000000	99.100000
2988.000000	98.900000
2989.000000	99.200000
2990.000000	98.900000
2991.000000	99.300000
2992.000000	98.400000
2993.000000	98.700000
2994.000000	97.900000
2995.000000	97.700000
2996.000000	96.600000
2997.000000	96.300000
2998.000000	97.800000
2999.000000	96.800000
3000.000000	96.700000
