PE UV       SUBTECH     SPECTRUM    ASCII       PEDS        4.00        
   -1
INBUCR0112-5.Sample.ASC
24/02/12
13:04:26.00
24/02/12
13:04:26.00
Vinicio Soto Monge
Strigidia belti. Color verde oscuro metálico sin élitro derecho COSTA RICA Prov. Alajuela. Guatuso. P.N V. Tenorio. Laguna La Carmela Finca Juan Jarquín. 700-800 m. 25 ABR 2009. J.A Azofeifa. Tp. Luz Mercurio L_N_298300_425900 #96550 INB0004211063 
250,000000
1
Lambda 1050
1050L1511233
PerkinElmer UV WinLab 6.3.2.0749 / 2.02.05 Lambda 900 UV/VIS/NIR, Aug  7 2015 09:38:08

0
0
3350/servo 860,8/2
0
0
UV/VIS
1
1
1
DoubleDePol,CommonBeamDepol,RBeamAtt,SBeamAtt,60mm sphere, WB InGaAs Detector
0
0
0
0
Program
Program
3350/servo 860,8/2
3350/0,2 860,8/0,2
3350/0,2 860,8/0,2
0
15.00
 
 
 
0
 
860,8
150
860,8
Front
100
on
S:100 R:100
0
0
0
0
 
0
 
 
 
0
 
 
0
0
0
0
0
 
 
 
 
0
0


0
0
#HDR
-1
-1
#GR
nm
%R
1.0
0.0
2500,000000
-1,000000
2251
8
21,717400
1,582400
#DATA

250.000000	nan
251.000000	nan
252.000000	nan
253.000000	nan
254.000000	nan
255.000000	nan
256.000000	nan
257.000000	nan
258.000000	nan
259.000000	4.856887
260.000000	4.847382
261.000000	4.818878
262.000000	4.794054
263.000000	4.775603
264.000000	4.757895
265.000000	4.754268
266.000000	4.720264
267.000000	4.637257
268.000000	4.607035
269.000000	4.567813
270.000000	4.508058
271.000000	4.451728
272.000000	4.400669
273.000000	4.350759
274.000000	4.324509
275.000000	4.260669
276.000000	4.216997
277.000000	4.203128
278.000000	4.190851
279.000000	4.181231
280.000000	4.206183
281.000000	4.240410
282.000000	4.264549
283.000000	4.287016
284.000000	4.281616
285.000000	4.311459
286.000000	4.341609
287.000000	4.376447
288.000000	4.371549
289.000000	4.364718
290.000000	4.359591
291.000000	4.352131
292.000000	4.347730
293.000000	4.346579
294.000000	4.348855
295.000000	4.347215
296.000000	4.344592
297.000000	4.341829
298.000000	4.344685
299.000000	4.341922
300.000000	4.339736
301.000000	4.344874
302.000000	4.345525
303.000000	4.345631
304.000000	4.344019
305.000000	4.344313
306.000000	4.342833
307.000000	4.342962
308.000000	4.338927
309.000000	4.342822
310.000000	4.344139
311.000000	4.344974
312.000000	4.347747
313.000000	4.350962
314.000000	4.353983
315.000000	4.357038
316.000000	4.362339
317.000000	4.413193
318.000000	4.452104
319.000000	4.492757
320.000000	4.547823
321.000000	4.586544
322.000000	4.611768
323.000000	4.633268
324.000000	4.649511
325.000000	4.676581
326.000000	4.697355
327.000000	4.672783
328.000000	4.657643
329.000000	4.642615
330.000000	4.616065
331.000000	4.598351
332.000000	4.592058
333.000000	4.579518
334.000000	4.577115
335.000000	4.567720
336.000000	4.560614
337.000000	4.543622
338.000000	4.533602
339.000000	4.527662
340.000000	4.512390
341.000000	4.496350
342.000000	4.477632
343.000000	4.474259
344.000000	4.469635
345.000000	4.460644
346.000000	4.455205
347.000000	4.460484
348.000000	4.458331
349.000000	4.450700
350.000000	4.441395
351.000000	4.440518
352.000000	4.444978
353.000000	4.445855
354.000000	4.438720
355.000000	4.433104
356.000000	4.425416
357.000000	4.417120
358.000000	4.415017
359.000000	4.407669
360.000000	4.409076
361.000000	4.407925
362.000000	4.400572
363.000000	4.392863
364.000000	4.388997
365.000000	4.388747
366.000000	4.383970
367.000000	4.380429
368.000000	4.370472
369.000000	4.364696
370.000000	4.358054
371.000000	4.346748
372.000000	4.334517
373.000000	4.318348
374.000000	4.300361
375.000000	4.278971
376.000000	4.273277
377.000000	4.259788
378.000000	4.251567
379.000000	4.241197
380.000000	4.230409
381.000000	4.224269
382.000000	4.223535
383.000000	4.226532
384.000000	4.232522
385.000000	4.237099
386.000000	4.229707
387.000000	4.229018
388.000000	4.228645
389.000000	4.227585
390.000000	4.226526
391.000000	4.225831
392.000000	4.225853
393.000000	4.225220
394.000000	4.224495
395.000000	4.224227
396.000000	4.223934
397.000000	4.223396
398.000000	4.222846
399.000000	4.222609
400.000000	4.222374
401.000000	4.222051
402.000000	4.221579
403.000000	4.221083
404.000000	4.220761
405.000000	4.220039
406.000000	4.219622
407.000000	4.219470
408.000000	4.219104
409.000000	4.218727
410.000000	4.218705
411.000000	4.218370
412.000000	4.217910
413.000000	4.217684
414.000000	4.216929
415.000000	4.216383
416.000000	4.216369
417.000000	4.215971
418.000000	4.215687
419.000000	4.215480
420.000000	4.214925
421.000000	4.214773
422.000000	4.214693
423.000000	4.214415
424.000000	4.214699
425.000000	4.214764
426.000000	4.214233
427.000000	4.213961
428.000000	4.213590
429.000000	4.213375
430.000000	4.213504
431.000000	4.213376
432.000000	4.213011
433.000000	4.212899
434.000000	4.212853
435.000000	4.212852
436.000000	4.212846
437.000000	4.212808
438.000000	4.212758
439.000000	4.212712
440.000000	4.212602
441.000000	4.212557
442.000000	4.212399
443.000000	4.212041
444.000000	4.211548
445.000000	4.211160
446.000000	4.211147
447.000000	4.211110
448.000000	4.211393
449.000000	4.211798
450.000000	4.211785
451.000000	4.211501
452.000000	4.211399
453.000000	4.211316
454.000000	4.211308
455.000000	4.211145
456.000000	4.210751
457.000000	4.210625
458.000000	4.210366
459.000000	4.209778
460.000000	4.209428
461.000000	4.209453
462.000000	4.209536
463.000000	4.209605
464.000000	4.209795
465.000000	4.210028
466.000000	4.210193
467.000000	4.210377
468.000000	4.210466
469.000000	4.210565
470.000000	4.210648
471.000000	4.210594
472.000000	4.210510
473.000000	4.210354
474.000000	4.209879
475.000000	4.209298
476.000000	4.208693
477.000000	4.207742
478.000000	4.206842
479.000000	4.205863
480.000000	4.204419
481.000000	4.202707
482.000000	4.200830
483.000000	4.199026
484.000000	4.197448
485.000000	4.196243
486.000000	4.195486
487.000000	4.195203
488.000000	4.195246
489.000000	4.226970
490.000000	4.259381
491.000000	4.292528
492.000000	4.326200
493.000000	4.360249
494.000000	4.394224
495.000000	4.428277
496.000000	4.462382
497.000000	4.496471
498.000000	4.530752
499.000000	4.533784
500.000000	4.537094
501.000000	4.540451
502.000000	4.543991
503.000000	4.547699
504.000000	4.551818
505.000000	4.556272
506.000000	4.561330
507.000000	4.566962
508.000000	4.572924
509.000000	4.579767
510.000000	4.587513
511.000000	4.596422
512.000000	4.606460
513.000000	4.618059
514.000000	4.631460
515.000000	4.646692
516.000000	4.663847
517.000000	4.683397
518.000000	4.705673
519.000000	4.730520
520.000000	4.758253
521.000000	4.789120
522.000000	4.823551
523.000000	4.861480
524.000000	4.934280
525.000000	5.010586
526.000000	5.090701
527.000000	5.174636
528.000000	5.262497
529.000000	5.354093
530.000000	5.448851
531.000000	5.578497
532.000000	5.711166
533.000000	5.846544
534.000000	5.952840
535.000000	6.061298
536.000000	6.202262
537.000000	6.344021
538.000000	6.485525
539.000000	6.626620
540.000000	6.798630
541.000000	6.937276
542.000000	7.073780
543.000000	7.206906
544.000000	7.336587
545.000000	7.461807
546.000000	7.582420
547.000000	7.697386
548.000000	7.806558
549.000000	7.909319
550.000000	7.973477
551.000000	8.030350
552.000000	8.079152
553.000000	8.120167
554.000000	8.152552
555.000000	8.176376
556.000000	8.160065
557.000000	8.135166
558.000000	8.102056
559.000000	8.060673
560.000000	8.004024
561.000000	7.907197
562.000000	7.803233
563.000000	7.693602
564.000000	7.578861
565.000000	7.460192
566.000000	7.307661
567.000000	7.154038
568.000000	7.000202
569.000000	6.847663
570.000000	6.673999
571.000000	6.537247
572.000000	6.406530
573.000000	6.282008
574.000000	6.165353
575.000000	6.057397
576.000000	5.958376
577.000000	5.868851
578.000000	5.789043
579.000000	5.718643
580.000000	5.689043
581.000000	5.667663
582.000000	5.653722
583.000000	5.677942
584.000000	5.707737
585.000000	5.741784
586.000000	5.809790
587.000000	5.878686
588.000000	5.947354
589.000000	6.014331
590.000000	6.109558
591.000000	6.200870
592.000000	6.287274
593.000000	6.336442
594.000000	6.378710
595.000000	6.414722
596.000000	6.444248
597.000000	6.467800
598.000000	6.485145
599.000000	6.497632
600.000000	6.474644
601.000000	6.448761
602.000000	6.389403
603.000000	6.329398
604.000000	6.270276
605.000000	6.212579
606.000000	6.157552
607.000000	6.106033
608.000000	6.059716
609.000000	6.018027
610.000000	5.981801
611.000000	5.950872
612.000000	5.956640
613.000000	5.968073
614.000000	5.984003
615.000000	6.003399
616.000000	6.026116
617.000000	6.051005
618.000000	6.076578
619.000000	6.134255
620.000000	6.191174
621.000000	6.246240
622.000000	6.299242
623.000000	6.349202
624.000000	6.396115
625.000000	6.439605
626.000000	6.479252
627.000000	6.515740
628.000000	6.549265
629.000000	6.549014
630.000000	6.546686
631.000000	6.543307
632.000000	6.539233
633.000000	6.535049
634.000000	6.531671
635.000000	6.530506
636.000000	6.531581
637.000000	6.535209
638.000000	6.540981
639.000000	6.549850
640.000000	6.561200
641.000000	6.575543
642.000000	6.592592
643.000000	6.611832
644.000000	6.632632
645.000000	6.654020
646.000000	6.676451
647.000000	6.698968
648.000000	6.753008
649.000000	6.806682
650.000000	6.859686
651.000000	6.911686
652.000000	6.962527
653.000000	7.012067
654.000000	7.060628
655.000000	7.108116
656.000000	7.154152
657.000000	7.199039
658.000000	7.212390
659.000000	7.225483
660.000000	7.238150
661.000000	7.250368
662.000000	7.262904
663.000000	7.275863
664.000000	7.289610
665.000000	7.304239
666.000000	7.319852
667.000000	7.336171
668.000000	7.353009
669.000000	7.370340
670.000000	7.388466
671.000000	7.407306
672.000000	7.457550
673.000000	7.508067
674.000000	7.558760
675.000000	7.609880
676.000000	7.661373
677.000000	7.713137
678.000000	7.765495
679.000000	7.818126
680.000000	7.870920
681.000000	7.924252
682.000000	7.946980
683.000000	7.970157
684.000000	7.993115
685.000000	8.047565
686.000000	8.101859
687.000000	8.156413
688.000000	8.210631
689.000000	8.264509
690.000000	8.318765
691.000000	8.372824
692.000000	8.427349
693.000000	8.482080
694.000000	8.537856
695.000000	8.562578
696.000000	8.588261
697.000000	8.614195
698.000000	8.640823
699.000000	8.699710
700.000000	8.758899
701.000000	8.819550
702.000000	8.880628
703.000000	8.942713
704.000000	9.005414
705.000000	9.067635
706.000000	9.130458
707.000000	9.194228
708.000000	9.258208
709.000000	9.322226
710.000000	9.386704
711.000000	9.451113
712.000000	9.515047
713.000000	9.578708
714.000000	9.641399
715.000000	9.704497
716.000000	9.766555
717.000000	9.827922
718.000000	9.888872
719.000000	9.918818
720.000000	9.949149
721.000000	9.979537
722.000000	10.041146
723.000000	10.102360
724.000000	10.163682
725.000000	10.225367
726.000000	10.287898
727.000000	10.351734
728.000000	10.416003
729.000000	10.479311
730.000000	10.543027
731.000000	10.637680
732.000000	10.701079
733.000000	10.764681
734.000000	10.829250
735.000000	10.893372
736.000000	10.956646
737.000000	11.019376
738.000000	11.081541
739.000000	11.144268
740.000000	11.206443
741.000000	11.236399
742.000000	11.266377
743.000000	11.328329
744.000000	11.389670
745.000000	11.451228
746.000000	11.513047
747.000000	11.574447
748.000000	11.636479
749.000000	11.698032
750.000000	11.759696
751.000000	11.822213
752.000000	11.885736
753.000000	11.949409
754.000000	12.012385
755.000000	12.074891
756.000000	12.137883
757.000000	12.200415
758.000000	12.263083
759.000000	12.327120
760.000000	12.390889
761.000000	12.454810
762.000000	12.518192
763.000000	12.580539
764.000000	12.643871
765.000000	12.707924
766.000000	12.771303
767.000000	12.835027
768.000000	12.899777
769.000000	12.963233
770.000000	13.027167
771.000000	13.092105
772.000000	13.155658
773.000000	13.219822
774.000000	13.284633
775.000000	13.350678
776.000000	13.416345
777.000000	13.481094
778.000000	13.545739
779.000000	13.612140
780.000000	13.678769
781.000000	13.743848
782.000000	13.842220
783.000000	13.909358
784.000000	13.975258
785.000000	14.040091
786.000000	14.107010
787.000000	14.175133
788.000000	14.241320
789.000000	14.306698
790.000000	14.372312
791.000000	14.439145
792.000000	14.472826
793.000000	14.538583
794.000000	14.604207
795.000000	14.670630
796.000000	14.736276
797.000000	14.802004
798.000000	14.869383
799.000000	14.935364
800.000000	15.000503
801.000000	15.098395
802.000000	15.198607
803.000000	15.265964
804.000000	15.332761
805.000000	15.400014
806.000000	15.468928
807.000000	15.537352
808.000000	15.607953
809.000000	15.681242
810.000000	15.753356
811.000000	15.823161
812.000000	15.891395
813.000000	15.960932
814.000000	16.033705
815.000000	16.103063
816.000000	16.171874
817.000000	16.240453
818.000000	16.306085
819.000000	16.369989
820.000000	16.467461
821.000000	16.536096
822.000000	16.603372
823.000000	16.666996
824.000000	16.731649
825.000000	16.799097
826.000000	16.864209
827.000000	16.929230
828.000000	16.993298
829.000000	17.056402
830.000000	17.119619
831.000000	17.181643
832.000000	17.243178
833.000000	17.305288
834.000000	17.366993
835.000000	17.427356
836.000000	17.484986
837.000000	17.542216
838.000000	17.602296
839.000000	17.660356
840.000000	17.714783
841.000000	17.737234
842.000000	17.793363
843.000000	17.851939
844.000000	17.898977
845.000000	17.956672
846.000000	18.008107
847.000000	18.057191
848.000000	18.099938
849.000000	18.152131
850.000000	18.175195
851.000000	18.219208
852.000000	18.232044
853.000000	18.241799
854.000000	18.284459
855.000000	18.314478
856.000000	18.357047
857.000000	18.423823
858.000000	18.852011
859.000000	18.944224
860.000000	19.036115
861.000000	19.114105
862.000000	19.243042
863.000000	19.351378
864.000000	19.437017
865.000000	19.500905
866.000000	19.562752
867.000000	19.579522
868.000000	19.264675
869.000000	19.279670
870.000000	19.294258
871.000000	19.331853
872.000000	19.318923
873.000000	19.329325
874.000000	19.364712
875.000000	19.398283
876.000000	19.406028
877.000000	19.437242
878.000000	19.443523
879.000000	19.474665
880.000000	19.482038
881.000000	19.515885
882.000000	19.523007
883.000000	19.554683
884.000000	19.534945
885.000000	19.541412
886.000000	19.596993
887.000000	19.653965
888.000000	19.685578
889.000000	19.690900
890.000000	19.720635
891.000000	19.724230
892.000000	19.753290
893.000000	19.758517
894.000000	19.788047
895.000000	19.817855
896.000000	19.824752
897.000000	19.830588
898.000000	19.861237
899.000000	19.892182
900.000000	19.923265
901.000000	19.956090
902.000000	19.988375
903.000000	20.020987
904.000000	20.053587
905.000000	20.085657
906.000000	20.116260
907.000000	20.149070
908.000000	20.181715
909.000000	20.214790
910.000000	20.248715
911.000000	20.282227
912.000000	20.317743
913.000000	20.350920
914.000000	20.385798
915.000000	20.420658
916.000000	20.455970
917.000000	20.488548
918.000000	20.522022
919.000000	20.556460
920.000000	20.590780
921.000000	20.622098
922.000000	20.653155
923.000000	20.684513
924.000000	20.715438
925.000000	20.744827
926.000000	20.774240
927.000000	20.802148
928.000000	20.829635
929.000000	20.855725
930.000000	20.878715
931.000000	20.904312
932.000000	20.928570
933.000000	20.954245
934.000000	20.979280
935.000000	21.005525
936.000000	21.030932
937.000000	21.057877
938.000000	21.084795
939.000000	21.110050
940.000000	21.136100
941.000000	21.158967
942.000000	21.181673
943.000000	21.202962
944.000000	21.223410
945.000000	21.244233
946.000000	21.264788
947.000000	21.285390
948.000000	21.329500
949.000000	21.375020
950.000000	21.420200
951.000000	21.467833
952.000000	21.515525
953.000000	21.561625
954.000000	21.607980
955.000000	21.652605
956.000000	21.696675
957.000000	21.740820
958.000000	21.759745
959.000000	21.778005
960.000000	21.798105
961.000000	21.816617
962.000000	21.833852
963.000000	21.852490
964.000000	21.870170
965.000000	21.888025
966.000000	21.905845
967.000000	21.922345
968.000000	21.938762
969.000000	21.954820
970.000000	21.969745
971.000000	21.985658
972.000000	22.000778
973.000000	22.016033
974.000000	22.031743
975.000000	22.046868
976.000000	22.061273
977.000000	22.076320
978.000000	22.091442
979.000000	22.105922
980.000000	22.119770
981.000000	22.132243
982.000000	22.146815
983.000000	22.159888
984.000000	22.172070
985.000000	22.184683
986.000000	22.197420
987.000000	22.208920
988.000000	22.220335
989.000000	22.257880
990.000000	22.270692
991.000000	22.308275
992.000000	22.343780
993.000000	22.379900
994.000000	22.415780
995.000000	22.451300
996.000000	22.487915
997.000000	22.524550
998.000000	22.560275
999.000000	22.571487
1000.000000	22.607445
1001.000000	22.618280
1002.000000	22.630595
1003.000000	22.641763
1004.000000	22.652740
1005.000000	22.664587
1006.000000	22.674320
1007.000000	22.684410
1008.000000	22.695152
1009.000000	22.704285
1010.000000	22.713360
1011.000000	22.722515
1012.000000	22.730485
1013.000000	22.739405
1014.000000	22.748410
1015.000000	22.756000
1016.000000	22.765365
1017.000000	22.775588
1018.000000	22.785145
1019.000000	22.794753
1020.000000	22.804360
1021.000000	22.814753
1022.000000	22.825695
1023.000000	22.837275
1024.000000	22.849538
1025.000000	22.862768
1026.000000	22.875630
1027.000000	22.887490
1028.000000	22.899280
1029.000000	22.911550
1030.000000	22.923710
1031.000000	22.935678
1032.000000	22.947077
1033.000000	22.957278
1034.000000	22.967917
1035.000000	22.977303
1036.000000	22.985257
1037.000000	22.993868
1038.000000	23.028983
1039.000000	23.063985
1040.000000	23.098325
1041.000000	23.132458
1042.000000	23.166845
1043.000000	23.202120
1044.000000	23.236612
1045.000000	23.271418
1046.000000	23.306670
1047.000000	23.341515
1048.000000	23.351382
1049.000000	23.361168
1050.000000	23.370645
1051.000000	23.379713
1052.000000	23.388870
1053.000000	23.397950
1054.000000	23.406658
1055.000000	23.415955
1056.000000	23.426040
1057.000000	23.436005
1058.000000	23.444437
1059.000000	23.452550
1060.000000	23.461425
1061.000000	23.470595
1062.000000	23.479455
1063.000000	23.488435
1064.000000	23.497242
1065.000000	23.505987
1066.000000	23.515158
1067.000000	23.525202
1068.000000	23.535650
1069.000000	23.546292
1070.000000	23.556833
1071.000000	23.566797
1072.000000	23.575925
1073.000000	23.584207
1074.000000	23.593565
1075.000000	23.603037
1076.000000	23.610625
1077.000000	23.617708
1078.000000	23.625680
1079.000000	23.634302
1080.000000	23.642148
1081.000000	23.650142
1082.000000	23.659143
1083.000000	23.668093
1084.000000	23.676685
1085.000000	23.684365
1086.000000	23.691990
1087.000000	23.699225
1088.000000	23.705932
1089.000000	23.712508
1090.000000	23.744340
1091.000000	23.750818
1092.000000	23.781985
1093.000000	23.813032
1094.000000	23.843308
1095.000000	23.874370
1096.000000	23.905045
1097.000000	23.934900
1098.000000	23.964993
1099.000000	23.993713
1100.000000	23.997053
1101.000000	24.025855
1102.000000	24.030532
1103.000000	24.035430
1104.000000	24.039617
1105.000000	24.042935
1106.000000	24.047137
1107.000000	24.050908
1108.000000	24.052748
1109.000000	24.054118
1110.000000	24.055395
1111.000000	24.055825
1112.000000	24.054623
1113.000000	24.052365
1114.000000	24.049332
1115.000000	24.046833
1116.000000	24.043870
1117.000000	24.040592
1118.000000	24.039105
1119.000000	24.037417
1120.000000	24.036192
1121.000000	24.035895
1122.000000	24.035438
1123.000000	24.035818
1124.000000	24.037490
1125.000000	24.037472
1126.000000	24.037005
1127.000000	24.036777
1128.000000	24.034715
1129.000000	24.033185
1130.000000	24.004550
1131.000000	23.971540
1132.000000	23.935880
1133.000000	23.899867
1134.000000	23.866095
1135.000000	23.833935
1136.000000	23.799395
1137.000000	23.763195
1138.000000	23.724728
1139.000000	23.684517
1140.000000	23.670208
1141.000000	23.659698
1142.000000	23.650390
1143.000000	23.638538
1144.000000	23.624142
1145.000000	23.608433
1146.000000	23.596398
1147.000000	23.585470
1148.000000	23.576935
1149.000000	23.569533
1150.000000	23.561825
1151.000000	23.552303
1152.000000	23.544515
1153.000000	23.537850
1154.000000	23.528845
1155.000000	23.519780
1156.000000	23.508472
1157.000000	23.495765
1158.000000	23.456025
1159.000000	23.412605
1160.000000	23.368528
1161.000000	23.323463
1162.000000	23.276430
1163.000000	23.227085
1164.000000	23.177380
1165.000000	23.125665
1166.000000	23.073455
1167.000000	23.020170
1168.000000	22.993955
1169.000000	22.970707
1170.000000	22.946225
1171.000000	22.923045
1172.000000	22.900420
1173.000000	22.879480
1174.000000	22.860595
1175.000000	22.843688
1176.000000	22.828820
1177.000000	22.816222
1178.000000	22.802770
1179.000000	22.789413
1180.000000	22.777825
1181.000000	22.766613
1182.000000	22.756763
1183.000000	22.748573
1184.000000	22.740485
1185.000000	22.733040
1186.000000	22.725258
1187.000000	22.719765
1188.000000	22.715252
1189.000000	22.712438
1190.000000	22.711880
1191.000000	22.713918
1192.000000	22.715832
1193.000000	22.718943
1194.000000	22.723752
1195.000000	22.730045
1196.000000	22.737262
1197.000000	22.745218
1198.000000	22.753788
1199.000000	22.762200
1200.000000	22.770550
1201.000000	22.777622
1202.000000	22.786928
1203.000000	22.795810
1204.000000	22.803485
1205.000000	22.810400
1206.000000	22.818425
1207.000000	22.826620
1208.000000	22.834450
1209.000000	22.843132
1210.000000	22.851345
1211.000000	22.860580
1212.000000	22.868462
1213.000000	22.876843
1214.000000	22.886380
1215.000000	22.895837
1216.000000	22.903915
1217.000000	22.911127
1218.000000	22.919838
1219.000000	22.927943
1220.000000	22.935887
1221.000000	22.942547
1222.000000	22.949172
1223.000000	22.955095
1224.000000	22.959285
1225.000000	22.963448
1226.000000	22.968515
1227.000000	22.972423
1228.000000	23.000093
1229.000000	23.027215
1230.000000	23.053050
1231.000000	23.078315
1232.000000	23.102625
1233.000000	23.125735
1234.000000	23.150140
1235.000000	23.174345
1236.000000	23.197350
1237.000000	23.220445
1238.000000	23.217962
1239.000000	23.215832
1240.000000	23.215353
1241.000000	23.216292
1242.000000	23.217855
1243.000000	23.220518
1244.000000	23.223455
1245.000000	23.226737
1246.000000	23.230835
1247.000000	23.236545
1248.000000	23.243295
1249.000000	23.250613
1250.000000	23.257903
1251.000000	23.264915
1252.000000	23.272253
1253.000000	23.279725
1254.000000	23.286463
1255.000000	23.293637
1256.000000	23.301243
1257.000000	23.307880
1258.000000	23.313237
1259.000000	23.318388
1260.000000	23.323820
1261.000000	23.328872
1262.000000	23.333880
1263.000000	23.338383
1264.000000	23.343532
1265.000000	23.347922
1266.000000	23.351252
1267.000000	23.354035
1268.000000	23.356873
1269.000000	23.358487
1270.000000	23.359272
1271.000000	23.359870
1272.000000	23.360063
1273.000000	23.360257
1274.000000	23.359335
1275.000000	23.358473
1276.000000	23.358053
1277.000000	23.357302
1278.000000	23.357105
1279.000000	23.357765
1280.000000	23.358320
1281.000000	23.359520
1282.000000	23.360663
1283.000000	23.362027
1284.000000	23.363802
1285.000000	23.365347
1286.000000	23.366937
1287.000000	23.369367
1288.000000	23.371785
1289.000000	23.374662
1290.000000	23.378747
1291.000000	23.382235
1292.000000	23.385602
1293.000000	23.389622
1294.000000	23.393828
1295.000000	23.397215
1296.000000	23.400128
1297.000000	23.403112
1298.000000	23.405855
1299.000000	23.407550
1300.000000	23.408342
1301.000000	23.409107
1302.000000	23.410197
1303.000000	23.410575
1304.000000	23.410180
1305.000000	23.410837
1306.000000	23.411223
1307.000000	23.410505
1308.000000	23.409463
1309.000000	23.408137
1310.000000	23.406045
1311.000000	23.403135
1312.000000	23.399127
1313.000000	23.394718
1314.000000	23.390235
1315.000000	23.384143
1316.000000	23.376602
1317.000000	23.368245
1318.000000	23.359842
1319.000000	23.350910
1320.000000	23.341658
1321.000000	23.331498
1322.000000	23.320945
1323.000000	23.309790
1324.000000	23.297490
1325.000000	23.285258
1326.000000	23.273595
1327.000000	23.261497
1328.000000	23.248327
1329.000000	23.234405
1330.000000	23.219485
1331.000000	23.204703
1332.000000	23.189480
1333.000000	23.148267
1334.000000	23.106280
1335.000000	23.063453
1336.000000	23.019458
1337.000000	22.974725
1338.000000	22.929945
1339.000000	22.884947
1340.000000	22.839357
1341.000000	22.792498
1342.000000	22.743875
1343.000000	22.719045
1344.000000	22.693148
1345.000000	22.664760
1346.000000	22.635335
1347.000000	22.606392
1348.000000	22.576120
1349.000000	22.543210
1350.000000	22.483713
1351.000000	22.422887
1352.000000	22.361093
1353.000000	22.300440
1354.000000	22.244712
1355.000000	22.192885
1356.000000	22.140368
1357.000000	22.085960
1358.000000	22.031145
1359.000000	21.976140
1360.000000	21.951235
1361.000000	21.936097
1362.000000	21.899127
1363.000000	21.859213
1364.000000	21.816975
1365.000000	21.772417
1366.000000	21.725970
1367.000000	21.680998
1368.000000	21.611365
1369.000000	21.538765
1370.000000	21.459070
1371.000000	21.369388
1372.000000	21.296552
1373.000000	21.190747
1374.000000	21.074235
1375.000000	20.949613
1376.000000	20.817248
1377.000000	20.675510
1378.000000	20.522610
1379.000000	20.367635
1380.000000	20.211220
1381.000000	20.060207
1382.000000	19.917560
1383.000000	19.814235
1384.000000	19.693233
1385.000000	19.578748
1386.000000	19.474058
1387.000000	19.383138
1388.000000	19.334425
1389.000000	19.292098
1390.000000	19.252733
1391.000000	19.213570
1392.000000	19.176713
1393.000000	19.136128
1394.000000	19.125332
1395.000000	19.127218
1396.000000	19.132555
1397.000000	19.128110
1398.000000	19.111997
1399.000000	19.103593
1400.000000	19.107278
1401.000000	19.106510
1402.000000	19.093138
1403.000000	19.049545
1404.000000	19.006565
1405.000000	18.953010
1406.000000	18.893742
1407.000000	18.838250
1408.000000	18.787803
1409.000000	18.730020
1410.000000	18.658620
1411.000000	18.581000
1412.000000	18.509643
1413.000000	18.443868
1414.000000	18.376710
1415.000000	18.305463
1416.000000	18.232283
1417.000000	18.160062
1418.000000	18.090372
1419.000000	18.021285
1420.000000	17.953625
1421.000000	17.888128
1422.000000	17.823605
1423.000000	17.759080
1424.000000	17.692107
1425.000000	17.626993
1426.000000	17.565852
1427.000000	17.504857
1428.000000	17.443800
1429.000000	17.380907
1430.000000	17.319353
1431.000000	17.264252
1432.000000	17.212237
1433.000000	17.184315
1434.000000	17.156195
1435.000000	17.130397
1436.000000	17.106448
1437.000000	17.058908
1438.000000	17.011570
1439.000000	16.965265
1440.000000	16.920268
1441.000000	16.875000
1442.000000	16.828762
1443.000000	16.782905
1444.000000	16.738588
1445.000000	16.696260
1446.000000	16.654855
1447.000000	16.636870
1448.000000	16.616115
1449.000000	16.598055
1450.000000	16.581952
1451.000000	16.565805
1452.000000	16.548580
1453.000000	16.531782
1454.000000	16.515512
1455.000000	16.498123
1456.000000	16.455585
1457.000000	16.413522
1458.000000	16.372765
1459.000000	16.331180
1460.000000	16.287865
1461.000000	16.243300
1462.000000	16.199700
1463.000000	16.156905
1464.000000	16.112670
1465.000000	16.068800
1466.000000	16.049060
1467.000000	16.030175
1468.000000	16.011765
1469.000000	15.992952
1470.000000	15.975100
1471.000000	15.958345
1472.000000	15.941825
1473.000000	15.924845
1474.000000	15.906855
1475.000000	15.888645
1476.000000	15.871115
1477.000000	15.855115
1478.000000	15.815120
1479.000000	15.775708
1480.000000	15.737403
1481.000000	15.700040
1482.000000	15.663222
1483.000000	15.626043
1484.000000	15.591822
1485.000000	15.558667
1486.000000	15.526915
1487.000000	15.494853
1488.000000	15.487745
1489.000000	15.481052
1490.000000	15.473460
1491.000000	15.465932
1492.000000	15.459458
1493.000000	15.454912
1494.000000	15.449948
1495.000000	15.446070
1496.000000	15.443452
1497.000000	15.441392
1498.000000	15.440630
1499.000000	15.441327
1500.000000	15.444100
1501.000000	15.449145
1502.000000	15.455837
1503.000000	15.463505
1504.000000	15.498162
1505.000000	15.533382
1506.000000	15.568447
1507.000000	15.604953
1508.000000	15.642632
1509.000000	15.681868
1510.000000	15.721070
1511.000000	15.760672
1512.000000	15.799907
1513.000000	15.840557
1514.000000	15.857245
1515.000000	15.873653
1516.000000	15.890405
1517.000000	15.907303
1518.000000	15.924133
1519.000000	15.940347
1520.000000	15.957502
1521.000000	15.973730
1522.000000	15.989842
1523.000000	16.005900
1524.000000	16.021570
1525.000000	16.037120
1526.000000	16.053242
1527.000000	16.069212
1528.000000	16.084600
1529.000000	16.124002
1530.000000	16.162675
1531.000000	16.200985
1532.000000	16.239862
1533.000000	16.277145
1534.000000	16.313235
1535.000000	16.349353
1536.000000	16.383755
1537.000000	16.417253
1538.000000	16.450508
1539.000000	16.459178
1540.000000	16.467655
1541.000000	16.475565
1542.000000	16.482630
1543.000000	16.490812
1544.000000	16.499002
1545.000000	16.506530
1546.000000	16.514920
1547.000000	16.524027
1548.000000	16.533460
1549.000000	16.543340
1550.000000	16.553213
1551.000000	16.563515
1552.000000	16.574792
1553.000000	16.585960
1554.000000	16.597383
1555.000000	16.609407
1556.000000	16.621340
1557.000000	16.632700
1558.000000	16.643430
1559.000000	16.653258
1560.000000	16.661682
1561.000000	16.668653
1562.000000	16.674038
1563.000000	16.677723
1564.000000	16.679368
1565.000000	16.680277
1566.000000	16.680565
1567.000000	16.679450
1568.000000	16.677878
1569.000000	16.675513
1570.000000	16.672548
1571.000000	16.670008
1572.000000	16.667482
1573.000000	16.664848
1574.000000	16.663587
1575.000000	16.662513
1576.000000	16.660840
1577.000000	16.659930
1578.000000	16.659732
1579.000000	16.660400
1580.000000	16.662065
1581.000000	16.689170
1582.000000	16.717238
1583.000000	16.746755
1584.000000	16.776475
1585.000000	16.806503
1586.000000	16.837653
1587.000000	16.870270
1588.000000	16.903237
1589.000000	16.935572
1590.000000	16.968212
1591.000000	16.976520
1592.000000	16.985270
1593.000000	16.993835
1594.000000	17.002068
1595.000000	17.010952
1596.000000	17.020595
1597.000000	17.030003
1598.000000	17.039515
1599.000000	17.050680
1600.000000	17.062700
1601.000000	17.075030
1602.000000	17.087350
1603.000000	17.100317
1604.000000	17.114735
1605.000000	17.127862
1606.000000	17.140783
1607.000000	17.154252
1608.000000	17.167965
1609.000000	17.181107
1610.000000	17.193838
1611.000000	17.206238
1612.000000	17.217143
1613.000000	17.226810
1614.000000	17.235910
1615.000000	17.245703
1616.000000	17.280017
1617.000000	17.312760
1618.000000	17.344595
1619.000000	17.376035
1620.000000	17.406840
1621.000000	17.436995
1622.000000	17.467705
1623.000000	17.498535
1624.000000	17.528682
1625.000000	17.558122
1626.000000	17.562560
1627.000000	17.567345
1628.000000	17.572030
1629.000000	17.576675
1630.000000	17.581687
1631.000000	17.587500
1632.000000	17.593338
1633.000000	17.598827
1634.000000	17.604157
1635.000000	17.610420
1636.000000	17.616165
1637.000000	17.621363
1638.000000	17.625985
1639.000000	17.629980
1640.000000	17.633630
1641.000000	17.636125
1642.000000	17.638472
1643.000000	17.641848
1644.000000	17.644900
1645.000000	17.647303
1646.000000	17.649890
1647.000000	17.651902
1648.000000	17.653670
1649.000000	17.656780
1650.000000	17.659377
1651.000000	17.660800
1652.000000	17.660835
1653.000000	17.658855
1654.000000	17.656005
1655.000000	17.651210
1656.000000	17.644663
1657.000000	17.637967
1658.000000	17.628918
1659.000000	17.616650
1660.000000	17.576968
1661.000000	17.536050
1662.000000	17.493880
1663.000000	17.451050
1664.000000	17.406365
1665.000000	17.359920
1666.000000	17.311923
1667.000000	17.262235
1668.000000	17.207413
1669.000000	17.150965
1670.000000	17.118562
1671.000000	17.085255
1672.000000	17.050605
1673.000000	16.989370
1674.000000	16.927003
1675.000000	16.864787
1676.000000	16.801800
1677.000000	16.738140
1678.000000	16.678815
1679.000000	16.619560
1680.000000	16.559245
1681.000000	16.498160
1682.000000	16.435697
1683.000000	16.397543
1684.000000	16.334765
1685.000000	16.272507
1686.000000	16.211200
1687.000000	16.151897
1688.000000	16.096765
1689.000000	16.045370
1690.000000	16.000170
1691.000000	15.961218
1692.000000	15.929897
1693.000000	15.902822
1694.000000	15.906175
1695.000000	15.914940
1696.000000	15.926650
1697.000000	15.938830
1698.000000	15.952385
1699.000000	15.965260
1700.000000	15.975722
1701.000000	15.983200
1702.000000	15.987500
1703.000000	15.990485
1704.000000	15.989965
1705.000000	15.985572
1706.000000	15.979175
1707.000000	15.971790
1708.000000	15.961410
1709.000000	15.948855
1710.000000	15.933375
1711.000000	15.915907
1712.000000	15.895580
1713.000000	15.871867
1714.000000	15.822815
1715.000000	15.768995
1716.000000	15.712658
1717.000000	15.651145
1718.000000	15.587452
1719.000000	15.522578
1720.000000	15.458070
1721.000000	15.393933
1722.000000	15.331937
1723.000000	15.274000
1724.000000	15.243132
1725.000000	15.218195
1726.000000	15.198667
1727.000000	15.186520
1728.000000	15.180295
1729.000000	15.177768
1730.000000	15.180330
1731.000000	15.187265
1732.000000	15.197585
1733.000000	15.208770
1734.000000	15.220947
1735.000000	15.234915
1736.000000	15.250288
1737.000000	15.266942
1738.000000	15.282047
1739.000000	15.299972
1740.000000	15.318537
1741.000000	15.337093
1742.000000	15.355420
1743.000000	15.376175
1744.000000	15.421772
1745.000000	15.466425
1746.000000	15.509908
1747.000000	15.552742
1748.000000	15.595348
1749.000000	15.635885
1750.000000	15.675090
1751.000000	15.712017
1752.000000	15.747167
1753.000000	15.778920
1754.000000	15.785200
1755.000000	15.791123
1756.000000	15.795462
1757.000000	15.798475
1758.000000	15.800408
1759.000000	15.802585
1760.000000	15.803805
1761.000000	15.804300
1762.000000	15.805655
1763.000000	15.808497
1764.000000	15.812008
1765.000000	15.814970
1766.000000	15.819213
1767.000000	15.824808
1768.000000	15.832503
1769.000000	15.839887
1770.000000	15.847330
1771.000000	15.856958
1772.000000	15.866795
1773.000000	15.876245
1774.000000	15.885947
1775.000000	15.897025
1776.000000	15.908210
1777.000000	15.920117
1778.000000	15.930900
1779.000000	15.942415
1780.000000	15.954692
1781.000000	15.966570
1782.000000	15.976112
1783.000000	15.985265
1784.000000	15.994262
1785.000000	16.001333
1786.000000	16.007062
1787.000000	16.011688
1788.000000	16.040698
1789.000000	16.067518
1790.000000	16.093872
1791.000000	16.119780
1792.000000	16.146430
1793.000000	16.173517
1794.000000	16.199742
1795.000000	16.227337
1796.000000	16.254890
1797.000000	16.280367
1798.000000	16.279992
1799.000000	16.280750
1800.000000	16.283465
1801.000000	16.287585
1802.000000	16.291538
1803.000000	16.293217
1804.000000	16.293830
1805.000000	16.296043
1806.000000	16.300587
1807.000000	16.306245
1808.000000	16.309965
1809.000000	16.311923
1810.000000	16.312352
1811.000000	16.313200
1812.000000	16.315465
1813.000000	16.318088
1814.000000	16.322178
1815.000000	16.324552
1816.000000	16.322493
1817.000000	16.314953
1818.000000	16.305957
1819.000000	16.301877
1820.000000	16.305470
1821.000000	16.314060
1822.000000	16.319437
1823.000000	16.317230
1824.000000	16.308752
1825.000000	16.299070
1826.000000	16.293692
1827.000000	16.295997
1828.000000	16.303550
1829.000000	16.309600
1830.000000	16.310180
1831.000000	16.303458
1832.000000	16.294470
1833.000000	16.287980
1834.000000	16.284062
1835.000000	16.283880
1836.000000	16.287687
1837.000000	16.291885
1838.000000	16.294435
1839.000000	16.296573
1840.000000	16.325535
1841.000000	16.362793
1842.000000	16.407198
1843.000000	16.449462
1844.000000	16.481777
1845.000000	16.477893
1846.000000	16.497222
1847.000000	16.528897
1848.000000	16.572665
1849.000000	16.613485
1850.000000	16.614915
1851.000000	16.600582
1852.000000	16.557545
1853.000000	16.524745
1854.000000	16.531053
1855.000000	16.570710
1856.000000	16.577155
1857.000000	16.565185
1858.000000	16.518792
1859.000000	16.503585
1860.000000	16.475045
1861.000000	16.453045
1862.000000	16.452755
1863.000000	16.441647
1864.000000	16.395415
1865.000000	16.342042
1866.000000	16.286865
1867.000000	16.231047
1868.000000	16.194962
1869.000000	16.131965
1870.000000	16.096955
1871.000000	16.065635
1872.000000	16.040900
1873.000000	16.000267
1874.000000	15.965343
1875.000000	15.935660
1876.000000	15.907352
1877.000000	15.876632
1878.000000	15.816840
1879.000000	15.745763
1880.000000	15.658577
1881.000000	15.559970
1882.000000	15.453543
1883.000000	15.367163
1884.000000	15.277815
1885.000000	15.157995
1886.000000	15.032608
1887.000000	14.901140
1888.000000	14.788690
1889.000000	14.650102
1890.000000	14.514345
1891.000000	14.381513
1892.000000	14.246357
1893.000000	14.079470
1894.000000	13.905110
1895.000000	13.747348
1896.000000	13.583357
1897.000000	13.394470
1898.000000	13.210393
1899.000000	13.054958
1900.000000	12.875002
1901.000000	12.689600
1902.000000	12.500725
1903.000000	12.338145
1904.000000	12.158342
1905.000000	11.990968
1906.000000	11.833095
1907.000000	11.705497
1908.000000	11.551447
1909.000000	11.392447
1910.000000	11.256845
1911.000000	11.127157
1912.000000	11.006005
1913.000000	10.870880
1914.000000	10.763350
1915.000000	10.653360
1916.000000	10.543108
1917.000000	10.432283
1918.000000	10.350485
1919.000000	10.279243
1920.000000	10.216675
1921.000000	10.134750
1922.000000	10.053733
1923.000000	9.993390
1924.000000	9.931717
1925.000000	9.873468
1926.000000	9.821605
1927.000000	9.777328
1928.000000	9.740768
1929.000000	9.705045
1930.000000	9.669195
1931.000000	9.656275
1932.000000	9.644000
1933.000000	9.634560
1934.000000	9.629003
1935.000000	9.624543
1936.000000	9.621562
1937.000000	9.619545
1938.000000	9.618780
1939.000000	9.619643
1940.000000	9.621975
1941.000000	9.626853
1942.000000	9.632853
1943.000000	9.640883
1944.000000	9.650018
1945.000000	9.662218
1946.000000	9.675265
1947.000000	9.688815
1948.000000	9.701263
1949.000000	9.712705
1950.000000	9.724168
1951.000000	9.736355
1952.000000	9.751090
1953.000000	9.766635
1954.000000	9.784145
1955.000000	9.802425
1956.000000	9.819515
1957.000000	9.837220
1958.000000	9.878497
1959.000000	9.920915
1960.000000	9.964467
1961.000000	10.007965
1962.000000	10.050650
1963.000000	10.092660
1964.000000	10.134815
1965.000000	10.174580
1966.000000	10.214712
1967.000000	10.255875
1968.000000	10.271332
1969.000000	10.286877
1970.000000	10.302133
1971.000000	10.317627
1972.000000	10.332365
1973.000000	10.347463
1974.000000	10.362285
1975.000000	10.376790
1976.000000	10.416173
1977.000000	10.453568
1978.000000	10.493377
1979.000000	10.533015
1980.000000	10.573225
1981.000000	10.612630
1982.000000	10.653963
1983.000000	10.693780
1984.000000	10.732703
1985.000000	10.772902
1986.000000	10.788963
1987.000000	10.804860
1988.000000	10.820863
1989.000000	10.836327
1990.000000	10.849768
1991.000000	10.863212
1992.000000	10.874590
1993.000000	10.887378
1994.000000	10.925330
1995.000000	10.963078
1996.000000	10.999733
1997.000000	11.035797
1998.000000	11.070965
1999.000000	11.105417
2000.000000	11.140340
2001.000000	11.174765
2002.000000	11.208760
2003.000000	11.241800
2004.000000	11.249390
2005.000000	11.255942
2006.000000	11.261905
2007.000000	11.267195
2008.000000	11.270543
2009.000000	11.272650
2010.000000	11.273355
2011.000000	11.272925
2012.000000	11.271935
2013.000000	11.268958
2014.000000	11.263718
2015.000000	11.256750
2016.000000	11.248710
2017.000000	11.240175
2018.000000	11.230308
2019.000000	11.218447
2020.000000	11.205690
2021.000000	11.191875
2022.000000	11.176668
2023.000000	11.160773
2024.000000	11.144163
2025.000000	11.126770
2026.000000	11.082988
2027.000000	11.037515
2028.000000	11.016460
2029.000000	10.969773
2030.000000	10.921885
2031.000000	10.873295
2032.000000	10.822860
2033.000000	10.771295
2034.000000	10.718500
2035.000000	10.665365
2036.000000	10.635355
2037.000000	10.604690
2038.000000	10.548327
2039.000000	10.516240
2040.000000	10.482915
2041.000000	10.448287
2042.000000	10.413988
2043.000000	10.354390
2044.000000	10.294765
2045.000000	10.234090
2046.000000	10.174335
2047.000000	10.115435
2048.000000	10.058030
2049.000000	10.002672
2050.000000	9.949785
2051.000000	9.899657
2052.000000	9.852102
2053.000000	9.832330
2054.000000	9.815305
2055.000000	9.802680
2056.000000	9.794097
2057.000000	9.790100
2058.000000	9.789225
2059.000000	9.792123
2060.000000	9.798255
2061.000000	9.806745
2062.000000	9.818190
2063.000000	9.832095
2064.000000	9.849080
2065.000000	9.867032
2066.000000	9.886160
2067.000000	9.905677
2068.000000	9.950478
2069.000000	9.995435
2070.000000	10.040380
2071.000000	10.084420
2072.000000	10.127527
2073.000000	10.170845
2074.000000	10.213033
2075.000000	10.254345
2076.000000	10.294585
2077.000000	10.333325
2078.000000	10.345600
2079.000000	10.355707
2080.000000	10.365008
2081.000000	10.374820
2082.000000	10.383505
2083.000000	10.414247
2084.000000	10.443192
2085.000000	10.472020
2086.000000	10.499900
2087.000000	10.525645
2088.000000	10.550105
2089.000000	10.574145
2090.000000	10.596438
2091.000000	10.617498
2092.000000	10.637962
2093.000000	10.633815
2094.000000	10.629360
2095.000000	10.622975
2096.000000	10.616133
2097.000000	10.610425
2098.000000	10.605025
2099.000000	10.599160
2100.000000	10.594378
2101.000000	10.589415
2102.000000	10.584257
2103.000000	10.578727
2104.000000	10.573472
2105.000000	10.569415
2106.000000	10.565665
2107.000000	10.561120
2108.000000	10.556655
2109.000000	10.552978
2110.000000	10.547985
2111.000000	10.542933
2112.000000	10.537900
2113.000000	10.532300
2114.000000	10.525510
2115.000000	10.518030
2116.000000	10.510505
2117.000000	10.502717
2118.000000	10.494198
2119.000000	10.484665
2120.000000	10.475035
2121.000000	10.464823
2122.000000	10.453743
2123.000000	10.443365
2124.000000	10.433665
2125.000000	10.422952
2126.000000	10.411407
2127.000000	10.399627
2128.000000	10.387310
2129.000000	10.348845
2130.000000	10.334798
2131.000000	10.320148
2132.000000	10.305380
2133.000000	10.264218
2134.000000	10.222190
2135.000000	10.205133
2136.000000	10.186630
2137.000000	10.167585
2138.000000	10.123370
2139.000000	10.103832
2140.000000	10.058573
2141.000000	10.012955
2142.000000	9.991798
2143.000000	9.970775
2144.000000	9.923398
2145.000000	9.875412
2146.000000	9.828202
2147.000000	9.780458
2148.000000	9.732060
2149.000000	9.684228
2150.000000	9.636520
2151.000000	9.613975
2152.000000	9.541895
2153.000000	9.494705
2154.000000	9.473477
2155.000000	9.427520
2156.000000	9.382185
2157.000000	9.337758
2158.000000	9.319460
2159.000000	9.302635
2160.000000	9.286607
2161.000000	9.246742
2162.000000	9.208092
2163.000000	9.169882
2164.000000	9.133485
2165.000000	9.097440
2166.000000	9.061702
2167.000000	9.026985
2168.000000	8.992470
2169.000000	8.957285
2170.000000	8.923190
2171.000000	8.889112
2172.000000	8.879912
2173.000000	8.871247
2174.000000	8.862732
2175.000000	8.854215
2176.000000	8.820335
2177.000000	8.812163
2178.000000	8.779425
2179.000000	8.746915
2180.000000	8.713465
2181.000000	8.679627
2182.000000	8.645827
2183.000000	8.611685
2184.000000	8.575615
2185.000000	8.539980
2186.000000	8.527980
2187.000000	8.488172
2188.000000	8.471705
2189.000000	8.427645
2190.000000	8.382115
2191.000000	8.333735
2192.000000	8.281910
2193.000000	8.228205
2194.000000	8.171375
2195.000000	8.086195
2196.000000	7.998892
2197.000000	7.910327
2198.000000	7.820753
2199.000000	7.730480
2200.000000	7.663730
2201.000000	7.597185
2202.000000	7.532160
2203.000000	7.441660
2204.000000	7.353913
2205.000000	7.295235
2206.000000	7.215273
2207.000000	7.137467
2208.000000	7.062997
2209.000000	7.018523
2210.000000	6.979210
2211.000000	6.945568
2212.000000	6.889617
2213.000000	6.890365
2214.000000	6.894760
2215.000000	6.902077
2216.000000	6.937932
2217.000000	6.978090
2218.000000	7.020287
2219.000000	7.064675
2220.000000	7.085268
2221.000000	7.106510
2222.000000	7.154765
2223.000000	7.201730
2224.000000	7.250150
2225.000000	7.297907
2226.000000	7.344423
2227.000000	7.390007
2228.000000	7.434853
2229.000000	7.477135
2230.000000	7.518643
2231.000000	7.558850
2232.000000	7.597030
2233.000000	7.607857
2234.000000	7.617028
2235.000000	7.623290
2236.000000	7.627975
2237.000000	7.630765
2238.000000	7.631950
2239.000000	7.631305
2240.000000	7.652635
2241.000000	7.673595
2242.000000	7.667530
2243.000000	7.660527
2244.000000	7.651313
2245.000000	7.640828
2246.000000	7.629490
2247.000000	7.616088
2248.000000	7.601225
2249.000000	7.587337
2250.000000	7.547140
2251.000000	7.504743
2252.000000	7.487820
2253.000000	7.470978
2254.000000	7.453560
2255.000000	7.437252
2256.000000	7.420982
2257.000000	7.406028
2258.000000	7.391158
2259.000000	7.376817
2260.000000	7.363738
2261.000000	7.351468
2262.000000	7.340772
2263.000000	7.331800
2264.000000	7.324478
2265.000000	7.343810
2266.000000	7.363665
2267.000000	7.386313
2268.000000	7.410560
2269.000000	7.410908
2270.000000	7.413172
2271.000000	7.416930
2272.000000	7.421038
2273.000000	7.449613
2274.000000	7.478610
2275.000000	7.483780
2276.000000	7.488977
2277.000000	7.492890
2278.000000	7.498385
2279.000000	7.527083
2280.000000	7.556545
2281.000000	7.584960
2282.000000	7.612637
2283.000000	7.615675
2284.000000	7.618623
2285.000000	7.645412
2286.000000	7.647550
2287.000000	7.650065
2288.000000	7.676028
2289.000000	7.703158
2290.000000	7.705048
2291.000000	7.707520
2292.000000	7.710680
2293.000000	7.739253
2294.000000	7.743210
2295.000000	7.746683
2296.000000	7.776140
2297.000000	7.804850
2298.000000	7.810072
2299.000000	7.814235
2300.000000	7.844412
2301.000000	7.874358
2302.000000	7.904427
2303.000000	7.909998
2304.000000	7.940410
2305.000000	7.947618
2306.000000	7.954815
2307.000000	7.988545
2308.000000	8.021783
2309.000000	8.056298
2310.000000	8.090960
2311.000000	8.126895
2312.000000	8.163057
2313.000000	8.197733
2314.000000	8.233115
2315.000000	8.267812
2316.000000	8.303065
2317.000000	8.311032
2318.000000	8.318477
2319.000000	8.350053
2320.000000	8.380347
2321.000000	8.409327
2322.000000	8.436100
2323.000000	8.438140
2324.000000	8.438842
2325.000000	8.437902
2326.000000	8.435357
2327.000000	8.458037
2328.000000	8.480850
2329.000000	8.477970
2330.000000	8.474910
2331.000000	8.471240
2332.000000	8.468815
2333.000000	8.492520
2334.000000	8.516497
2335.000000	8.540150
2336.000000	8.589298
2337.000000	8.590005
2338.000000	8.590937
2339.000000	8.592198
2340.000000	8.618652
2341.000000	8.646422
2342.000000	8.650120
2343.000000	8.653455
2344.000000	8.682360
2345.000000	8.712680
2346.000000	8.717678
2347.000000	8.722488
2348.000000	8.727417
2349.000000	8.733345
2350.000000	8.739390
2351.000000	8.745507
2352.000000	8.776732
2353.000000	8.807575
2354.000000	8.813253
2355.000000	8.819073
2356.000000	8.825200
2357.000000	8.855602
2358.000000	8.885445
2359.000000	8.939470
2360.000000	8.968168
2361.000000	8.996605
2362.000000	9.024255
2363.000000	9.051715
2364.000000	9.053572
2365.000000	9.054835
2366.000000	9.081347
2367.000000	9.107662
2368.000000	9.108605
2369.000000	9.110478
2370.000000	9.112768
2371.000000	9.114520
2372.000000	9.116760
2373.000000	9.094505
2374.000000	9.097193
2375.000000	9.124925
2376.000000	9.127577
2377.000000	9.130793
2378.000000	9.184893
2379.000000	9.212980
2380.000000	9.214422
2381.000000	9.216230
2382.000000	9.217302
2383.000000	9.267432
2384.000000	9.317980
2385.000000	9.343277
2386.000000	9.342335
2387.000000	9.341368
2388.000000	9.314508
2389.000000	9.312550
2390.000000	9.311200
2391.000000	9.308578
2392.000000	9.305630
2393.000000	9.302255
2394.000000	9.298380
2395.000000	9.293745
2396.000000	9.314290
2397.000000	9.333520
2398.000000	9.352530
2399.000000	9.346737
2400.000000	9.364992
2401.000000	9.382990
2402.000000	9.375303
2403.000000	9.343640
2404.000000	9.311480
2405.000000	9.303990
2406.000000	9.320708
2407.000000	9.312610
2408.000000	9.329042
2409.000000	9.319297
2410.000000	9.309890
2411.000000	9.324748
2412.000000	9.339700
2413.000000	9.327707
2414.000000	9.314400
2415.000000	9.276470
2416.000000	9.212827
2417.000000	9.197385
2418.000000	9.131058
2419.000000	9.114383
2420.000000	9.096307
2421.000000	9.053133
2422.000000	9.034758
2423.000000	9.040437
2424.000000	9.070627
2425.000000	9.074660
2426.000000	9.078827
2427.000000	9.058612
2428.000000	9.062550
2429.000000	9.041327
2430.000000	9.020705
2431.000000	8.974267
2432.000000	8.951535
2433.000000	8.904847
2434.000000	8.858840
2435.000000	8.813852
2436.000000	8.793443
2437.000000	8.796910
2438.000000	8.800887
2439.000000	8.829905
2440.000000	8.808135
2441.000000	8.813227
2442.000000	8.792965
2443.000000	8.847338
2444.000000	8.825875
2445.000000	8.829015
2446.000000	8.831862
2447.000000	8.809973
2448.000000	8.790313
2449.000000	8.745083
2450.000000	8.750880
2451.000000	8.779670
2452.000000	8.808922
2453.000000	8.789407
2454.000000	8.821045
2455.000000	8.853755
2456.000000	8.887525
2457.000000	8.896785
2458.000000	8.905548
2459.000000	8.939970
2460.000000	8.999250
2461.000000	8.984775
2462.000000	8.970885
2463.000000	8.931595
2464.000000	8.968330
2465.000000	9.004468
2466.000000	9.042270
2467.000000	9.105235
2468.000000	9.118263
2469.000000	9.108377
2470.000000	9.122415
2471.000000	9.237643
2472.000000	9.356870
2473.000000	9.550795
2474.000000	9.620355
2475.000000	9.716840
2476.000000	9.761857
2477.000000	9.883498
2478.000000	10.103965
2479.000000	10.297788
2480.000000	10.396693
2481.000000	10.446057
2482.000000	10.539957
2483.000000	10.613497
2484.000000	10.711642
2485.000000	10.834070
2486.000000	11.010235
2487.000000	11.107712
2488.000000	11.160750
2489.000000	11.240015
2490.000000	11.416045
2491.000000	11.695125
2492.000000	11.875185
2493.000000	12.078727
2494.000000	12.361487
2495.000000	12.597430
2496.000000	12.780863
2497.000000	12.917128
2498.000000	13.073215
2499.000000	13.204263
2500.000000	13.367005
2501.000000	16.741293
2502.000000	20.367863
2503.000000	23.942878
2504.000000	27.463990
2505.000000	31.181838
2506.000000	35.224950
2507.000000	39.419240
2508.000000	43.289668
2509.000000	47.285280
2510.000000	51.300000
2511.000000	52.600000
2512.000000	53.600000
2513.000000	54.700000
2514.000000	55.600000
2515.000000	56.900000
2516.000000	57.700000
2517.000000	58.600000
2518.000000	59.800000
2519.000000	61.000000
2520.000000	61.800000
2521.000000	62.200000
2522.000000	62.900000
2523.000000	63.400000
2524.000000	64.400000
2525.000000	64.700000
2526.000000	65.800000
2527.000000	66.400000
2528.000000	66.900000
2529.000000	67.600000
2530.000000	69.100000
2531.000000	70.600000
2532.000000	71.200000
2533.000000	71.900000
2534.000000	72.900000
2535.000000	73.400000
2536.000000	74.200000
2537.000000	74.900000
2538.000000	75.900000
2539.000000	76.800000
2540.000000	77.600000
2541.000000	77.600000
2542.000000	78.100000
2543.000000	78.900000
2544.000000	78.900000
2545.000000	79.600000
2546.000000	80.000000
2547.000000	80.600000
2548.000000	81.300000
2549.000000	81.600000
2550.000000	81.400000
2551.000000	81.900000
2552.000000	82.500000
2553.000000	82.900000
2554.000000	84.100000
2555.000000	85.600000
2556.000000	86.300000
2557.000000	87.000000
2558.000000	87.300000
2559.000000	87.300000
2560.000000	87.600000
2561.000000	88.400000
2562.000000	89.600000
2563.000000	91.100000
2564.000000	92.100000
2565.000000	91.800000
2566.000000	91.700000
2567.000000	91.800000
2568.000000	91.900000
2569.000000	92.800000
2570.000000	93.700000
2571.000000	93.700000
2572.000000	93.100000
2573.000000	92.800000
2574.000000	92.600000
2575.000000	92.700000
2576.000000	92.800000
2577.000000	93.300000
2578.000000	94.900000
2579.000000	95.600000
2580.000000	95.500000
2581.000000	96.100000
2582.000000	97.100000
2583.000000	96.700000
2584.000000	95.900000
2585.000000	95.900000
2586.000000	96.000000
2587.000000	95.700000
2588.000000	93.900000
2589.000000	92.900000
2590.000000	93.200000
2591.000000	93.400000
2592.000000	93.400000
2593.000000	94.100000
2594.000000	94.900000
2595.000000	95.100000
2596.000000	95.800000
2597.000000	95.800000
2598.000000	95.900000
2599.000000	96.200000
2600.000000	96.000000
2601.000000	95.800000
2602.000000	95.900000
2603.000000	95.800000
2604.000000	95.300000
2605.000000	95.300000
2606.000000	95.200000
2607.000000	96.000000
2608.000000	96.900000
2609.000000	97.500000
2610.000000	98.000000
2611.000000	97.400000
2612.000000	97.400000
2613.000000	98.400000
2614.000000	98.900000
2615.000000	99.200000
2616.000000	99.900000
2617.000000	99.900000
2618.000000	99.700000
2619.000000	99.800000
2620.000000	100.000000
2621.000000	100.800000
2622.000000	100.300000
2623.000000	99.000000
2624.000000	98.700000
2625.000000	98.500000
2626.000000	97.700000
2627.000000	97.200000
2628.000000	97.400000
2629.000000	97.300000
2630.000000	97.400000
2631.000000	97.700000
2632.000000	98.000000
2633.000000	98.400000
2634.000000	98.700000
2635.000000	98.800000
2636.000000	98.500000
2637.000000	98.600000
2638.000000	97.900000
2639.000000	97.400000
2640.000000	96.700000
2641.000000	95.800000
2642.000000	95.500000
2643.000000	95.100000
2644.000000	95.100000
2645.000000	96.300000
2646.000000	97.900000
2647.000000	98.000000
2648.000000	98.200000
2649.000000	98.500000
2650.000000	97.900000
2651.000000	97.800000
2652.000000	97.800000
2653.000000	98.300000
2654.000000	98.000000
2655.000000	97.200000
2656.000000	95.600000
2657.000000	95.900000
2658.000000	96.100000
2659.000000	95.500000
2660.000000	95.800000
2661.000000	96.100000
2662.000000	96.200000
2663.000000	95.400000
2664.000000	96.300000
2665.000000	96.900000
2666.000000	96.900000
2667.000000	96.200000
2668.000000	96.400000
2669.000000	97.400000
2670.000000	97.800000
2671.000000	97.600000
2672.000000	97.400000
2673.000000	97.700000
2674.000000	97.700000
2675.000000	97.300000
2676.000000	97.700000
2677.000000	98.100000
2678.000000	98.000000
2679.000000	96.900000
2680.000000	96.000000
2681.000000	97.000000
2682.000000	97.100000
2683.000000	97.400000
2684.000000	96.600000
2685.000000	95.600000
2686.000000	95.300000
2687.000000	95.400000
2688.000000	95.800000
2689.000000	96.600000
2690.000000	98.200000
2691.000000	98.600000
2692.000000	99.700000
2693.000000	100.100000
2694.000000	101.200000
2695.000000	102.100000
2696.000000	102.300000
2697.000000	101.800000
2698.000000	102.100000
2699.000000	102.100000
2700.000000	100.700000
2701.000000	99.200000
2702.000000	98.900000
2703.000000	98.500000
2704.000000	98.100000
2705.000000	98.200000
2706.000000	97.900000
2707.000000	98.800000
2708.000000	97.900000
2709.000000	97.800000
2710.000000	98.700000
2711.000000	98.700000
2712.000000	97.600000
2713.000000	98.100000
2714.000000	98.000000
2715.000000	97.800000
2716.000000	97.500000
2717.000000	97.300000
2718.000000	96.800000
2719.000000	97.500000
2720.000000	98.000000
2721.000000	98.900000
2722.000000	99.100000
2723.000000	98.900000
2724.000000	98.300000
2725.000000	99.800000
2726.000000	99.900000
2727.000000	99.700000
2728.000000	100.300000
2729.000000	99.600000
2730.000000	99.300000
2731.000000	99.700000
2732.000000	100.500000
2733.000000	100.600000
2734.000000	101.100000
2735.000000	98.900000
2736.000000	99.800000
2737.000000	100.100000
2738.000000	101.500000
2739.000000	102.200000
2740.000000	102.400000
2741.000000	101.000000
2742.000000	100.500000
2743.000000	99.200000
2744.000000	99.500000
2745.000000	100.600000
2746.000000	99.500000
2747.000000	99.600000
2748.000000	97.200000
2749.000000	96.600000
2750.000000	96.200000
2751.000000	96.700000
2752.000000	96.800000
2753.000000	98.100000
2754.000000	98.200000
2755.000000	97.700000
2756.000000	97.800000
2757.000000	97.700000
2758.000000	99.000000
2759.000000	99.700000
2760.000000	99.100000
2761.000000	98.400000
2762.000000	98.700000
2763.000000	98.300000
2764.000000	98.000000
2765.000000	98.000000
2766.000000	98.500000
2767.000000	98.000000
2768.000000	97.500000
2769.000000	96.900000
2770.000000	97.400000
2771.000000	98.300000
2772.000000	97.600000
2773.000000	97.000000
2774.000000	96.100000
2775.000000	94.900000
2776.000000	94.900000
2777.000000	95.100000
2778.000000	96.500000
2779.000000	96.000000
2780.000000	95.500000
2781.000000	95.600000
2782.000000	94.900000
2783.000000	94.500000
2784.000000	94.500000
2785.000000	94.800000
2786.000000	95.500000
2787.000000	94.600000
2788.000000	93.700000
2789.000000	94.700000
2790.000000	96.100000
2791.000000	95.900000
2792.000000	97.100000
2793.000000	98.100000
2794.000000	98.900000
2795.000000	99.600000
2796.000000	99.000000
2797.000000	100.000000
2798.000000	100.500000
2799.000000	101.200000
2800.000000	102.400000
2801.000000	103.200000
2802.000000	104.500000
2803.000000	105.700000
2804.000000	105.800000
2805.000000	106.600000
2806.000000	105.200000
2807.000000	104.400000
2808.000000	103.600000
2809.000000	102.200000
2810.000000	100.300000
2811.000000	98.900000
2812.000000	96.900000
2813.000000	96.600000
2814.000000	97.100000
2815.000000	97.200000
2816.000000	99.000000
2817.000000	98.900000
2818.000000	98.500000
2819.000000	97.900000
2820.000000	97.600000
2821.000000	98.700000
2822.000000	98.500000
2823.000000	97.600000
2824.000000	96.400000
2825.000000	94.300000
2826.000000	93.100000
2827.000000	92.600000
2828.000000	92.900000
2829.000000	93.400000
2830.000000	93.200000
2831.000000	92.500000
2832.000000	91.900000
2833.000000	92.100000
2834.000000	93.600000
2835.000000	96.600000
2836.000000	98.300000
2837.000000	99.300000
2838.000000	100.200000
2839.000000	100.000000
2840.000000	98.500000
2841.000000	97.400000
2842.000000	98.000000
2843.000000	97.200000
2844.000000	95.100000
2845.000000	93.000000
2846.000000	92.600000
2847.000000	92.900000
2848.000000	91.800000
2849.000000	92.300000
2850.000000	95.000000
2851.000000	98.000000
2852.000000	101.200000
2853.000000	103.700000
2854.000000	105.500000
2855.000000	104.800000
2856.000000	103.200000
2857.000000	103.800000
2858.000000	105.200000
2859.000000	104.100000
2860.000000	101.500000
2861.000000	98.400000
2862.000000	94.300000
2863.000000	91.100000
2864.000000	89.400000
2865.000000	90.200000
2866.000000	90.800000
2867.000000	90.500000
2868.000000	91.700000
2869.000000	92.300000
2870.000000	93.400000
2871.000000	94.300000
2872.000000	94.900000
2873.000000	94.500000
2874.000000	92.800000
2875.000000	91.100000
2876.000000	89.500000
2877.000000	87.200000
2878.000000	83.900000
2879.000000	82.400000
2880.000000	81.600000
2881.000000	81.200000
2882.000000	82.100000
2883.000000	84.600000
2884.000000	87.200000
2885.000000	87.600000
2886.000000	87.600000
2887.000000	88.200000
2888.000000	87.800000
2889.000000	87.200000
2890.000000	87.000000
2891.000000	86.300000
2892.000000	86.300000
2893.000000	84.600000
2894.000000	82.900000
2895.000000	81.600000
2896.000000	83.500000
2897.000000	83.100000
2898.000000	83.200000
2899.000000	83.200000
2900.000000	80.800000
2901.000000	79.500000
2902.000000	78.300000
2903.000000	81.700000
2904.000000	85.000000
2905.000000	89.300000
2906.000000	90.400000
2907.000000	91.100000
2908.000000	90.600000
2909.000000	89.600000
2910.000000	92.300000
2911.000000	87.800000
2912.000000	75.000000
2913.000000	64.400000
2914.000000	48.100000
2915.000000	37.800000
2916.000000	29.000000
2917.000000	13.300000
2918.000000	2.400000
2919.000000	-2.200000
2920.000000	-10.000000
2921.000000	29.000000
2922.000000	33.600000
2923.000000	45.400000
2924.000000	68.800000
2925.000000	71.800000
2926.000000	41.000000
2927.000000	42.600000
2928.000000	76.800000
2929.000000	94.200000
2930.000000	103.200000
2931.000000	76.400000
2932.000000	87.000000
2933.000000	86.500000
2934.000000	79.000000
2935.000000	87.400000
2936.000000	128.900000
2937.000000	151.200000
2938.000000	133.400000
2939.000000	123.700000
2940.000000	124.900000
2941.000000	124.000000
2942.000000	125.000000
2943.000000	125.500000
2944.000000	129.200000
2945.000000	129.800000
2946.000000	128.900000
2947.000000	122.900000
2948.000000	121.700000
2949.000000	124.700000
2950.000000	126.000000
2951.000000	124.500000
2952.000000	126.000000
2953.000000	123.800000
2954.000000	121.800000
2955.000000	119.400000
2956.000000	119.400000
2957.000000	118.400000
2958.000000	118.300000
2959.000000	117.700000
2960.000000	117.500000
2961.000000	116.800000
2962.000000	114.000000
2963.000000	113.600000
2964.000000	112.000000
2965.000000	113.100000
2966.000000	113.600000
2967.000000	114.500000
2968.000000	113.800000
2969.000000	112.600000
2970.000000	111.100000
2971.000000	110.400000
2972.000000	110.700000
2973.000000	111.000000
2974.000000	111.200000
2975.000000	110.700000
2976.000000	109.400000
2977.000000	109.400000
2978.000000	108.900000
2979.000000	109.000000
2980.000000	109.300000
2981.000000	109.400000
2982.000000	109.200000
2983.000000	108.100000
2984.000000	107.300000
2985.000000	106.900000
2986.000000	106.000000
2987.000000	105.000000
2988.000000	104.600000
2989.000000	104.300000
2990.000000	104.100000
2991.000000	104.200000
2992.000000	103.800000
2993.000000	103.900000
2994.000000	103.800000
2995.000000	103.800000
2996.000000	104.400000
2997.000000	105.200000
2998.000000	105.400000
2999.000000	105.200000
3000.000000	105.000000
