PE UV       SUBTECH     SPECTRUM    ASCII       PEDS        4.00        
   -1
INBUCR0422-4.Sample.ASC
24/02/09
13:28:09.00
24/02/09
13:28:09.00
Vinicio Soto Monge
Chrysina chrysargyrea. Det: A. Solís. COSTA RICA.  Prov. Guanacaste. A.C.G. Liberia. P. N. Gte. Est Mengo. Volcán Cacao. Bque Primario. 1000 m. 3-6 JUL 1987. Junzen. Manual.  #52577. INB0003358370.  Sin élitro izq
250,000000
1
Lambda 1050
1050L1511233
PerkinElmer UV WinLab 6.3.2.0749 / 2.02.05 Lambda 900 UV/VIS/NIR, Aug  7 2015 09:38:08

0
0
3350/servo 860,8/2
0
0
UV/VIS
1
1
1
DoubleDePol,CommonBeamDepol,RBeamAtt,SBeamAtt,60mm sphere, WB InGaAs Detector
0
0
0
0
Program
Program
3350/servo 860,8/2
3350/0,2 860,8/0,2
3350/0,2 860,8/0,2
0
15.00
 
 
 
0
 
860,8
319,2
860,8
Front
100
on
S:100 R:100
0
0
0
0
 
0
 
 
 
0
 
 
0
0
0
0
0
 
 
 
 
0
0


0
0
#HDR
-1
-1
#GR
nm
%R
1.0
0.0
2500,000000
-1,000000
2251
8
20,848300
1,998900
#DATA

250.000000	nan
251.000000	nan
252.000000	nan
253.000000	nan
254.000000	nan
255.000000	nan
256.000000	nan
257.000000	nan
258.000000	nan
259.000000	4.149990
260.000000	4.146373
261.000000	4.144980
262.000000	4.142965
263.000000	4.141069
264.000000	4.138176
265.000000	4.135584
266.000000	4.131663
267.000000	4.126603
268.000000	4.122515
269.000000	4.118256
270.000000	4.114347
271.000000	4.111255
272.000000	4.107759
273.000000	4.104405
274.000000	4.100869
275.000000	4.098779
276.000000	4.096073
277.000000	4.094984
278.000000	4.093551
279.000000	4.092615
280.000000	4.090898
281.000000	4.089247
282.000000	4.088041
283.000000	4.086391
284.000000	4.085870
285.000000	4.084442
286.000000	4.083962
287.000000	4.082500
288.000000	4.081689
289.000000	4.080917
290.000000	4.081835
291.000000	4.082127
292.000000	4.080976
293.000000	4.081460
294.000000	4.079226
295.000000	4.077168
296.000000	4.077803
297.000000	4.076967
298.000000	4.075788
299.000000	4.073368
300.000000	4.070488
301.000000	4.066523
302.000000	4.065096
303.000000	4.063306
304.000000	4.062902
305.000000	4.063495
306.000000	4.061022
307.000000	4.059405
308.000000	4.057972
309.000000	4.057597
310.000000	4.058661
311.000000	4.058993
312.000000	4.058614
313.000000	4.057853
314.000000	4.056750
315.000000	4.054931
316.000000	4.056315
317.000000	4.082156
318.000000	4.095932
319.000000	4.102960
320.000000	4.114547
321.000000	4.121390
322.000000	4.133915
323.000000	4.151635
324.000000	4.163822
325.000000	4.176558
326.000000	4.181799
327.000000	4.166895
328.000000	4.163140
329.000000	4.166258
330.000000	4.167215
331.000000	4.170937
332.000000	4.169342
333.000000	4.156888
334.000000	4.155721
335.000000	4.150987
336.000000	4.150674
337.000000	4.147646
338.000000	4.145899
339.000000	4.147487
340.000000	4.141998
341.000000	4.142825
342.000000	4.144399
343.000000	4.183119
344.000000	4.213632
345.000000	4.247310
346.000000	4.287628
347.000000	4.324913
348.000000	4.361521
349.000000	4.392845
350.000000	4.428119
351.000000	4.461888
352.000000	4.495320
353.000000	4.500972
354.000000	4.508818
355.000000	4.518536
356.000000	4.527509
357.000000	4.569805
358.000000	4.612530
359.000000	4.662736
360.000000	4.715420
361.000000	4.768903
362.000000	4.821816
363.000000	4.905710
364.000000	4.998102
365.000000	5.092644
366.000000	5.182654
367.000000	5.278861
368.000000	5.378016
369.000000	5.478095
370.000000	5.608039
371.000000	5.746561
372.000000	5.892562
373.000000	6.039857
374.000000	6.186360
375.000000	6.363440
376.000000	6.550405
377.000000	6.698968
378.000000	6.882313
379.000000	7.069609
380.000000	7.263791
381.000000	7.460114
382.000000	7.661122
383.000000	7.867025
384.000000	8.078458
385.000000	8.296969
386.000000	8.520132
387.000000	8.756924
388.000000	8.996780
389.000000	9.239483
390.000000	9.455373
391.000000	9.700639
392.000000	9.946865
393.000000	10.165493
394.000000	10.384770
395.000000	10.603288
396.000000	10.819942
397.000000	11.035216
398.000000	11.220119
399.000000	11.402073
400.000000	11.581153
401.000000	11.757299
402.000000	11.929916
403.000000	12.097671
404.000000	12.260568
405.000000	12.390209
406.000000	12.515156
407.000000	12.635474
408.000000	12.751339
409.000000	12.862601
410.000000	12.968662
411.000000	13.040599
412.000000	13.107412
413.000000	13.169720
414.000000	13.227763
415.000000	13.281131
416.000000	13.330266
417.000000	13.375555
418.000000	13.387616
419.000000	13.394819
420.000000	13.398359
421.000000	13.398598
422.000000	13.395294
423.000000	13.388177
424.000000	13.348447
425.000000	13.305376
426.000000	13.258731
427.000000	13.208547
428.000000	13.184382
429.000000	13.157641
430.000000	13.127590
431.000000	13.094160
432.000000	13.057879
433.000000	13.019196
434.000000	13.006689
435.000000	12.992187
436.000000	12.976000
437.000000	12.957772
438.000000	12.937486
439.000000	12.915793
440.000000	12.893519
441.000000	12.898862
442.000000	12.902962
443.000000	12.906095
444.000000	12.909944
445.000000	12.915310
446.000000	12.922092
447.000000	12.930915
448.000000	12.941864
449.000000	12.955379
450.000000	12.972066
451.000000	12.964063
452.000000	12.960855
453.000000	12.963100
454.000000	12.969205
455.000000	12.978785
456.000000	12.992482
457.000000	13.010884
458.000000	13.005542
459.000000	13.004300
460.000000	13.006606
461.000000	13.011961
462.000000	13.019277
463.000000	13.027892
464.000000	13.009032
465.000000	12.989983
466.000000	12.969545
467.000000	12.946541
468.000000	12.948406
469.000000	12.946011
470.000000	12.938501
471.000000	12.925676
472.000000	12.907377
473.000000	12.882681
474.000000	12.879861
475.000000	12.870787
476.000000	12.855304
477.000000	12.833539
478.000000	12.834797
479.000000	12.830527
480.000000	12.819890
481.000000	12.802482
482.000000	12.779786
483.000000	12.754718
484.000000	12.729751
485.000000	12.706918
486.000000	12.687663
487.000000	12.672508
488.000000	12.633480
489.000000	12.600262
490.000000	12.574999
491.000000	12.530587
492.000000	12.494939
493.000000	12.466636
494.000000	12.444159
495.000000	12.426124
496.000000	12.411406
497.000000	12.400034
498.000000	12.392025
499.000000	12.387166
500.000000	12.384952
501.000000	12.412673
502.000000	12.440981
503.000000	12.468829
504.000000	12.524456
505.000000	12.578490
506.000000	12.630377
507.000000	12.679661
508.000000	12.726241
509.000000	12.769311
510.000000	12.836307
511.000000	12.899368
512.000000	12.958618
513.000000	13.014734
514.000000	13.067952
515.000000	13.118722
516.000000	13.168555
517.000000	13.218531
518.000000	13.297680
519.000000	13.379448
520.000000	13.437259
521.000000	13.529295
522.000000	13.628496
523.000000	13.736454
524.000000	13.854198
525.000000	13.983017
526.000000	14.123478
527.000000	14.304543
528.000000	14.469080
529.000000	14.644253
530.000000	14.857322
531.000000	15.049101
532.000000	15.245584
533.000000	15.471372
534.000000	15.665923
535.000000	15.854682
536.000000	16.035718
537.000000	16.178446
538.000000	16.310130
539.000000	16.459104
540.000000	16.568512
541.000000	16.667241
542.000000	16.756936
543.000000	16.810882
544.000000	16.859536
545.000000	16.905610
546.000000	16.949512
547.000000	16.991937
548.000000	17.033585
549.000000	17.046136
550.000000	17.058275
551.000000	17.070339
552.000000	17.081245
553.000000	17.091742
554.000000	17.102244
555.000000	17.111525
556.000000	17.119559
557.000000	17.126924
558.000000	17.133226
559.000000	17.138676
560.000000	17.126694
561.000000	17.110640
562.000000	17.093666
563.000000	17.076384
564.000000	17.058217
565.000000	17.039973
566.000000	17.021671
567.000000	17.003403
568.000000	16.985428
569.000000	16.967980
570.000000	16.967276
571.000000	16.970078
572.000000	16.973214
573.000000	16.975778
574.000000	16.978237
575.000000	16.980199
576.000000	16.981912
577.000000	16.982339
578.000000	16.982163
579.000000	16.980680
580.000000	16.976863
581.000000	16.970966
582.000000	16.963645
583.000000	16.954665
584.000000	16.914219
585.000000	16.870587
586.000000	16.824509
587.000000	16.776051
588.000000	16.723546
589.000000	16.667139
590.000000	16.578228
591.000000	16.485182
592.000000	16.387270
593.000000	16.283894
594.000000	16.175308
595.000000	16.062136
596.000000	15.943864
597.000000	15.792348
598.000000	15.637533
599.000000	15.479233
600.000000	15.348570
601.000000	15.217046
602.000000	15.058582
603.000000	14.904642
604.000000	14.785804
605.000000	14.675894
606.000000	14.577029
607.000000	14.518728
608.000000	14.472559
609.000000	14.438214
610.000000	14.412444
611.000000	14.392622
612.000000	14.375837
613.000000	14.357406
614.000000	14.335378
615.000000	14.305122
616.000000	14.265336
617.000000	14.214749
618.000000	14.154181
619.000000	14.084218
620.000000	14.008988
621.000000	13.931980
622.000000	13.884467
623.000000	13.840415
624.000000	13.801479
625.000000	13.770311
626.000000	13.746571
627.000000	13.730128
628.000000	13.719784
629.000000	13.715713
630.000000	13.716528
631.000000	13.720865
632.000000	13.699910
633.000000	13.680888
634.000000	13.662221
635.000000	13.643607
636.000000	13.623016
637.000000	13.600700
638.000000	13.575696
639.000000	13.547372
640.000000	13.514424
641.000000	13.478362
642.000000	13.466529
643.000000	13.452502
644.000000	13.466544
645.000000	13.480222
646.000000	13.495579
647.000000	13.514274
648.000000	13.536972
649.000000	13.564855
650.000000	13.598586
651.000000	13.637025
652.000000	13.679984
653.000000	13.726091
654.000000	13.746195
655.000000	13.767145
656.000000	13.788307
657.000000	13.808760
658.000000	13.828133
659.000000	13.845805
660.000000	13.862225
661.000000	13.877947
662.000000	13.893169
663.000000	13.909216
664.000000	13.925238
665.000000	13.941754
666.000000	13.959146
667.000000	14.004550
668.000000	14.049853
669.000000	14.095934
670.000000	14.141476
671.000000	14.185965
672.000000	14.230007
673.000000	14.273824
674.000000	14.317816
675.000000	14.362510
676.000000	14.408429
677.000000	14.456297
678.000000	14.506982
679.000000	14.558872
680.000000	14.613815
681.000000	14.671169
682.000000	14.729534
683.000000	14.788453
684.000000	14.847677
685.000000	14.907293
686.000000	14.994089
687.000000	15.051184
688.000000	15.106834
689.000000	15.161911
690.000000	15.215325
691.000000	15.267621
692.000000	15.320433
693.000000	15.373113
694.000000	15.426806
695.000000	15.480517
696.000000	15.506700
697.000000	15.533545
698.000000	15.561221
699.000000	15.589666
700.000000	15.617251
701.000000	15.644967
702.000000	15.672519
703.000000	15.728285
704.000000	15.782645
705.000000	15.837370
706.000000	15.892219
707.000000	15.947729
708.000000	16.003671
709.000000	16.059016
710.000000	16.145072
711.000000	16.233348
712.000000	16.321820
713.000000	16.381457
714.000000	16.441185
715.000000	16.501891
716.000000	16.590898
717.000000	16.678611
718.000000	16.765617
719.000000	16.852954
720.000000	16.909920
721.000000	16.965215
722.000000	17.020129
723.000000	17.075206
724.000000	17.158431
725.000000	17.240752
726.000000	17.294450
727.000000	17.348581
728.000000	17.403319
729.000000	17.458161
730.000000	17.513063
731.000000	17.568064
732.000000	17.622418
733.000000	17.676255
734.000000	17.701379
735.000000	17.725748
736.000000	17.750591
737.000000	17.776573
738.000000	17.801442
739.000000	17.826084
740.000000	17.851118
741.000000	17.904173
742.000000	17.957629
743.000000	18.012175
744.000000	18.068496
745.000000	18.124642
746.000000	18.179764
747.000000	18.234241
748.000000	18.288219
749.000000	18.341283
750.000000	18.394464
751.000000	18.447161
752.000000	18.500439
753.000000	18.553302
754.000000	18.604872
755.000000	18.656827
756.000000	18.709114
757.000000	18.788818
758.000000	18.868291
759.000000	18.948511
760.000000	19.029209
761.000000	19.082008
762.000000	19.134904
763.000000	19.215647
764.000000	19.296072
765.000000	19.375502
766.000000	19.454787
767.000000	19.506687
768.000000	19.558929
769.000000	19.611321
770.000000	19.691351
771.000000	19.770639
772.000000	19.849396
773.000000	19.900297
774.000000	19.951788
775.000000	20.003719
776.000000	20.056347
777.000000	20.108052
778.000000	20.188257
779.000000	20.268810
780.000000	20.320587
781.000000	20.371692
782.000000	20.422141
783.000000	20.473275
784.000000	20.522833
785.000000	20.571160
786.000000	20.618311
787.000000	20.665748
788.000000	20.686104
789.000000	20.706465
790.000000	20.726598
791.000000	20.747148
792.000000	20.796032
793.000000	20.844458
794.000000	20.893832
795.000000	20.945068
796.000000	20.997838
797.000000	21.050112
798.000000	21.101187
799.000000	21.150450
800.000000	21.200947
801.000000	21.251942
802.000000	21.275088
803.000000	21.297237
804.000000	21.318276
805.000000	21.339809
806.000000	21.358549
807.000000	21.376220
808.000000	21.404806
809.000000	21.430904
810.000000	21.482110
811.000000	21.506542
812.000000	21.530378
813.000000	21.582274
814.000000	21.635451
815.000000	21.687362
816.000000	21.741488
817.000000	21.796199
818.000000	21.841105
819.000000	21.888875
820.000000	21.906965
821.000000	21.951756
822.000000	21.997081
823.000000	22.013789
824.000000	22.029450
825.000000	22.018955
826.000000	22.035452
827.000000	22.052006
828.000000	22.065437
829.000000	22.050453
830.000000	22.038387
831.000000	22.025166
832.000000	22.012135
833.000000	21.998197
834.000000	21.985175
835.000000	21.998876
836.000000	21.983649
837.000000	21.968120
838.000000	21.952725
839.000000	21.961180
840.000000	21.972726
841.000000	21.985155
842.000000	21.999491
843.000000	22.009268
844.000000	22.017223
845.000000	22.024589
846.000000	22.034199
847.000000	22.047805
848.000000	22.055471
849.000000	22.071593
850.000000	22.051140
851.000000	22.033832
852.000000	22.011289
853.000000	21.993170
854.000000	21.975271
855.000000	21.959076
856.000000	21.937314
857.000000	21.885575
858.000000	22.019663
859.000000	22.030005
860.000000	22.051566
861.000000	22.073858
862.000000	22.103388
863.000000	22.136956
864.000000	22.149598
865.000000	22.162599
866.000000	22.181309
867.000000	22.229420
868.000000	22.074692
869.000000	22.041300
870.000000	22.031795
871.000000	22.044733
872.000000	22.028453
873.000000	21.985843
874.000000	21.967473
875.000000	21.973318
876.000000	21.953038
877.000000	21.930365
878.000000	21.931197
879.000000	21.906825
880.000000	21.881588
881.000000	21.831065
882.000000	21.804427
883.000000	21.776153
884.000000	21.745150
885.000000	21.712763
886.000000	21.680553
887.000000	21.648100
888.000000	21.615862
889.000000	21.606582
890.000000	21.595625
891.000000	21.583503
892.000000	21.570573
893.000000	21.583655
894.000000	21.596525
895.000000	21.558163
896.000000	21.569120
897.000000	21.578250
898.000000	21.587925
899.000000	21.571668
900.000000	21.556115
901.000000	21.538978
902.000000	21.521940
903.000000	21.502550
904.000000	21.459332
905.000000	21.466960
906.000000	21.447845
907.000000	21.430263
908.000000	21.412565
909.000000	21.419965
910.000000	21.425407
911.000000	21.431270
912.000000	21.439275
913.000000	21.422725
914.000000	21.453598
915.000000	21.434315
916.000000	21.415508
917.000000	21.419475
918.000000	21.423137
919.000000	21.426853
920.000000	21.406527
921.000000	21.384943
922.000000	21.359748
923.000000	21.359132
924.000000	21.360307
925.000000	21.385135
926.000000	21.407685
927.000000	21.404958
928.000000	21.401155
929.000000	21.396055
930.000000	21.414110
931.000000	21.433525
932.000000	21.454705
933.000000	21.450050
934.000000	21.443380
935.000000	21.437658
936.000000	21.409197
937.000000	21.381490
938.000000	21.376697
939.000000	21.370917
940.000000	21.365188
941.000000	21.358620
942.000000	21.350203
943.000000	21.365590
944.000000	21.355450
945.000000	21.343680
946.000000	21.356587
947.000000	21.369592
948.000000	21.359117
949.000000	21.349975
950.000000	21.342860
951.000000	21.334165
952.000000	21.326110
953.000000	21.319845
954.000000	21.313472
955.000000	21.307882
956.000000	21.300745
957.000000	21.293523
958.000000	21.287183
959.000000	21.279560
960.000000	21.270330
961.000000	21.262228
962.000000	21.254252
963.000000	21.245373
964.000000	21.237258
965.000000	21.228558
966.000000	21.220823
967.000000	21.212365
968.000000	21.203100
969.000000	21.195090
970.000000	21.187250
971.000000	21.179593
972.000000	21.171582
973.000000	21.190085
974.000000	21.208025
975.000000	21.225205
976.000000	21.242757
977.000000	21.260948
978.000000	21.278990
979.000000	21.297810
980.000000	21.316947
981.000000	21.336627
982.000000	21.355280
983.000000	21.347672
984.000000	21.341440
985.000000	21.336670
986.000000	21.331160
987.000000	21.324948
988.000000	21.319120
989.000000	21.314145
990.000000	21.309753
991.000000	21.305277
992.000000	21.302862
993.000000	21.299760
994.000000	21.296205
995.000000	21.292415
996.000000	21.289903
997.000000	21.288553
998.000000	21.287155
999.000000	21.285168
1000.000000	21.282778
1001.000000	21.280570
1002.000000	21.278433
1003.000000	21.277890
1004.000000	21.277673
1005.000000	21.276020
1006.000000	21.274678
1007.000000	21.299070
1008.000000	21.323120
1009.000000	21.346745
1010.000000	21.371085
1011.000000	21.395335
1012.000000	21.419583
1013.000000	21.444592
1014.000000	21.469010
1015.000000	21.494740
1016.000000	21.520788
1017.000000	21.521320
1018.000000	21.522448
1019.000000	21.523972
1020.000000	21.525525
1021.000000	21.527912
1022.000000	21.531370
1023.000000	21.534213
1024.000000	21.538208
1025.000000	21.543112
1026.000000	21.546985
1027.000000	21.551603
1028.000000	21.556548
1029.000000	21.561193
1030.000000	21.566513
1031.000000	21.571440
1032.000000	21.575840
1033.000000	21.580668
1034.000000	21.585397
1035.000000	21.590283
1036.000000	21.595840
1037.000000	21.626085
1038.000000	21.656643
1039.000000	21.687900
1040.000000	21.718735
1041.000000	21.749372
1042.000000	21.779612
1043.000000	21.809320
1044.000000	21.839505
1045.000000	21.869965
1046.000000	21.900705
1047.000000	21.906693
1048.000000	21.912707
1049.000000	21.918592
1050.000000	21.924772
1051.000000	21.931352
1052.000000	21.937985
1053.000000	21.945280
1054.000000	21.952313
1055.000000	21.958967
1056.000000	21.965855
1057.000000	21.971510
1058.000000	21.976903
1059.000000	21.983142
1060.000000	21.989893
1061.000000	21.996685
1062.000000	22.003725
1063.000000	22.010945
1064.000000	22.018485
1065.000000	22.025652
1066.000000	22.057375
1067.000000	22.090697
1068.000000	22.124708
1069.000000	22.158005
1070.000000	22.190267
1071.000000	22.222920
1072.000000	22.256735
1073.000000	22.290848
1074.000000	22.324540
1075.000000	22.357705
1076.000000	22.365890
1077.000000	22.374525
1078.000000	22.383605
1079.000000	22.392435
1080.000000	22.400360
1081.000000	22.408572
1082.000000	22.415328
1083.000000	22.421340
1084.000000	22.427625
1085.000000	22.435155
1086.000000	22.442928
1087.000000	22.450153
1088.000000	22.456018
1089.000000	22.462457
1090.000000	22.470257
1091.000000	22.476442
1092.000000	22.483297
1093.000000	22.490847
1094.000000	22.497175
1095.000000	22.503935
1096.000000	22.510348
1097.000000	22.515823
1098.000000	22.522332
1099.000000	22.528220
1100.000000	22.534045
1101.000000	22.540090
1102.000000	22.546380
1103.000000	22.577407
1104.000000	22.609458
1105.000000	22.640215
1106.000000	22.670742
1107.000000	22.701362
1108.000000	22.730975
1109.000000	22.761312
1110.000000	22.791090
1111.000000	22.821072
1112.000000	22.849670
1113.000000	22.852125
1114.000000	22.854540
1115.000000	22.857502
1116.000000	22.861020
1117.000000	22.864125
1118.000000	22.866365
1119.000000	22.868180
1120.000000	22.869665
1121.000000	22.871145
1122.000000	22.873252
1123.000000	22.874975
1124.000000	22.875402
1125.000000	22.874530
1126.000000	22.871765
1127.000000	22.869340
1128.000000	22.868748
1129.000000	22.866815
1130.000000	22.863605
1131.000000	22.856055
1132.000000	22.820770
1133.000000	22.786575
1134.000000	22.754015
1135.000000	22.722873
1136.000000	22.691540
1137.000000	22.657270
1138.000000	22.619045
1139.000000	22.581160
1140.000000	22.544818
1141.000000	22.511627
1142.000000	22.503448
1143.000000	22.495140
1144.000000	22.484735
1145.000000	22.474060
1146.000000	22.464342
1147.000000	22.456708
1148.000000	22.450795
1149.000000	22.445453
1150.000000	22.439150
1151.000000	22.433140
1152.000000	22.429172
1153.000000	22.423110
1154.000000	22.417345
1155.000000	22.410017
1156.000000	22.377365
1157.000000	22.341918
1158.000000	22.304413
1159.000000	22.265103
1160.000000	22.224455
1161.000000	22.182395
1162.000000	22.138278
1163.000000	22.093083
1164.000000	22.046613
1165.000000	21.999675
1166.000000	21.975353
1167.000000	21.953160
1168.000000	21.931340
1169.000000	21.910135
1170.000000	21.889163
1171.000000	21.869825
1172.000000	21.851125
1173.000000	21.809628
1174.000000	21.769787
1175.000000	21.730270
1176.000000	21.693037
1177.000000	21.656510
1178.000000	21.623017
1179.000000	21.589395
1180.000000	21.556290
1181.000000	21.522610
1182.000000	21.491065
1183.000000	21.483867
1184.000000	21.476522
1185.000000	21.470508
1186.000000	21.465690
1187.000000	21.461733
1188.000000	21.458388
1189.000000	21.455385
1190.000000	21.455982
1191.000000	21.459263
1192.000000	21.463575
1193.000000	21.470083
1194.000000	21.479150
1195.000000	21.513095
1196.000000	21.548785
1197.000000	21.584990
1198.000000	21.621255
1199.000000	21.659047
1200.000000	21.696868
1201.000000	21.733448
1202.000000	21.768612
1203.000000	21.804057
1204.000000	21.838462
1205.000000	21.850137
1206.000000	21.859105
1207.000000	21.868583
1208.000000	21.878585
1209.000000	21.888890
1210.000000	21.899280
1211.000000	21.909597
1212.000000	21.921950
1213.000000	21.933650
1214.000000	21.944905
1215.000000	21.953935
1216.000000	21.964705
1217.000000	21.999423
1218.000000	22.033355
1219.000000	22.065970
1220.000000	22.097822
1221.000000	22.129945
1222.000000	22.160538
1223.000000	22.190560
1224.000000	22.219632
1225.000000	22.248417
1226.000000	22.276630
1227.000000	22.280017
1228.000000	22.282285
1229.000000	22.284745
1230.000000	22.286120
1231.000000	22.287515
1232.000000	22.288610
1233.000000	22.290273
1234.000000	22.291725
1235.000000	22.293267
1236.000000	22.294007
1237.000000	22.295725
1238.000000	22.298488
1239.000000	22.301317
1240.000000	22.304642
1241.000000	22.307955
1242.000000	22.310772
1243.000000	22.314240
1244.000000	22.319933
1245.000000	22.325645
1246.000000	22.333198
1247.000000	22.340655
1248.000000	22.348253
1249.000000	22.357040
1250.000000	22.365850
1251.000000	22.374870
1252.000000	22.409550
1253.000000	22.443725
1254.000000	22.477263
1255.000000	22.511883
1256.000000	22.546032
1257.000000	22.578735
1258.000000	22.610930
1259.000000	22.643200
1260.000000	22.675515
1261.000000	22.706772
1262.000000	22.712855
1263.000000	22.719380
1264.000000	22.725510
1265.000000	22.730792
1266.000000	22.734720
1267.000000	22.738818
1268.000000	22.742920
1269.000000	22.745893
1270.000000	22.747528
1271.000000	22.749047
1272.000000	22.750400
1273.000000	22.751207
1274.000000	22.752087
1275.000000	22.753150
1276.000000	22.754570
1277.000000	22.756502
1278.000000	22.758033
1279.000000	22.759815
1280.000000	22.762630
1281.000000	22.765870
1282.000000	22.769670
1283.000000	22.773307
1284.000000	22.776770
1285.000000	22.780667
1286.000000	22.784278
1287.000000	22.788038
1288.000000	22.792570
1289.000000	22.798037
1290.000000	22.804180
1291.000000	22.810247
1292.000000	22.815650
1293.000000	22.820737
1294.000000	22.825848
1295.000000	22.830742
1296.000000	22.836868
1297.000000	22.842908
1298.000000	22.848108
1299.000000	22.852078
1300.000000	22.855155
1301.000000	22.858080
1302.000000	22.860880
1303.000000	22.863727
1304.000000	22.866900
1305.000000	22.869483
1306.000000	22.870587
1307.000000	22.871065
1308.000000	22.871485
1309.000000	22.871552
1310.000000	22.871140
1311.000000	22.869580
1312.000000	22.866483
1313.000000	22.862590
1314.000000	22.857513
1315.000000	22.851702
1316.000000	22.845085
1317.000000	22.837363
1318.000000	22.829203
1319.000000	22.820195
1320.000000	22.810520
1321.000000	22.801565
1322.000000	22.793155
1323.000000	22.784568
1324.000000	22.775775
1325.000000	22.766513
1326.000000	22.756750
1327.000000	22.746237
1328.000000	22.734770
1329.000000	22.722750
1330.000000	22.685167
1331.000000	22.646730
1332.000000	22.607100
1333.000000	22.566280
1334.000000	22.524397
1335.000000	22.481742
1336.000000	22.438660
1337.000000	22.394467
1338.000000	22.348797
1339.000000	22.303373
1340.000000	22.282752
1341.000000	22.259030
1342.000000	22.234302
1343.000000	22.210255
1344.000000	22.184510
1345.000000	22.131085
1346.000000	22.077188
1347.000000	22.024060
1348.000000	21.969918
1349.000000	21.912155
1350.000000	21.851533
1351.000000	21.791252
1352.000000	21.729728
1353.000000	21.666600
1354.000000	21.607930
1355.000000	21.577920
1356.000000	21.521657
1357.000000	21.463613
1358.000000	21.407108
1359.000000	21.350270
1360.000000	21.299500
1361.000000	21.259745
1362.000000	21.221737
1363.000000	21.156627
1364.000000	21.090148
1365.000000	21.021718
1366.000000	20.975632
1367.000000	20.932660
1368.000000	20.887995
1369.000000	20.815790
1370.000000	20.737235
1371.000000	20.646477
1372.000000	20.549315
1373.000000	20.469933
1374.000000	20.354068
1375.000000	20.231945
1376.000000	20.103050
1377.000000	19.963135
1378.000000	19.787962
1379.000000	19.636222
1380.000000	19.483150
1381.000000	19.336435
1382.000000	19.171975
1383.000000	19.019713
1384.000000	18.899752
1385.000000	18.784970
1386.000000	18.680500
1387.000000	18.590312
1388.000000	18.541602
1389.000000	18.497890
1390.000000	18.431190
1391.000000	18.365195
1392.000000	18.326270
1393.000000	18.284705
1394.000000	18.247055
1395.000000	18.221587
1396.000000	18.197353
1397.000000	18.161320
1398.000000	18.116215
1399.000000	18.079600
1400.000000	18.078755
1401.000000	18.045190
1402.000000	18.000430
1403.000000	17.952000
1404.000000	17.903910
1405.000000	17.844173
1406.000000	17.781170
1407.000000	17.723303
1408.000000	17.669290
1409.000000	17.581510
1410.000000	17.481140
1411.000000	17.403133
1412.000000	17.330385
1413.000000	17.261907
1414.000000	17.192350
1415.000000	17.118892
1416.000000	17.042693
1417.000000	16.942502
1418.000000	16.843470
1419.000000	16.772398
1420.000000	16.700543
1421.000000	16.631752
1422.000000	16.565635
1423.000000	16.499518
1424.000000	16.431765
1425.000000	16.366155
1426.000000	16.278085
1427.000000	16.216750
1428.000000	16.155172
1429.000000	16.091690
1430.000000	16.032825
1431.000000	15.978695
1432.000000	15.924322
1433.000000	15.870507
1434.000000	15.815640
1435.000000	15.764318
1436.000000	15.740523
1437.000000	15.716197
1438.000000	15.693295
1439.000000	15.646145
1440.000000	15.600707
1441.000000	15.553462
1442.000000	15.507747
1443.000000	15.460680
1444.000000	15.417128
1445.000000	15.375975
1446.000000	15.334998
1447.000000	15.293312
1448.000000	15.249097
1449.000000	15.231848
1450.000000	15.215152
1451.000000	15.200260
1452.000000	15.183592
1453.000000	15.167780
1454.000000	15.151135
1455.000000	15.132462
1456.000000	15.114360
1457.000000	15.071682
1458.000000	15.030527
1459.000000	14.988090
1460.000000	14.944090
1461.000000	14.899373
1462.000000	14.855805
1463.000000	14.813033
1464.000000	14.769750
1465.000000	14.725715
1466.000000	14.681772
1467.000000	14.662952
1468.000000	14.643375
1469.000000	14.625570
1470.000000	14.608745
1471.000000	14.591357
1472.000000	14.574250
1473.000000	14.557638
1474.000000	14.539620
1475.000000	14.522270
1476.000000	14.506185
1477.000000	14.491125
1478.000000	14.477825
1479.000000	14.464305
1480.000000	14.450247
1481.000000	14.411957
1482.000000	14.375473
1483.000000	14.337345
1484.000000	14.302600
1485.000000	14.269337
1486.000000	14.235715
1487.000000	14.203707
1488.000000	14.171385
1489.000000	14.138893
1490.000000	14.107575
1491.000000	14.101952
1492.000000	14.095898
1493.000000	14.092325
1494.000000	14.089165
1495.000000	14.087168
1496.000000	14.086450
1497.000000	14.086158
1498.000000	14.086665
1499.000000	14.088520
1500.000000	14.091272
1501.000000	14.096155
1502.000000	14.103535
1503.000000	14.112240
1504.000000	14.121860
1505.000000	14.131938
1506.000000	14.143687
1507.000000	14.155810
1508.000000	14.195048
1509.000000	14.235322
1510.000000	14.276278
1511.000000	14.318122
1512.000000	14.359600
1513.000000	14.401270
1514.000000	14.443777
1515.000000	14.486413
1516.000000	14.528445
1517.000000	14.570910
1518.000000	14.588055
1519.000000	14.605348
1520.000000	14.622232
1521.000000	14.638507
1522.000000	14.654970
1523.000000	14.671345
1524.000000	14.686873
1525.000000	14.701417
1526.000000	14.716323
1527.000000	14.730320
1528.000000	14.743852
1529.000000	14.757220
1530.000000	14.770153
1531.000000	14.782468
1532.000000	14.794495
1533.000000	14.806115
1534.000000	14.817547
1535.000000	14.854198
1536.000000	14.889285
1537.000000	14.924330
1538.000000	14.959870
1539.000000	14.995158
1540.000000	15.030305
1541.000000	15.064790
1542.000000	15.098420
1543.000000	15.131710
1544.000000	15.164557
1545.000000	15.172865
1546.000000	15.182830
1547.000000	15.193323
1548.000000	15.203500
1549.000000	15.214042
1550.000000	15.225383
1551.000000	15.237515
1552.000000	15.250025
1553.000000	15.263022
1554.000000	15.276243
1555.000000	15.289220
1556.000000	15.301470
1557.000000	15.313002
1558.000000	15.323903
1559.000000	15.333172
1560.000000	15.341080
1561.000000	15.347373
1562.000000	15.351735
1563.000000	15.354585
1564.000000	15.356030
1565.000000	15.355690
1566.000000	15.354332
1567.000000	15.352152
1568.000000	15.348950
1569.000000	15.345300
1570.000000	15.341575
1571.000000	15.337478
1572.000000	15.333448
1573.000000	15.329390
1574.000000	15.326522
1575.000000	15.324840
1576.000000	15.322945
1577.000000	15.321763
1578.000000	15.321402
1579.000000	15.322110
1580.000000	15.348685
1581.000000	15.351247
1582.000000	15.380140
1583.000000	15.410945
1584.000000	15.442312
1585.000000	15.473695
1586.000000	15.506103
1587.000000	15.539832
1588.000000	15.574178
1589.000000	15.608367
1590.000000	15.617437
1591.000000	15.652160
1592.000000	15.662467
1593.000000	15.672262
1594.000000	15.681335
1595.000000	15.691290
1596.000000	15.701785
1597.000000	15.712128
1598.000000	15.723062
1599.000000	15.734270
1600.000000	15.746050
1601.000000	15.757955
1602.000000	15.770505
1603.000000	15.783805
1604.000000	15.798167
1605.000000	15.812240
1606.000000	15.826667
1607.000000	15.866015
1608.000000	15.905065
1609.000000	15.944690
1610.000000	15.983970
1611.000000	16.022920
1612.000000	16.061327
1613.000000	16.099422
1614.000000	16.136333
1615.000000	16.173527
1616.000000	16.209000
1617.000000	16.218003
1618.000000	16.226572
1619.000000	16.234770
1620.000000	16.242545
1621.000000	16.250070
1622.000000	16.257290
1623.000000	16.263735
1624.000000	16.270988
1625.000000	16.277773
1626.000000	16.285187
1627.000000	16.292752
1628.000000	16.300080
1629.000000	16.306965
1630.000000	16.313987
1631.000000	16.321405
1632.000000	16.328788
1633.000000	16.336205
1634.000000	16.342035
1635.000000	16.347452
1636.000000	16.352450
1637.000000	16.357420
1638.000000	16.362177
1639.000000	16.365815
1640.000000	16.368547
1641.000000	16.370065
1642.000000	16.371022
1643.000000	16.371000
1644.000000	16.371530
1645.000000	16.372127
1646.000000	16.371887
1647.000000	16.371173
1648.000000	16.370188
1649.000000	16.369872
1650.000000	16.368563
1651.000000	16.367110
1652.000000	16.364080
1653.000000	16.360160
1654.000000	16.355325
1655.000000	16.348020
1656.000000	16.338745
1657.000000	16.328922
1658.000000	16.317615
1659.000000	16.302955
1660.000000	16.287510
1661.000000	16.270193
1662.000000	16.250740
1663.000000	16.229485
1664.000000	16.205407
1665.000000	16.180122
1666.000000	16.128415
1667.000000	16.074018
1668.000000	16.014875
1669.000000	15.955340
1670.000000	15.893743
1671.000000	15.830938
1672.000000	15.767687
1673.000000	15.705685
1674.000000	15.618420
1675.000000	15.530542
1676.000000	15.467540
1677.000000	15.404743
1678.000000	15.344367
1679.000000	15.283275
1680.000000	15.222275
1681.000000	15.160110
1682.000000	15.096160
1683.000000	15.030257
1684.000000	14.963615
1685.000000	14.897720
1686.000000	14.834755
1687.000000	14.774720
1688.000000	14.719808
1689.000000	14.669652
1690.000000	14.626183
1691.000000	14.588395
1692.000000	14.559293
1693.000000	14.535985
1694.000000	14.545180
1695.000000	14.556918
1696.000000	14.570765
1697.000000	14.586570
1698.000000	14.600590
1699.000000	14.614350
1700.000000	14.626640
1701.000000	14.636792
1702.000000	14.644512
1703.000000	14.648612
1704.000000	14.648118
1705.000000	14.646435
1706.000000	14.641835
1707.000000	14.633585
1708.000000	14.599107
1709.000000	14.561282
1710.000000	14.519713
1711.000000	14.475290
1712.000000	14.426278
1713.000000	14.375480
1714.000000	14.321035
1715.000000	14.262785
1716.000000	14.202472
1717.000000	14.138240
1718.000000	14.097322
1719.000000	14.054760
1720.000000	14.011122
1721.000000	13.969148
1722.000000	13.929690
1723.000000	13.893445
1724.000000	13.863868
1725.000000	13.839347
1726.000000	13.795458
1727.000000	13.759030
1728.000000	13.726802
1729.000000	13.701140
1730.000000	13.680945
1731.000000	13.664378
1732.000000	13.651065
1733.000000	13.664638
1734.000000	13.676990
1735.000000	13.691595
1736.000000	13.731343
1737.000000	13.771807
1738.000000	13.813545
1739.000000	13.855195
1740.000000	13.898137
1741.000000	13.942185
1742.000000	13.986268
1743.000000	14.004437
1744.000000	14.024197
1745.000000	14.043668
1746.000000	14.063235
1747.000000	14.082187
1748.000000	14.099310
1749.000000	14.115928
1750.000000	14.129398
1751.000000	14.140258
1752.000000	14.150540
1753.000000	14.160170
1754.000000	14.167620
1755.000000	14.172705
1756.000000	14.176507
1757.000000	14.178928
1758.000000	14.180455
1759.000000	14.180978
1760.000000	14.180885
1761.000000	14.181783
1762.000000	14.182085
1763.000000	14.182150
1764.000000	14.208108
1765.000000	14.236530
1766.000000	14.265610
1767.000000	14.293997
1768.000000	14.323462
1769.000000	14.353857
1770.000000	14.386168
1771.000000	14.418952
1772.000000	14.452040
1773.000000	14.486232
1774.000000	14.496253
1775.000000	14.505892
1776.000000	14.515765
1777.000000	14.526628
1778.000000	14.538558
1779.000000	14.550210
1780.000000	14.560932
1781.000000	14.570715
1782.000000	14.579620
1783.000000	14.587867
1784.000000	14.594667
1785.000000	14.600795
1786.000000	14.604938
1787.000000	14.608377
1788.000000	14.609638
1789.000000	14.610143
1790.000000	14.610313
1791.000000	14.610345
1792.000000	14.610958
1793.000000	14.612393
1794.000000	14.614943
1795.000000	14.617015
1796.000000	14.619120
1797.000000	14.620382
1798.000000	14.621685
1799.000000	14.623698
1800.000000	14.627467
1801.000000	14.632058
1802.000000	14.636222
1803.000000	14.637638
1804.000000	14.638033
1805.000000	14.640475
1806.000000	14.644803
1807.000000	14.649848
1808.000000	14.652955
1809.000000	14.654200
1810.000000	14.654923
1811.000000	14.657320
1812.000000	14.659853
1813.000000	14.662628
1814.000000	14.690935
1815.000000	14.717517
1816.000000	14.740413
1817.000000	14.759395
1818.000000	14.777183
1819.000000	14.799083
1820.000000	14.828213
1821.000000	14.859950
1822.000000	14.888180
1823.000000	14.910150
1824.000000	14.902385
1825.000000	14.893315
1826.000000	14.887532
1827.000000	14.887850
1828.000000	14.892760
1829.000000	14.897325
1830.000000	14.897050
1831.000000	14.890540
1832.000000	14.883042
1833.000000	14.877863
1834.000000	14.874878
1835.000000	14.874863
1836.000000	14.878468
1837.000000	14.883022
1838.000000	14.886588
1839.000000	14.889338
1840.000000	14.894075
1841.000000	14.907233
1842.000000	14.925395
1843.000000	14.940157
1844.000000	14.945220
1845.000000	14.941900
1846.000000	14.939140
1847.000000	14.946828
1848.000000	14.964305
1849.000000	14.978775
1850.000000	14.978560
1851.000000	14.963943
1852.000000	14.948007
1853.000000	14.942363
1854.000000	14.949820
1855.000000	14.963135
1856.000000	14.966798
1857.000000	14.953733
1858.000000	14.933880
1859.000000	14.918440
1860.000000	14.913615
1861.000000	14.914143
1862.000000	14.910700
1863.000000	14.898082
1864.000000	14.875552
1865.000000	14.846668
1866.000000	14.817052
1867.000000	14.762167
1868.000000	14.701340
1869.000000	14.639065
1870.000000	14.578967
1871.000000	14.520892
1872.000000	14.469100
1873.000000	14.424300
1874.000000	14.384685
1875.000000	14.324825
1876.000000	14.265685
1877.000000	14.228535
1878.000000	14.187093
1879.000000	14.135570
1880.000000	14.044958
1881.000000	13.945605
1882.000000	13.838190
1883.000000	13.724938
1884.000000	13.608960
1885.000000	13.487287
1886.000000	13.359750
1887.000000	13.225765
1888.000000	13.086495
1889.000000	12.921292
1890.000000	12.782523
1891.000000	12.645060
1892.000000	12.506032
1893.000000	12.336575
1894.000000	12.160045
1895.000000	12.000675
1896.000000	11.836940
1897.000000	11.649787
1898.000000	11.467535
1899.000000	11.312520
1900.000000	11.158270
1901.000000	10.999373
1902.000000	10.811873
1903.000000	10.652218
1904.000000	10.500443
1905.000000	10.335067
1906.000000	10.178138
1907.000000	10.051308
1908.000000	9.923345
1909.000000	9.791712
1910.000000	9.635555
1911.000000	9.486023
1912.000000	9.370468
1913.000000	9.262837
1914.000000	9.158170
1915.000000	9.076495
1916.000000	8.994105
1917.000000	8.912157
1918.000000	8.810348
1919.000000	8.717765
1920.000000	8.657285
1921.000000	8.601215
1922.000000	8.546390
1923.000000	8.489020
1924.000000	8.430067
1925.000000	8.376160
1926.000000	8.328057
1927.000000	8.284868
1928.000000	8.271205
1929.000000	8.259205
1930.000000	8.247620
1931.000000	8.236060
1932.000000	8.224583
1933.000000	8.216195
1934.000000	8.185438
1935.000000	8.180753
1936.000000	8.152740
1937.000000	8.126523
1938.000000	8.128165
1939.000000	8.105320
1940.000000	8.083858
1941.000000	8.064187
1942.000000	8.045410
1943.000000	8.027740
1944.000000	8.037085
1945.000000	8.023970
1946.000000	8.062197
1947.000000	8.101057
1948.000000	8.112317
1949.000000	8.149420
1950.000000	8.186255
1951.000000	8.223667
1952.000000	8.263435
1953.000000	8.303992
1954.000000	8.346870
1955.000000	8.388735
1956.000000	8.405270
1957.000000	8.422073
1958.000000	8.439773
1959.000000	8.457010
1960.000000	8.475732
1961.000000	8.492790
1962.000000	8.510970
1963.000000	8.529080
1964.000000	8.545212
1965.000000	8.561218
1966.000000	8.577280
1967.000000	8.592725
1968.000000	8.607803
1969.000000	8.622578
1970.000000	8.636883
1971.000000	8.652687
1972.000000	8.692187
1973.000000	8.732112
1974.000000	8.771973
1975.000000	8.811400
1976.000000	8.851418
1977.000000	8.892012
1978.000000	8.932620
1979.000000	8.974695
1980.000000	9.017103
1981.000000	9.058743
1982.000000	9.074413
1983.000000	9.090120
1984.000000	9.106447
1985.000000	9.123615
1986.000000	9.140173
1987.000000	9.156645
1988.000000	9.173270
1989.000000	9.189082
1990.000000	9.204255
1991.000000	9.245470
1992.000000	9.286127
1993.000000	9.325820
1994.000000	9.365945
1995.000000	9.404475
1996.000000	9.442333
1997.000000	9.480203
1998.000000	9.517067
1999.000000	9.552938
2000.000000	9.587698
2001.000000	9.596260
2002.000000	9.604955
2003.000000	9.613418
2004.000000	9.619680
2005.000000	9.625773
2006.000000	9.630350
2007.000000	9.633888
2008.000000	9.636023
2009.000000	9.637930
2010.000000	9.638505
2011.000000	9.636603
2012.000000	9.633480
2013.000000	9.629932
2014.000000	9.625305
2015.000000	9.618263
2016.000000	9.611060
2017.000000	9.601585
2018.000000	9.591395
2019.000000	9.579100
2020.000000	9.566098
2021.000000	9.552900
2022.000000	9.538187
2023.000000	9.521133
2024.000000	9.503293
2025.000000	9.484975
2026.000000	9.464893
2027.000000	9.444013
2028.000000	9.422102
2029.000000	9.400873
2030.000000	9.377215
2031.000000	9.352087
2032.000000	9.326680
2033.000000	9.276388
2034.000000	9.224825
2035.000000	9.173320
2036.000000	9.120185
2037.000000	9.066147
2038.000000	9.011532
2039.000000	8.954305
2040.000000	8.897920
2041.000000	8.841465
2042.000000	8.783722
2043.000000	8.749442
2044.000000	8.715055
2045.000000	8.680370
2046.000000	8.646755
2047.000000	8.614387
2048.000000	8.582937
2049.000000	8.554355
2050.000000	8.526862
2051.000000	8.501707
2052.000000	8.480305
2053.000000	8.462073
2054.000000	8.447287
2055.000000	8.437030
2056.000000	8.430360
2057.000000	8.426848
2058.000000	8.427280
2059.000000	8.430430
2060.000000	8.436603
2061.000000	8.446403
2062.000000	8.458648
2063.000000	8.472805
2064.000000	8.489265
2065.000000	8.506310
2066.000000	8.525243
2067.000000	8.545350
2068.000000	8.590390
2069.000000	8.610475
2070.000000	8.631315
2071.000000	8.676355
2072.000000	8.720265
2073.000000	8.764233
2074.000000	8.807565
2075.000000	8.849647
2076.000000	8.889055
2077.000000	8.926535
2078.000000	8.937940
2079.000000	8.973292
2080.000000	9.007330
2081.000000	9.015180
2082.000000	9.021565
2083.000000	9.025763
2084.000000	9.027503
2085.000000	9.028245
2086.000000	9.028680
2087.000000	9.028430
2088.000000	9.026470
2089.000000	9.022922
2090.000000	9.018720
2091.000000	9.013835
2092.000000	9.008343
2093.000000	9.002530
2094.000000	8.996492
2095.000000	8.989463
2096.000000	8.982270
2097.000000	8.975687
2098.000000	8.969805
2099.000000	8.964522
2100.000000	8.958607
2101.000000	8.952630
2102.000000	8.947183
2103.000000	8.967353
2104.000000	8.963025
2105.000000	8.959297
2106.000000	8.981080
2107.000000	9.002833
2108.000000	9.024278
2109.000000	9.044948
2110.000000	9.065318
2111.000000	9.085785
2112.000000	9.106435
2113.000000	9.101905
2114.000000	9.121422
2115.000000	9.140440
2116.000000	9.134045
2117.000000	9.101847
2118.000000	9.094265
2119.000000	9.086815
2120.000000	9.079820
2121.000000	9.072112
2122.000000	9.062983
2123.000000	9.052333
2124.000000	9.017470
2125.000000	8.982460
2126.000000	8.945745
2127.000000	8.933115
2128.000000	8.920125
2129.000000	8.881195
2130.000000	8.866812
2131.000000	8.851448
2132.000000	8.836315
2133.000000	8.821988
2134.000000	8.805962
2135.000000	8.789390
2136.000000	8.798177
2137.000000	8.781435
2138.000000	8.739673
2139.000000	8.723268
2140.000000	8.680705
2141.000000	8.637483
2142.000000	8.593415
2143.000000	8.548465
2144.000000	8.528950
2145.000000	8.509177
2146.000000	8.463040
2147.000000	8.442275
2148.000000	8.420962
2149.000000	8.374070
2150.000000	8.327192
2151.000000	8.306065
2152.000000	8.260990
2153.000000	8.215467
2154.000000	8.170478
2155.000000	8.126150
2156.000000	8.083470
2157.000000	8.041265
2158.000000	8.000295
2159.000000	7.985542
2160.000000	7.972035
2161.000000	7.933623
2162.000000	7.919855
2163.000000	7.907902
2164.000000	7.897032
2165.000000	7.887010
2166.000000	7.852770
2167.000000	7.844143
2168.000000	7.810885
2169.000000	7.802580
2170.000000	7.769235
2171.000000	7.736912
2172.000000	7.705025
2173.000000	7.673945
2174.000000	7.642175
2175.000000	7.609677
2176.000000	7.603290
2177.000000	7.571860
2178.000000	7.565655
2179.000000	7.534857
2180.000000	7.528750
2181.000000	7.497452
2182.000000	7.492078
2183.000000	7.484278
2184.000000	7.451285
2185.000000	7.417623
2186.000000	7.382293
2187.000000	7.345715
2188.000000	7.306335
2189.000000	7.265890
2190.000000	7.223127
2191.000000	7.203665
2192.000000	7.156160
2193.000000	7.081885
2194.000000	7.031085
2195.000000	6.977845
2196.000000	6.922898
2197.000000	6.866548
2198.000000	6.784378
2199.000000	6.700217
2200.000000	6.615830
2201.000000	6.531710
2202.000000	6.447712
2203.000000	6.391393
2204.000000	6.334975
2205.000000	6.283162
2206.000000	6.232960
2207.000000	6.185412
2208.000000	6.166570
2209.000000	6.151578
2210.000000	6.141782
2211.000000	6.133938
2212.000000	6.106220
2213.000000	6.106190
2214.000000	6.087120
2215.000000	6.095377
2216.000000	6.106312
2217.000000	6.119700
2218.000000	6.136082
2219.000000	6.153780
2220.000000	6.172402
2221.000000	6.217950
2222.000000	6.263663
2223.000000	6.285070
2224.000000	6.331185
2225.000000	6.350122
2226.000000	6.368107
2227.000000	6.387120
2228.000000	6.428835
2229.000000	6.469747
2230.000000	6.484205
2231.000000	6.497797
2232.000000	6.534075
2233.000000	6.568027
2234.000000	6.598960
2235.000000	6.629020
2236.000000	6.658975
2237.000000	6.685650
2238.000000	6.685773
2239.000000	6.684727
2240.000000	6.705433
2241.000000	6.698950
2242.000000	6.691230
2243.000000	6.682802
2244.000000	6.672830
2245.000000	6.663260
2246.000000	6.650643
2247.000000	6.636903
2248.000000	6.623185
2249.000000	6.607247
2250.000000	6.591450
2251.000000	6.576032
2252.000000	6.560550
2253.000000	6.543947
2254.000000	6.527362
2255.000000	6.509830
2256.000000	6.493868
2257.000000	6.478618
2258.000000	6.463577
2259.000000	6.449715
2260.000000	6.437485
2261.000000	6.425158
2262.000000	6.414142
2263.000000	6.405622
2264.000000	6.399880
2265.000000	6.394373
2266.000000	6.390330
2267.000000	6.387807
2268.000000	6.411182
2269.000000	6.436790
2270.000000	6.463255
2271.000000	6.491405
2272.000000	6.519350
2273.000000	6.547678
2274.000000	6.575415
2275.000000	6.604382
2276.000000	6.634310
2277.000000	6.663785
2278.000000	6.667853
2279.000000	6.671303
2280.000000	6.674370
2281.000000	6.677027
2282.000000	6.680917
2283.000000	6.684570
2284.000000	6.687515
2285.000000	6.689645
2286.000000	6.690857
2287.000000	6.692373
2288.000000	6.692690
2289.000000	6.693868
2290.000000	6.695403
2291.000000	6.697502
2292.000000	6.723413
2293.000000	6.748767
2294.000000	6.774160
2295.000000	6.800118
2296.000000	6.825712
2297.000000	6.852282
2298.000000	6.880712
2299.000000	6.908340
2300.000000	6.937108
2301.000000	6.966317
2302.000000	6.969845
2303.000000	6.974017
2304.000000	6.979872
2305.000000	6.985875
2306.000000	6.992307
2307.000000	6.998827
2308.000000	7.006797
2309.000000	7.014955
2310.000000	7.022830
2311.000000	7.029698
2312.000000	7.062807
2313.000000	7.096050
2314.000000	7.128647
2315.000000	7.160468
2316.000000	7.192025
2317.000000	7.222840
2318.000000	7.251410
2319.000000	7.279497
2320.000000	7.306345
2321.000000	7.332343
2322.000000	7.357785
2323.000000	7.357395
2324.000000	7.379550
2325.000000	7.401625
2326.000000	7.423895
2327.000000	7.444748
2328.000000	7.465530
2329.000000	7.486015
2330.000000	7.507020
2331.000000	7.553692
2332.000000	7.549935
2333.000000	7.572240
2334.000000	7.571710
2335.000000	7.571113
2336.000000	7.570120
2337.000000	7.569557
2338.000000	7.570008
2339.000000	7.596065
2340.000000	7.622075
2341.000000	7.623347
2342.000000	7.625553
2343.000000	7.627565
2344.000000	7.654435
2345.000000	7.657642
2346.000000	7.662522
2347.000000	7.669440
2348.000000	7.700400
2349.000000	7.705040
2350.000000	7.707910
2351.000000	7.710200
2352.000000	7.738780
2353.000000	7.767620
2354.000000	7.771453
2355.000000	7.799837
2356.000000	7.827473
2357.000000	7.854228
2358.000000	7.831295
2359.000000	7.809147
2360.000000	7.812747
2361.000000	7.841595
2362.000000	7.869083
2363.000000	7.895885
2364.000000	7.897560
2365.000000	7.898238
2366.000000	7.898130
2367.000000	7.923425
2368.000000	7.948345
2369.000000	7.973807
2370.000000	7.975648
2371.000000	7.977353
2372.000000	7.953970
2373.000000	7.930527
2374.000000	7.956810
2375.000000	7.984472
2376.000000	8.012740
2377.000000	8.015520
2378.000000	8.043653
2379.000000	8.045758
2380.000000	8.047535
2381.000000	8.024883
2382.000000	8.051565
2383.000000	8.077147
2384.000000	8.077757
2385.000000	8.077390
2386.000000	8.101275
2387.000000	8.124517
2388.000000	8.122695
2389.000000	8.146467
2390.000000	8.169248
2391.000000	8.191420
2392.000000	8.188618
2393.000000	8.210827
2394.000000	8.232558
2395.000000	8.254237
2396.000000	8.225230
2397.000000	8.195425
2398.000000	8.216033
2399.000000	8.212050
2400.000000	8.207353
2401.000000	8.201232
2402.000000	8.194850
2403.000000	8.189237
2404.000000	8.183948
2405.000000	8.153203
2406.000000	8.147578
2407.000000	8.166327
2408.000000	8.158552
2409.000000	8.150123
2410.000000	8.141820
2411.000000	8.159050
2412.000000	8.176053
2413.000000	8.167095
2414.000000	8.156790
2415.000000	8.170748
2416.000000	8.184000
2417.000000	8.171240
2418.000000	8.158900
2419.000000	8.194940
2420.000000	8.205172
2421.000000	8.190812
2422.000000	8.175892
2423.000000	8.160365
2424.000000	8.144435
2425.000000	8.103115
2426.000000	8.087385
2427.000000	8.072050
2428.000000	8.080345
2429.000000	8.063693
2430.000000	8.072855
2431.000000	8.055830
2432.000000	8.039177
2433.000000	8.022407
2434.000000	8.005562
2435.000000	8.013680
2436.000000	7.996470
2437.000000	8.004300
2438.000000	7.987955
2439.000000	7.971652
2440.000000	7.953427
2441.000000	7.985875
2442.000000	8.017228
2443.000000	8.049120
2444.000000	8.081545
2445.000000	8.138387
2446.000000	8.146035
2447.000000	8.152852
2448.000000	8.133970
2449.000000	8.142785
2450.000000	8.127690
2451.000000	8.112148
2452.000000	8.096532
2453.000000	8.106953
2454.000000	8.092817
2455.000000	8.055738
2456.000000	8.067657
2457.000000	8.055825
2458.000000	8.120233
2459.000000	8.157567
2460.000000	8.245853
2461.000000	8.311457
2462.000000	8.351693
2463.000000	8.367373
2464.000000	8.433447
2465.000000	8.523042
2466.000000	8.588207
2467.000000	8.679227
2468.000000	8.745102
2469.000000	8.838045
2470.000000	8.931495
2471.000000	9.049410
2472.000000	9.193795
2473.000000	9.389030
2474.000000	9.533703
2475.000000	9.607060
2476.000000	9.727948
2477.000000	9.851925
2478.000000	9.973985
2479.000000	10.069525
2480.000000	10.144792
2481.000000	10.273108
2482.000000	10.349265
2483.000000	10.396395
2484.000000	10.447852
2485.000000	10.521155
2486.000000	10.698472
2487.000000	10.824243
2488.000000	10.953442
2489.000000	11.135820
2490.000000	11.285642
2491.000000	11.436165
2492.000000	11.667870
2493.000000	11.876243
2494.000000	12.107195
2495.000000	12.365775
2496.000000	12.500798
2497.000000	12.681423
2498.000000	12.860233
2499.000000	12.994525
2500.000000	13.179565
2501.000000	16.807585
2502.000000	20.707785
2503.000000	24.409228
2504.000000	28.109845
2505.000000	32.209187
2506.000000	36.406410
2507.000000	40.682160
2508.000000	44.734147
2509.000000	49.178258
2510.000000	53.700000
2511.000000	54.900000
2512.000000	55.600000
2513.000000	56.000000
2514.000000	56.900000
2515.000000	57.900000
2516.000000	58.900000
2517.000000	59.800000
2518.000000	60.800000
2519.000000	61.600000
2520.000000	62.200000
2521.000000	63.200000
2522.000000	64.300000
2523.000000	66.000000
2524.000000	66.900000
2525.000000	67.100000
2526.000000	67.500000
2527.000000	68.500000
2528.000000	69.700000
2529.000000	70.800000
2530.000000	72.000000
2531.000000	71.700000
2532.000000	71.800000
2533.000000	71.900000
2534.000000	72.800000
2535.000000	73.400000
2536.000000	74.400000
2537.000000	74.900000
2538.000000	75.600000
2539.000000	76.000000
2540.000000	76.400000
2541.000000	77.900000
2542.000000	79.800000
2543.000000	80.800000
2544.000000	81.800000
2545.000000	83.200000
2546.000000	83.900000
2547.000000	84.700000
2548.000000	85.000000
2549.000000	85.500000
2550.000000	86.300000
2551.000000	86.900000
2552.000000	86.400000
2553.000000	87.000000
2554.000000	87.200000
2555.000000	87.800000
2556.000000	88.600000
2557.000000	88.800000
2558.000000	89.300000
2559.000000	89.800000
2560.000000	90.100000
2561.000000	90.300000
2562.000000	90.900000
2563.000000	91.600000
2564.000000	91.700000
2565.000000	91.600000
2566.000000	91.800000
2567.000000	92.000000
2568.000000	92.300000
2569.000000	93.100000
2570.000000	93.800000
2571.000000	94.300000
2572.000000	95.200000
2573.000000	95.100000
2574.000000	95.100000
2575.000000	95.500000
2576.000000	95.200000
2577.000000	95.600000
2578.000000	96.400000
2579.000000	96.300000
2580.000000	96.100000
2581.000000	96.200000
2582.000000	95.700000
2583.000000	95.900000
2584.000000	96.600000
2585.000000	97.300000
2586.000000	97.900000
2587.000000	98.000000
2588.000000	97.300000
2589.000000	97.200000
2590.000000	97.800000
2591.000000	98.400000
2592.000000	98.800000
2593.000000	98.800000
2594.000000	98.900000
2595.000000	98.300000
2596.000000	97.500000
2597.000000	97.400000
2598.000000	97.700000
2599.000000	97.800000
2600.000000	97.500000
2601.000000	96.700000
2602.000000	96.700000
2603.000000	97.200000
2604.000000	97.200000
2605.000000	97.600000
2606.000000	98.500000
2607.000000	99.000000
2608.000000	99.500000
2609.000000	99.700000
2610.000000	99.300000
2611.000000	99.700000
2612.000000	99.600000
2613.000000	99.000000
2614.000000	98.900000
2615.000000	98.900000
2616.000000	99.100000
2617.000000	99.000000
2618.000000	98.500000
2619.000000	98.900000
2620.000000	99.700000
2621.000000	100.200000
2622.000000	100.800000
2623.000000	101.100000
2624.000000	101.000000
2625.000000	100.700000
2626.000000	100.400000
2627.000000	100.100000
2628.000000	100.300000
2629.000000	100.100000
2630.000000	99.200000
2631.000000	98.400000
2632.000000	97.800000
2633.000000	97.900000
2634.000000	98.200000
2635.000000	98.800000
2636.000000	99.500000
2637.000000	99.400000
2638.000000	99.000000
2639.000000	99.100000
2640.000000	99.400000
2641.000000	99.200000
2642.000000	99.000000
2643.000000	99.000000
2644.000000	98.800000
2645.000000	98.100000
2646.000000	97.100000
2647.000000	97.300000
2648.000000	97.500000
2649.000000	97.200000
2650.000000	97.400000
2651.000000	97.500000
2652.000000	97.500000
2653.000000	97.900000
2654.000000	98.000000
2655.000000	98.100000
2656.000000	98.200000
2657.000000	98.600000
2658.000000	98.800000
2659.000000	99.400000
2660.000000	100.200000
2661.000000	101.300000
2662.000000	101.900000
2663.000000	101.700000
2664.000000	101.600000
2665.000000	102.100000
2666.000000	102.300000
2667.000000	102.200000
2668.000000	101.900000
2669.000000	100.600000
2670.000000	99.700000
2671.000000	99.300000
2672.000000	98.300000
2673.000000	98.100000
2674.000000	98.300000
2675.000000	98.100000
2676.000000	97.900000
2677.000000	97.800000
2678.000000	97.900000
2679.000000	99.200000
2680.000000	99.500000
2681.000000	98.800000
2682.000000	99.100000
2683.000000	99.100000
2684.000000	99.300000
2685.000000	100.200000
2686.000000	100.900000
2687.000000	101.200000
2688.000000	101.700000
2689.000000	101.400000
2690.000000	102.100000
2691.000000	102.800000
2692.000000	103.100000
2693.000000	103.600000
2694.000000	103.400000
2695.000000	102.700000
2696.000000	102.200000
2697.000000	101.600000
2698.000000	100.900000
2699.000000	101.000000
2700.000000	100.000000
2701.000000	99.300000
2702.000000	99.800000
2703.000000	98.500000
2704.000000	98.700000
2705.000000	98.100000
2706.000000	97.600000
2707.000000	98.100000
2708.000000	98.900000
2709.000000	98.400000
2710.000000	98.400000
2711.000000	99.000000
2712.000000	98.900000
2713.000000	100.700000
2714.000000	100.300000
2715.000000	100.400000
2716.000000	101.700000
2717.000000	101.800000
2718.000000	101.400000
2719.000000	101.300000
2720.000000	100.600000
2721.000000	99.600000
2722.000000	99.200000
2723.000000	98.400000
2724.000000	98.500000
2725.000000	98.300000
2726.000000	98.000000
2727.000000	97.200000
2728.000000	97.100000
2729.000000	97.100000
2730.000000	97.800000
2731.000000	99.700000
2732.000000	99.900000
2733.000000	99.300000
2734.000000	99.600000
2735.000000	99.600000
2736.000000	98.400000
2737.000000	99.000000
2738.000000	99.800000
2739.000000	99.800000
2740.000000	100.000000
2741.000000	99.400000
2742.000000	98.700000
2743.000000	99.900000
2744.000000	99.600000
2745.000000	99.300000
2746.000000	99.700000
2747.000000	99.500000
2748.000000	98.100000
2749.000000	98.500000
2750.000000	98.000000
2751.000000	97.400000
2752.000000	98.200000
2753.000000	97.100000
2754.000000	97.500000
2755.000000	98.400000
2756.000000	98.900000
2757.000000	98.900000
2758.000000	99.400000
2759.000000	99.000000
2760.000000	99.200000
2761.000000	99.200000
2762.000000	98.100000
2763.000000	98.200000
2764.000000	97.900000
2765.000000	97.500000
2766.000000	96.800000
2767.000000	96.900000
2768.000000	97.200000
2769.000000	96.800000
2770.000000	97.100000
2771.000000	97.600000
2772.000000	98.600000
2773.000000	98.600000
2774.000000	98.800000
2775.000000	98.600000
2776.000000	99.500000
2777.000000	99.500000
2778.000000	99.300000
2779.000000	100.100000
2780.000000	99.300000
2781.000000	99.200000
2782.000000	99.300000
2783.000000	99.600000
2784.000000	99.600000
2785.000000	99.800000
2786.000000	99.100000
2787.000000	98.700000
2788.000000	97.800000
2789.000000	97.600000
2790.000000	98.400000
2791.000000	98.300000
2792.000000	97.800000
2793.000000	98.000000
2794.000000	97.900000
2795.000000	97.900000
2796.000000	98.300000
2797.000000	98.600000
2798.000000	99.400000
2799.000000	99.600000
2800.000000	99.500000
2801.000000	99.200000
2802.000000	99.000000
2803.000000	98.000000
2804.000000	97.600000
2805.000000	97.300000
2806.000000	96.900000
2807.000000	96.800000
2808.000000	97.600000
2809.000000	97.200000
2810.000000	96.300000
2811.000000	95.800000
2812.000000	95.900000
2813.000000	96.400000
2814.000000	96.800000
2815.000000	97.400000
2816.000000	98.000000
2817.000000	97.800000
2818.000000	97.000000
2819.000000	97.800000
2820.000000	99.200000
2821.000000	99.800000
2822.000000	100.300000
2823.000000	101.000000
2824.000000	100.600000
2825.000000	100.400000
2826.000000	100.500000
2827.000000	101.400000
2828.000000	101.800000
2829.000000	101.300000
2830.000000	100.800000
2831.000000	101.100000
2832.000000	100.300000
2833.000000	99.800000
2834.000000	100.000000
2835.000000	99.800000
2836.000000	99.400000
2837.000000	98.400000
2838.000000	97.600000
2839.000000	97.200000
2840.000000	97.200000
2841.000000	97.200000
2842.000000	98.000000
2843.000000	97.900000
2844.000000	97.600000
2845.000000	98.200000
2846.000000	98.900000
2847.000000	99.400000
2848.000000	100.400000
2849.000000	100.700000
2850.000000	100.500000
2851.000000	99.800000
2852.000000	99.400000
2853.000000	99.400000
2854.000000	99.800000
2855.000000	99.400000
2856.000000	98.800000
2857.000000	98.900000
2858.000000	98.500000
2859.000000	98.300000
2860.000000	98.400000
2861.000000	99.200000
2862.000000	99.700000
2863.000000	99.800000
2864.000000	100.100000
2865.000000	100.300000
2866.000000	100.100000
2867.000000	99.700000
2868.000000	99.400000
2869.000000	99.200000
2870.000000	99.000000
2871.000000	98.600000
2872.000000	98.600000
2873.000000	98.900000
2874.000000	98.100000
2875.000000	97.500000
2876.000000	97.500000
2877.000000	97.300000
2878.000000	97.300000
2879.000000	97.500000
2880.000000	97.700000
2881.000000	97.400000
2882.000000	97.000000
2883.000000	96.700000
2884.000000	96.900000
2885.000000	97.000000
2886.000000	96.300000
2887.000000	96.200000
2888.000000	96.100000
2889.000000	95.900000
2890.000000	96.100000
2891.000000	96.600000
2892.000000	96.700000
2893.000000	97.100000
2894.000000	98.100000
2895.000000	98.700000
2896.000000	99.500000
2897.000000	100.300000
2898.000000	100.800000
2899.000000	100.500000
2900.000000	100.400000
2901.000000	100.500000
2902.000000	100.200000
2903.000000	99.700000
2904.000000	98.900000
2905.000000	98.500000
2906.000000	98.300000
2907.000000	97.800000
2908.000000	96.800000
2909.000000	96.500000
2910.000000	96.100000
2911.000000	95.300000
2912.000000	95.300000
2913.000000	94.900000
2914.000000	95.300000
2915.000000	96.700000
2916.000000	96.500000
2917.000000	95.900000
2918.000000	96.900000
2919.000000	97.300000
2920.000000	97.200000
2921.000000	97.100000
2922.000000	97.300000
2923.000000	97.900000
2924.000000	97.800000
2925.000000	96.900000
2926.000000	97.400000
2927.000000	98.100000
2928.000000	97.900000
2929.000000	97.600000
2930.000000	98.200000
2931.000000	99.000000
2932.000000	99.300000
2933.000000	98.700000
2934.000000	97.900000
2935.000000	97.300000
2936.000000	96.600000
2937.000000	96.200000
2938.000000	95.600000
2939.000000	96.000000
2940.000000	95.900000
2941.000000	95.400000
2942.000000	95.200000
2943.000000	95.400000
2944.000000	95.200000
2945.000000	94.900000
2946.000000	95.600000
2947.000000	96.200000
2948.000000	97.300000
2949.000000	98.200000
2950.000000	97.300000
2951.000000	97.700000
2952.000000	97.900000
2953.000000	97.800000
2954.000000	99.100000
2955.000000	99.200000
2956.000000	98.400000
2957.000000	98.500000
2958.000000	98.000000
2959.000000	96.900000
2960.000000	97.400000
2961.000000	96.900000
2962.000000	96.500000
2963.000000	96.900000
2964.000000	95.800000
2965.000000	96.100000
2966.000000	96.800000
2967.000000	96.800000
2968.000000	95.900000
2969.000000	95.800000
2970.000000	96.400000
2971.000000	96.900000
2972.000000	96.600000
2973.000000	96.700000
2974.000000	96.700000
2975.000000	96.500000
2976.000000	96.400000
2977.000000	95.400000
2978.000000	96.000000
2979.000000	97.200000
2980.000000	96.800000
2981.000000	96.900000
2982.000000	98.200000
2983.000000	97.600000
2984.000000	97.300000
2985.000000	97.100000
2986.000000	96.600000
2987.000000	96.500000
2988.000000	96.800000
2989.000000	96.200000
2990.000000	95.900000
2991.000000	95.900000
2992.000000	94.900000
2993.000000	95.400000
2994.000000	96.500000
2995.000000	98.100000
2996.000000	97.800000
2997.000000	98.000000
2998.000000	96.800000
2999.000000	96.400000
3000.000000	96.700000
