PE UV       SUBTECH     SPECTRUM    ASCII       PEDS        4.00        
   -1
CICIMAUCR0258-2.ASC
24/07/01
15:00:51.00
24/07/01
15:00:51.00
Vinicio Soto Monge
C. resplendens. Sex M. Ventral
250,000000
1
Lambda 1050
1050L1511233
PerkinElmer UV WinLab 6.3.2.0749 / 2.02.05 Lambda 900 UV/VIS/NIR, Aug  7 2015 09:38:08

0
0
3350/servo 860,8/2
0
0
UV/VIS
1
1
1
DoubleDePol,CommonBeamDepol,RBeamAtt,SBeamAtt,60mm sphere, WB InGaAs Detector
0
0
0
0
Program
Program
3350/servo 860,8/2
3350/0,2 860,8/0,2
3350/0,2 860,8/0,2
0
15.00
 
 
 
0
 
860,8
319,2
860,8
Front
100
on
S:100 R:100
0
0
0
0
 
0
 
 
 
0
 
 
0
0
0
0
0
 
 
 
 
0
0


0
0
#HDR
-1
-1
#GR
nm
%R
1.0
0.0
2500,000000
-1,000000
2251
8
58,590700
3,894800
#DATA
2482.000000	6.339782
2481.000000	6.328207
2480.000000	6.309457
2479.000000	6.387353
2478.000000	6.360616
2477.000000	6.321957
2476.000000	6.322304
2475.000000	6.250311
2474.000000	6.293831
2473.000000	6.289433
2472.000000	6.302512
2471.000000	6.390825
2470.000000	6.358417
2469.000000	6.306216
2468.000000	6.287234
2467.000000	6.295452
2466.000000	6.339666
2465.000000	6.327976
2464.000000	6.361773
2463.000000	6.376357
2462.000000	6.390825
2461.000000	6.394645
2460.000000	6.413742
2459.000000	6.440248
2458.000000	6.473698
2457.000000	6.489324
2456.000000	6.498467
2455.000000	6.497889
2454.000000	6.538862
2453.000000	6.580877
2452.000000	6.619420
2451.000000	6.618378
2450.000000	6.659931
2449.000000	6.698126
2448.000000	6.732965
2447.000000	6.755420
2446.000000	6.782041
2445.000000	6.832043
2444.000000	6.877762
2443.000000	6.894082
2442.000000	6.939569
2441.000000	6.973829
2440.000000	7.000682
2439.000000	7.042582
2438.000000	7.094667
2437.000000	7.134483
2436.000000	7.166660
2435.000000	7.194322
2434.000000	7.232865
2433.000000	7.249764
2432.000000	7.285760
2431.000000	7.313655
2430.000000	7.341318
2429.000000	7.391782
2428.000000	7.421992
2427.000000	7.453821
2426.000000	7.460997
2425.000000	7.502318
2424.000000	7.518407
2423.000000	7.555792
2422.000000	7.561464
2421.000000	7.588895
2420.000000	7.627206
2419.000000	7.645957
2418.000000	7.665171
2417.000000	7.681838
2416.000000	7.714593
2415.000000	7.749664
2414.000000	7.773276
2413.000000	7.782767
2412.000000	7.809504
2411.000000	7.842491
2410.000000	7.854297
2409.000000	7.888789
2408.000000	7.914252
2407.000000	7.911590
2406.000000	7.917493
2405.000000	7.943651
2404.000000	7.968652
2403.000000	7.987866
2402.000000	8.011246
2401.000000	8.058933
2400.000000	8.092730
2399.000000	8.112175
2398.000000	8.124907
2397.000000	8.131968
2396.000000	8.162987
2395.000000	8.168543
2394.000000	8.184052
2393.000000	8.215535
2392.000000	8.239147
2391.000000	8.239147
2390.000000	8.251531
2389.000000	8.283245
2388.000000	8.301302
2387.000000	8.313339
2386.000000	8.318432
2385.000000	8.325955
2384.000000	8.337645
2383.000000	8.357669
2382.000000	8.369938
2381.000000	8.363341
2380.000000	8.366350
2379.000000	8.371095
2378.000000	8.372137
2377.000000	8.375146
2376.000000	8.392508
2375.000000	8.401999
2374.000000	8.392508
2373.000000	8.392740
2372.000000	8.397485
2371.000000	8.407208
2370.000000	8.384637
2369.000000	8.356280
2368.000000	8.362993
2367.000000	8.375146
2366.000000	8.362530
2365.000000	8.359289
2364.000000	8.364498
2363.000000	8.350146
2362.000000	8.343780
2361.000000	8.320978
2360.000000	8.313686
2359.000000	8.307899
2358.000000	8.283361
2357.000000	8.269588
2356.000000	8.255235
2355.000000	8.257203
2354.000000	8.262759
2353.000000	8.255698
2352.000000	8.256508
2351.000000	8.254309
2350.000000	8.250721
2349.000000	8.270166
2348.000000	8.288570
2347.000000	8.296209
2346.000000	8.290653
2345.000000	8.310214
2344.000000	8.350146
2343.000000	8.374105
2342.000000	8.394591
2341.000000	8.399800
2340.000000	8.416120
2339.000000	8.444477
2338.000000	8.470520
2337.000000	8.491585
2336.000000	8.497141
2335.000000	8.518669
2334.000000	8.529549
2333.000000	8.517628
2332.000000	8.522373
2331.000000	8.539503
2330.000000	8.533253
2329.000000	8.535568
2328.000000	8.524572
2327.000000	8.504433
2326.000000	8.511146
2325.000000	8.498414
2324.000000	8.490659
2323.000000	8.501539
2322.000000	8.475844
2321.000000	8.442162
2320.000000	8.398527
2319.000000	8.373758
2318.000000	8.351766
2317.000000	8.310445
2316.000000	8.269819
2315.000000	8.235212
2314.000000	8.189377
2313.000000	8.158126
2312.000000	8.132431
2311.000000	8.085207
2310.000000	8.025714
2309.000000	7.998051
2308.000000	7.974902
2307.000000	7.971777
2306.000000	7.969115
2305.000000	7.943188
2304.000000	7.964022
2303.000000	7.965990
2302.000000	7.979648
2301.000000	7.981731
2300.000000	8.002334
2299.000000	8.029650
2298.000000	8.072012
2297.000000	8.106272
2296.000000	8.141806
2295.000000	8.167964
2294.000000	8.233938
2293.000000	8.250490
2292.000000	8.280699
2291.000000	8.330353
2290.000000	8.386837
2289.000000	8.392045
2288.000000	8.383017
2287.000000	8.426305
2286.000000	8.423875
2285.000000	8.432787
2284.000000	8.439848
2283.000000	8.441584
2282.000000	8.434755
2281.000000	8.438806
2280.000000	8.412763
2279.000000	8.402231
2278.000000	8.412995
2277.000000	8.380586
2276.000000	8.379429
2275.000000	8.370980
2274.000000	8.346905
2273.000000	8.334289
2272.000000	8.355701
2271.000000	8.349451
2270.000000	8.347021
2269.000000	8.346442
2268.000000	8.390540
2267.000000	8.409523
2266.000000	8.447950
2265.000000	8.473066
2264.000000	8.535105
2263.000000	8.625039
2262.000000	8.705018
2261.000000	8.768446
2260.000000	8.878056
2259.000000	8.999587
2258.000000	9.100748
2257.000000	9.230960
2256.000000	9.342191
2255.000000	9.508862
2254.000000	9.648682
2253.000000	9.761185
2252.000000	9.907139
2251.000000	10.033069
2250.000000	10.168953
2249.000000	10.282729
2248.000000	10.415488
2247.000000	10.513987
2246.000000	10.619198
2245.000000	10.730313
2244.000000	10.826844
2243.000000	10.917124
2242.000000	10.987381
2241.000000	11.043517
2240.000000	11.149539
2239.000000	11.208800
2238.000000	11.263431
2237.000000	11.330679
2236.000000	11.373041
2235.000000	11.417834
2234.000000	11.459965
2233.000000	11.484850
2232.000000	11.504643
2231.000000	11.522467
2230.000000	11.580802
2229.000000	11.588789
2228.000000	11.581034
2227.000000	11.575131
2226.000000	11.579182
2225.000000	11.573510
2224.000000	11.553139
2223.000000	11.539945
2222.000000	11.552098
2221.000000	11.518416
2220.000000	11.472929
2219.000000	11.482767
2218.000000	11.427441
2217.000000	11.417719
2216.000000	11.395033
2215.000000	11.339938
2214.000000	11.308803
2213.000000	11.272922
2212.000000	11.260306
2211.000000	11.217828
2210.000000	11.191670
2209.000000	11.171878
2208.000000	11.167016
2207.000000	11.130788
2206.000000	11.144446
2205.000000	11.106250
2204.000000	11.101273
2203.000000	11.101158
2202.000000	11.060763
2201.000000	11.049304
2200.000000	11.046642
2199.000000	11.028470
2198.000000	11.002659
2197.000000	10.999534
2196.000000	11.000229
2195.000000	11.011456
2194.000000	10.965042
2193.000000	10.977774
2192.000000	10.964001
2191.000000	10.972103
2190.000000	10.949301
2189.000000	10.932402
2188.000000	10.914578
2187.000000	10.904624
2186.000000	10.878234
2185.000000	10.894901
2184.000000	10.867238
2183.000000	10.878581
2182.000000	10.873836
2181.000000	10.843279
2180.000000	10.820478
2179.000000	10.818626
2178.000000	10.807630
2177.000000	10.786565
2176.000000	10.782513
2175.000000	10.760985
2174.000000	10.765499
2173.000000	10.765615
2172.000000	10.730891
2171.000000	10.754388
2170.000000	10.770013
2169.000000	10.772791
2168.000000	10.748832
2167.000000	10.771171
2166.000000	10.745475
2165.000000	10.752304
2164.000000	10.799875
2163.000000	10.798255
2162.000000	10.803232
2161.000000	10.826149
2160.000000	10.853233
2159.000000	10.870248
2158.000000	10.886915
2157.000000	10.900688
2156.000000	10.935065
2155.000000	10.969093
2154.000000	10.984372
2153.000000	11.028354
2152.000000	11.058680
2151.000000	11.104051
2150.000000	11.121760
2149.000000	11.155326
2148.000000	11.195605
2147.000000	11.242250
2146.000000	11.277321
2145.000000	11.300122
2144.000000	11.338665
2143.000000	11.372347
2142.000000	11.398621
2141.000000	11.452673
2140.000000	11.493878
2139.000000	11.522004
2138.000000	11.539829
2137.000000	11.578256
2136.000000	11.614715
2135.000000	11.640989
2134.000000	11.669694
2133.000000	11.697473
2132.000000	11.712172
2131.000000	11.746896
2130.000000	11.757081
2129.000000	11.762174
2128.000000	11.773632
2127.000000	11.809513
2126.000000	11.828380
2125.000000	11.838681
2124.000000	11.855348
2123.000000	11.866459
2122.000000	11.868427
2121.000000	11.881159
2120.000000	11.878150
2119.000000	11.886599
2118.000000	11.898636
2117.000000	11.881390
2116.000000	11.878150
2115.000000	11.890187
2114.000000	11.898636
2113.000000	11.886483
2112.000000	11.858473
2111.000000	11.861251
2110.000000	11.871668
2109.000000	11.865071
2108.000000	11.851297
2107.000000	11.827454
2106.000000	11.811134
2105.000000	11.817384
2104.000000	11.817615
2103.000000	11.800948
2102.000000	11.774558
2101.000000	11.768308
2100.000000	11.754998
2099.000000	11.730228
2098.000000	11.738909
2097.000000	11.716802
2096.000000	11.703954
2095.000000	11.699209
2094.000000	11.683815
2093.000000	11.682426
2092.000000	11.684394
2091.000000	11.668305
2090.000000	11.660434
2089.000000	11.657425
2088.000000	11.643420
2087.000000	11.633698
2086.000000	11.624554
2085.000000	11.607192
2084.000000	11.592724
2083.000000	11.591567
2082.000000	11.572469
2081.000000	11.537630
2080.000000	11.512976
2079.000000	11.497814
2078.000000	11.483114
2077.000000	11.440520
2076.000000	11.389824
2075.000000	11.355332
2074.000000	11.317715
2073.000000	11.298618
2072.000000	11.261464
2071.000000	11.192827
2070.000000	11.144793
2069.000000	11.114353
2068.000000	11.069212
2067.000000	11.017359
2066.000000	10.972797
2065.000000	10.931939
2064.000000	10.884253
2063.000000	10.831936
2062.000000	10.782629
2061.000000	10.752073
2060.000000	10.707395
2059.000000	10.655195
2058.000000	10.629615
2057.000000	10.602762
2056.000000	10.595586
2055.000000	10.571974
2054.000000	10.570701
2053.000000	10.581003
2052.000000	10.605309
2051.000000	10.628805
2050.000000	10.648713
2049.000000	10.673598
2048.000000	10.695126
2047.000000	10.749295
2046.000000	10.787490
2045.000000	10.828695
2044.000000	10.889924
2043.000000	10.964695
2042.000000	11.029628
2041.000000	11.091204
2040.000000	11.132409
2039.000000	11.167479
2038.000000	11.244102
2037.000000	11.304521
2036.000000	11.350240
2035.000000	11.385542
2034.000000	11.420959
2033.000000	11.475359
2032.000000	11.518416
2031.000000	11.535083
2030.000000	11.559042
2029.000000	11.588789
2028.000000	11.613558
2027.000000	11.658467
2026.000000	11.681037
2025.000000	11.699325
2024.000000	11.718075
2023.000000	11.739256
2022.000000	11.759280
2021.000000	11.761248
2020.000000	11.750252
2019.000000	11.761711
2018.000000	11.783123
2017.000000	11.794929
2016.000000	11.791920
2015.000000	11.774558
2014.000000	11.771781
2013.000000	11.759743
2012.000000	11.771202
2011.000000	11.742613
2010.000000	11.725599
2009.000000	11.716108
2008.000000	11.696315
2007.000000	11.671546
2006.000000	11.665180
2005.000000	11.628373
2004.000000	11.592840
2003.000000	11.558927
2002.000000	11.532305
2001.000000	11.511240
2000.000000	11.477558
1999.000000	11.437974
1998.000000	11.391097
1997.000000	11.352323
1996.000000	11.317021
1995.000000	11.275353
1994.000000	11.232643
1993.000000	11.171878
1992.000000	11.147571
1991.000000	11.063657
1990.000000	11.021410
1989.000000	10.982288
1988.000000	10.942588
1987.000000	10.878697
1986.000000	10.827654
1985.000000	10.774759
1984.000000	10.692812
1983.000000	10.658436
1982.000000	10.603688
1981.000000	10.548363
1980.000000	10.486555
1979.000000	10.440026
1978.000000	10.389677
1977.000000	10.321851
1976.000000	10.292105
1975.000000	10.229371
1974.000000	10.163513
1973.000000	10.150896
1972.000000	10.091867
1971.000000	10.040013
1970.000000	9.982257
1969.000000	9.938737
1968.000000	9.888620
1967.000000	9.861073
1966.000000	9.801117
1965.000000	9.761069
1964.000000	9.732018
1963.000000	9.695905
1962.000000	9.631667
1961.000000	9.595555
1960.000000	9.555507
1959.000000	9.501339
1958.000000	9.472634
1957.000000	9.420550
1956.000000	9.389762
1955.000000	9.342769
1954.000000	9.301449
1953.000000	9.266378
1952.000000	9.219502
1951.000000	9.194732
1950.000000	9.164060
1949.000000	9.113595
1948.000000	9.075053
1947.000000	9.041718
1946.000000	9.016370
1945.000000	8.991948
1944.000000	8.994032
1943.000000	8.968799
1942.000000	8.932456
1941.000000	8.921460
1940.000000	8.900163
1939.000000	8.897154
1938.000000	8.863819
1937.000000	8.880371
1936.000000	8.845416
1935.000000	8.861736
1934.000000	8.893565
1933.000000	8.870301
1932.000000	8.910464
1931.000000	8.941831
1930.000000	8.957688
1929.000000	8.980489
1928.000000	8.980489
1927.000000	9.057459
1926.000000	9.097391
1925.000000	9.130031
1924.000000	9.186862
1923.000000	9.263369
1922.000000	9.255382
1921.000000	9.364066
1920.000000	9.448097
1919.000000	9.512103
1918.000000	9.585254
1917.000000	9.676460
1916.000000	9.771949
1915.000000	9.883064
1914.000000	9.961654
1913.000000	10.096265
1912.000000	10.226593
1911.000000	10.361204
1910.000000	10.499403
1909.000000	10.615494
1908.000000	10.753346
1907.000000	10.911684
1906.000000	11.077199
1905.000000	11.242366
1904.000000	11.450474
1903.000000	11.655920
1902.000000	11.853265
1901.000000	12.038340
1900.000000	12.266240
1899.000000	12.533147
1898.000000	12.824591
1897.000000	13.083974
1896.000000	13.367201
1895.000000	13.624385
1894.000000	13.906801
1893.000000	14.227644
1892.000000	14.554738
1891.000000	14.878591
1890.000000	15.219226
1889.000000	15.632318
1888.000000	15.979088
1887.000000	16.393106
1886.000000	16.769506
1885.000000	17.195446
1884.000000	17.615598
1883.000000	18.086330
1882.000000	18.537733
1881.000000	18.950593
1880.000000	19.400839
1879.000000	19.848538
1878.000000	20.258736
1877.000000	20.674027
1876.000000	21.118138
1875.000000	21.497085
1874.000000	21.901033
1873.000000	22.302434
1872.000000	22.709739
1871.000000	23.089149
1870.000000	23.444715
1869.000000	23.791023
1868.000000	24.161752
1867.000000	24.454353
1866.000000	24.729246
1865.000000	24.934693
1864.000000	25.170695
1863.000000	25.373942
1862.000000	25.533207
1861.000000	25.728352
1860.000000	25.911807
1859.000000	26.109266
1858.000000	26.255452
1857.000000	26.403952
1856.000000	26.542266
1855.000000	26.637524
1854.000000	26.732781
1853.000000	26.838456
1852.000000	26.904546
1851.000000	26.946677
1850.000000	27.002466
1849.000000	27.025152
1848.000000	27.063116
1847.000000	27.144368
1846.000000	27.186615
1845.000000	27.192055
1844.000000	27.171568
1843.000000	27.144021
1842.000000	27.154785
1841.000000	27.183721
1840.000000	27.189393
1839.000000	27.191129
1838.000000	27.175851
1837.000000	27.141475
1836.000000	27.116821
1835.000000	27.119715
1834.000000	27.100270
1833.000000	27.065662
1832.000000	26.985567
1831.000000	26.955705
1830.000000	26.941353
1829.000000	26.912532
1828.000000	26.872600
1827.000000	26.813455
1826.000000	26.771671
1825.000000	26.746439
1824.000000	26.698058
1823.000000	26.657547
1822.000000	26.631158
1821.000000	26.619583
1820.000000	26.623866
1819.000000	26.603958
1818.000000	26.565183
1817.000000	26.517265
1816.000000	26.498978
1815.000000	26.503492
1814.000000	26.497589
1813.000000	26.479185
1812.000000	26.454300
1811.000000	26.422934
1810.000000	26.402563
1809.000000	26.360200
1808.000000	26.316796
1807.000000	26.287860
1806.000000	26.254526
1805.000000	26.220844
1804.000000	26.164476
1803.000000	26.122808
1802.000000	26.079520
1801.000000	26.032181
1800.000000	25.987503
1799.000000	25.945488
1798.000000	25.905093
1797.000000	25.862962
1796.000000	25.815854
1795.000000	25.771756
1794.000000	25.736917
1793.000000	25.687494
1792.000000	25.654970
1791.000000	25.618395
1790.000000	25.570361
1789.000000	25.527535
1788.000000	25.488992
1787.000000	25.465728
1786.000000	25.428805
1785.000000	25.384244
1784.000000	25.334474
1783.000000	25.284819
1782.000000	25.240836
1781.000000	25.190835
1780.000000	25.135972
1779.000000	25.088285
1778.000000	25.035969
1777.000000	24.996732
1776.000000	24.950550
1775.000000	24.873232
1774.000000	24.794873
1773.000000	24.740242
1772.000000	24.664082
1771.000000	24.584334
1770.000000	24.511068
1769.000000	24.424028
1768.000000	24.350415
1767.000000	24.292659
1766.000000	24.213026
1765.000000	24.149020
1764.000000	24.100754
1763.000000	24.080268
1762.000000	24.063138
1761.000000	24.073902
1760.000000	24.087212
1759.000000	24.096819
1758.000000	24.133857
1757.000000	24.196591
1756.000000	24.237449
1755.000000	24.286061
1754.000000	24.328192
1753.000000	24.385717
1752.000000	24.408171
1751.000000	24.427964
1750.000000	24.443821
1749.000000	24.447293
1748.000000	24.443936
1747.000000	24.405394
1746.000000	24.370092
1745.000000	24.305275
1744.000000	24.247287
1743.000000	24.184090
1742.000000	24.090685
1741.000000	23.978991
1740.000000	23.851441
1739.000000	23.713821
1738.000000	23.579210
1737.000000	23.449808
1736.000000	23.312883
1735.000000	23.199337
1734.000000	23.119474
1733.000000	23.055814
1732.000000	22.997248
1731.000000	22.983706
1730.000000	22.974562
1729.000000	23.007549
1728.000000	23.049448
1727.000000	23.090653
1726.000000	23.138224
1725.000000	23.194245
1724.000000	23.262650
1723.000000	23.323647
1722.000000	23.364389
1721.000000	23.420409
1720.000000	23.504324
1719.000000	23.583956
1718.000000	23.669838
1717.000000	23.779332
1716.000000	23.876789
1715.000000	23.995311
1714.000000	24.128880
1713.000000	24.229462
1712.000000	24.337683
1711.000000	24.433404
1710.000000	24.514309
1709.000000	24.584450
1708.000000	24.632716
1707.000000	24.670332
1706.000000	24.674036
1705.000000	24.670795
1704.000000	24.656212
1703.000000	24.624498
1702.000000	24.567899
1701.000000	24.518592
1700.000000	24.441274
1699.000000	24.348563
1698.000000	24.257125
1697.000000	24.161983
1696.000000	24.059202
1695.000000	23.978760
1694.000000	23.931073
1693.000000	23.933620
1692.000000	23.962903
1691.000000	24.004455
1690.000000	24.070082
1689.000000	24.148557
1688.000000	24.257009
1687.000000	24.355161
1686.000000	24.417778
1685.000000	24.504239
1684.000000	24.622993
1683.000000	24.747534
1682.000000	24.922655
1681.000000	25.144769
1680.000000	25.396165
1679.000000	25.712726
1678.000000	26.059612
1677.000000	26.421776
1676.000000	26.810214
1675.000000	27.166475
1674.000000	27.507343
1673.000000	27.784203
1672.000000	28.056665
1671.000000	28.292900
1670.000000	28.506795
1669.000000	28.699857
1668.000000	28.897317
1667.000000	29.067461
1666.000000	29.178460
1665.000000	29.300802
1664.000000	29.441315
1663.000000	29.547106
1662.000000	29.626043
1661.000000	29.676508
1660.000000	29.779289
1659.000000	29.847925
1658.000000	29.899431
1657.000000	29.954757
1656.000000	29.979874
1655.000000	30.016217
1654.000000	30.037283
1653.000000	30.058464
1652.000000	30.042723
1651.000000	30.034852
1650.000000	30.033232
1649.000000	29.986355
1648.000000	29.970614
1647.000000	29.952905
1646.000000	29.901515
1645.000000	29.873505
1644.000000	29.820725
1643.000000	29.792368
1642.000000	29.740399
1641.000000	29.707759
1640.000000	29.659956
1639.000000	29.615510
1638.000000	29.572106
1637.000000	29.520137
1636.000000	29.472450
1635.000000	29.384369
1634.000000	29.333210
1633.000000	29.261217
1632.000000	29.193275
1631.000000	29.158899
1630.000000	29.092230
1629.000000	29.008778
1628.000000	28.949749
1627.000000	28.862478
1626.000000	28.773354
1625.000000	28.701130
1624.000000	28.612123
1623.000000	28.554482
1622.000000	28.482836
1621.000000	28.408760
1620.000000	28.344637
1619.000000	28.266278
1618.000000	28.187109
1617.000000	28.129932
1616.000000	28.057128
1615.000000	28.006664
1614.000000	27.897748
1613.000000	27.840571
1612.000000	27.767652
1611.000000	27.717766
1610.000000	27.620772
1609.000000	27.559775
1608.000000	27.496115
1607.000000	27.399006
1606.000000	27.349352
1605.000000	27.249696
1604.000000	27.163003
1603.000000	27.087654
1602.000000	27.000498
1601.000000	26.924222
1600.000000	26.829659
1599.000000	26.767505
1598.000000	26.678034
1597.000000	26.590879
1596.000000	26.519349
1595.000000	26.445620
1594.000000	26.369923
1593.000000	26.286124
1592.000000	26.211932
1591.000000	26.159152
1590.000000	26.082066
1589.000000	26.017134
1588.000000	25.956252
1587.000000	25.883681
1586.000000	25.810762
1585.000000	25.750922
1584.000000	25.693628
1583.000000	25.643395
1582.000000	25.558902
1581.000000	25.491076
1580.000000	25.441190
1579.000000	25.387948
1578.000000	25.355423
1577.000000	25.322436
1576.000000	25.271277
1575.000000	25.235281
1574.000000	25.196738
1573.000000	25.162709
1572.000000	25.126944
1571.000000	25.107383
1570.000000	25.096272
1569.000000	25.072081
1568.000000	25.035969
1567.000000	25.026131
1566.000000	25.004255
1565.000000	24.988861
1564.000000	24.974509
1563.000000	24.957378
1562.000000	24.936082
1561.000000	24.916752
1560.000000	24.890594
1559.000000	24.865014
1558.000000	24.806101
1557.000000	24.763044
1556.000000	24.746955
1555.000000	24.703898
1554.000000	24.659568
1553.000000	24.600539
1552.000000	24.525189
1551.000000	24.466854
1550.000000	24.405741
1549.000000	24.355045
1548.000000	24.313030
1547.000000	24.251106
1546.000000	24.191730
1545.000000	24.123325
1544.000000	24.070429
1543.000000	24.030498
1542.000000	23.971005
1541.000000	23.932462
1540.000000	23.880956
1539.000000	23.815560
1538.000000	23.778175
1537.000000	23.747966
1536.000000	23.718798
1535.000000	23.670648
1534.000000	23.616364
1533.000000	23.559187
1532.000000	23.504902
1531.000000	23.459299
1530.000000	23.406983
1529.000000	23.362537
1528.000000	23.291007
1527.000000	23.225843
1526.000000	23.164498
1525.000000	23.087528
1524.000000	23.035559
1523.000000	22.966344
1522.000000	22.906157
1521.000000	22.848748
1520.000000	22.775366
1519.000000	22.708928
1518.000000	22.651982
1517.000000	22.589365
1516.000000	22.501862
1515.000000	22.434383
1514.000000	22.378015
1513.000000	22.305212
1512.000000	22.223381
1511.000000	22.149652
1510.000000	22.080205
1509.000000	21.993976
1508.000000	21.909945
1507.000000	21.843161
1506.000000	21.777649
1505.000000	21.697786
1504.000000	21.620584
1503.000000	21.544887
1502.000000	21.476714
1501.000000	21.424629
1500.000000	21.365021
1499.000000	21.295690
1498.000000	21.226706
1497.000000	21.163162
1496.000000	21.114666
1495.000000	21.055867
1494.000000	20.999616
1493.000000	20.960726
1492.000000	20.919405
1491.000000	20.886533
1490.000000	20.847412
1489.000000	20.805975
1488.000000	20.763266
1487.000000	20.723681
1486.000000	20.679351
1485.000000	20.657244
1484.000000	20.632938
1483.000000	20.590807
1482.000000	20.563838
1481.000000	20.548213
1480.000000	20.525643
1479.000000	20.511869
1478.000000	20.494507
1477.000000	20.477377
1476.000000	20.463719
1475.000000	20.448557
1474.000000	20.471127
1473.000000	20.467539
1472.000000	20.452376
1471.000000	20.451566
1470.000000	20.446358
1469.000000	20.454344
1468.000000	20.453302
1467.000000	20.446589
1466.000000	20.458858
1465.000000	20.465571
1464.000000	20.480155
1463.000000	20.525064
1462.000000	20.543236
1461.000000	20.567426
1460.000000	20.598330
1459.000000	20.633053
1458.000000	20.676110
1457.000000	20.728658
1456.000000	20.759215
1455.000000	20.805628
1454.000000	20.870676
1453.000000	20.933063
1452.000000	20.993944
1451.000000	21.052627
1450.000000	21.106795
1449.000000	21.184344
1448.000000	21.243142
1447.000000	21.289903
1446.000000	21.365715
1445.000000	21.452176
1444.000000	21.543846
1443.000000	21.601718
1442.000000	21.666188
1441.000000	21.741769
1440.000000	21.829156
1439.000000	21.909135
1438.000000	21.997911
1437.000000	22.106942
1436.000000	22.209144
1435.000000	22.309495
1434.000000	22.429637
1433.000000	22.556493
1432.000000	22.675826
1431.000000	22.788908
1430.000000	22.921667
1429.000000	23.064611
1428.000000	23.217046
1427.000000	23.376542
1426.000000	23.533723
1425.000000	23.694723
1424.000000	23.868340
1423.000000	24.077027
1422.000000	24.286871
1421.000000	24.488498
1420.000000	24.706097
1419.000000	24.932493
1418.000000	25.206576
1417.000000	25.421629
1416.000000	25.665387
1415.000000	25.936576
1414.000000	26.231840
1413.000000	26.528955
1412.000000	26.842160
1411.000000	27.127122
1410.000000	27.471809
1409.000000	27.862331
1408.000000	28.252621
1407.000000	28.650434
1406.000000	29.039103
1405.000000	29.454047
1404.000000	29.910427
1403.000000	30.310555
1402.000000	30.747375
1401.000000	31.136507
1400.000000	31.687450
1399.000000	32.227398
1398.000000	32.615952
1397.000000	32.964805
1396.000000	33.365744
1395.000000	33.967151
1394.000000	34.528396
1393.000000	34.917413
1392.000000	35.361987
1391.000000	35.899272
1390.000000	36.438178
1389.000000	36.889928
1388.000000	37.457307
1387.000000	38.093554
1386.000000	38.712091
1385.000000	39.275535
1384.000000	39.904143
1383.000000	40.493860
1382.000000	41.143302
1381.000000	41.763807
1380.000000	42.308500
1379.000000	42.675063
1378.000000	43.063038
1377.000000	43.339320
1376.000000	43.657732
1375.000000	43.897323
1374.000000	44.178119
1373.000000	44.428474
1372.000000	44.746655
1371.000000	45.054188
1370.000000	45.431399
1369.000000	45.708838
1368.000000	45.984541
1367.000000	46.293232
1366.000000	46.585833
1365.000000	46.755399
1364.000000	47.007027
1363.000000	47.199741
1362.000000	47.391877
1361.000000	47.587138
1360.000000	47.806126
1359.000000	47.887726
1358.000000	48.017475
1357.000000	48.135419
1356.000000	48.298503
1355.000000	48.469689
1354.000000	48.738563
1353.000000	49.049568
1352.000000	49.292284
1351.000000	49.674009
1350.000000	50.052956
1349.000000	50.422643
1348.000000	50.792331
1347.000000	51.145930
1346.000000	51.478579
1345.000000	51.810997
1344.000000	52.142026
1343.000000	52.440878
1342.000000	52.771791
1341.000000	53.081176
1340.000000	53.379333
1339.000000	53.693579
1338.000000	53.994746
1337.000000	54.288621
1336.000000	54.589093
1335.000000	54.879959
1334.000000	55.186913
1333.000000	55.468519
1332.000000	55.754292
1331.000000	56.037402
1330.000000	56.304425
1329.000000	56.569132
1328.000000	56.819950
1327.000000	57.056763
1326.000000	57.300289
1325.000000	57.543815
1324.000000	57.788267
1323.000000	57.993598
1322.000000	58.210503
1321.000000	58.388518
1320.000000	58.612946
1319.000000	58.812836
1318.000000	58.982518
1317.000000	59.178820
1316.000000	59.352784
1315.000000	59.540637
1314.000000	59.698397
1313.000000	59.848980
1312.000000	60.006971
1311.000000	60.156629
1310.000000	60.300730
1309.000000	60.419252
1308.000000	60.544025
1307.000000	60.675163
1306.000000	60.765560
1305.000000	60.867762
1304.000000	60.969270
1303.000000	61.057814
1302.000000	61.153188
1301.000000	61.207240
1300.000000	61.277265
1299.000000	61.342314
1298.000000	61.398566
1297.000000	61.450419
1296.000000	61.486647
1295.000000	61.543709
1294.000000	61.565816
1293.000000	61.600771
1292.000000	61.633874
1291.000000	61.643481
1290.000000	61.656444
1289.000000	61.682255
1288.000000	61.682718
1287.000000	61.670333
1286.000000	61.666630
1285.000000	61.655634
1284.000000	61.630864
1283.000000	61.606211
1282.000000	61.577275
1281.000000	61.553432
1280.000000	61.515352
1279.000000	61.477040
1278.000000	61.441970
1277.000000	61.411066
1276.000000	61.381783
1275.000000	61.357361
1274.000000	61.326804
1273.000000	61.311063
1272.000000	61.292659
1271.000000	61.282474
1270.000000	61.249140
1269.000000	61.226106
1268.000000	61.212101
1267.000000	61.194508
1266.000000	61.177147
1265.000000	61.139414
1264.000000	61.101103
1263.000000	61.079806
1262.000000	61.058277
1261.000000	61.011632
1260.000000	60.961399
1259.000000	60.920657
1258.000000	60.888480
1257.000000	60.833849
1256.000000	60.777366
1255.000000	60.720767
1254.000000	60.664399
1253.000000	60.628634
1252.000000	60.577475
1251.000000	60.497843
1250.000000	60.410340
1249.000000	60.339389
1248.000000	60.243668
1247.000000	60.157902
1246.000000	60.052806
1245.000000	59.947594
1244.000000	59.863911
1243.000000	59.769232
1242.000000	59.660317
1241.000000	59.544109
1240.000000	59.435078
1239.000000	59.342946
1238.000000	59.244447
1237.000000	59.130323
1236.000000	59.016084
1235.000000	58.904622
1234.000000	58.794086
1233.000000	58.688643
1232.000000	58.574635
1231.000000	58.441529
1230.000000	58.307381
1229.000000	58.190248
1228.000000	58.065012
1227.000000	57.913040
1226.000000	57.771137
1225.000000	57.621827
1224.000000	57.452146
1223.000000	57.313368
1222.000000	57.171466
1221.000000	57.006067
1220.000000	56.855484
1219.000000	56.699807
1218.000000	56.547604
1217.000000	56.401766
1216.000000	56.249793
1215.000000	56.101756
1214.000000	55.964599
1213.000000	55.813900
1212.000000	55.680562
1211.000000	55.539239
1210.000000	55.400577
1209.000000	55.270827
1208.000000	55.135754
1207.000000	55.021977
1206.000000	54.907737
1205.000000	54.794539
1204.000000	54.677753
1203.000000	54.587473
1202.000000	54.507378
1201.000000	54.444413
1200.000000	54.371146
1199.000000	54.283181
1198.000000	54.188618
1197.000000	54.096022
1196.000000	53.990348
1195.000000	53.854348
1194.000000	53.707468
1193.000000	53.537556
1192.000000	53.309423
1191.000000	53.049114
1190.000000	52.794708
1189.000000	52.528496
1188.000000	52.252909
1187.000000	52.011929
1186.000000	51.850581
1185.000000	51.763542
1184.000000	51.742708
1183.000000	51.823613
1182.000000	51.999197
1181.000000	52.228140
1180.000000	52.528496
1179.000000	52.869711
1178.000000	53.199466
1177.000000	53.523898
1176.000000	53.832704
1175.000000	54.104587
1174.000000	54.341632
1173.000000	54.580991
1172.000000	54.795697
1171.000000	55.012602
1170.000000	55.252771
1169.000000	55.490857
1168.000000	55.724893
1167.000000	55.982424
1166.000000	56.250603
1165.000000	56.534756
1164.000000	56.792750
1163.000000	57.078176
1162.000000	57.387097
1161.000000	57.692084
1160.000000	57.986074
1159.000000	58.272542
1158.000000	58.575213
1157.000000	58.872792
1156.000000	59.156019
1155.000000	59.422115
1154.000000	59.667609
1153.000000	59.893542
1152.000000	60.110215
1151.000000	60.297489
1150.000000	60.461383
1149.000000	60.601897
1148.000000	60.750860
1147.000000	60.929801
1146.000000	61.102607
1145.000000	61.323910
1144.000000	61.558293
1143.000000	61.802861
1142.000000	62.101250
1141.000000	62.414685
1140.000000	62.743978
1139.000000	63.102091
1138.000000	63.455574
1137.000000	63.825378
1136.000000	64.209417
1135.000000	64.627833
1134.000000	65.055277
1133.000000	65.478323
1132.000000	65.807153
1131.000000	66.126607
1130.000000	66.424186
1129.000000	66.670490
1128.000000	66.909155
1127.000000	67.110203
1126.000000	67.248401
1125.000000	67.369817
1124.000000	67.469126
1123.000000	67.596445
1122.000000	67.648298
1121.000000	67.707444
1120.000000	67.752352
1119.000000	67.784066
1118.000000	67.794368
1117.000000	67.814739
1116.000000	67.803048
1115.000000	67.815433
1114.000000	67.801312
1113.000000	67.797030
1112.000000	67.767168
1111.000000	67.760107
1110.000000	67.730014
1109.000000	67.708370
1108.000000	67.688577
1107.000000	67.674688
1106.000000	67.668669
1105.000000	67.620172
1104.000000	67.611029
1103.000000	67.605010
1102.000000	67.582324
1101.000000	67.563573
1100.000000	67.546906
1099.000000	67.497252
1098.000000	67.472830
1097.000000	67.433245
1096.000000	67.448986
1095.000000	67.404425
1094.000000	67.368891
1093.000000	67.309167
1092.000000	67.250138
1091.000000	67.244466
1090.000000	67.184395
1089.000000	67.158005
1088.000000	67.092147
1087.000000	67.016913
1086.000000	66.971772
1085.000000	66.909618
1084.000000	66.876399
1083.000000	66.777785
1082.000000	66.732992
1081.000000	66.680097
1080.000000	66.604863
1079.000000	66.531365
1078.000000	66.482868
1077.000000	66.429973
1076.000000	66.350572
1075.000000	66.290154
1074.000000	66.213994
1073.000000	66.120241
1072.000000	66.086791
1071.000000	66.002298
1070.000000	65.939217
1069.000000	65.863289
1068.000000	65.785971
1067.000000	65.711664
1066.000000	65.634578
1065.000000	65.542561
1064.000000	65.477281
1063.000000	65.389547
1062.000000	65.315239
1061.000000	65.226695
1060.000000	65.155743
1059.000000	65.078426
1058.000000	64.987683
1057.000000	64.893004
1056.000000	64.824483
1055.000000	64.721586
1054.000000	64.641723
1053.000000	64.525400
1052.000000	64.462435
1051.000000	64.379793
1050.000000	64.290554
1049.000000	64.197264
1048.000000	64.122493
1047.000000	64.042398
1046.000000	63.950150
1045.000000	63.885449
1044.000000	63.809058
1043.000000	63.722134
1042.000000	63.640881
1041.000000	63.558703
1040.000000	63.488562
1039.000000	63.396313
1038.000000	63.292259
1037.000000	63.227442
1036.000000	63.152440
1035.000000	63.055793
1034.000000	62.960651
1033.000000	62.891436
1032.000000	62.807637
1031.000000	62.712033
1030.000000	62.586797
1029.000000	62.534596
1028.000000	62.444432
1027.000000	62.344891
1026.000000	62.224517
1025.000000	62.138056
1024.000000	62.034928
1023.000000	61.951013
1022.000000	61.843255
1021.000000	61.744873
1020.000000	61.654824
1019.000000	61.578432
1018.000000	61.459910
1017.000000	61.380741
1016.000000	61.284094
1015.000000	61.195318
1014.000000	61.130733
1013.000000	61.059087
1012.000000	60.988715
1011.000000	60.941607
1010.000000	60.877832
1009.000000	60.806765
1008.000000	60.746578
1007.000000	60.722271
1006.000000	60.698775
1005.000000	60.651204
1004.000000	60.580600
1003.000000	60.536386
1002.000000	60.479208
1001.000000	60.442170
1000.000000	60.389738
999.000000	60.353741
998.000000	60.307443
997.000000	60.254895
996.000000	60.227001
995.000000	60.160911
994.000000	60.137646
993.000000	60.110678
992.000000	60.069473
991.000000	60.043662
990.000000	60.017851
989.000000	59.986600
988.000000	59.948289
987.000000	59.917153
986.000000	59.872476
985.000000	59.852452
984.000000	59.837869
983.000000	59.829188
982.000000	59.798863
981.000000	59.795506
980.000000	59.771547
979.000000	59.752449
978.000000	59.736939
977.000000	59.730805
976.000000	59.717379
975.000000	59.722008
974.000000	59.698049
973.000000	59.688095
972.000000	59.697471
971.000000	59.686591
970.000000	59.661590
969.000000	59.661821
968.000000	59.649552
967.000000	59.634390
966.000000	59.636242
965.000000	59.625362
964.000000	59.623047
963.000000	59.633811
962.000000	59.636010
961.000000	59.632538
960.000000	59.635316
959.000000	59.652562
958.000000	59.667724
957.000000	59.645964
956.000000	59.645733
955.000000	59.674669
954.000000	59.679415
953.000000	59.673627
952.000000	59.678373
951.000000	59.693998
950.000000	59.728953
949.000000	59.747356
948.000000	59.732888
947.000000	59.717031
946.000000	59.710665
945.000000	59.693072
944.000000	59.692146
943.000000	59.679183
942.000000	59.634043
941.000000	59.591912
940.000000	59.590060
939.000000	59.551633
938.000000	59.483459
937.000000	59.436236
936.000000	59.435194
935.000000	59.408457
934.000000	59.342830
933.000000	59.302782
932.000000	59.261693
931.000000	59.244563
930.000000	59.192015
929.000000	59.110299
928.000000	59.040043
927.000000	58.979740
926.000000	58.910062
925.000000	58.832282
924.000000	58.750450
923.000000	58.665610
922.000000	58.635516
921.000000	58.562597
920.000000	58.445811
919.000000	58.371735
918.000000	58.285505
917.000000	58.194762
916.000000	58.092791
915.000000	57.993945
914.000000	57.883988
913.000000	57.776924
912.000000	57.679699
911.000000	57.600877
910.000000	57.505851
909.000000	57.403070
908.000000	57.298437
907.000000	57.201906
906.000000	57.104797
905.000000	57.003636
904.000000	56.904443
903.000000	56.801431
902.000000	56.721336
901.000000	56.640546
900.000000	56.542974
899.000000	56.411488
898.000000	56.293429
897.000000	56.210440
896.000000	56.126641
895.000000	56.018536
894.000000	55.863902
893.000000	55.737509
892.000000	55.649774
891.000000	55.530558
890.000000	55.364465
889.000000	55.253350
888.000000	55.127999
887.000000	54.966536
886.000000	54.826369
885.000000	54.705069
884.000000	54.526823
883.000000	54.355521
882.000000	54.217901
881.000000	54.081323
880.000000	53.911757
879.000000	53.746706
878.000000	53.562556
877.000000	53.399820
876.000000	53.210462
875.000000	52.984645
874.000000	52.784986
873.000000	52.612758
872.000000	52.393654
871.000000	52.136239
870.000000	51.922922
869.000000	51.832641
868.000000	51.806830
867.000000	51.799422
866.000000	51.790742
865.000000	51.775000
864.000000	51.712383
863.000000	51.722452
862.000000	51.687035
861.000000	51.671988
860.000000	51.667590
859.000000	51.637843
858.000000	51.614000
857.000000	50.885600
856.000000	51.989500
855.000000	51.966900
854.000000	51.431500
853.000000	51.560300
852.000000	51.610500
851.000000	51.537500
850.000000	51.559400
849.000000	51.561900
848.000000	51.854700
847.000000	51.636500
846.000000	51.379300
845.000000	51.156300
844.000000	51.380600
843.000000	51.277300
842.000000	51.233100
841.000000	50.979300
840.000000	51.193500
839.000000	51.049300
838.000000	50.819800
837.000000	50.904600
836.000000	50.834600
835.000000	50.616500
834.000000	50.725100
833.000000	50.522600
832.000000	50.469300
831.000000	50.646300
830.000000	50.540800
829.000000	50.297200
828.000000	50.399000
827.000000	50.406800
826.000000	50.302100
825.000000	50.174800
824.000000	50.198100
823.000000	50.093800
822.000000	50.013600
821.000000	49.883900
820.000000	49.909700
819.000000	49.705900
818.000000	49.486400
817.000000	49.458200
816.000000	49.393400
815.000000	49.378500
814.000000	49.291000
813.000000	49.159300
812.000000	48.987900
811.000000	49.113700
810.000000	48.825000
809.000000	48.890500
808.000000	48.748600
807.000000	48.637200
806.000000	48.581100
805.000000	48.550900
804.000000	48.530200
803.000000	48.382900
802.000000	48.194900
801.000000	48.276400
800.000000	48.153700
799.000000	48.028900
798.000000	47.855100
797.000000	47.792300
796.000000	47.676200
795.000000	47.655800
794.000000	47.455100
793.000000	47.464900
792.000000	47.343100
791.000000	47.218000
790.000000	46.978600
789.000000	47.018100
788.000000	46.917400
787.000000	46.853900
786.000000	46.717400
785.000000	46.531200
784.000000	46.471200
783.000000	46.369400
782.000000	46.292700
781.000000	46.159700
780.000000	46.005600
779.000000	45.993000
778.000000	45.859000
777.000000	45.652100
776.000000	45.483700
775.000000	45.440400
774.000000	45.268500
773.000000	45.207700
772.000000	44.930000
771.000000	44.942300
770.000000	44.836600
769.000000	44.658800
768.000000	44.668900
767.000000	44.553200
766.000000	44.380000
765.000000	44.273000
764.000000	44.119300
763.000000	43.929600
762.000000	43.869600
761.000000	43.736400
760.000000	43.572100
759.000000	43.358300
758.000000	43.195000
757.000000	43.173900
756.000000	43.005500
755.000000	42.813800
754.000000	42.766500
753.000000	42.529800
752.000000	42.397300
751.000000	42.252200
750.000000	42.202400
749.000000	41.963300
748.000000	41.878400
747.000000	41.731500
746.000000	41.541700
745.000000	41.439800
744.000000	41.291300
743.000000	41.118500
742.000000	40.938500
741.000000	40.803500
740.000000	40.657000
739.000000	40.456600
738.000000	40.302700
737.000000	40.083700
736.000000	39.910300
735.000000	39.720900
734.000000	39.482300
733.000000	39.288000
732.000000	39.129900
731.000000	38.927900
730.000000	38.762300
729.000000	38.592600
728.000000	38.368400
727.000000	38.207300
726.000000	38.036400
725.000000	37.811900
724.000000	37.660800
723.000000	37.412600
722.000000	37.165500
721.000000	37.011800
720.000000	36.756500
719.000000	36.570100
718.000000	36.368900
717.000000	36.136200
716.000000	35.907400
715.000000	35.689500
714.000000	35.469900
713.000000	35.234900
712.000000	35.053100
711.000000	34.860000
710.000000	34.650400
709.000000	34.448500
708.000000	34.254700
707.000000	34.045400
706.000000	33.835500
705.000000	33.623500
704.000000	33.420200
703.000000	33.245400
702.000000	33.039800
701.000000	32.807000
700.000000	32.621600
699.000000	32.431600
698.000000	32.186900
697.000000	32.000400
696.000000	31.815500
695.000000	31.655100
694.000000	31.489300
693.000000	31.286600
692.000000	31.098100
691.000000	30.957300
690.000000	30.739600
689.000000	30.556200
688.000000	30.365500
687.000000	30.186700
686.000000	30.021700
685.000000	29.836100
684.000000	29.677200
683.000000	29.526500
682.000000	29.371600
681.000000	29.184800
680.000000	29.025800
679.000000	28.896000
678.000000	28.733800
677.000000	28.563400
676.000000	28.411000
675.000000	28.275900
674.000000	28.147800
673.000000	27.997300
672.000000	27.856300
671.000000	27.712400
670.000000	27.575800
669.000000	27.427600
668.000000	27.294800
667.000000	27.157600
666.000000	27.022500
665.000000	26.921700
664.000000	26.828600
663.000000	26.704000
662.000000	26.592200
661.000000	26.482300
660.000000	26.361000
659.000000	26.277200
658.000000	26.180300
657.000000	26.082100
656.000000	25.989200
655.000000	25.879700
654.000000	25.781100
653.000000	25.705700
652.000000	25.641200
651.000000	25.556000
650.000000	25.451300
649.000000	25.385600
648.000000	25.333000
647.000000	25.261800
646.000000	25.187700
645.000000	25.120100
644.000000	25.066200
643.000000	24.989600
642.000000	24.923300
641.000000	24.888500
640.000000	24.829600
639.000000	24.767400
638.000000	24.748100
637.000000	24.729800
636.000000	24.675400
635.000000	24.626800
634.000000	24.595900
633.000000	24.552100
632.000000	24.510100
631.000000	24.498400
630.000000	24.467700
629.000000	24.434800
628.000000	24.433900
627.000000	24.414500
626.000000	24.386500
625.000000	24.367300
624.000000	24.347700
623.000000	24.336100
622.000000	24.325600
621.000000	24.311000
620.000000	24.300800
619.000000	24.298400
618.000000	24.305100
617.000000	24.304900
616.000000	24.298500
615.000000	24.314000
614.000000	24.321500
613.000000	24.324500
612.000000	24.320900
611.000000	24.308500
610.000000	24.309800
609.000000	24.316800
608.000000	24.300600
607.000000	24.294000
606.000000	24.280100
605.000000	24.280900
604.000000	24.272800
603.000000	24.281100
602.000000	24.266400
601.000000	24.269700
600.000000	24.240700
599.000000	24.219700
598.000000	24.203700
597.000000	24.181300
596.000000	24.167700
595.000000	24.149300
594.000000	24.125700
593.000000	24.104500
592.000000	24.099500
591.000000	24.063500
590.000000	24.032200
589.000000	24.006800
588.000000	23.968500
587.000000	23.943500
586.000000	23.900800
585.000000	23.855600
584.000000	23.818500
583.000000	23.772700
582.000000	23.726400
581.000000	23.657700
580.000000	23.604000
579.000000	23.563700
578.000000	23.511600
577.000000	23.438700
576.000000	23.384700
575.000000	23.306800
574.000000	23.233400
573.000000	23.141000
572.000000	23.050800
571.000000	22.973900
570.000000	22.890000
569.000000	22.810100
568.000000	22.714700
567.000000	22.618900
566.000000	22.503300
565.000000	22.404300
564.000000	22.294900
563.000000	22.190100
562.000000	22.072600
561.000000	21.950500
560.000000	21.811100
559.000000	21.649600
558.000000	21.510200
557.000000	21.374600
556.000000	21.240500
555.000000	21.095700
554.000000	20.940400
553.000000	20.790700
552.000000	20.623600
551.000000	20.482300
550.000000	20.317300
549.000000	20.151900
548.000000	19.992500
547.000000	19.819600
546.000000	19.664200
545.000000	19.495100
544.000000	19.321800
543.000000	19.132700
542.000000	18.943900
541.000000	18.765500
540.000000	18.589600
539.000000	18.399600
538.000000	18.224100
537.000000	18.039500
536.000000	17.849700
535.000000	17.657900
534.000000	17.480100
533.000000	17.277800
532.000000	17.098400
531.000000	16.920400
530.000000	16.733900
529.000000	16.553200
528.000000	16.356600
527.000000	16.182200
526.000000	16.006000
525.000000	15.818300
524.000000	15.639700
523.000000	15.452000
522.000000	15.274100
521.000000	15.082600
520.000000	14.911800
519.000000	14.744100
518.000000	14.573400
517.000000	14.399300
516.000000	14.243200
515.000000	14.077800
514.000000	13.915600
513.000000	13.774300
512.000000	13.612800
511.000000	13.465800
510.000000	13.314300
509.000000	13.194000
508.000000	13.070500
507.000000	12.945100
506.000000	12.831500
505.000000	12.716500
504.000000	12.601400
503.000000	12.475600
502.000000	12.376300
501.000000	12.280500
500.000000	12.174200
499.000000	12.093500
498.000000	12.006200
497.000000	11.898400
496.000000	11.848200
495.000000	11.776100
494.000000	11.702000
493.000000	11.648700
492.000000	11.540600
491.000000	11.491400
490.000000	11.420400
489.000000	11.382300
488.000000	11.332300
487.000000	11.264000
486.000000	11.204200
485.000000	11.155600
484.000000	11.099500
483.000000	11.054900
482.000000	10.983000
481.000000	10.934100
480.000000	10.850500
479.000000	10.771000
478.000000	10.710400
477.000000	10.651600
476.000000	10.594700
475.000000	10.504400
474.000000	10.456100
473.000000	10.383800
472.000000	10.315700
471.000000	10.271800
470.000000	10.221400
469.000000	10.159000
468.000000	10.102300
467.000000	10.039200
466.000000	9.998600
465.000000	9.960900
464.000000	9.920500
463.000000	9.872100
462.000000	9.819800
461.000000	9.775500
460.000000	9.727300
459.000000	9.684400
458.000000	9.652300
457.000000	9.636300
456.000000	9.605900
455.000000	9.565300
454.000000	9.537400
453.000000	9.510500
452.000000	9.480800
451.000000	9.431500
450.000000	9.399100
449.000000	9.385900
448.000000	9.342100
447.000000	9.326500
446.000000	9.307000
445.000000	9.287500
444.000000	9.257700
443.000000	9.222800
442.000000	9.193500
441.000000	9.173500
440.000000	9.145000
439.000000	9.102600
438.000000	9.071500
437.000000	9.038300
436.000000	9.032400
435.000000	8.979000
434.000000	8.936200
433.000000	8.911100
432.000000	8.886700
431.000000	8.844000
430.000000	8.797600
429.000000	8.746500
428.000000	8.717600
427.000000	8.677500
426.000000	8.612000
425.000000	8.585700
424.000000	8.517400
423.000000	8.464100
422.000000	8.397300
421.000000	8.354300
420.000000	8.288700
419.000000	8.232800
418.000000	8.174700
417.000000	8.120200
416.000000	8.051100
415.000000	8.003300
414.000000	7.925500
413.000000	7.851800
412.000000	7.779900
411.000000	7.692900
410.000000	7.620600
409.000000	7.544800
408.000000	7.450400
407.000000	7.371600
406.000000	7.308900
405.000000	7.197300
404.000000	7.115800
403.000000	7.043600
402.000000	6.987900
401.000000	6.889300
400.000000	6.776200
399.000000	6.690600
398.000000	6.608400
397.000000	6.527100
396.000000	6.422800
395.000000	6.332900
394.000000	6.264500
393.000000	6.178000
392.000000	6.093000
391.000000	6.022600
390.000000	5.919100
389.000000	5.819800
388.000000	5.785000
387.000000	5.707800
386.000000	5.610300
385.000000	5.521800
384.000000	5.451000
383.000000	5.390000
382.000000	5.322700
381.000000	5.248800
380.000000	5.185300
379.000000	5.109600
378.000000	5.049300
377.000000	5.013100
376.000000	4.887700
375.000000	4.728200
374.000000	4.690500
373.000000	4.617200
372.000000	4.606100
371.000000	4.589500
370.000000	4.586600
369.000000	4.542300
368.000000	4.487700
367.000000	4.468300
366.000000	4.444500
365.000000	4.391700
364.000000	4.372000
363.000000	4.302900
362.000000	4.305800
361.000000	4.324000
360.000000	4.273200
359.000000	4.250500
358.000000	4.227200
357.000000	4.203000
356.000000	4.163200
355.000000	4.149900
354.000000	4.188000
353.000000	4.215300
352.000000	4.156300
351.000000	4.129400
350.000000	4.129400
349.000000	4.108400
348.000000	4.097400
347.000000	4.041000
346.000000	4.066300
345.000000	4.106600
344.000000	4.073700
343.000000	4.059000
342.000000	4.061900
341.000000	4.068800
340.000000	4.053500
339.000000	3.980300
338.000000	3.987200
337.000000	4.098300
336.000000	4.103800
335.000000	4.044300
334.000000	4.022900
333.000000	3.986900
332.000000	3.894800
331.000000	3.905200
330.000000	3.980900
329.000000	3.977500
328.000000	4.115400
327.000000	4.123900
326.000000	4.068400
325.000000	4.079200
324.000000	3.950100
323.000000	4.024100
322.000000	4.024000
321.000000	3.928800
320.000000	3.968300
319.000000	4.102600
318.000000	4.107700
317.000000	3.942900
316.000000	3.987100
315.000000	4.083200
314.000000	4.098700
313.000000	4.133300
312.000000	4.117200
311.000000	4.096700
310.000000	4.105100
309.000000	4.123500
308.000000	4.101600
307.000000	4.107700
306.000000	4.123000
305.000000	4.105100
304.000000	4.139500
303.000000	4.135800
302.000000	4.143500
301.000000	4.160100
300.000000	4.166100
299.000000	4.168300
298.000000	4.146000
297.000000	4.154300
296.000000	4.162400
295.000000	4.149600
294.000000	4.149300
293.000000	4.145200
292.000000	4.157200
291.000000	4.162300
290.000000	4.143800
289.000000	4.144100
288.000000	4.143600
287.000000	4.183600
286.000000	4.206800
285.000000	4.200800
284.000000	4.202600
283.000000	4.195900
282.000000	4.227800
281.000000	4.211100
280.000000	4.191300
279.000000	4.192600
278.000000	4.203600
277.000000	4.223900
276.000000	4.227700
275.000000	4.232200
274.000000	4.223700
273.000000	4.231300
272.000000	4.248900
271.000000	4.273100
270.000000	4.257000
269.000000	4.233200
268.000000	4.291000
267.000000	4.301400
266.000000	4.285000
265.000000	4.296600
264.000000	4.323400
263.000000	4.330100
262.000000	4.385700
261.000000	4.390500
260.000000	4.378800
259.000000	4.387500
258.000000	4.412000
257.000000	4.422400
256.000000	4.460700
255.000000	4.446700
254.000000	4.434600
253.000000	4.463400
252.000000	4.484200
251.000000	4.499000
250.000000	4.475700
