Time1=100ms:Average1=5:Objective=10X:Aperture=1: (11/21/2018 2:33:03 PM)
11/21/2018 2:33:03 PM
Reflectance
10X
Ap#: 1
Avg1: 5.000000
Avg2: 0.000000
Int.Time1:100.000000

420.190645	29.253571
420.624620	29.330928
421.058582	29.377891
421.492531	29.474491
421.926468	29.562226
422.360391	29.651233
422.794301	29.744970
423.228199	29.879216
423.662083	29.997640
424.095955	30.152875
424.529813	30.307312
424.963658	30.475501
425.397491	30.632511
425.831310	30.779023
426.265116	30.922862
426.698909	31.059045
427.132689	31.215744
427.566455	31.389716
428.000209	31.583353
428.433949	31.755914
428.867676	31.906097
429.301389	32.053663
429.735090	32.180421
430.168777	32.309307
430.602451	32.448216
431.036111	32.565789
431.469759	32.685543
431.903392	32.818012
432.337013	32.921767
432.770620	33.038637
433.204213	33.155918
433.637794	33.299957
434.071360	33.408911
434.504914	33.543239
434.938453	33.677136
435.371979	33.802809
435.805492	33.955182
436.238991	34.093700
436.672477	34.210338
437.105949	34.350677
437.539407	34.446840
437.972852	34.541387
438.406283	34.639579
438.839700	34.717629
439.273104	34.801533
439.706494	34.863861
440.139871	34.943117
440.573233	35.012024
441.006582	35.070353
441.439917	35.101642
441.873238	35.143409
442.306546	35.190832
442.739839	35.212818
443.173119	35.229266
443.606385	35.252584
444.039636	35.267359
444.472874	35.288394
444.906099	35.294154
445.339309	35.322046
445.772505	35.347024
446.205687	35.376583
446.638855	35.393228
447.072009	35.402509
447.505149	35.412910
447.938275	35.399139
448.371387	35.389862
448.804485	35.369734
449.237569	35.315175
449.670638	35.271678
450.103694	35.206719
450.536735	35.135678
450.969762	35.052958
451.402774	34.958628
451.835773	34.851111
452.268757	34.776166
452.701727	34.694485
453.134683	34.620989
453.567624	34.530531
454.000551	34.433004
454.433464	34.340876
454.866362	34.252314
455.299246	34.148279
455.732116	34.042461
456.164971	33.936522
456.597811	33.820866
457.030638	33.699763
457.463449	33.589343
457.896246	33.446292
458.329029	33.311795
458.761797	33.164142
459.194551	33.018449
459.627290	32.860478
460.060014	32.701773
460.492724	32.550154
460.925419	32.396683
461.358099	32.264369
461.790765	32.095747
462.223416	31.925630
462.656052	31.765354
463.088674	31.592510
463.521281	31.432696
463.953873	31.280534
464.386450	31.125815
464.819012	30.987820
465.251560	30.858461
465.684093	30.716551
466.116611	30.592007
466.549114	30.480214
466.981602	30.377865
467.414075	30.274191
467.846533	30.170694
468.278977	30.060715
468.711405	29.961309
469.143818	29.881939
469.576216	29.797356
470.008600	29.726635
470.440968	29.649445
470.873321	29.575262
471.305659	29.515664
471.737982	29.467678
472.170289	29.434094
472.602582	29.401772
473.034859	29.380694
473.467122	29.382244
473.899369	29.390126
474.331600	29.417973
474.763817	29.453012
475.196018	29.515810
475.628204	29.592606
476.060375	29.688851
476.492530	29.781794
476.924670	29.897657
477.356795	30.011317
477.788904	30.150402
478.220998	30.281370
478.653076	30.420340
479.085139	30.574662
479.517186	30.725839
479.949219	30.872313
480.381235	31.032310
480.813236	31.202564
481.245221	31.376272
481.677191	31.562902
482.109146	31.738503
482.541084	31.906683
482.973008	32.084462
483.404915	32.267998
483.836807	32.448375
484.268683	32.632181
484.700544	32.804412
485.132388	32.971113
485.564217	33.129927
485.996031	33.291223
486.427828	33.441763
486.859610	33.583396
487.291376	33.719532
487.723126	33.863759
488.154860	33.992741
488.586579	34.120978
489.018281	34.258800
489.449968	34.392758
489.881639	34.539579
490.313293	34.684307
490.744932	34.826128
491.176555	34.966935
491.608162	35.114061
492.039753	35.263269
492.471328	35.387192
492.902886	35.507142
493.334429	35.625601
493.765956	35.722340
494.197466	35.823614
494.628960	35.913235
495.060439	36.012015
495.491901	36.125340
495.923347	36.235713
496.354776	36.359466
496.786190	36.491154
497.217587	36.642036
497.648968	36.797126
498.080332	36.982941
498.511681	37.174200
498.943013	37.388757
499.374328	37.603631
499.805628	37.838329
500.236911	38.081225
500.668177	38.331616
501.099427	38.578107
501.530661	38.842917
501.961878	39.116869
502.393079	39.396600
502.824264	39.697633
503.255431	40.018548
503.686583	40.344084
504.117717	40.702715
504.548835	41.083600
504.979937	41.483302
505.411022	41.894832
505.842090	42.348304
506.273142	42.817395
506.704177	43.306515
507.135195	43.826714
507.566197	44.360586
507.997182	44.910235
508.428150	45.474664
508.859102	46.054411
509.290036	46.641619
509.720954	47.240748
510.151855	47.866662
510.582739	48.492774
511.013607	49.137785
511.444457	49.779357
511.875291	50.453431
512.306107	51.123512
512.736907	51.816838
513.167690	52.517072
513.598456	53.239855
514.029205	53.986970
514.459936	54.736959
514.890651	55.511652
515.321349	56.279259
515.752030	57.061674
516.182693	57.830041
516.613340	58.580251
517.043969	59.342227
517.474582	60.094580
517.905177	60.837642
518.335755	61.564512
518.766315	62.278237
519.196859	62.973562
519.627385	63.642564
520.057894	64.293810
520.488386	64.935905
520.918860	65.571139
521.349318	66.221405
521.779757	66.864252
522.210180	67.512342
522.640585	68.182007
523.070973	68.844883
523.501343	69.495360
523.931696	70.164270
524.362031	70.808315
524.792349	71.466040
525.222650	72.102101
525.652933	72.737556
526.083198	73.356378
526.513446	73.950813
526.943677	74.526470
527.373890	75.063843
527.804085	75.619682
528.234262	76.133575
528.664422	76.650476
529.094565	77.141420
529.524689	77.643117
529.954796	78.155514
530.384885	78.650955
530.814957	79.142889
531.245011	79.627452
531.675047	80.122223
532.105065	80.618786
532.535065	81.108596
532.965048	81.603285
533.395013	82.098769
533.824959	82.567664
534.254888	83.011881
534.684799	83.443173
535.114693	83.860203
535.544568	84.257686
535.974425	84.617318
536.404264	84.959487
536.834086	85.269268
537.263889	85.544896
537.693674	85.809494
538.123441	86.056760
538.553190	86.278343
538.982921	86.491461
539.412634	86.698637
539.842329	86.902362
540.272006	87.106287
540.701664	87.330537
541.131304	87.533789
541.560926	87.753381
541.990530	87.982549
542.420116	88.227534
542.849683	88.454738
543.279232	88.672200
543.708763	88.891388
544.138275	89.095047
544.567769	89.296907
544.997245	89.463329
545.426702	89.618653
545.856141	89.759417
546.285562	89.900362
546.714964	90.014475
547.144347	90.139011
547.573713	90.265130
548.003059	90.404593
548.432387	90.545004
548.861697	90.702211
549.290988	90.858568
549.720260	91.036506
550.149514	91.223766
550.578750	91.414239
551.007966	91.639167
551.437164	91.856744
551.866344	92.095354
552.295504	92.324212
552.724646	92.544448
553.153769	92.766810
553.582874	92.970167
554.011960	93.143401
554.441027	93.296178
554.870075	93.424862
555.299104	93.518824
555.728115	93.583574
556.157106	93.642760
556.586079	93.672601
557.015033	93.678079
557.443968	93.673030
557.872884	93.663800
558.301781	93.676380
558.730659	93.657945
559.159518	93.664486
559.588358	93.674478
560.017180	93.689118
560.445982	93.709006
560.874765	93.743871
561.303528	93.782648
561.732273	93.823231
562.160999	93.866136
562.589705	93.924190
563.018393	93.974884
563.447061	94.027316
563.875710	94.098845
564.304340	94.147629
564.732950	94.202149
565.161542	94.243101
565.590114	94.298289
566.018666	94.351553
566.447200	94.400918
566.875714	94.458790
567.304208	94.516121
567.732684	94.574200
568.161140	94.638293
568.589576	94.704065
569.017993	94.769154
569.446391	94.831817
569.874769	94.896760
570.303128	94.982762
570.731467	95.073620
571.159787	95.151518
571.588087	95.220051
572.016368	95.326298
572.444629	95.406316
572.872870	95.483330
573.301092	95.567283
573.729294	95.629948
574.157476	95.682700
574.585639	95.703170
575.013782	95.709007
575.441906	95.691359
575.870009	95.656733
576.298093	95.612825
576.726157	95.543379
577.154202	95.446769
577.582226	95.338786
578.010231	95.217208
578.438216	95.095679
578.866181	94.956297
579.294126	94.811825
579.722051	94.669600
580.149957	94.523272
580.577842	94.383598
581.005707	94.235354
581.433553	94.100720
581.861378	93.959857
582.289184	93.828917
582.716969	93.689523
583.144734	93.553277
583.572479	93.413670
584.000205	93.257117
584.427910	93.102031
584.855594	92.946694
585.283259	92.764464
585.710904	92.583928
586.138528	92.392779
586.566132	92.181843
586.993716	91.967325
587.421280	91.726120
587.848823	91.484341
588.276346	91.221885
588.703849	90.940529
589.131332	90.623742
589.558794	90.280882
589.986236	89.915601
590.413657	89.532062
590.841058	89.119114
591.268438	88.676068
591.695799	88.208525
592.123138	87.733052
592.550458	87.249739
592.977756	86.754220
593.405034	86.247282
593.832292	85.739314
594.259529	85.231992
594.686746	84.707701
595.113942	84.195594
595.541117	83.667263
595.968272	83.148640
596.395406	82.626447
596.822519	82.092299
597.249612	81.556577
597.676684	81.014814
598.103735	80.450156
598.530766	79.879327
598.957775	79.289448
599.384764	78.683600
599.811733	78.073308
600.238680	77.445702
600.665606	76.814939
601.092512	76.169616
601.519397	75.523883
601.946261	74.867268
602.373104	74.209053
602.799926	73.554237
603.226727	72.895131
603.653507	72.229441
604.080266	71.564623
604.507004	70.911958
604.933721	70.255837
605.360417	69.598449
605.787092	68.932570
606.213746	68.268555
606.640379	67.599514
607.066991	66.924274
607.493581	66.257078
607.920150	65.601523
608.346699	64.940956
608.773226	64.302143
609.199731	63.652670
609.626216	63.019410
610.052679	62.392687
610.479121	61.784177
610.905542	61.183382
611.331941	60.607015
611.758319	60.042548
612.184676	59.502993
612.611011	58.977997
613.037325	58.467315
613.463617	57.976906
613.889888	57.495077
614.316138	57.035028
614.742366	56.591690
615.168573	56.175551
615.594758	55.781468
616.020921	55.414908
616.447063	55.077883
616.873184	54.772499
617.299283	54.502473
617.725360	54.263519
618.151416	54.068631
618.577450	53.903635
619.003462	53.782167
619.429453	53.695127
619.855422	53.655491
620.281369	53.659472
620.707295	53.685822
621.133199	53.736461
621.559081	53.821379
621.984941	53.931470
622.410779	54.068557
622.836596	54.226449
623.262391	54.399761
623.688163	54.585057
624.113914	54.787922
624.539644	55.004625
624.965351	55.235149
625.391036	55.475016
625.816699	55.734107
626.242340	56.004661
626.667960	56.284678
627.093557	56.590498
627.519132	56.912533
627.944685	57.245839
628.370216	57.588382
628.795725	57.967092
629.221212	58.335254
629.646677	58.723589
630.072119	59.130077
630.497540	59.529445
630.922938	59.934759
631.348314	60.331646
631.773668	60.729124
632.198999	61.123826
632.624308	61.505830
633.049595	61.877790
633.474860	62.234331
633.900102	62.593981
634.325322	62.949741
634.750520	63.299302
635.175695	63.641272
635.600848	64.000075
636.025978	64.348604
636.451086	64.719188
636.876171	65.084691
637.301234	65.449268
637.726275	65.815480
638.151293	66.195387
638.576288	66.571754
639.001261	66.946638
639.426211	67.326003
639.851139	67.700344
640.276044	68.072433
640.700927	68.430652
641.125787	68.779707
641.550624	69.118831
641.975438	69.437852
642.400230	69.751019
642.824999	70.043743
643.249745	70.299904
643.674469	70.557489
644.099169	70.791389
644.523847	71.017204
644.948502	71.223833
645.373135	71.406822
645.797744	71.582351
646.222330	71.744005
646.646894	71.885639
647.071435	72.013033
647.495953	72.116855
647.920447	72.214804
648.344919	72.282492
648.769368	72.314718
649.193794	72.342789
649.618197	72.324848
650.042576	72.303285
650.466933	72.270946
650.891267	72.219169
651.315577	72.140768
651.739864	72.045137
652.164129	71.927610
652.588370	71.790268
653.012587	71.646792
653.436782	71.483575
653.860953	71.310322
654.285102	71.122091
654.709226	70.931878
655.133328	70.722912
655.557406	70.516525
655.981461	70.302281
656.405493	70.090929
656.829501	69.871883
657.253486	69.662677
657.677448	69.439574
658.101386	69.223745
658.525301	69.013252
658.949192	68.806774
659.373060	68.595961
659.796904	68.393298
660.220725	68.194665
660.644522	68.005555
661.068296	67.822491
661.492046	67.652736
661.915772	67.507457
662.339475	67.372517
662.763154	67.259611
663.186810	67.162898
663.610442	67.082240
664.034050	67.027034
664.457635	66.996873
664.881196	67.002730
665.304733	67.039904
665.728247	67.106527
666.151736	67.206505
666.575202	67.327777
666.998644	67.487767
667.422062	67.680465
667.845457	67.888969
668.268827	68.124160
668.692174	68.376405
669.115496	68.652885
669.538795	68.952399
669.962070	69.267468
670.385321	69.583668
670.808547	69.924962
671.231750	70.264533
671.654929	70.606975
672.078084	70.956766
672.501214	71.299282
672.924321	71.655489
673.347404	72.007981
673.770462	72.360169
674.193496	72.701552
674.616506	73.049477
675.039492	73.385946
675.462454	73.719989
675.885391	74.051460
676.308305	74.373778
676.731194	74.693952
677.154058	75.007233
677.576899	75.321724
677.999715	75.624102
678.422507	75.915866
678.845274	76.205311
679.268017	76.489356
679.690736	76.774041
680.113430	77.039258
680.536100	77.312802
680.958746	77.588655
681.381367	77.858470
681.803963	78.131346
682.226535	78.398896
682.649083	78.663949
683.071605	78.934323
683.494104	79.208704
683.916578	79.477838
684.339027	79.762279
684.761451	80.044704
685.183851	80.322177
685.606227	80.625076
686.028577	80.911175
686.450903	81.210521
686.873204	81.506448
687.295481	81.810816
687.717733	82.102549
688.139959	82.390944
688.562162	82.681649
688.984339	82.974613
689.406492	83.260283
689.828619	83.538574
690.250722	83.816602
690.672800	84.069779
691.094853	84.322014
691.516881	84.577416
691.938884	84.828161
692.360863	85.065825
692.782816	85.298654
693.204744	85.538290
693.626647	85.764080
694.048526	86.005441
694.470379	86.248082
694.892207	86.491376
695.314010	86.744006
695.735788	87.011455
696.157540	87.280297
696.579268	87.565841
697.000970	87.865543
697.422648	88.178186
697.844300	88.499335
698.265926	88.845731
698.687528	89.202881
699.109104	89.569391
699.530655	89.943994
699.952181	90.337083
