PE UV       SUBTECH     SPECTRUM    ASCII       PEDS        4.00        
   -1
BIOUCR0009-3.Sample.ASC
24/02/19
14:35:46.00
24/02/19
14:35:46.00
Vinicio Soto Monge
P. chalcotea
250,000000
1
Lambda 1050
1050L1511233
PerkinElmer UV WinLab 6.3.2.0749 / 2.02.05 Lambda 900 UV/VIS/NIR, Aug  7 2015 09:38:08

0
0
3350/servo 860,8/2
0
0
UV/VIS
1
1
1
DoubleDePol,CommonBeamDepol,RBeamAtt,SBeamAtt,60mm sphere, WB InGaAs Detector
0
0
0
0
Program
Program
3350/servo 860,8/2
3350/0,2 860,8/0,2
3350/0,2 860,8/0,2
0
15.00
 
 
 
0
 
860,8
319,2
860,8
Front
100
on
S:100 R:100
0
0
0
0
 
0
 
 
 
0
 
 
0
0
0
0
0
 
 
 
 
0
0


0
0
#HDR
-1
-1
#GR
nm
%R
1.0
0.0
2500,000000
-1,000000
2251
8
20,301000
1,537100
#DATA

250.000000	nan
251.000000	nan
252.000000	nan
253.000000	nan
254.000000	nan
255.000000	nan
256.000000	nan
257.000000	nan
258.000000	nan
259.000000	1.971369
260.000000	1.967967
261.000000	1.965202
262.000000	1.961082
263.000000	1.958887
264.000000	1.954854
265.000000	1.951306
266.000000	1.947055
267.000000	1.942892
268.000000	1.936811
269.000000	1.931945
270.000000	1.929184
271.000000	1.925284
272.000000	1.922013
273.000000	1.918209
274.000000	1.914639
275.000000	1.911767
276.000000	1.908748
277.000000	1.905308
278.000000	1.903170
279.000000	1.900879
280.000000	1.897610
281.000000	1.894897
282.000000	1.892255
283.000000	1.890440
284.000000	1.889011
285.000000	1.886474
286.000000	1.882476
287.000000	1.879350
288.000000	1.876973
289.000000	1.874167
290.000000	1.872191
291.000000	1.867597
292.000000	1.865308
293.000000	1.861223
294.000000	1.859305
295.000000	1.855757
296.000000	1.852629
297.000000	1.850487
298.000000	1.847165
299.000000	1.844661
300.000000	1.840448
301.000000	1.840232
302.000000	1.838373
303.000000	1.837543
304.000000	1.834953
305.000000	1.834213
306.000000	1.834391
307.000000	1.834657
308.000000	1.835153
309.000000	1.834065
310.000000	1.834420
311.000000	1.833226
312.000000	1.829428
313.000000	1.826318
314.000000	1.824386
315.000000	1.823382
316.000000	1.822439
317.000000	1.829159
318.000000	1.839771
319.000000	1.848892
320.000000	1.855534
321.000000	1.863153
322.000000	1.869303
323.000000	1.876616
324.000000	1.886895
325.000000	1.888372
326.000000	1.893542
327.000000	1.890053
328.000000	1.880318
329.000000	1.873727
330.000000	1.870187
331.000000	1.867029
332.000000	1.868421
333.000000	1.863097
334.000000	1.854929
335.000000	1.852157
336.000000	1.848937
337.000000	1.844442
338.000000	1.842871
339.000000	1.838596
340.000000	1.835138
341.000000	1.829552
342.000000	1.820543
343.000000	1.820298
344.000000	1.815631
345.000000	1.815539
346.000000	1.811811
347.000000	1.808758
348.000000	1.806205
349.000000	1.803247
350.000000	1.799319
351.000000	1.794938
352.000000	1.795030
353.000000	1.790769
354.000000	1.790244
355.000000	1.789474
356.000000	1.784699
357.000000	1.781704
358.000000	1.778967
359.000000	1.778355
360.000000	1.774853
361.000000	1.775881
362.000000	1.771909
363.000000	1.769733
364.000000	1.765870
365.000000	1.762611
366.000000	1.762816
367.000000	1.758823
368.000000	1.753159
369.000000	1.749618
370.000000	1.749080
371.000000	1.744611
372.000000	1.742747
373.000000	1.739622
374.000000	1.735240
375.000000	1.729018
376.000000	1.719087
377.000000	1.699732
378.000000	1.681136
379.000000	1.660766
380.000000	1.639240
381.000000	1.618880
382.000000	1.598860
383.000000	1.579045
384.000000	1.561864
385.000000	1.544325
386.000000	1.530982
387.000000	1.530014
388.000000	1.529129
389.000000	1.528027
390.000000	1.526704
391.000000	1.524887
392.000000	1.523452
393.000000	1.522491
394.000000	1.521651
395.000000	1.521259
396.000000	1.520771
397.000000	1.519640
398.000000	1.518510
399.000000	1.517531
400.000000	1.517176
401.000000	1.517130
402.000000	1.516951
403.000000	1.516080
404.000000	1.515444
405.000000	1.514341
406.000000	1.513263
407.000000	1.512860
408.000000	1.512815
409.000000	1.512591
410.000000	1.511525
411.000000	1.510200
412.000000	1.509150
413.000000	1.508360
414.000000	1.507499
415.000000	1.506620
416.000000	1.505670
417.000000	1.504787
418.000000	1.504189
419.000000	1.503243
420.000000	1.502501
421.000000	1.502343
422.000000	1.502045
423.000000	1.501450
424.000000	1.500737
425.000000	1.500204
426.000000	1.499764
427.000000	1.498958
428.000000	1.497739
429.000000	1.496843
430.000000	1.496335
431.000000	1.495501
432.000000	1.494662
433.000000	1.494239
434.000000	1.494018
435.000000	1.493622
436.000000	1.492815
437.000000	1.492171
438.000000	1.492048
439.000000	1.491810
440.000000	1.491482
441.000000	1.491317
442.000000	1.490940
443.000000	1.490418
444.000000	1.489682
445.000000	1.488934
446.000000	1.488722
447.000000	1.488908
448.000000	1.488722
449.000000	1.488471
450.000000	1.488377
451.000000	1.488316
452.000000	1.488534
453.000000	1.488523
454.000000	1.488549
455.000000	1.489069
456.000000	1.489399
457.000000	1.489503
458.000000	1.489680
459.000000	1.490108
460.000000	1.490748
461.000000	1.491332
462.000000	1.491702
463.000000	1.492659
464.000000	1.494408
465.000000	1.496312
466.000000	1.498362
467.000000	1.500630
468.000000	1.503370
469.000000	1.506646
470.000000	1.510096
471.000000	1.513700
472.000000	1.518111
473.000000	1.522955
474.000000	1.527798
475.000000	1.532949
476.000000	1.539045
477.000000	1.545950
478.000000	1.553763
479.000000	1.562662
480.000000	1.572919
481.000000	1.584850
482.000000	1.598049
483.000000	1.613759
484.000000	1.632854
485.000000	1.655770
486.000000	1.682629
487.000000	1.713331
488.000000	1.748104
489.000000	1.787206
490.000000	1.830649
491.000000	1.878627
492.000000	1.930706
493.000000	1.985671
494.000000	2.043784
495.000000	2.104473
496.000000	2.167208
497.000000	2.232697
498.000000	2.300795
499.000000	2.371661
500.000000	2.445958
501.000000	2.523683
502.000000	2.605864
503.000000	2.692934
504.000000	2.783987
505.000000	2.879157
506.000000	2.979149
507.000000	3.083710
508.000000	3.192536
509.000000	3.305491
510.000000	3.422046
511.000000	3.543360
512.000000	3.668843
513.000000	3.798680
514.000000	3.933675
515.000000	4.073859
516.000000	4.218922
517.000000	4.368456
518.000000	4.522395
519.000000	4.680299
520.000000	4.841441
521.000000	5.003759
522.000000	5.166916
523.000000	5.329881
524.000000	5.490514
525.000000	5.647614
526.000000	5.799766
527.000000	5.945970
528.000000	6.086066
529.000000	6.219127
530.000000	6.344407
531.000000	6.461748
532.000000	6.570238
533.000000	6.669403
534.000000	6.758203
535.000000	6.836045
536.000000	6.902845
537.000000	6.959043
538.000000	7.001404
539.000000	7.029820
540.000000	7.042869
541.000000	7.039971
542.000000	7.020220
543.000000	6.983036
544.000000	6.928747
545.000000	6.858260
546.000000	6.772802
547.000000	6.672111
548.000000	6.559885
549.000000	6.436815
550.000000	6.306883
551.000000	6.171534
552.000000	6.032336
553.000000	5.891548
554.000000	5.751025
555.000000	5.611066
556.000000	5.471918
557.000000	5.334958
558.000000	5.199870
559.000000	5.067515
560.000000	4.925271
561.000000	4.784015
562.000000	4.646817
563.000000	4.513964
564.000000	4.386497
565.000000	4.265232
566.000000	4.151026
567.000000	4.043597
568.000000	3.943470
569.000000	3.850418
570.000000	3.774485
571.000000	3.705023
572.000000	3.639253
573.000000	3.575537
574.000000	3.513201
575.000000	3.452216
576.000000	3.391845
577.000000	3.333477
578.000000	3.277143
579.000000	3.223165
580.000000	3.174279
581.000000	3.131787
582.000000	3.096804
583.000000	3.069897
584.000000	3.052168
585.000000	3.043167
586.000000	3.042271
587.000000	3.047043
588.000000	3.057316
589.000000	3.071059
590.000000	3.086360
591.000000	3.100789
592.000000	3.112305
593.000000	3.120839
594.000000	3.123981
595.000000	3.122385
596.000000	3.116030
597.000000	3.106084
598.000000	3.092849
599.000000	3.077737
600.000000	3.061760
601.000000	3.046636
602.000000	3.033819
603.000000	3.023528
604.000000	3.016687
605.000000	3.013531
606.000000	3.014499
607.000000	3.018297
608.000000	3.024454
609.000000	3.032203
610.000000	3.040671
611.000000	3.048855
612.000000	3.055896
613.000000	3.060954
614.000000	3.063536
615.000000	3.062807
616.000000	3.058650
617.000000	3.052044
618.000000	3.042920
619.000000	3.032506
620.000000	3.021223
621.000000	3.009683
622.000000	2.998685
623.000000	2.989801
624.000000	2.984168
625.000000	2.981846
626.000000	2.982753
627.000000	2.987601
628.000000	2.995478
629.000000	3.006124
630.000000	3.019555
631.000000	3.034359
632.000000	3.050440
633.000000	3.066197
634.000000	3.081245
635.000000	3.095248
636.000000	3.107335
637.000000	3.117026
638.000000	3.124730
639.000000	3.130182
640.000000	3.133987
641.000000	3.136576
642.000000	3.137700
643.000000	3.139023
644.000000	3.140582
645.000000	3.142819
646.000000	3.146638
647.000000	3.152852
648.000000	3.161416
649.000000	3.172701
650.000000	3.185769
651.000000	3.201683
652.000000	3.220186
653.000000	3.239492
654.000000	3.260443
655.000000	3.281692
656.000000	3.303429
657.000000	3.324089
658.000000	3.343957
659.000000	3.362385
660.000000	3.379761
661.000000	3.395630
662.000000	3.409442
663.000000	3.422849
664.000000	3.434981
665.000000	3.446432
666.000000	3.457342
667.000000	3.469209
668.000000	3.482169
669.000000	3.495930
670.000000	3.510921
671.000000	3.527008
672.000000	3.545702
673.000000	3.565510
674.000000	3.586247
675.000000	3.608516
676.000000	3.632729
677.000000	3.657482
678.000000	3.682351
679.000000	3.707557
680.000000	3.733126
681.000000	3.758305
682.000000	3.782147
683.000000	3.805774
684.000000	3.829114
685.000000	3.851522
686.000000	3.872058
687.000000	3.891868
688.000000	3.911412
689.000000	3.929762
690.000000	3.947225
691.000000	3.965728
692.000000	3.984643
693.000000	4.003548
694.000000	4.023267
695.000000	4.044737
696.000000	4.067527
697.000000	4.091246
698.000000	4.116010
699.000000	4.142971
700.000000	4.171707
701.000000	4.200978
702.000000	4.230764
703.000000	4.261493
704.000000	4.292544
705.000000	4.323237
706.000000	4.354032
707.000000	4.384968
708.000000	4.415659
709.000000	4.444795
710.000000	4.472874
711.000000	4.499935
712.000000	4.526403
713.000000	4.552407
714.000000	4.577306
715.000000	4.601685
716.000000	4.626691
717.000000	4.651457
718.000000	4.676554
719.000000	4.703580
720.000000	4.730535
721.000000	4.757901
722.000000	4.787721
723.000000	4.818293
724.000000	4.850586
725.000000	4.883911
726.000000	4.917543
727.000000	4.952089
728.000000	4.987432
729.000000	5.023282
730.000000	5.059826
731.000000	5.097008
732.000000	5.133382
733.000000	5.170224
734.000000	5.206901
735.000000	5.243248
736.000000	5.278354
737.000000	5.313495
738.000000	5.347600
739.000000	5.381049
740.000000	5.415269
741.000000	5.449138
742.000000	5.482424
743.000000	5.515577
744.000000	5.549442
745.000000	5.584308
746.000000	5.620533
747.000000	5.656434
748.000000	5.694088
749.000000	5.733103
750.000000	5.772339
751.000000	5.813930
752.000000	5.857794
753.000000	5.903669
754.000000	5.950665
755.000000	5.997927
756.000000	6.046124
757.000000	6.096606
758.000000	6.148350
759.000000	6.200396
760.000000	6.254577
761.000000	6.310707
762.000000	6.366284
763.000000	6.420033
764.000000	6.474901
765.000000	6.531491
766.000000	6.588609
767.000000	6.646318
768.000000	6.704446
769.000000	6.764078
770.000000	6.824666
771.000000	6.884430
772.000000	6.945113
773.000000	7.008072
774.000000	7.072201
775.000000	7.138821
776.000000	7.207253
777.000000	7.275400
778.000000	7.344777
779.000000	7.416431
780.000000	7.489434
781.000000	7.563039
782.000000	7.637614
783.000000	7.714014
784.000000	7.790182
785.000000	7.867307
786.000000	7.947792
787.000000	8.030352
788.000000	8.113681
789.000000	8.196184
790.000000	8.279058
791.000000	8.363437
792.000000	8.450203
793.000000	8.539087
794.000000	8.627734
795.000000	8.714399
796.000000	8.800733
797.000000	8.887251
798.000000	8.972713
799.000000	9.059364
800.000000	9.145197
801.000000	9.230947
802.000000	9.315601
803.000000	9.397837
804.000000	9.478603
805.000000	9.560650
806.000000	9.642236
807.000000	9.723127
808.000000	9.807585
809.000000	9.894335
810.000000	9.981983
811.000000	10.067646
812.000000	10.155136
813.000000	10.240771
814.000000	10.331032
815.000000	10.418332
816.000000	10.505856
817.000000	10.591822
818.000000	10.672104
819.000000	10.751652
820.000000	10.830077
821.000000	10.908902
822.000000	10.985982
823.000000	11.058463
824.000000	11.127237
825.000000	11.197865
826.000000	11.265074
827.000000	11.332193
828.000000	11.404596
829.000000	11.468470
830.000000	11.530576
831.000000	11.585891
832.000000	11.641050
833.000000	11.700797
834.000000	11.755736
835.000000	11.811820
836.000000	11.863621
837.000000	11.918644
838.000000	11.960612
839.000000	12.009853
840.000000	12.051635
841.000000	12.103630
842.000000	12.147071
843.000000	12.190423
844.000000	12.235587
845.000000	12.276381
846.000000	12.315050
847.000000	12.353931
848.000000	12.397031
849.000000	12.430082
850.000000	12.465768
851.000000	12.497637
852.000000	12.527569
853.000000	12.547990
854.000000	12.564096
855.000000	12.586887
856.000000	12.618024
857.000000	12.635109
858.000000	12.623589
859.000000	12.664791
860.000000	12.705269
861.000000	12.741389
862.000000	12.784679
863.000000	12.836559
864.000000	12.893742
865.000000	12.945255
866.000000	12.992082
867.000000	13.046388
868.000000	13.129970
869.000000	13.166380
870.000000	13.204660
871.000000	13.243433
872.000000	13.281400
873.000000	13.317350
874.000000	13.353140
875.000000	13.386597
876.000000	13.419840
877.000000	13.452740
878.000000	13.487480
879.000000	13.519287
880.000000	13.552297
881.000000	13.586147
882.000000	13.619350
883.000000	13.654263
884.000000	13.687967
885.000000	13.722827
886.000000	13.757097
887.000000	13.793987
888.000000	13.828410
889.000000	13.863627
890.000000	13.899557
891.000000	13.933717
892.000000	13.966247
893.000000	14.000060
894.000000	14.032973
895.000000	14.063443
896.000000	14.095143
897.000000	14.124090
898.000000	14.153007
899.000000	14.181507
900.000000	14.210697
901.000000	14.240843
902.000000	14.271330
903.000000	14.298590
904.000000	14.326570
905.000000	14.356337
906.000000	14.386487
907.000000	14.416143
908.000000	14.445753
909.000000	14.474413
910.000000	14.501777
911.000000	14.528477
912.000000	14.556257
913.000000	14.582343
914.000000	14.605663
915.000000	14.629027
916.000000	14.650627
917.000000	14.671337
918.000000	14.693360
919.000000	14.716000
920.000000	14.737900
921.000000	14.757903
922.000000	14.775047
923.000000	14.794597
924.000000	14.816107
925.000000	14.833127
926.000000	14.847297
927.000000	14.861810
928.000000	14.874763
929.000000	14.886583
930.000000	14.896430
931.000000	14.908577
932.000000	14.921570
933.000000	14.933000
934.000000	14.942917
935.000000	14.957577
936.000000	14.971943
937.000000	14.987217
938.000000	15.003287
939.000000	15.019617
940.000000	15.035043
941.000000	15.048717
942.000000	15.063033
943.000000	15.076343
944.000000	15.090817
945.000000	15.101327
946.000000	15.115097
947.000000	15.130980
948.000000	15.144993
949.000000	15.160753
950.000000	15.178220
951.000000	15.197233
952.000000	15.216917
953.000000	15.238490
954.000000	15.259947
955.000000	15.283007
956.000000	15.305210
957.000000	15.325630
958.000000	15.347747
959.000000	15.370603
960.000000	15.393837
961.000000	15.415320
962.000000	15.437960
963.000000	15.459740
964.000000	15.482367
965.000000	15.506420
966.000000	15.529940
967.000000	15.553587
968.000000	15.578530
969.000000	15.601623
970.000000	15.624130
971.000000	15.649133
972.000000	15.673030
973.000000	15.696993
974.000000	15.720150
975.000000	15.744187
976.000000	15.769460
977.000000	15.794163
978.000000	15.818047
979.000000	15.843580
980.000000	15.869997
981.000000	15.894797
982.000000	15.920083
983.000000	15.946703
984.000000	15.973753
985.000000	15.999707
986.000000	16.025353
987.000000	16.052247
988.000000	16.079747
989.000000	16.105443
990.000000	16.132090
991.000000	16.159487
992.000000	16.186560
993.000000	16.212417
994.000000	16.238917
995.000000	16.265610
996.000000	16.292487
997.000000	16.317163
998.000000	16.340850
999.000000	16.366117
1000.000000	16.391040
1001.000000	16.416020
1002.000000	16.442050
1003.000000	16.468290
1004.000000	16.494227
1005.000000	16.519943
1006.000000	16.545480
1007.000000	16.571843
1008.000000	16.597987
1009.000000	16.624043
1010.000000	16.650313
1011.000000	16.675743
1012.000000	16.699903
1013.000000	16.724497
1014.000000	16.749060
1015.000000	16.774047
1016.000000	16.798587
1017.000000	16.822853
1018.000000	16.848380
1019.000000	16.874233
1020.000000	16.899367
1021.000000	16.925463
1022.000000	16.952077
1023.000000	16.977787
1024.000000	17.002983
1025.000000	17.027607
1026.000000	17.052500
1027.000000	17.078507
1028.000000	17.104220
1029.000000	17.129273
1030.000000	17.154320
1031.000000	17.179443
1032.000000	17.203547
1033.000000	17.227590
1034.000000	17.252613
1035.000000	17.278767
1036.000000	17.305277
1037.000000	17.331763
1038.000000	17.356900
1039.000000	17.380433
1040.000000	17.403357
1041.000000	17.426183
1042.000000	17.449973
1043.000000	17.474010
1044.000000	17.498073
1045.000000	17.521113
1046.000000	17.543707
1047.000000	17.565787
1048.000000	17.588463
1049.000000	17.612467
1050.000000	17.636500
1051.000000	17.660033
1052.000000	17.683957
1053.000000	17.708697
1054.000000	17.732567
1055.000000	17.756187
1056.000000	17.779307
1057.000000	17.801257
1058.000000	17.824280
1059.000000	17.847090
1060.000000	17.869407
1061.000000	17.893430
1062.000000	17.916370
1063.000000	17.938693
1064.000000	17.961010
1065.000000	17.983193
1066.000000	18.005273
1067.000000	18.028637
1068.000000	18.050943
1069.000000	18.073293
1070.000000	18.097000
1071.000000	18.118657
1072.000000	18.140627
1073.000000	18.162440
1074.000000	18.184147
1075.000000	18.206303
1076.000000	18.229397
1077.000000	18.252723
1078.000000	18.275493
1079.000000	18.297827
1080.000000	18.319137
1081.000000	18.339780
1082.000000	18.361220
1083.000000	18.383893
1084.000000	18.405397
1085.000000	18.426887
1086.000000	18.447363
1087.000000	18.467327
1088.000000	18.487553
1089.000000	18.506507
1090.000000	18.525640
1091.000000	18.545710
1092.000000	18.564120
1093.000000	18.581847
1094.000000	18.601027
1095.000000	18.618897
1096.000000	18.637133
1097.000000	18.654243
1098.000000	18.671140
1099.000000	18.688613
1100.000000	18.705763
1101.000000	18.723137
1102.000000	18.741267
1103.000000	18.759667
1104.000000	18.776647
1105.000000	18.794717
1106.000000	18.811877
1107.000000	18.829537
1108.000000	18.847127
1109.000000	18.864227
1110.000000	18.880210
1111.000000	18.896217
1112.000000	18.911643
1113.000000	18.924710
1114.000000	18.938293
1115.000000	18.950117
1116.000000	18.962443
1117.000000	18.974600
1118.000000	18.986800
1119.000000	18.998447
1120.000000	19.010057
1121.000000	19.021823
1122.000000	19.034800
1123.000000	19.048557
1124.000000	19.061507
1125.000000	19.074143
1126.000000	19.086240
1127.000000	19.096820
1128.000000	19.107397
1129.000000	19.121257
1130.000000	19.135187
1131.000000	19.144683
1132.000000	19.149463
1133.000000	19.150840
1134.000000	19.152603
1135.000000	19.158947
1136.000000	19.166793
1137.000000	19.173147
1138.000000	19.175917
1139.000000	19.174137
1140.000000	19.172657
1141.000000	19.173690
1142.000000	19.175590
1143.000000	19.179590
1144.000000	19.183890
1145.000000	19.184403
1146.000000	19.184467
1147.000000	19.186557
1148.000000	19.189173
1149.000000	19.193747
1150.000000	19.199067
1151.000000	19.203887
1152.000000	19.210037
1153.000000	19.217110
1154.000000	19.224640
1155.000000	19.229457
1156.000000	19.233140
1157.000000	19.234703
1158.000000	19.238580
1159.000000	19.239753
1160.000000	19.237007
1161.000000	19.232610
1162.000000	19.227227
1163.000000	19.218540
1164.000000	19.205943
1165.000000	19.193750
1166.000000	19.180507
1167.000000	19.167120
1168.000000	19.152423
1169.000000	19.138507
1170.000000	19.126153
1171.000000	19.114540
1172.000000	19.104000
1173.000000	19.096040
1174.000000	19.088693
1175.000000	19.082347
1176.000000	19.077063
1177.000000	19.073147
1178.000000	19.069990
1179.000000	19.066147
1180.000000	19.063427
1181.000000	19.063597
1182.000000	19.063623
1183.000000	19.061633
1184.000000	19.062203
1185.000000	19.063187
1186.000000	19.064920
1187.000000	19.066613
1188.000000	19.068323
1189.000000	19.073673
1190.000000	19.080900
1191.000000	19.086537
1192.000000	19.092903
1193.000000	19.104447
1194.000000	19.115890
1195.000000	19.129297
1196.000000	19.142067
1197.000000	19.157923
1198.000000	19.175267
1199.000000	19.191727
1200.000000	19.207903
1201.000000	19.224540
1202.000000	19.242003
1203.000000	19.258220
1204.000000	19.275487
1205.000000	19.291897
1206.000000	19.309647
1207.000000	19.325247
1208.000000	19.341237
1209.000000	19.357927
1210.000000	19.374320
1211.000000	19.393647
1212.000000	19.412783
1213.000000	19.431073
1214.000000	19.449280
1215.000000	19.468987
1216.000000	19.487870
1217.000000	19.506870
1218.000000	19.524703
1219.000000	19.542483
1220.000000	19.559457
1221.000000	19.573957
1222.000000	19.587707
1223.000000	19.600833
1224.000000	19.611913
1225.000000	19.622457
1226.000000	19.633090
1227.000000	19.643143
1228.000000	19.652990
1229.000000	19.662480
1230.000000	19.671413
1231.000000	19.679630
1232.000000	19.686587
1233.000000	19.694147
1234.000000	19.703160
1235.000000	19.709747
1236.000000	19.714917
1237.000000	19.719663
1238.000000	19.723960
1239.000000	19.726770
1240.000000	19.728227
1241.000000	19.730620
1242.000000	19.734430
1243.000000	19.737637
1244.000000	19.740597
1245.000000	19.745787
1246.000000	19.752350
1247.000000	19.761613
1248.000000	19.772830
1249.000000	19.786227
1250.000000	19.802150
1251.000000	19.818563
1252.000000	19.835603
1253.000000	19.854487
1254.000000	19.872860
1255.000000	19.890273
1256.000000	19.907933
1257.000000	19.926163
1258.000000	19.943770
1259.000000	19.961670
1260.000000	19.979163
1261.000000	19.995840
1262.000000	20.012327
1263.000000	20.026867
1264.000000	20.041340
1265.000000	20.055903
1266.000000	20.070160
1267.000000	20.082703
1268.000000	20.093467
1269.000000	20.102157
1270.000000	20.109993
1271.000000	20.117797
1272.000000	20.125363
1273.000000	20.132837
1274.000000	20.140267
1275.000000	20.146497
1276.000000	20.151677
1277.000000	20.156283
1278.000000	20.161923
1279.000000	20.168207
1280.000000	20.175100
1281.000000	20.182173
1282.000000	20.188867
1283.000000	20.195477
1284.000000	20.202457
1285.000000	20.210947
1286.000000	20.219853
1287.000000	20.228603
1288.000000	20.237307
1289.000000	20.246373
1290.000000	20.255743
1291.000000	20.264677
1292.000000	20.273710
1293.000000	20.284323
1294.000000	20.294967
1295.000000	20.304440
1296.000000	20.314070
1297.000000	20.325017
1298.000000	20.336220
1299.000000	20.346660
1300.000000	20.356890
1301.000000	20.367293
1302.000000	20.377050
1303.000000	20.385967
1304.000000	20.395020
1305.000000	20.403970
1306.000000	20.412520
1307.000000	20.420623
1308.000000	20.427053
1309.000000	20.432917
1310.000000	20.438313
1311.000000	20.442217
1312.000000	20.444680
1313.000000	20.445533
1314.000000	20.445673
1315.000000	20.444933
1316.000000	20.442553
1317.000000	20.438683
1318.000000	20.434373
1319.000000	20.428920
1320.000000	20.422467
1321.000000	20.415963
1322.000000	20.409077
1323.000000	20.401303
1324.000000	20.391483
1325.000000	20.381030
1326.000000	20.371037
1327.000000	20.359807
1328.000000	20.348277
1329.000000	20.336693
1330.000000	20.323610
1331.000000	20.309920
1332.000000	20.296393
1333.000000	20.281823
1334.000000	20.267930
1335.000000	20.252700
1336.000000	20.235593
1337.000000	20.217770
1338.000000	20.198693
1339.000000	20.178463
1340.000000	20.159013
1341.000000	20.137637
1342.000000	20.114107
1343.000000	20.089883
1344.000000	20.064987
1345.000000	20.039540
1346.000000	20.011787
1347.000000	19.983237
1348.000000	19.955400
1349.000000	19.927100
1350.000000	19.894940
1351.000000	19.861350
1352.000000	19.826563
1353.000000	19.790697
1354.000000	19.753890
1355.000000	19.721470
1356.000000	19.693737
1357.000000	19.666357
1358.000000	19.635733
1359.000000	19.603617
1360.000000	19.571193
1361.000000	19.545860
1362.000000	19.532480
1363.000000	19.520523
1364.000000	19.504207
1365.000000	19.486737
1366.000000	19.465010
1367.000000	19.437337
1368.000000	19.411757
1369.000000	19.385117
1370.000000	19.353930
1371.000000	19.310783
1372.000000	19.251637
1373.000000	19.180217
1374.000000	19.096837
1375.000000	18.992747
1376.000000	18.876230
1377.000000	18.748217
1378.000000	18.604787
1379.000000	18.444380
1380.000000	18.279697
1381.000000	18.113453
1382.000000	17.955903
1383.000000	17.812297
1384.000000	17.685377
1385.000000	17.571470
1386.000000	17.471140
1387.000000	17.390287
1388.000000	17.332553
1389.000000	17.299773
1390.000000	17.276850
1391.000000	17.260010
1392.000000	17.248083
1393.000000	17.238980
1394.000000	17.232863
1395.000000	17.234797
1396.000000	17.251750
1397.000000	17.268490
1398.000000	17.271817
1399.000000	17.264440
1400.000000	17.265737
1401.000000	17.281710
1402.000000	17.287423
1403.000000	17.278820
1404.000000	17.260533
1405.000000	17.243123
1406.000000	17.208197
1407.000000	17.169207
1408.000000	17.132390
1409.000000	17.101723
1410.000000	17.059410
1411.000000	16.999487
1412.000000	16.932953
1413.000000	16.870683
1414.000000	16.814830
1415.000000	16.756410
1416.000000	16.694443
1417.000000	16.625603
1418.000000	16.557857
1419.000000	16.490617
1420.000000	16.427640
1421.000000	16.363130
1422.000000	16.303883
1423.000000	16.248690
1424.000000	16.193587
1425.000000	16.135347
1426.000000	16.079287
1427.000000	16.030267
1428.000000	15.983433
1429.000000	15.934430
1430.000000	15.883867
1431.000000	15.838770
1432.000000	15.797973
1433.000000	15.760737
1434.000000	15.721727
1435.000000	15.682257
1436.000000	15.647223
1437.000000	15.613667
1438.000000	15.582427
1439.000000	15.552653
1440.000000	15.523900
1441.000000	15.496853
1442.000000	15.470213
1443.000000	15.441603
1444.000000	15.414153
1445.000000	15.390270
1446.000000	15.371227
1447.000000	15.352390
1448.000000	15.329170
1449.000000	15.303490
1450.000000	15.282430
1451.000000	15.264227
1452.000000	15.247637
1453.000000	15.229033
1454.000000	15.210807
1455.000000	15.192867
1456.000000	15.172310
1457.000000	15.151427
1458.000000	15.132857
1459.000000	15.115560
1460.000000	15.095137
1461.000000	15.072790
1462.000000	15.047690
1463.000000	15.025410
1464.000000	15.004037
1465.000000	14.981317
1466.000000	14.957850
1467.000000	14.934070
1468.000000	14.909563
1469.000000	14.887017
1470.000000	14.866180
1471.000000	14.845447
1472.000000	14.825710
1473.000000	14.805667
1474.000000	14.784307
1475.000000	14.762353
1476.000000	14.740583
1477.000000	14.721220
1478.000000	14.704573
1479.000000	14.687603
1480.000000	14.670723
1481.000000	14.655313
1482.000000	14.640693
1483.000000	14.625883
1484.000000	14.612450
1485.000000	14.599710
1486.000000	14.588130
1487.000000	14.576927
1488.000000	14.565030
1489.000000	14.553633
1490.000000	14.541930
1491.000000	14.529393
1492.000000	14.517243
1493.000000	14.506023
1494.000000	14.496200
1495.000000	14.488390
1496.000000	14.480877
1497.000000	14.474893
1498.000000	14.470680
1499.000000	14.468707
1500.000000	14.467620
1501.000000	14.468017
1502.000000	14.470580
1503.000000	14.476237
1504.000000	14.483423
1505.000000	14.492760
1506.000000	14.504057
1507.000000	14.516110
1508.000000	14.529887
1509.000000	14.545877
1510.000000	14.564297
1511.000000	14.584163
1512.000000	14.605513
1513.000000	14.627870
1514.000000	14.650490
1515.000000	14.672820
1516.000000	14.695910
1517.000000	14.719690
1518.000000	14.744043
1519.000000	14.767790
1520.000000	14.790893
1521.000000	14.813723
1522.000000	14.836780
1523.000000	14.859610
1524.000000	14.882707
1525.000000	14.905903
1526.000000	14.928353
1527.000000	14.950960
1528.000000	14.973033
1529.000000	14.995077
1530.000000	15.017647
1531.000000	15.038713
1532.000000	15.058147
1533.000000	15.076537
1534.000000	15.094807
1535.000000	15.113313
1536.000000	15.130723
1537.000000	15.147053
1538.000000	15.163220
1539.000000	15.178050
1540.000000	15.191423
1541.000000	15.205263
1542.000000	15.218497
1543.000000	15.231210
1544.000000	15.242910
1545.000000	15.253997
1546.000000	15.266197
1547.000000	15.279017
1548.000000	15.291797
1549.000000	15.306013
1550.000000	15.320810
1551.000000	15.337033
1552.000000	15.354917
1553.000000	15.374367
1554.000000	15.395273
1555.000000	15.415373
1556.000000	15.433990
1557.000000	15.451963
1558.000000	15.469623
1559.000000	15.486043
1560.000000	15.501140
1561.000000	15.514127
1562.000000	15.525707
1563.000000	15.535010
1564.000000	15.541323
1565.000000	15.545957
1566.000000	15.548803
1567.000000	15.549443
1568.000000	15.547580
1569.000000	15.544320
1570.000000	15.540707
1571.000000	15.536237
1572.000000	15.530220
1573.000000	15.524627
1574.000000	15.520070
1575.000000	15.516283
1576.000000	15.513187
1577.000000	15.512080
1578.000000	15.512537
1579.000000	15.513243
1580.000000	15.515427
1581.000000	15.519780
1582.000000	15.526327
1583.000000	15.533377
1584.000000	15.541463
1585.000000	15.550880
1586.000000	15.562223
1587.000000	15.573503
1588.000000	15.585227
1589.000000	15.597810
1590.000000	15.610497
1591.000000	15.622930
1592.000000	15.634433
1593.000000	15.646093
1594.000000	15.658547
1595.000000	15.671140
1596.000000	15.683680
1597.000000	15.697157
1598.000000	15.712297
1599.000000	15.727993
1600.000000	15.742940
1601.000000	15.758220
1602.000000	15.774950
1603.000000	15.792683
1604.000000	15.810157
1605.000000	15.828723
1606.000000	15.847570
1607.000000	15.865873
1608.000000	15.883320
1609.000000	15.900213
1610.000000	15.917893
1611.000000	15.935067
1612.000000	15.950747
1613.000000	15.964987
1614.000000	15.978427
1615.000000	15.990227
1616.000000	16.001527
1617.000000	16.012997
1618.000000	16.022677
1619.000000	16.031923
1620.000000	16.039637
1621.000000	16.046557
1622.000000	16.052523
1623.000000	16.058483
1624.000000	16.064927
1625.000000	16.071700
1626.000000	16.077397
1627.000000	16.082970
1628.000000	16.090260
1629.000000	16.098533
1630.000000	16.107007
1631.000000	16.115813
1632.000000	16.126040
1633.000000	16.135820
1634.000000	16.144257
1635.000000	16.152223
1636.000000	16.161000
1637.000000	16.168953
1638.000000	16.175130
1639.000000	16.180280
1640.000000	16.184113
1641.000000	16.187627
1642.000000	16.190363
1643.000000	16.194160
1644.000000	16.197870
1645.000000	16.201337
1646.000000	16.203413
1647.000000	16.205590
1648.000000	16.207360
1649.000000	16.208857
1650.000000	16.211030
1651.000000	16.212120
1652.000000	16.211210
1653.000000	16.207417
1654.000000	16.200943
1655.000000	16.191287
1656.000000	16.179143
1657.000000	16.163570
1658.000000	16.145167
1659.000000	16.124040
1660.000000	16.098700
1661.000000	16.069460
1662.000000	16.039170
1663.000000	16.005940
1664.000000	15.971650
1665.000000	15.937057
1666.000000	15.901290
1667.000000	15.863760
1668.000000	15.819033
1669.000000	15.770963
1670.000000	15.722520
1671.000000	15.672137
1672.000000	15.619257
1673.000000	15.566470
1674.000000	15.512033
1675.000000	15.457517
1676.000000	15.402580
1677.000000	15.346287
1678.000000	15.295847
1679.000000	15.244540
1680.000000	15.192420
1681.000000	15.139857
1682.000000	15.087093
1683.000000	15.033277
1684.000000	14.978940
1685.000000	14.922347
1686.000000	14.865897
1687.000000	14.812577
1688.000000	14.762790
1689.000000	14.718300
1690.000000	14.680210
1691.000000	14.650993
1692.000000	14.630030
1693.000000	14.616830
1694.000000	14.611200
1695.000000	14.613610
1696.000000	14.622413
1697.000000	14.635860
1698.000000	14.649360
1699.000000	14.663780
1700.000000	14.677943
1701.000000	14.689987
1702.000000	14.698627
1703.000000	14.703317
1704.000000	14.706397
1705.000000	14.704177
1706.000000	14.698747
1707.000000	14.690103
1708.000000	14.678920
1709.000000	14.665987
1710.000000	14.647647
1711.000000	14.624413
1712.000000	14.596023
1713.000000	14.565467
1714.000000	14.530273
1715.000000	14.491727
1716.000000	14.447003
1717.000000	14.395710
1718.000000	14.341617
1719.000000	14.283267
1720.000000	14.223967
1721.000000	14.165203
1722.000000	14.108290
1723.000000	14.053090
1724.000000	14.000403
1725.000000	13.953473
1726.000000	13.915363
1727.000000	13.885377
1728.000000	13.863393
1729.000000	13.847913
1730.000000	13.840230
1731.000000	13.839153
1732.000000	13.844710
1733.000000	13.855337
1734.000000	13.869843
1735.000000	13.886020
1736.000000	13.903013
1737.000000	13.922317
1738.000000	13.941810
1739.000000	13.964700
1740.000000	13.989163
1741.000000	14.013563
1742.000000	14.039060
1743.000000	14.065017
1744.000000	14.091130
1745.000000	14.117803
1746.000000	14.145047
1747.000000	14.172353
1748.000000	14.199623
1749.000000	14.224260
1750.000000	14.245883
1751.000000	14.266427
1752.000000	14.284283
1753.000000	14.298537
1754.000000	14.311827
1755.000000	14.322617
1756.000000	14.330810
1757.000000	14.336710
1758.000000	14.340917
1759.000000	14.343847
1760.000000	14.346353
1761.000000	14.347933
1762.000000	14.348267
1763.000000	14.349703
1764.000000	14.350570
1765.000000	14.354027
1766.000000	14.357947
1767.000000	14.363030
1768.000000	14.369517
1769.000000	14.377017
1770.000000	14.386990
1771.000000	14.398640
1772.000000	14.411863
1773.000000	14.425907
1774.000000	14.440483
1775.000000	14.454627
1776.000000	14.470537
1777.000000	14.487037
1778.000000	14.502880
1779.000000	14.519490
1780.000000	14.535397
1781.000000	14.550120
1782.000000	14.564120
1783.000000	14.576700
1784.000000	14.588157
1785.000000	14.599033
1786.000000	14.608463
1787.000000	14.615840
1788.000000	14.621177
1789.000000	14.624817
1790.000000	14.626310
1791.000000	14.626800
1792.000000	14.627263
1793.000000	14.627837
1794.000000	14.629543
1795.000000	14.630953
1796.000000	14.631753
1797.000000	14.633360
1798.000000	14.634523
1799.000000	14.632840
1800.000000	14.632510
1801.000000	14.635340
1802.000000	14.640250
1803.000000	14.644807
1804.000000	14.645890
1805.000000	14.646413
1806.000000	14.648467
1807.000000	14.651663
1808.000000	14.656320
1809.000000	14.661130
1810.000000	14.662817
1811.000000	14.663717
1812.000000	14.665590
1813.000000	14.667730
1814.000000	14.670563
1815.000000	14.673140
1816.000000	14.674523
1817.000000	14.672240
1818.000000	14.663603
1819.000000	14.653223
1820.000000	14.649643
1821.000000	14.655583
1822.000000	14.666753
1823.000000	14.674257
1824.000000	14.672730
1825.000000	14.663180
1826.000000	14.650517
1827.000000	14.642487
1828.000000	14.645053
1829.000000	14.655393
1830.000000	14.663843
1831.000000	14.664710
1832.000000	14.656017
1833.000000	14.644573
1834.000000	14.635897
1835.000000	14.632387
1836.000000	14.633970
1837.000000	14.639293
1838.000000	14.644430
1839.000000	14.646493
1840.000000	14.647700
1841.000000	14.651783
1842.000000	14.668023
1843.000000	14.692863
1844.000000	14.714287
1845.000000	14.721653
1846.000000	14.715350
1847.000000	14.708580
1848.000000	14.716903
1849.000000	14.740740
1850.000000	14.761717
1851.000000	14.763213
1852.000000	14.742293
1853.000000	14.716703
1854.000000	14.705680
1855.000000	14.713857
1856.000000	14.731520
1857.000000	14.735847
1858.000000	14.715403
1859.000000	14.683350
1860.000000	14.657687
1861.000000	14.645977
1862.000000	14.643793
1863.000000	14.638133
1864.000000	14.618047
1865.000000	14.582660
1866.000000	14.537427
1867.000000	14.490940
1868.000000	14.443080
1869.000000	14.385960
1870.000000	14.324830
1871.000000	14.266977
1872.000000	14.211233
1873.000000	14.162713
1874.000000	14.125887
1875.000000	14.097597
1876.000000	14.075600
1877.000000	14.055167
1878.000000	14.032353
1879.000000	14.003807
1880.000000	13.960427
1881.000000	13.895577
1882.000000	13.815967
1883.000000	13.724820
1884.000000	13.624890
1885.000000	13.518123
1886.000000	13.403490
1887.000000	13.278777
1888.000000	13.142220
1889.000000	12.995620
1890.000000	12.847200
1891.000000	12.700850
1892.000000	12.555203
1893.000000	12.406307
1894.000000	12.245403
1895.000000	12.073157
1896.000000	11.888737
1897.000000	11.697827
1898.000000	11.507627
1899.000000	11.323853
1900.000000	11.142947
1901.000000	10.961893
1902.000000	10.774713
1903.000000	10.581973
1904.000000	10.393113
1905.000000	10.215867
1906.000000	10.056673
1907.000000	9.910213
1908.000000	9.771180
1909.000000	9.631403
1910.000000	9.487723
1911.000000	9.344453
1912.000000	9.211257
1913.000000	9.092160
1914.000000	8.985997
1915.000000	8.884007
1916.000000	8.779530
1917.000000	8.673937
1918.000000	8.569580
1919.000000	8.474200
1920.000000	8.393467
1921.000000	8.324233
1922.000000	8.262093
1923.000000	8.201543
1924.000000	8.140717
1925.000000	8.078840
1926.000000	8.022247
1927.000000	7.976400
1928.000000	7.941070
1929.000000	7.912130
1930.000000	7.884357
1931.000000	7.860510
1932.000000	7.837483
1933.000000	7.814983
1934.000000	7.796883
1935.000000	7.784277
1936.000000	7.774417
1937.000000	7.767473
1938.000000	7.762683
1939.000000	7.762777
1940.000000	7.766683
1941.000000	7.770450
1942.000000	7.777250
1943.000000	7.786670
1944.000000	7.797397
1945.000000	7.815550
1946.000000	7.837257
1947.000000	7.860273
1948.000000	7.885640
1949.000000	7.907517
1950.000000	7.929443
1951.000000	7.953753
1952.000000	7.978410
1953.000000	8.005683
1954.000000	8.034597
1955.000000	8.062833
1956.000000	8.093273
1957.000000	8.122943
1958.000000	8.151720
1959.000000	8.182893
1960.000000	8.215527
1961.000000	8.245707
1962.000000	8.277210
1963.000000	8.309843
1964.000000	8.343207
1965.000000	8.374150
1966.000000	8.402643
1967.000000	8.430087
1968.000000	8.457103
1969.000000	8.484930
1970.000000	8.509053
1971.000000	8.534757
1972.000000	8.560660
1973.000000	8.586490
1974.000000	8.611017
1975.000000	8.635943
1976.000000	8.660820
1977.000000	8.688110
1978.000000	8.715953
1979.000000	8.740590
1980.000000	8.767700
1981.000000	8.796287
1982.000000	8.821577
1983.000000	8.846550
1984.000000	8.871613
1985.000000	8.895647
1986.000000	8.921143
1987.000000	8.946237
1988.000000	8.969177
1989.000000	8.994843
1990.000000	9.019893
1991.000000	9.042270
1992.000000	9.067140
1993.000000	9.089540
1994.000000	9.111823
1995.000000	9.134723
1996.000000	9.156797
1997.000000	9.176750
1998.000000	9.197587
1999.000000	9.216787
2000.000000	9.234887
2001.000000	9.252870
2002.000000	9.268480
2003.000000	9.284707
2004.000000	9.299327
2005.000000	9.314690
2006.000000	9.327877
2007.000000	9.339897
2008.000000	9.352757
2009.000000	9.362390
2010.000000	9.367997
2011.000000	9.373000
2012.000000	9.377630
2013.000000	9.381063
2014.000000	9.381567
2015.000000	9.377850
2016.000000	9.372343
2017.000000	9.366913
2018.000000	9.357050
2019.000000	9.345970
2020.000000	9.334753
2021.000000	9.320727
2022.000000	9.303977
2023.000000	9.284743
2024.000000	9.265420
2025.000000	9.244090
2026.000000	9.220350
2027.000000	9.192770
2028.000000	9.164383
2029.000000	9.134837
2030.000000	9.103650
2031.000000	9.070903
2032.000000	9.036750
2033.000000	9.000243
2034.000000	8.959957
2035.000000	8.918093
2036.000000	8.876323
2037.000000	8.833563
2038.000000	8.789243
2039.000000	8.742180
2040.000000	8.693533
2041.000000	8.642980
2042.000000	8.591690
2043.000000	8.539780
2044.000000	8.488697
2045.000000	8.436303
2046.000000	8.381800
2047.000000	8.327923
2048.000000	8.274710
2049.000000	8.224187
2050.000000	8.175293
2051.000000	8.130247
2052.000000	8.087873
2053.000000	8.050127
2054.000000	8.017017
2055.000000	7.990543
2056.000000	7.970330
2057.000000	7.955407
2058.000000	7.946473
2059.000000	7.943577
2060.000000	7.947253
2061.000000	7.954833
2062.000000	7.968143
2063.000000	7.986267
2064.000000	8.007840
2065.000000	8.032413
2066.000000	8.059297
2067.000000	8.087883
2068.000000	8.120077
2069.000000	8.153437
2070.000000	8.186303
2071.000000	8.220223
2072.000000	8.252733
2073.000000	8.282500
2074.000000	8.313007
2075.000000	8.343343
2076.000000	8.371420
2077.000000	8.397883
2078.000000	8.421893
2079.000000	8.443963
2080.000000	8.464427
2081.000000	8.483100
2082.000000	8.500503
2083.000000	8.516657
2084.000000	8.528337
2085.000000	8.536737
2086.000000	8.544557
2087.000000	8.551220
2088.000000	8.554050
2089.000000	8.554573
2090.000000	8.553800
2091.000000	8.550357
2092.000000	8.545027
2093.000000	8.538460
2094.000000	8.531180
2095.000000	8.523397
2096.000000	8.514650
2097.000000	8.504893
2098.000000	8.495693
2099.000000	8.486143
2100.000000	8.476510
2101.000000	8.467407
2102.000000	8.456767
2103.000000	8.445790
2104.000000	8.436063
2105.000000	8.426950
2106.000000	8.417803
2107.000000	8.407577
2108.000000	8.396550
2109.000000	8.384620
2110.000000	8.371073
2111.000000	8.357833
2112.000000	8.346510
2113.000000	8.334563
2114.000000	8.320547
2115.000000	8.304570
2116.000000	8.288007
2117.000000	8.272767
2118.000000	8.256243
2119.000000	8.238957
2120.000000	8.221847
2121.000000	8.202460
2122.000000	8.181663
2123.000000	8.160223
2124.000000	8.138157
2125.000000	8.117780
2126.000000	8.095577
2127.000000	8.071347
2128.000000	8.047623
2129.000000	8.021117
2130.000000	7.993293
2131.000000	7.966640
2132.000000	7.939083
2133.000000	7.909457
2134.000000	7.878340
2135.000000	7.844993
2136.000000	7.811727
2137.000000	7.777683
2138.000000	7.742697
2139.000000	7.708037
2140.000000	7.671947
2141.000000	7.634573
2142.000000	7.597367
2143.000000	7.561817
2144.000000	7.525690
2145.000000	7.488240
2146.000000	7.450107
2147.000000	7.411973
2148.000000	7.372083
2149.000000	7.333070
2150.000000	7.295843
2151.000000	7.258397
2152.000000	7.221543
2153.000000	7.185397
2154.000000	7.149840
2155.000000	7.114793
2156.000000	7.080927
2157.000000	7.048107
2158.000000	7.017883
2159.000000	6.989980
2160.000000	6.961830
2161.000000	6.935687
2162.000000	6.909300
2163.000000	6.882687
2164.000000	6.859540
2165.000000	6.838357
2166.000000	6.818503
2167.000000	6.800283
2168.000000	6.782817
2169.000000	6.765220
2170.000000	6.748623
2171.000000	6.732180
2172.000000	6.718020
2173.000000	6.704413
2174.000000	6.689830
2175.000000	6.675870
2176.000000	6.662530
2177.000000	6.650137
2178.000000	6.636297
2179.000000	6.622373
2180.000000	6.609093
2181.000000	6.595520
2182.000000	6.579983
2183.000000	6.564230
2184.000000	6.547560
2185.000000	6.529150
2186.000000	6.506057
2187.000000	6.481160
2188.000000	6.454153
2189.000000	6.423413
2190.000000	6.388753
2191.000000	6.348883
2192.000000	6.305303
2193.000000	6.256040
2194.000000	6.200943
2195.000000	6.141860
2196.000000	6.080157
2197.000000	6.012883
2198.000000	5.941823
2199.000000	5.866357
2200.000000	5.789933
2201.000000	5.711873
2202.000000	5.633407
2203.000000	5.556877
2204.000000	5.484253
2205.000000	5.412533
2206.000000	5.346977
2207.000000	5.284780
2208.000000	5.230307
2209.000000	5.184600
2210.000000	5.144457
2211.000000	5.114780
2212.000000	5.092447
2213.000000	5.078503
2214.000000	5.070757
2215.000000	5.073950
2216.000000	5.082510
2217.000000	5.099240
2218.000000	5.121963
2219.000000	5.149097
2220.000000	5.181787
2221.000000	5.215340
2222.000000	5.252367
2223.000000	5.291880
2224.000000	5.332113
2225.000000	5.369807
2226.000000	5.408030
2227.000000	5.446047
2228.000000	5.480993
2229.000000	5.515170
2230.000000	5.548547
2231.000000	5.580723
2232.000000	5.606720
2233.000000	5.628300
2234.000000	5.648847
2235.000000	5.668053
2236.000000	5.683123
2237.000000	5.693530
2238.000000	5.700337
2239.000000	5.703937
2240.000000	5.703247
2241.000000	5.700683
2242.000000	5.697427
2243.000000	5.690763
2244.000000	5.680857
2245.000000	5.667337
2246.000000	5.651003
2247.000000	5.634407
2248.000000	5.614930
2249.000000	5.594240
2250.000000	5.572300
2251.000000	5.547993
2252.000000	5.521783
2253.000000	5.496773
2254.000000	5.471130
2255.000000	5.446567
2256.000000	5.420860
2257.000000	5.393933
2258.000000	5.369740
2259.000000	5.347213
2260.000000	5.325573
2261.000000	5.304347
2262.000000	5.285983
2263.000000	5.268787
2264.000000	5.253633
2265.000000	5.240597
2266.000000	5.231557
2267.000000	5.224007
2268.000000	5.219040
2269.000000	5.216250
2270.000000	5.214437
2271.000000	5.215020
2272.000000	5.217973
2273.000000	5.220977
2274.000000	5.224760
2275.000000	5.229550
2276.000000	5.235973
2277.000000	5.243520
2278.000000	5.251547
2279.000000	5.257780
2280.000000	5.262987
2281.000000	5.268553
2282.000000	5.273087
2283.000000	5.278340
2284.000000	5.283610
2285.000000	5.287563
2286.000000	5.289560
2287.000000	5.291000
2288.000000	5.292933
2289.000000	5.295527
2290.000000	5.299363
2291.000000	5.302353
2292.000000	5.305820
2293.000000	5.309143
2294.000000	5.311777
2295.000000	5.315630
2296.000000	5.320690
2297.000000	5.325233
2298.000000	5.329717
2299.000000	5.335150
2300.000000	5.340520
2301.000000	5.345790
2302.000000	5.352703
2303.000000	5.361257
2304.000000	5.369873
2305.000000	5.378907
2306.000000	5.388500
2307.000000	5.400450
2308.000000	5.412450
2309.000000	5.425213
2310.000000	5.438287
2311.000000	5.453310
2312.000000	5.468690
2313.000000	5.483237
2314.000000	5.498607
2315.000000	5.513503
2316.000000	5.528857
2317.000000	5.543207
2318.000000	5.556980
2319.000000	5.568570
2320.000000	5.578227
2321.000000	5.587007
2322.000000	5.593843
2323.000000	5.599403
2324.000000	5.603250
2325.000000	5.604070
2326.000000	5.603677
2327.000000	5.602473
2328.000000	5.599783
2329.000000	5.594713
2330.000000	5.589703
2331.000000	5.583293
2332.000000	5.577217
2333.000000	5.571723
2334.000000	5.565970
2335.000000	5.560577
2336.000000	5.555313
2337.000000	5.549663
2338.000000	5.543217
2339.000000	5.539640
2340.000000	5.537947
2341.000000	5.536657
2342.000000	5.534583
2343.000000	5.533123
2344.000000	5.533450
2345.000000	5.535100
2346.000000	5.536587
2347.000000	5.539860
2348.000000	5.545057
2349.000000	5.549820
2350.000000	5.555220
2351.000000	5.562643
2352.000000	5.569943
2353.000000	5.576733
2354.000000	5.584640
2355.000000	5.593233
2356.000000	5.601283
2357.000000	5.607660
2358.000000	5.615137
2359.000000	5.622503
2360.000000	5.627407
2361.000000	5.631233
2362.000000	5.635803
2363.000000	5.639547
2364.000000	5.641587
2365.000000	5.643427
2366.000000	5.645103
2367.000000	5.646823
2368.000000	5.647687
2369.000000	5.648913
2370.000000	5.651527
2371.000000	5.653637
2372.000000	5.655783
2373.000000	5.658350
2374.000000	5.661173
2375.000000	5.663883
2376.000000	5.667640
2377.000000	5.671457
2378.000000	5.673433
2379.000000	5.675243
2380.000000	5.677190
2381.000000	5.679373
2382.000000	5.681197
2383.000000	5.683660
2384.000000	5.685493
2385.000000	5.685153
2386.000000	5.683983
2387.000000	5.682247
2388.000000	5.680127
2389.000000	5.677640
2390.000000	5.673997
2391.000000	5.668063
2392.000000	5.662027
2393.000000	5.655303
2394.000000	5.647393
2395.000000	5.639620
2396.000000	5.631073
2397.000000	5.621977
2398.000000	5.613450
2399.000000	5.603557
2400.000000	5.593490
2401.000000	5.583977
2402.000000	5.572547
2403.000000	5.559440
2404.000000	5.546310
2405.000000	5.532867
2406.000000	5.519027
2407.000000	5.504147
2408.000000	5.488120
2409.000000	5.471940
2410.000000	5.454943
2411.000000	5.436597
2412.000000	5.418093
2413.000000	5.398700
2414.000000	5.378950
2415.000000	5.359460
2416.000000	5.338327
2417.000000	5.315380
2418.000000	5.290420
2419.000000	5.263010
2420.000000	5.235190
2421.000000	5.207647
2422.000000	5.179713
2423.000000	5.150047
2424.000000	5.120413
2425.000000	5.090120
2426.000000	5.059850
2427.000000	5.030520
2428.000000	5.002397
2429.000000	4.974720
2430.000000	4.947023
2431.000000	4.917677
2432.000000	4.887203
2433.000000	4.857690
2434.000000	4.827987
2435.000000	4.796860
2436.000000	4.765413
2437.000000	4.734857
2438.000000	4.702477
2439.000000	4.670717
2440.000000	4.637377
2441.000000	4.604000
2442.000000	4.570143
2443.000000	4.537500
2444.000000	4.503737
2445.000000	4.471433
2446.000000	4.438720
2447.000000	4.405077
2448.000000	4.372100
2449.000000	4.338830
2450.000000	4.306820
2451.000000	4.275483
2452.000000	4.245040
2453.000000	4.215100
2454.000000	4.185477
2455.000000	4.156230
2456.000000	4.127067
2457.000000	4.098627
2458.000000	4.071717
2459.000000	4.045840
2460.000000	4.020773
2461.000000	3.996757
2462.000000	3.972857
2463.000000	3.948550
2464.000000	3.922893
2465.000000	3.900180
2466.000000	3.877637
2467.000000	3.858243
2468.000000	3.837520
2469.000000	3.818243
2470.000000	3.798313
2471.000000	3.779820
2472.000000	3.762903
2473.000000	3.749493
2474.000000	3.737183
2475.000000	3.724207
2476.000000	3.712907
2477.000000	3.702193
2478.000000	3.694330
2479.000000	3.682117
2480.000000	3.677673
2481.000000	3.669630
2482.000000	3.662187
2483.000000	3.654580
2484.000000	3.651590
2485.000000	3.646943
2486.000000	3.647650
2487.000000	3.648980
2488.000000	3.645820
2489.000000	3.650253
2490.000000	3.647250
2491.000000	3.657473
2492.000000	3.659450
2493.000000	3.658880
2494.000000	3.663820
2495.000000	3.672830
2496.000000	3.676270
2497.000000	3.670423
2498.000000	3.669527
2499.000000	3.677190
2500.000000	3.680633
