PE UV       SUBTECH     SPECTRUM    ASCII       PEDS        4.00        
   -1
BIOUCR0010-3.Sample.ASC
24/02/19
14:48:03.00
24/02/19
14:48:03.00
Vinicio Soto Monge
P. chalcotea
250,000000
1
Lambda 1050
1050L1511233
PerkinElmer UV WinLab 6.3.2.0749 / 2.02.05 Lambda 900 UV/VIS/NIR, Aug  7 2015 09:38:08

0
0
3350/servo 860,8/2
0
0
UV/VIS
1
1
1
DoubleDePol,CommonBeamDepol,RBeamAtt,SBeamAtt,60mm sphere, WB InGaAs Detector
0
0
0
0
Program
Program
3350/servo 860,8/2
3350/0,2 860,8/0,2
3350/0,2 860,8/0,2
0
15.00
 
 
 
0
 
860,8
319,2
860,8
Front
100
on
S:100 R:100
0
0
0
0
 
0
 
 
 
0
 
 
0
0
0
0
0
 
 
 
 
0
0


0
0
#HDR
-1
-1
#GR
nm
%R
1.0
0.0
2500,000000
-1,000000
2251
8
19,675600
1,594900
#DATA

250.000000	nan
251.000000	nan
252.000000	nan
253.000000	nan
254.000000	nan
255.000000	nan
256.000000	nan
257.000000	nan
258.000000	nan
259.000000	2.124510
260.000000	2.120824
261.000000	2.117177
262.000000	2.113159
263.000000	2.109611
264.000000	2.105075
265.000000	2.099608
266.000000	2.093321
267.000000	2.087644
268.000000	2.081346
269.000000	2.077500
270.000000	2.073168
271.000000	2.068543
272.000000	2.062813
273.000000	2.059184
274.000000	2.056015
275.000000	2.052560
276.000000	2.046462
277.000000	2.042773
278.000000	2.040401
279.000000	2.036225
280.000000	2.033142
281.000000	2.029753
282.000000	2.027304
283.000000	2.022898
284.000000	2.019448
285.000000	2.018371
286.000000	2.018604
287.000000	2.015666
288.000000	2.012241
289.000000	2.009408
290.000000	2.006105
291.000000	2.001730
292.000000	1.998796
293.000000	1.997002
294.000000	1.994419
295.000000	1.987833
296.000000	1.981475
297.000000	1.977378
298.000000	1.974380
299.000000	1.971228
300.000000	1.967920
301.000000	1.965694
302.000000	1.962665
303.000000	1.958807
304.000000	1.957199
305.000000	1.957252
306.000000	1.957085
307.000000	1.955563
308.000000	1.953287
309.000000	1.952401
310.000000	1.951401
311.000000	1.948838
312.000000	1.947415
313.000000	1.946773
314.000000	1.943302
315.000000	1.940379
316.000000	1.941155
317.000000	1.955146
318.000000	1.962966
319.000000	1.967739
320.000000	1.973778
321.000000	1.978217
322.000000	1.986966
323.000000	1.999821
324.000000	2.007416
325.000000	2.015983
326.000000	2.015123
327.000000	2.008622
328.000000	2.001518
329.000000	1.997409
330.000000	1.993619
331.000000	1.991146
332.000000	1.984515
333.000000	1.972039
334.000000	1.967699
335.000000	1.958500
336.000000	1.957806
337.000000	1.949773
338.000000	1.948931
339.000000	1.948332
340.000000	1.946814
341.000000	1.947618
342.000000	1.943982
343.000000	1.941193
344.000000	1.938686
345.000000	1.939070
346.000000	1.937389
347.000000	1.936444
348.000000	1.934522
349.000000	1.928551
350.000000	1.921259
351.000000	1.915391
352.000000	1.914369
353.000000	1.912917
354.000000	1.908186
355.000000	1.904974
356.000000	1.900298
357.000000	1.897984
358.000000	1.895614
359.000000	1.897061
360.000000	1.895822
361.000000	1.892781
362.000000	1.890258
363.000000	1.887666
364.000000	1.886928
365.000000	1.883772
366.000000	1.880325
367.000000	1.873308
368.000000	1.867297
369.000000	1.861697
370.000000	1.859903
371.000000	1.857874
372.000000	1.850996
373.000000	1.845941
374.000000	1.840451
375.000000	1.836552
376.000000	1.829351
377.000000	1.809831
378.000000	1.789873
379.000000	1.768292
380.000000	1.745590
381.000000	1.723961
382.000000	1.704876
383.000000	1.684598
384.000000	1.664532
385.000000	1.644441
386.000000	1.630005
387.000000	1.628421
388.000000	1.627096
389.000000	1.625880
390.000000	1.624596
391.000000	1.623450
392.000000	1.622457
393.000000	1.621664
394.000000	1.621074
395.000000	1.619986
396.000000	1.618202
397.000000	1.617331
398.000000	1.616737
399.000000	1.615875
400.000000	1.614605
401.000000	1.612955
402.000000	1.611559
403.000000	1.610465
404.000000	1.609200
405.000000	1.607916
406.000000	1.606986
407.000000	1.605595
408.000000	1.604329
409.000000	1.602988
410.000000	1.601822
411.000000	1.600847
412.000000	1.599938
413.000000	1.598561
414.000000	1.597020
415.000000	1.595881
416.000000	1.595088
417.000000	1.594676
418.000000	1.593637
419.000000	1.592949
420.000000	1.592404
421.000000	1.591785
422.000000	1.591115
423.000000	1.590591
424.000000	1.590137
425.000000	1.589524
426.000000	1.588746
427.000000	1.587617
428.000000	1.586756
429.000000	1.585906
430.000000	1.584962
431.000000	1.584049
432.000000	1.583385
433.000000	1.582634
434.000000	1.582030
435.000000	1.581778
436.000000	1.581304
437.000000	1.580870
438.000000	1.580374
439.000000	1.579888
440.000000	1.579696
441.000000	1.579594
442.000000	1.578977
443.000000	1.578319
444.000000	1.577592
445.000000	1.576728
446.000000	1.576381
447.000000	1.576037
448.000000	1.575638
449.000000	1.575680
450.000000	1.575818
451.000000	1.575609
452.000000	1.575803
453.000000	1.576286
454.000000	1.576800
455.000000	1.577429
456.000000	1.578084
457.000000	1.578874
458.000000	1.579870
459.000000	1.580847
460.000000	1.582070
461.000000	1.583770
462.000000	1.585601
463.000000	1.587543
464.000000	1.590070
465.000000	1.592745
466.000000	1.595484
467.000000	1.598710
468.000000	1.602326
469.000000	1.605938
470.000000	1.609713
471.000000	1.613888
472.000000	1.618222
473.000000	1.622974
474.000000	1.628150
475.000000	1.633665
476.000000	1.639587
477.000000	1.645765
478.000000	1.652506
479.000000	1.660441
480.000000	1.669251
481.000000	1.678695
482.000000	1.689105
483.000000	1.700970
484.000000	1.714473
485.000000	1.730325
486.000000	1.748632
487.000000	1.769608
488.000000	1.793289
489.000000	1.819359
490.000000	1.848386
491.000000	1.880828
492.000000	1.917159
493.000000	1.957035
494.000000	2.000677
495.000000	2.048194
496.000000	2.100025
497.000000	2.157097
498.000000	2.220072
499.000000	2.290150
500.000000	2.368191
501.000000	2.454713
502.000000	2.550312
503.000000	2.655470
504.000000	2.769850
505.000000	2.893106
506.000000	3.024912
507.000000	3.164001
508.000000	3.309100
509.000000	3.458768
510.000000	3.612181
511.000000	3.767489
512.000000	3.923973
513.000000	4.081741
514.000000	4.240837
515.000000	4.401129
516.000000	4.562874
517.000000	4.727396
518.000000	4.895268
519.000000	5.066917
520.000000	5.241907
521.000000	5.421559
522.000000	5.605141
523.000000	5.791609
524.000000	5.979443
525.000000	6.167709
526.000000	6.355044
527.000000	6.539256
528.000000	6.718774
529.000000	6.892861
530.000000	7.060305
531.000000	7.219981
532.000000	7.370825
533.000000	7.510838
534.000000	7.640291
535.000000	7.758923
536.000000	7.866439
537.000000	7.963058
538.000000	8.048018
539.000000	8.120724
540.000000	8.180911
541.000000	8.228255
542.000000	8.262895
543.000000	8.286358
544.000000	8.297341
545.000000	8.295441
546.000000	8.280406
547.000000	8.253062
548.000000	8.213758
549.000000	8.162821
550.000000	8.099354
551.000000	8.023642
552.000000	7.936103
553.000000	7.834513
554.000000	7.718782
555.000000	7.589144
556.000000	7.445266
557.000000	7.284038
558.000000	7.105172
559.000000	6.909010
560.000000	6.682267
561.000000	6.438861
562.000000	6.182570
563.000000	5.918622
564.000000	5.651957
565.000000	5.388251
566.000000	5.133032
567.000000	4.892443
568.000000	4.671820
569.000000	4.473836
570.000000	4.316264
571.000000	4.187101
572.000000	4.084606
573.000000	4.007396
574.000000	3.953563
575.000000	3.919795
576.000000	3.902075
577.000000	3.899246
578.000000	3.908022
579.000000	3.926013
580.000000	3.950412
581.000000	3.979892
582.000000	4.011260
583.000000	4.042005
584.000000	4.069100
585.000000	4.089999
586.000000	4.102833
587.000000	4.104466
588.000000	4.093156
589.000000	4.068419
590.000000	4.030684
591.000000	3.980804
592.000000	3.921953
593.000000	3.856928
594.000000	3.790688
595.000000	3.726392
596.000000	3.668491
597.000000	3.618955
598.000000	3.581067
599.000000	3.555357
600.000000	3.543125
601.000000	3.543126
602.000000	3.552634
603.000000	3.569435
604.000000	3.589905
605.000000	3.610460
606.000000	3.627749
607.000000	3.639880
608.000000	3.644972
609.000000	3.642780
610.000000	3.632200
611.000000	3.614519
612.000000	3.591624
613.000000	3.566526
614.000000	3.539870
615.000000	3.514888
616.000000	3.494570
617.000000	3.479372
618.000000	3.470566
619.000000	3.469223
620.000000	3.474090
621.000000	3.485034
622.000000	3.500433
623.000000	3.517084
624.000000	3.535509
625.000000	3.553312
626.000000	3.567210
627.000000	3.577605
628.000000	3.583881
629.000000	3.585441
630.000000	3.583690
631.000000	3.578001
632.000000	3.570930
633.000000	3.564227
634.000000	3.557803
635.000000	3.554194
636.000000	3.554903
637.000000	3.560594
638.000000	3.571348
639.000000	3.586784
640.000000	3.607004
641.000000	3.631378
642.000000	3.658439
643.000000	3.686930
644.000000	3.716347
645.000000	3.744395
646.000000	3.770651
647.000000	3.793786
648.000000	3.813581
649.000000	3.829928
650.000000	3.842909
651.000000	3.853782
652.000000	3.862274
653.000000	3.869608
654.000000	3.876365
655.000000	3.883711
656.000000	3.892722
657.000000	3.904516
658.000000	3.919080
659.000000	3.937523
660.000000	3.959400
661.000000	3.984316
662.000000	4.012245
663.000000	4.042335
664.000000	4.074684
665.000000	4.107937
666.000000	4.140617
667.000000	4.172685
668.000000	4.203450
669.000000	4.232300
670.000000	4.258616
671.000000	4.282416
672.000000	4.303759
673.000000	4.323644
674.000000	4.340794
675.000000	4.357004
676.000000	4.373342
677.000000	4.389902
678.000000	4.407584
679.000000	4.426103
680.000000	4.446705
681.000000	4.469672
682.000000	4.495760
683.000000	4.523254
684.000000	4.553006
685.000000	4.585360
686.000000	4.618672
687.000000	4.652516
688.000000	4.685940
689.000000	4.719983
690.000000	4.754300
691.000000	4.786843
692.000000	4.817309
693.000000	4.847522
694.000000	4.877171
695.000000	4.905053
696.000000	4.932541
697.000000	4.959829
698.000000	4.987720
699.000000	5.015579
700.000000	5.042624
701.000000	5.070596
702.000000	5.100126
703.000000	5.130506
704.000000	5.162293
705.000000	5.195915
706.000000	5.231484
707.000000	5.268942
708.000000	5.307303
709.000000	5.346615
710.000000	5.388940
711.000000	5.432554
712.000000	5.476309
713.000000	5.520636
714.000000	5.563782
715.000000	5.606862
716.000000	5.649791
717.000000	5.692126
718.000000	5.734981
719.000000	5.776896
720.000000	5.816166
721.000000	5.855267
722.000000	5.894813
723.000000	5.932918
724.000000	5.972289
725.000000	6.012025
726.000000	6.051549
727.000000	6.090937
728.000000	6.130413
729.000000	6.170966
730.000000	6.213141
731.000000	6.255676
732.000000	6.298098
733.000000	6.342241
734.000000	6.387283
735.000000	6.433055
736.000000	6.479278
737.000000	6.524525
738.000000	6.569410
739.000000	6.614468
740.000000	6.658380
741.000000	6.702785
742.000000	6.747928
743.000000	6.792434
744.000000	6.835359
745.000000	6.876809
746.000000	6.917937
747.000000	6.961200
748.000000	7.003927
749.000000	7.045373
750.000000	7.088296
751.000000	7.130032
752.000000	7.170348
753.000000	7.212104
754.000000	7.256079
755.000000	7.300233
756.000000	7.345162
757.000000	7.389346
758.000000	7.433576
759.000000	7.480201
760.000000	7.527335
761.000000	7.577066
762.000000	7.629375
763.000000	7.681865
764.000000	7.733787
765.000000	7.786421
766.000000	7.838959
767.000000	7.893981
768.000000	7.953095
769.000000	8.010907
770.000000	8.067663
771.000000	8.124929
772.000000	8.183224
773.000000	8.241674
774.000000	8.301152
775.000000	8.364083
776.000000	8.429260
777.000000	8.493880
778.000000	8.556622
779.000000	8.620529
780.000000	8.687516
781.000000	8.754762
782.000000	8.820676
783.000000	8.887002
784.000000	8.955185
785.000000	9.023793
786.000000	9.092150
787.000000	9.162880
788.000000	9.235456
789.000000	9.310369
790.000000	9.384573
791.000000	9.459710
792.000000	9.537187
793.000000	9.616764
794.000000	9.695950
795.000000	9.773957
796.000000	9.853911
797.000000	9.933802
798.000000	10.012685
799.000000	10.092564
800.000000	10.172143
801.000000	10.252150
802.000000	10.333497
803.000000	10.415326
804.000000	10.496526
805.000000	10.579969
806.000000	10.661407
807.000000	10.738673
808.000000	10.822317
809.000000	10.905420
810.000000	10.986830
811.000000	11.068460
812.000000	11.148606
813.000000	11.228478
814.000000	11.308244
815.000000	11.385928
816.000000	11.462767
817.000000	11.540835
818.000000	11.613563
819.000000	11.686286
820.000000	11.762365
821.000000	11.834207
822.000000	11.904823
823.000000	11.970119
824.000000	12.038012
825.000000	12.103897
826.000000	12.170983
827.000000	12.237631
828.000000	12.302513
829.000000	12.365633
830.000000	12.426538
831.000000	12.488936
832.000000	12.547270
833.000000	12.607505
834.000000	12.658052
835.000000	12.708843
836.000000	12.763617
837.000000	12.813450
838.000000	12.863902
839.000000	12.914314
840.000000	12.965844
841.000000	13.008992
842.000000	13.053815
843.000000	13.098675
844.000000	13.150889
845.000000	13.203079
846.000000	13.240919
847.000000	13.283317
848.000000	13.320768
849.000000	13.358411
850.000000	13.394811
851.000000	13.436600
852.000000	13.477546
853.000000	13.509438
854.000000	13.534868
855.000000	13.558512
856.000000	13.597652
857.000000	13.629400
858.000000	13.687792
859.000000	13.737843
860.000000	13.786031
861.000000	13.835182
862.000000	13.885911
863.000000	13.945426
864.000000	14.009999
865.000000	14.076732
866.000000	14.135826
867.000000	14.202121
868.000000	14.243287
869.000000	14.289437
870.000000	14.334207
871.000000	14.378897
872.000000	14.421837
873.000000	14.463137
874.000000	14.503400
875.000000	14.539917
876.000000	14.574923
877.000000	14.608333
878.000000	14.640780
879.000000	14.672877
880.000000	14.705883
881.000000	14.739170
882.000000	14.771807
883.000000	14.803823
884.000000	14.835710
885.000000	14.868810
886.000000	14.899750
887.000000	14.931217
888.000000	14.963573
889.000000	14.996407
890.000000	15.030303
891.000000	15.060007
892.000000	15.090673
893.000000	15.120960
894.000000	15.148320
895.000000	15.177083
896.000000	15.208157
897.000000	15.238030
898.000000	15.265700
899.000000	15.294120
900.000000	15.321463
901.000000	15.352150
902.000000	15.382220
903.000000	15.413273
904.000000	15.446660
905.000000	15.477827
906.000000	15.508023
907.000000	15.538853
908.000000	15.571213
909.000000	15.603337
910.000000	15.634750
911.000000	15.668003
912.000000	15.698663
913.000000	15.729860
914.000000	15.760197
915.000000	15.790190
916.000000	15.821147
917.000000	15.850340
918.000000	15.879450
919.000000	15.908130
920.000000	15.935737
921.000000	15.960853
922.000000	15.985783
923.000000	16.009210
924.000000	16.032113
925.000000	16.052423
926.000000	16.071967
927.000000	16.093520
928.000000	16.114397
929.000000	16.131710
930.000000	16.148163
931.000000	16.164970
932.000000	16.182663
933.000000	16.200113
934.000000	16.218010
935.000000	16.237707
936.000000	16.255463
937.000000	16.274033
938.000000	16.291907
939.000000	16.313203
940.000000	16.334363
941.000000	16.351613
942.000000	16.369800
943.000000	16.388887
944.000000	16.404817
945.000000	16.421240
946.000000	16.438887
947.000000	16.454923
948.000000	16.472783
949.000000	16.489170
950.000000	16.504523
951.000000	16.524357
952.000000	16.545463
953.000000	16.563950
954.000000	16.585127
955.000000	16.606153
956.000000	16.627757
957.000000	16.649907
958.000000	16.669853
959.000000	16.690673
960.000000	16.713810
961.000000	16.734600
962.000000	16.754910
963.000000	16.775947
964.000000	16.797430
965.000000	16.817210
966.000000	16.835300
967.000000	16.853243
968.000000	16.872930
969.000000	16.891923
970.000000	16.911600
971.000000	16.931660
972.000000	16.950130
973.000000	16.969443
974.000000	16.988757
975.000000	17.010347
976.000000	17.032477
977.000000	17.053480
978.000000	17.073780
979.000000	17.092850
980.000000	17.111373
981.000000	17.130347
982.000000	17.150877
983.000000	17.172497
984.000000	17.192163
985.000000	17.211467
986.000000	17.232197
987.000000	17.252610
988.000000	17.273223
989.000000	17.294687
990.000000	17.316687
991.000000	17.338053
992.000000	17.357453
993.000000	17.375897
994.000000	17.395247
995.000000	17.414503
996.000000	17.433330
997.000000	17.452890
998.000000	17.472730
999.000000	17.493413
1000.000000	17.511843
1001.000000	17.531020
1002.000000	17.551270
1003.000000	17.571300
1004.000000	17.590623
1005.000000	17.610373
1006.000000	17.630320
1007.000000	17.648693
1008.000000	17.666243
1009.000000	17.683670
1010.000000	17.702987
1011.000000	17.722150
1012.000000	17.740980
1013.000000	17.759203
1014.000000	17.777927
1015.000000	17.796490
1016.000000	17.815143
1017.000000	17.834710
1018.000000	17.854780
1019.000000	17.874307
1020.000000	17.893790
1021.000000	17.914500
1022.000000	17.935633
1023.000000	17.956553
1024.000000	17.978187
1025.000000	18.000253
1026.000000	18.020953
1027.000000	18.042537
1028.000000	18.065070
1029.000000	18.087337
1030.000000	18.109233
1031.000000	18.130047
1032.000000	18.150543
1033.000000	18.171683
1034.000000	18.192903
1035.000000	18.213080
1036.000000	18.233727
1037.000000	18.255200
1038.000000	18.275090
1039.000000	18.294037
1040.000000	18.313680
1041.000000	18.334570
1042.000000	18.355227
1043.000000	18.375453
1044.000000	18.395660
1045.000000	18.415533
1046.000000	18.435290
1047.000000	18.453630
1048.000000	18.472757
1049.000000	18.494257
1050.000000	18.515557
1051.000000	18.534593
1052.000000	18.553957
1053.000000	18.574423
1054.000000	18.594180
1055.000000	18.614257
1056.000000	18.635037
1057.000000	18.655250
1058.000000	18.675000
1059.000000	18.693190
1060.000000	18.710170
1061.000000	18.728287
1062.000000	18.747087
1063.000000	18.765807
1064.000000	18.784370
1065.000000	18.803293
1066.000000	18.821663
1067.000000	18.840293
1068.000000	18.859247
1069.000000	18.878417
1070.000000	18.898817
1071.000000	18.918657
1072.000000	18.938770
1073.000000	18.959830
1074.000000	18.980783
1075.000000	19.001000
1076.000000	19.020920
1077.000000	19.040790
1078.000000	19.060157
1079.000000	19.079327
1080.000000	19.097113
1081.000000	19.114950
1082.000000	19.131757
1083.000000	19.147797
1084.000000	19.163710
1085.000000	19.178913
1086.000000	19.195930
1087.000000	19.213380
1088.000000	19.230247
1089.000000	19.246713
1090.000000	19.263103
1091.000000	19.280567
1092.000000	19.296930
1093.000000	19.311813
1094.000000	19.326447
1095.000000	19.344347
1096.000000	19.359850
1097.000000	19.374810
1098.000000	19.389687
1099.000000	19.403893
1100.000000	19.418407
1101.000000	19.430780
1102.000000	19.443957
1103.000000	19.458433
1104.000000	19.473477
1105.000000	19.485420
1106.000000	19.497270
1107.000000	19.508313
1108.000000	19.519007
1109.000000	19.528960
1110.000000	19.539753
1111.000000	19.550493
1112.000000	19.561177
1113.000000	19.570650
1114.000000	19.578320
1115.000000	19.585333
1116.000000	19.592263
1117.000000	19.600493
1118.000000	19.609240
1119.000000	19.618137
1120.000000	19.625577
1121.000000	19.633410
1122.000000	19.641770
1123.000000	19.650757
1124.000000	19.661097
1125.000000	19.670640
1126.000000	19.679437
1127.000000	19.686127
1128.000000	19.691417
1129.000000	19.697963
1130.000000	19.702973
1131.000000	19.705447
1132.000000	19.701533
1133.000000	19.693223
1134.000000	19.683607
1135.000000	19.677927
1136.000000	19.674027
1137.000000	19.668930
1138.000000	19.662027
1139.000000	19.651243
1140.000000	19.640073
1141.000000	19.629850
1142.000000	19.624320
1143.000000	19.620357
1144.000000	19.615050
1145.000000	19.605557
1146.000000	19.594620
1147.000000	19.586940
1148.000000	19.580887
1149.000000	19.576270
1150.000000	19.571973
1151.000000	19.567330
1152.000000	19.561890
1153.000000	19.558690
1154.000000	19.556997
1155.000000	19.552957
1156.000000	19.547623
1157.000000	19.537913
1158.000000	19.526043
1159.000000	19.513567
1160.000000	19.500660
1161.000000	19.485110
1162.000000	19.466093
1163.000000	19.443390
1164.000000	19.415043
1165.000000	19.388090
1166.000000	19.359773
1167.000000	19.332430
1168.000000	19.305020
1169.000000	19.277857
1170.000000	19.249927
1171.000000	19.222897
1172.000000	19.199220
1173.000000	19.176100
1174.000000	19.157277
1175.000000	19.138370
1176.000000	19.121877
1177.000000	19.107237
1178.000000	19.093723
1179.000000	19.081997
1180.000000	19.070460
1181.000000	19.060967
1182.000000	19.051943
1183.000000	19.045273
1184.000000	19.039383
1185.000000	19.035520
1186.000000	19.031560
1187.000000	19.027997
1188.000000	19.025160
1189.000000	19.022637
1190.000000	19.023200
1191.000000	19.026313
1192.000000	19.032390
1193.000000	19.039613
1194.000000	19.048693
1195.000000	19.058937
1196.000000	19.070800
1197.000000	19.085007
1198.000000	19.100497
1199.000000	19.117353
1200.000000	19.135723
1201.000000	19.154147
1202.000000	19.171377
1203.000000	19.188903
1204.000000	19.206100
1205.000000	19.225403
1206.000000	19.243310
1207.000000	19.259943
1208.000000	19.278567
1209.000000	19.295840
1210.000000	19.312410
1211.000000	19.329827
1212.000000	19.347617
1213.000000	19.365977
1214.000000	19.384890
1215.000000	19.402927
1216.000000	19.420000
1217.000000	19.436983
1218.000000	19.453123
1219.000000	19.469110
1220.000000	19.485050
1221.000000	19.498650
1222.000000	19.511950
1223.000000	19.524053
1224.000000	19.536127
1225.000000	19.546330
1226.000000	19.557140
1227.000000	19.565830
1228.000000	19.573980
1229.000000	19.582230
1230.000000	19.588613
1231.000000	19.595083
1232.000000	19.600290
1233.000000	19.603340
1234.000000	19.605063
1235.000000	19.605730
1236.000000	19.607587
1237.000000	19.610137
1238.000000	19.613013
1239.000000	19.615847
1240.000000	19.619407
1241.000000	19.623113
1242.000000	19.626887
1243.000000	19.633680
1244.000000	19.640910
1245.000000	19.649283
1246.000000	19.658260
1247.000000	19.667973
1248.000000	19.677370
1249.000000	19.687213
1250.000000	19.698390
1251.000000	19.711193
1252.000000	19.725883
1253.000000	19.740237
1254.000000	19.755733
1255.000000	19.773033
1256.000000	19.789903
1257.000000	19.806133
1258.000000	19.823087
1259.000000	19.840580
1260.000000	19.856427
1261.000000	19.870780
1262.000000	19.884013
1263.000000	19.896993
1264.000000	19.908220
1265.000000	19.917230
1266.000000	19.925797
1267.000000	19.934330
1268.000000	19.942520
1269.000000	19.949310
1270.000000	19.955153
1271.000000	19.960383
1272.000000	19.964067
1273.000000	19.966983
1274.000000	19.970667
1275.000000	19.974247
1276.000000	19.977463
1277.000000	19.980420
1278.000000	19.982633
1279.000000	19.984840
1280.000000	19.987493
1281.000000	19.990580
1282.000000	19.994517
1283.000000	19.998947
1284.000000	20.003327
1285.000000	20.007740
1286.000000	20.012943
1287.000000	20.019867
1288.000000	20.027340
1289.000000	20.035807
1290.000000	20.045590
1291.000000	20.055287
1292.000000	20.065007
1293.000000	20.075267
1294.000000	20.085240
1295.000000	20.095090
1296.000000	20.104997
1297.000000	20.113700
1298.000000	20.121760
1299.000000	20.130313
1300.000000	20.138623
1301.000000	20.146850
1302.000000	20.155257
1303.000000	20.162070
1304.000000	20.168463
1305.000000	20.174793
1306.000000	20.179107
1307.000000	20.182793
1308.000000	20.187160
1309.000000	20.189233
1310.000000	20.188577
1311.000000	20.187127
1312.000000	20.184483
1313.000000	20.180990
1314.000000	20.176903
1315.000000	20.172400
1316.000000	20.167967
1317.000000	20.162963
1318.000000	20.155107
1319.000000	20.146733
1320.000000	20.139023
1321.000000	20.129573
1322.000000	20.118550
1323.000000	20.106787
1324.000000	20.094027
1325.000000	20.078847
1326.000000	20.062483
1327.000000	20.045760
1328.000000	20.029297
1329.000000	20.012410
1330.000000	19.994257
1331.000000	19.976177
1332.000000	19.958697
1333.000000	19.940427
1334.000000	19.921100
1335.000000	19.902350
1336.000000	19.881580
1337.000000	19.857637
1338.000000	19.832503
1339.000000	19.806380
1340.000000	19.779283
1341.000000	19.751437
1342.000000	19.721273
1343.000000	19.688830
1344.000000	19.655160
1345.000000	19.618940
1346.000000	19.581320
1347.000000	19.543407
1348.000000	19.505337
1349.000000	19.466433
1350.000000	19.424517
1351.000000	19.379090
1352.000000	19.332873
1353.000000	19.285947
1354.000000	19.240010
1355.000000	19.198450
1356.000000	19.160710
1357.000000	19.123430
1358.000000	19.083280
1359.000000	19.041713
1360.000000	18.999217
1361.000000	18.963043
1362.000000	18.939600
1363.000000	18.919670
1364.000000	18.896447
1365.000000	18.872630
1366.000000	18.845380
1367.000000	18.811957
1368.000000	18.779880
1369.000000	18.747627
1370.000000	18.711093
1371.000000	18.665010
1372.000000	18.602420
1373.000000	18.526193
1374.000000	18.437703
1375.000000	18.331643
1376.000000	18.213457
1377.000000	18.083830
1378.000000	17.939827
1379.000000	17.779457
1380.000000	17.611463
1381.000000	17.444640
1382.000000	17.288773
1383.000000	17.145523
1384.000000	17.019663
1385.000000	16.904263
1386.000000	16.801557
1387.000000	16.716220
1388.000000	16.652727
1389.000000	16.613183
1390.000000	16.588143
1391.000000	16.567307
1392.000000	16.546760
1393.000000	16.530477
1394.000000	16.512347
1395.000000	16.503370
1396.000000	16.509993
1397.000000	16.520350
1398.000000	16.516120
1399.000000	16.499477
1400.000000	16.491787
1401.000000	16.497763
1402.000000	16.494087
1403.000000	16.475257
1404.000000	16.449103
1405.000000	16.421710
1406.000000	16.377473
1407.000000	16.326797
1408.000000	16.281090
1409.000000	16.239913
1410.000000	16.188407
1411.000000	16.117040
1412.000000	16.041020
1413.000000	15.970213
1414.000000	15.905430
1415.000000	15.837730
1416.000000	15.765590
1417.000000	15.689570
1418.000000	15.613807
1419.000000	15.542080
1420.000000	15.471673
1421.000000	15.402653
1422.000000	15.335070
1423.000000	15.272000
1424.000000	15.209510
1425.000000	15.144870
1426.000000	15.083200
1427.000000	15.027873
1428.000000	14.973770
1429.000000	14.917297
1430.000000	14.859680
1431.000000	14.808043
1432.000000	14.763997
1433.000000	14.719797
1434.000000	14.675203
1435.000000	14.633260
1436.000000	14.592903
1437.000000	14.554140
1438.000000	14.519533
1439.000000	14.486943
1440.000000	14.457197
1441.000000	14.427203
1442.000000	14.397150
1443.000000	14.368563
1444.000000	14.339273
1445.000000	14.311663
1446.000000	14.290900
1447.000000	14.270247
1448.000000	14.246410
1449.000000	14.220723
1450.000000	14.196000
1451.000000	14.174743
1452.000000	14.156443
1453.000000	14.135613
1454.000000	14.116743
1455.000000	14.098900
1456.000000	14.075953
1457.000000	14.052550
1458.000000	14.029303
1459.000000	14.007757
1460.000000	13.986657
1461.000000	13.963790
1462.000000	13.936947
1463.000000	13.912993
1464.000000	13.888567
1465.000000	13.861903
1466.000000	13.836683
1467.000000	13.812953
1468.000000	13.790533
1469.000000	13.766880
1470.000000	13.743140
1471.000000	13.720487
1472.000000	13.698497
1473.000000	13.677117
1474.000000	13.655763
1475.000000	13.633570
1476.000000	13.610790
1477.000000	13.589437
1478.000000	13.570643
1479.000000	13.552430
1480.000000	13.534513
1481.000000	13.516373
1482.000000	13.500063
1483.000000	13.483643
1484.000000	13.469493
1485.000000	13.456283
1486.000000	13.444660
1487.000000	13.431683
1488.000000	13.418090
1489.000000	13.406217
1490.000000	13.394487
1491.000000	13.382093
1492.000000	13.369937
1493.000000	13.359917
1494.000000	13.349637
1495.000000	13.340787
1496.000000	13.333033
1497.000000	13.328280
1498.000000	13.323283
1499.000000	13.320763
1500.000000	13.320500
1501.000000	13.322197
1502.000000	13.326880
1503.000000	13.333050
1504.000000	13.341770
1505.000000	13.352950
1506.000000	13.365650
1507.000000	13.379690
1508.000000	13.397020
1509.000000	13.415987
1510.000000	13.436583
1511.000000	13.457810
1512.000000	13.478723
1513.000000	13.501483
1514.000000	13.525827
1515.000000	13.549937
1516.000000	13.574563
1517.000000	13.598880
1518.000000	13.622977
1519.000000	13.646877
1520.000000	13.670387
1521.000000	13.693990
1522.000000	13.717343
1523.000000	13.739897
1524.000000	13.761800
1525.000000	13.783703
1526.000000	13.806263
1527.000000	13.828743
1528.000000	13.850057
1529.000000	13.871747
1530.000000	13.893443
1531.000000	13.915147
1532.000000	13.936290
1533.000000	13.956900
1534.000000	13.977170
1535.000000	13.997013
1536.000000	14.015657
1537.000000	14.033237
1538.000000	14.051017
1539.000000	14.067557
1540.000000	14.082293
1541.000000	14.095577
1542.000000	14.109780
1543.000000	14.123823
1544.000000	14.137730
1545.000000	14.152217
1546.000000	14.167303
1547.000000	14.183053
1548.000000	14.198830
1549.000000	14.214763
1550.000000	14.232577
1551.000000	14.252397
1552.000000	14.272190
1553.000000	14.292710
1554.000000	14.313837
1555.000000	14.333820
1556.000000	14.352833
1557.000000	14.372013
1558.000000	14.390903
1559.000000	14.407910
1560.000000	14.423413
1561.000000	14.437527
1562.000000	14.449867
1563.000000	14.459233
1564.000000	14.465860
1565.000000	14.471727
1566.000000	14.476177
1567.000000	14.478140
1568.000000	14.478773
1569.000000	14.477400
1570.000000	14.474303
1571.000000	14.471030
1572.000000	14.467727
1573.000000	14.464653
1574.000000	14.461290
1575.000000	14.458007
1576.000000	14.455200
1577.000000	14.453800
1578.000000	14.454043
1579.000000	14.455723
1580.000000	14.458647
1581.000000	14.463230
1582.000000	14.468910
1583.000000	14.475003
1584.000000	14.483463
1585.000000	14.492940
1586.000000	14.503810
1587.000000	14.516187
1588.000000	14.528377
1589.000000	14.542070
1590.000000	14.557107
1591.000000	14.570873
1592.000000	14.585167
1593.000000	14.600940
1594.000000	14.616227
1595.000000	14.632083
1596.000000	14.647603
1597.000000	14.662043
1598.000000	14.677913
1599.000000	14.693983
1600.000000	14.710920
1601.000000	14.729773
1602.000000	14.748893
1603.000000	14.768067
1604.000000	14.787707
1605.000000	14.808120
1606.000000	14.829253
1607.000000	14.850530
1608.000000	14.871010
1609.000000	14.891517
1610.000000	14.911220
1611.000000	14.929720
1612.000000	14.946613
1613.000000	14.963557
1614.000000	14.980503
1615.000000	14.995363
1616.000000	15.008693
1617.000000	15.021363
1618.000000	15.032667
1619.000000	15.044137
1620.000000	15.054413
1621.000000	15.063380
1622.000000	15.072953
1623.000000	15.080680
1624.000000	15.087813
1625.000000	15.095377
1626.000000	15.103740
1627.000000	15.113960
1628.000000	15.124897
1629.000000	15.134987
1630.000000	15.145603
1631.000000	15.156973
1632.000000	15.168010
1633.000000	15.179673
1634.000000	15.191020
1635.000000	15.202573
1636.000000	15.214117
1637.000000	15.223587
1638.000000	15.232467
1639.000000	15.240050
1640.000000	15.246013
1641.000000	15.251920
1642.000000	15.256830
1643.000000	15.262133
1644.000000	15.267050
1645.000000	15.270373
1646.000000	15.273427
1647.000000	15.276237
1648.000000	15.279263
1649.000000	15.283007
1650.000000	15.286500
1651.000000	15.289467
1652.000000	15.291867
1653.000000	15.292227
1654.000000	15.289530
1655.000000	15.286053
1656.000000	15.278487
1657.000000	15.268720
1658.000000	15.255717
1659.000000	15.239363
1660.000000	15.221603
1661.000000	15.199680
1662.000000	15.174630
1663.000000	15.146023
1664.000000	15.116450
1665.000000	15.084840
1666.000000	15.052027
1667.000000	15.016460
1668.000000	14.971867
1669.000000	14.924167
1670.000000	14.874613
1671.000000	14.822713
1672.000000	14.768860
1673.000000	14.712997
1674.000000	14.655820
1675.000000	14.594853
1676.000000	14.533890
1677.000000	14.471973
1678.000000	14.416723
1679.000000	14.360900
1680.000000	14.300870
1681.000000	14.239807
1682.000000	14.176123
1683.000000	14.111797
1684.000000	14.045007
1685.000000	13.979207
1686.000000	13.914557
1687.000000	13.849807
1688.000000	13.789213
1689.000000	13.733280
1690.000000	13.688070
1691.000000	13.650477
1692.000000	13.622467
1693.000000	13.605047
1694.000000	13.597200
1695.000000	13.597060
1696.000000	13.601833
1697.000000	13.612480
1698.000000	13.625620
1699.000000	13.639800
1700.000000	13.650690
1701.000000	13.659847
1702.000000	13.667440
1703.000000	13.671417
1704.000000	13.671800
1705.000000	13.670087
1706.000000	13.665033
1707.000000	13.656993
1708.000000	13.644520
1709.000000	13.628857
1710.000000	13.610090
1711.000000	13.588993
1712.000000	13.563980
1713.000000	13.532040
1714.000000	13.495180
1715.000000	13.453243
1716.000000	13.405900
1717.000000	13.354983
1718.000000	13.298693
1719.000000	13.241663
1720.000000	13.182103
1721.000000	13.120210
1722.000000	13.060357
1723.000000	13.003880
1724.000000	12.952350
1725.000000	12.905817
1726.000000	12.868207
1727.000000	12.838000
1728.000000	12.816543
1729.000000	12.803017
1730.000000	12.796220
1731.000000	12.797670
1732.000000	12.805513
1733.000000	12.819220
1734.000000	12.835223
1735.000000	12.853517
1736.000000	12.873593
1737.000000	12.894927
1738.000000	12.917727
1739.000000	12.939753
1740.000000	12.965480
1741.000000	12.991680
1742.000000	13.017987
1743.000000	13.044440
1744.000000	13.073227
1745.000000	13.101883
1746.000000	13.129507
1747.000000	13.157483
1748.000000	13.185610
1749.000000	13.213497
1750.000000	13.238557
1751.000000	13.261513
1752.000000	13.282403
1753.000000	13.300587
1754.000000	13.316150
1755.000000	13.330003
1756.000000	13.341840
1757.000000	13.351963
1758.000000	13.360777
1759.000000	13.366530
1760.000000	13.370870
1761.000000	13.375603
1762.000000	13.378977
1763.000000	13.383743
1764.000000	13.388797
1765.000000	13.395140
1766.000000	13.402047
1767.000000	13.409183
1768.000000	13.417513
1769.000000	13.428867
1770.000000	13.441083
1771.000000	13.454003
1772.000000	13.468770
1773.000000	13.484510
1774.000000	13.501357
1775.000000	13.517830
1776.000000	13.534803
1777.000000	13.552260
1778.000000	13.568903
1779.000000	13.585377
1780.000000	13.603323
1781.000000	13.621207
1782.000000	13.637603
1783.000000	13.652753
1784.000000	13.665450
1785.000000	13.676890
1786.000000	13.687490
1787.000000	13.697917
1788.000000	13.708103
1789.000000	13.715430
1790.000000	13.718997
1791.000000	13.722200
1792.000000	13.724313
1793.000000	13.726260
1794.000000	13.729407
1795.000000	13.734010
1796.000000	13.738720
1797.000000	13.742260
1798.000000	13.743343
1799.000000	13.744283
1800.000000	13.747427
1801.000000	13.752470
1802.000000	13.760093
1803.000000	13.766310
1804.000000	13.769607
1805.000000	13.770897
1806.000000	13.774053
1807.000000	13.780433
1808.000000	13.787933
1809.000000	13.793293
1810.000000	13.795753
1811.000000	13.797530
1812.000000	13.800577
1813.000000	13.804713
1814.000000	13.808790
1815.000000	13.814813
1816.000000	13.820323
1817.000000	13.820220
1818.000000	13.812440
1819.000000	13.802373
1820.000000	13.800023
1821.000000	13.807423
1822.000000	13.819667
1823.000000	13.827497
1824.000000	13.825497
1825.000000	13.815710
1826.000000	13.803170
1827.000000	13.796333
1828.000000	13.801483
1829.000000	13.813350
1830.000000	13.822153
1831.000000	13.823203
1832.000000	13.815880
1833.000000	13.807197
1834.000000	13.802057
1835.000000	13.800560
1836.000000	13.803953
1837.000000	13.811417
1838.000000	13.818540
1839.000000	13.823527
1840.000000	13.828457
1841.000000	13.837457
1842.000000	13.856790
1843.000000	13.883713
1844.000000	13.907797
1845.000000	13.918180
1846.000000	13.914167
1847.000000	13.908943
1848.000000	13.918570
1849.000000	13.943897
1850.000000	13.965903
1851.000000	13.967213
1852.000000	13.947710
1853.000000	13.923930
1854.000000	13.913567
1855.000000	13.922613
1856.000000	13.941397
1857.000000	13.946640
1858.000000	13.928377
1859.000000	13.899807
1860.000000	13.877473
1861.000000	13.868000
1862.000000	13.866230
1863.000000	13.860240
1864.000000	13.840140
1865.000000	13.805220
1866.000000	13.759937
1867.000000	13.712853
1868.000000	13.664790
1869.000000	13.607720
1870.000000	13.547113
1871.000000	13.491527
1872.000000	13.440133
1873.000000	13.397393
1874.000000	13.365183
1875.000000	13.339640
1876.000000	13.320433
1877.000000	13.300633
1878.000000	13.277097
1879.000000	13.247290
1880.000000	13.202137
1881.000000	13.134550
1882.000000	13.052113
1883.000000	12.957907
1884.000000	12.854503
1885.000000	12.745100
1886.000000	12.627870
1887.000000	12.503697
1888.000000	12.367920
1889.000000	12.222473
1890.000000	12.074993
1891.000000	11.930030
1892.000000	11.787307
1893.000000	11.640080
1894.000000	11.483253
1895.000000	11.317117
1896.000000	11.138433
1897.000000	10.952923
1898.000000	10.768920
1899.000000	10.591613
1900.000000	10.418693
1901.000000	10.245360
1902.000000	10.065580
1903.000000	9.881917
1904.000000	9.702397
1905.000000	9.533517
1906.000000	9.382860
1907.000000	9.244350
1908.000000	9.112393
1909.000000	8.979387
1910.000000	8.841347
1911.000000	8.703620
1912.000000	8.574983
1913.000000	8.460117
1914.000000	8.357387
1915.000000	8.257530
1916.000000	8.155143
1917.000000	8.053587
1918.000000	7.953383
1919.000000	7.861377
1920.000000	7.782970
1921.000000	7.716837
1922.000000	7.656967
1923.000000	7.598493
1924.000000	7.537967
1925.000000	7.478530
1926.000000	7.423893
1927.000000	7.377483
1928.000000	7.342640
1929.000000	7.313360
1930.000000	7.287900
1931.000000	7.262483
1932.000000	7.237800
1933.000000	7.213917
1934.000000	7.193273
1935.000000	7.178210
1936.000000	7.168020
1937.000000	7.160270
1938.000000	7.154127
1939.000000	7.153010
1940.000000	7.153670
1941.000000	7.158297
1942.000000	7.164323
1943.000000	7.172983
1944.000000	7.184717
1945.000000	7.200390
1946.000000	7.218560
1947.000000	7.238097
1948.000000	7.259437
1949.000000	7.278567
1950.000000	7.298460
1951.000000	7.318170
1952.000000	7.340423
1953.000000	7.365120
1954.000000	7.394740
1955.000000	7.421830
1956.000000	7.450790
1957.000000	7.479887
1958.000000	7.510053
1959.000000	7.542460
1960.000000	7.571643
1961.000000	7.603023
1962.000000	7.635423
1963.000000	7.666797
1964.000000	7.696570
1965.000000	7.728703
1966.000000	7.757347
1967.000000	7.786763
1968.000000	7.814197
1969.000000	7.841240
1970.000000	7.869243
1971.000000	7.896257
1972.000000	7.923337
1973.000000	7.949247
1974.000000	7.975547
1975.000000	8.000840
1976.000000	8.027163
1977.000000	8.053943
1978.000000	8.080923
1979.000000	8.107053
1980.000000	8.135080
1981.000000	8.162943
1982.000000	8.189830
1983.000000	8.218553
1984.000000	8.245703
1985.000000	8.273090
1986.000000	8.301157
1987.000000	8.329053
1988.000000	8.356977
1989.000000	8.384477
1990.000000	8.412053
1991.000000	8.439150
1992.000000	8.465623
1993.000000	8.490500
1994.000000	8.514407
1995.000000	8.539340
1996.000000	8.563730
1997.000000	8.585903
1998.000000	8.608037
1999.000000	8.629047
2000.000000	8.648207
2001.000000	8.665950
2002.000000	8.683527
2003.000000	8.700583
2004.000000	8.719303
2005.000000	8.735337
2006.000000	8.748713
2007.000000	8.762497
2008.000000	8.773873
2009.000000	8.784897
2010.000000	8.791767
2011.000000	8.798600
2012.000000	8.803077
2013.000000	8.805553
2014.000000	8.804140
2015.000000	8.801097
2016.000000	8.795583
2017.000000	8.788777
2018.000000	8.779517
2019.000000	8.767877
2020.000000	8.757853
2021.000000	8.743873
2022.000000	8.727597
2023.000000	8.709473
2024.000000	8.690900
2025.000000	8.669463
2026.000000	8.647353
2027.000000	8.622400
2028.000000	8.595813
2029.000000	8.567700
2030.000000	8.536603
2031.000000	8.504590
2032.000000	8.471413
2033.000000	8.437440
2034.000000	8.399293
2035.000000	8.359813
2036.000000	8.319310
2037.000000	8.277350
2038.000000	8.233533
2039.000000	8.187613
2040.000000	8.140907
2041.000000	8.092483
2042.000000	8.042227
2043.000000	7.990420
2044.000000	7.938703
2045.000000	7.887580
2046.000000	7.836200
2047.000000	7.785590
2048.000000	7.735940
2049.000000	7.687907
2050.000000	7.641923
2051.000000	7.600187
2052.000000	7.562363
2053.000000	7.528610
2054.000000	7.499347
2055.000000	7.474813
2056.000000	7.456213
2057.000000	7.442723
2058.000000	7.435437
2059.000000	7.434973
2060.000000	7.440370
2061.000000	7.449693
2062.000000	7.463987
2063.000000	7.482217
2064.000000	7.504113
2065.000000	7.530633
2066.000000	7.559343
2067.000000	7.589887
2068.000000	7.623187
2069.000000	7.656317
2070.000000	7.688870
2071.000000	7.721950
2072.000000	7.755087
2073.000000	7.788063
2074.000000	7.820433
2075.000000	7.851320
2076.000000	7.881173
2077.000000	7.908850
2078.000000	7.932590
2079.000000	7.955460
2080.000000	7.977703
2081.000000	7.997217
2082.000000	8.014837
2083.000000	8.031420
2084.000000	8.045027
2085.000000	8.054223
2086.000000	8.060990
2087.000000	8.066693
2088.000000	8.071793
2089.000000	8.074423
2090.000000	8.073823
2091.000000	8.071723
2092.000000	8.069083
2093.000000	8.064960
2094.000000	8.059817
2095.000000	8.055253
2096.000000	8.048757
2097.000000	8.041113
2098.000000	8.034283
2099.000000	8.027407
2100.000000	8.020987
2101.000000	8.015103
2102.000000	8.007197
2103.000000	7.998707
2104.000000	7.991730
2105.000000	7.984883
2106.000000	7.978600
2107.000000	7.972473
2108.000000	7.964870
2109.000000	7.956927
2110.000000	7.949073
2111.000000	7.940737
2112.000000	7.932353
2113.000000	7.922970
2114.000000	7.913200
2115.000000	7.902723
2116.000000	7.891573
2117.000000	7.878963
2118.000000	7.866500
2119.000000	7.853907
2120.000000	7.839463
2121.000000	7.824173
2122.000000	7.809127
2123.000000	7.794170
2124.000000	7.777740
2125.000000	7.759767
2126.000000	7.741230
2127.000000	7.722840
2128.000000	7.703930
2129.000000	7.682377
2130.000000	7.659787
2131.000000	7.636547
2132.000000	7.612023
2133.000000	7.586267
2134.000000	7.558343
2135.000000	7.530253
2136.000000	7.500987
2137.000000	7.471007
2138.000000	7.439603
2139.000000	7.407333
2140.000000	7.374503
2141.000000	7.342017
2142.000000	7.307273
2143.000000	7.270963
2144.000000	7.234537
2145.000000	7.197420
2146.000000	7.160750
2147.000000	7.122853
2148.000000	7.084783
2149.000000	7.047457
2150.000000	7.010653
2151.000000	6.972897
2152.000000	6.936283
2153.000000	6.901970
2154.000000	6.868163
2155.000000	6.834767
2156.000000	6.801523
2157.000000	6.768207
2158.000000	6.736273
2159.000000	6.706003
2160.000000	6.677810
2161.000000	6.650227
2162.000000	6.624263
2163.000000	6.598907
2164.000000	6.575333
2165.000000	6.552697
2166.000000	6.530590
2167.000000	6.512177
2168.000000	6.494213
2169.000000	6.475070
2170.000000	6.455957
2171.000000	6.439287
2172.000000	6.422567
2173.000000	6.407350
2174.000000	6.392047
2175.000000	6.377287
2176.000000	6.364573
2177.000000	6.349907
2178.000000	6.335470
2179.000000	6.321810
2180.000000	6.309177
2181.000000	6.294567
2182.000000	6.279840
2183.000000	6.262237
2184.000000	6.243720
2185.000000	6.224307
2186.000000	6.200850
2187.000000	6.175230
2188.000000	6.146037
2189.000000	6.113707
2190.000000	6.078033
2191.000000	6.037833
2192.000000	5.992510
2193.000000	5.943697
2194.000000	5.890990
2195.000000	5.834753
2196.000000	5.773753
2197.000000	5.710157
2198.000000	5.643420
2199.000000	5.574283
2200.000000	5.500467
2201.000000	5.427210
2202.000000	5.354763
2203.000000	5.283903
2204.000000	5.214013
2205.000000	5.146603
2206.000000	5.085777
2207.000000	5.027943
2208.000000	4.976423
2209.000000	4.933007
2210.000000	4.897727
2211.000000	4.868910
2212.000000	4.849880
2213.000000	4.837003
2214.000000	4.832790
2215.000000	4.835953
2216.000000	4.845087
2217.000000	4.862143
2218.000000	4.885360
2219.000000	4.912090
2220.000000	4.943567
2221.000000	4.978993
2222.000000	5.014553
2223.000000	5.051653
2224.000000	5.088910
2225.000000	5.126630
2226.000000	5.162250
2227.000000	5.197707
2228.000000	5.232263
2229.000000	5.266883
2230.000000	5.296860
2231.000000	5.324927
2232.000000	5.349843
2233.000000	5.372730
2234.000000	5.393193
2235.000000	5.407990
2236.000000	5.423290
2237.000000	5.432830
2238.000000	5.437467
2239.000000	5.438473
2240.000000	5.437153
2241.000000	5.433227
2242.000000	5.426837
2243.000000	5.416647
2244.000000	5.404567
2245.000000	5.390650
2246.000000	5.372460
2247.000000	5.353547
2248.000000	5.332190
2249.000000	5.309433
2250.000000	5.286000
2251.000000	5.261813
2252.000000	5.235840
2253.000000	5.209643
2254.000000	5.182593
2255.000000	5.155453
2256.000000	5.128593
2257.000000	5.102550
2258.000000	5.079290
2259.000000	5.056177
2260.000000	5.035667
2261.000000	5.012743
2262.000000	4.993200
2263.000000	4.976000
2264.000000	4.961897
2265.000000	4.951037
2266.000000	4.939517
2267.000000	4.932433
2268.000000	4.924830
2269.000000	4.921317
2270.000000	4.917013
2271.000000	4.917467
2272.000000	4.920957
2273.000000	4.924910
2274.000000	4.928597
2275.000000	4.933120
2276.000000	4.940570
2277.000000	4.947050
2278.000000	4.955610
2279.000000	4.961400
2280.000000	4.968980
2281.000000	4.976040
2282.000000	4.980657
2283.000000	4.985517
2284.000000	4.989933
2285.000000	4.995590
2286.000000	5.000843
2287.000000	5.004967
2288.000000	5.008273
2289.000000	5.012247
2290.000000	5.016817
2291.000000	5.020727
2292.000000	5.025477
2293.000000	5.031423
2294.000000	5.038063
2295.000000	5.043133
2296.000000	5.049250
2297.000000	5.055763
2298.000000	5.063167
2299.000000	5.070443
2300.000000	5.077463
2301.000000	5.085677
2302.000000	5.094930
2303.000000	5.104343
2304.000000	5.112817
2305.000000	5.122753
2306.000000	5.135560
2307.000000	5.148160
2308.000000	5.160817
2309.000000	5.174957
2310.000000	5.191157
2311.000000	5.207497
2312.000000	5.222253
2313.000000	5.236160
2314.000000	5.251470
2315.000000	5.266540
2316.000000	5.280457
2317.000000	5.294057
2318.000000	5.306780
2319.000000	5.316993
2320.000000	5.325007
2321.000000	5.332470
2322.000000	5.339643
2323.000000	5.345680
2324.000000	5.349850
2325.000000	5.351037
2326.000000	5.349827
2327.000000	5.348537
2328.000000	5.346527
2329.000000	5.344233
2330.000000	5.341133
2331.000000	5.336893
2332.000000	5.332983
2333.000000	5.328700
2334.000000	5.324747
2335.000000	5.322000
2336.000000	5.319417
2337.000000	5.316863
2338.000000	5.315397
2339.000000	5.315523
2340.000000	5.316643
2341.000000	5.317690
2342.000000	5.318530
2343.000000	5.321677
2344.000000	5.325417
2345.000000	5.330177
2346.000000	5.335727
2347.000000	5.341717
2348.000000	5.348070
2349.000000	5.353310
2350.000000	5.357917
2351.000000	5.363860
2352.000000	5.370787
2353.000000	5.377250
2354.000000	5.383557
2355.000000	5.390063
2356.000000	5.396670
2357.000000	5.403297
2358.000000	5.409280
2359.000000	5.414887
2360.000000	5.420903
2361.000000	5.425947
2362.000000	5.429580
2363.000000	5.432917
2364.000000	5.436440
2365.000000	5.439060
2366.000000	5.440217
2367.000000	5.441493
2368.000000	5.443437
2369.000000	5.445790
2370.000000	5.447813
2371.000000	5.450410
2372.000000	5.454107
2373.000000	5.456970
2374.000000	5.459653
2375.000000	5.463230
2376.000000	5.467600
2377.000000	5.470870
2378.000000	5.473560
2379.000000	5.477317
2380.000000	5.480817
2381.000000	5.483357
2382.000000	5.484737
2383.000000	5.486480
2384.000000	5.487870
2385.000000	5.487933
2386.000000	5.487650
2387.000000	5.486807
2388.000000	5.484783
2389.000000	5.480973
2390.000000	5.476757
2391.000000	5.471987
2392.000000	5.466417
2393.000000	5.460550
2394.000000	5.453720
2395.000000	5.445487
2396.000000	5.436490
2397.000000	5.426810
2398.000000	5.417293
2399.000000	5.407950
2400.000000	5.397120
2401.000000	5.385187
2402.000000	5.373357
2403.000000	5.360720
2404.000000	5.347067
2405.000000	5.333020
2406.000000	5.317603
2407.000000	5.302127
2408.000000	5.286037
2409.000000	5.268730
2410.000000	5.251477
2411.000000	5.233960
2412.000000	5.216040
2413.000000	5.196430
2414.000000	5.175877
2415.000000	5.155263
2416.000000	5.133633
2417.000000	5.109860
2418.000000	5.083267
2419.000000	5.055377
2420.000000	5.027717
2421.000000	4.999613
2422.000000	4.969957
2423.000000	4.940180
2424.000000	4.910523
2425.000000	4.879630
2426.000000	4.848407
2427.000000	4.818350
2428.000000	4.788430
2429.000000	4.758887
2430.000000	4.728870
2431.000000	4.698043
2432.000000	4.666880
2433.000000	4.635047
2434.000000	4.601760
2435.000000	4.569053
2436.000000	4.537213
2437.000000	4.505377
2438.000000	4.474183
2439.000000	4.442577
2440.000000	4.408980
2441.000000	4.376083
2442.000000	4.342613
2443.000000	4.308993
2444.000000	4.276627
2445.000000	4.245203
2446.000000	4.212400
2447.000000	4.178763
2448.000000	4.144273
2449.000000	4.111310
2450.000000	4.078277
2451.000000	4.044110
2452.000000	4.010850
2453.000000	3.978510
2454.000000	3.947460
2455.000000	3.915917
2456.000000	3.885263
2457.000000	3.855493
2458.000000	3.828730
2459.000000	3.801237
2460.000000	3.776337
2461.000000	3.752500
2462.000000	3.728930
2463.000000	3.706437
2464.000000	3.685650
2465.000000	3.663950
2466.000000	3.643977
2467.000000	3.624970
2468.000000	3.604707
2469.000000	3.586960
2470.000000	3.568157
2471.000000	3.550820
2472.000000	3.536843
2473.000000	3.520507
2474.000000	3.506473
2475.000000	3.493200
2476.000000	3.481493
2477.000000	3.471487
2478.000000	3.462593
2479.000000	3.453273
2480.000000	3.443553
2481.000000	3.435400
2482.000000	3.430987
2483.000000	3.428807
2484.000000	3.422803
2485.000000	3.422567
2486.000000	3.419073
2487.000000	3.418430
2488.000000	3.414940
2489.000000	3.412220
2490.000000	3.415000
2491.000000	3.424073
2492.000000	3.423930
2493.000000	3.430307
2494.000000	3.437497
2495.000000	3.441307
2496.000000	3.444647
2497.000000	3.447197
2498.000000	3.457003
2499.000000	3.464640
2500.000000	3.468247
