PE UV       SUBTECH     SPECTRUM    ASCII       PEDS        4.00        
   -1
BIOUCR0008-3.Sample.ASC
24/02/19
14:10:31.00
24/02/19
14:10:31.00
Vinicio Soto Monge
P. chalcotea
250,000000
1
Lambda 1050
1050L1511233
PerkinElmer UV WinLab 6.3.2.0749 / 2.02.05 Lambda 900 UV/VIS/NIR, Aug  7 2015 09:38:08

0
0
3350/servo 860,8/2
0
0
UV/VIS
1
1
1
DoubleDePol,CommonBeamDepol,RBeamAtt,SBeamAtt,60mm sphere, WB InGaAs Detector
0
0
0
0
Program
Program
3350/servo 860,8/2
3350/0,2 860,8/0,2
3350/0,2 860,8/0,2
0
15.00
 
 
 
0
 
860,8
319,2
860,8
Front
100
on
S:100 R:100
0
0
0
0
 
0
 
 
 
0
 
 
0
0
0
0
0
 
 
 
 
0
0


0
0
#HDR
-1
-1
#GR
nm
%R
1.0
0.0
2500,000000
-1,000000
2251
8
18,268700
1,514200
#DATA

250.000000	nan
251.000000	nan
252.000000	nan
253.000000	nan
254.000000	nan
255.000000	nan
256.000000	nan
257.000000	nan
258.000000	nan
259.000000	2.134292
260.000000	2.129337
261.000000	2.124475
262.000000	2.122310
263.000000	2.118075
264.000000	2.113999
265.000000	2.109739
266.000000	2.105313
267.000000	2.101132
268.000000	2.095316
269.000000	2.089676
270.000000	2.085978
271.000000	2.081494
272.000000	2.076633
273.000000	2.072933
274.000000	2.069566
275.000000	2.068469
276.000000	2.064781
277.000000	2.061889
278.000000	2.059430
279.000000	2.060575
280.000000	2.060045
281.000000	2.058490
282.000000	2.055031
283.000000	2.054993
284.000000	2.056193
285.000000	2.051034
286.000000	2.049617
287.000000	2.046781
288.000000	2.045976
289.000000	2.043215
290.000000	2.039403
291.000000	2.037297
292.000000	2.037057
293.000000	2.033138
294.000000	2.028951
295.000000	2.028346
296.000000	2.026908
297.000000	2.025275
298.000000	2.021791
299.000000	2.020092
300.000000	2.018569
301.000000	2.017354
302.000000	2.015225
303.000000	2.013775
304.000000	2.011055
305.000000	2.010249
306.000000	2.008474
307.000000	2.005735
308.000000	2.003665
309.000000	2.001197
310.000000	2.001237
311.000000	2.000266
312.000000	1.997507
313.000000	1.996494
314.000000	1.996368
315.000000	1.993538
316.000000	1.994339
317.000000	2.008633
318.000000	2.027290
319.000000	2.036949
320.000000	2.043356
321.000000	2.052355
322.000000	2.059612
323.000000	2.062374
324.000000	2.067395
325.000000	2.075669
326.000000	2.079563
327.000000	2.069380
328.000000	2.055615
329.000000	2.055889
330.000000	2.053797
331.000000	2.047129
332.000000	2.048185
333.000000	2.051582
334.000000	2.051996
335.000000	2.048119
336.000000	2.044659
337.000000	2.043512
338.000000	2.041757
339.000000	2.031371
340.000000	2.028338
341.000000	2.027891
342.000000	2.022069
343.000000	2.016711
344.000000	2.013151
345.000000	2.010555
346.000000	2.008844
347.000000	2.006639
348.000000	2.002970
349.000000	2.002984
350.000000	1.997795
351.000000	1.993299
352.000000	1.990116
353.000000	1.988009
354.000000	1.984122
355.000000	1.980625
356.000000	1.978423
357.000000	1.977157
358.000000	1.974419
359.000000	1.971105
360.000000	1.970048
361.000000	1.970092
362.000000	1.969699
363.000000	1.967532
364.000000	1.966738
365.000000	1.966206
366.000000	1.962774
367.000000	1.958173
368.000000	1.957522
369.000000	1.956513
370.000000	1.951837
371.000000	1.945805
372.000000	1.943221
373.000000	1.940990
374.000000	1.934916
375.000000	1.926695
376.000000	1.917453
377.000000	1.895731
378.000000	1.874038
379.000000	1.852030
380.000000	1.833248
381.000000	1.814379
382.000000	1.792540
383.000000	1.770868
384.000000	1.752696
385.000000	1.736527
386.000000	1.723743
387.000000	1.724113
388.000000	1.723174
389.000000	1.722455
390.000000	1.722035
391.000000	1.721658
392.000000	1.720808
393.000000	1.720550
394.000000	1.720113
395.000000	1.719690
396.000000	1.718992
397.000000	1.718450
398.000000	1.717973
399.000000	1.717630
400.000000	1.717187
401.000000	1.716485
402.000000	1.716963
403.000000	1.717316
404.000000	1.717298
405.000000	1.717337
406.000000	1.717257
407.000000	1.717107
408.000000	1.717480
409.000000	1.717538
410.000000	1.717487
411.000000	1.717385
412.000000	1.716755
413.000000	1.715998
414.000000	1.715607
415.000000	1.715568
416.000000	1.715502
417.000000	1.715238
418.000000	1.714779
419.000000	1.714441
420.000000	1.714189
421.000000	1.713921
422.000000	1.713760
423.000000	1.713186
424.000000	1.712752
425.000000	1.712255
426.000000	1.711867
427.000000	1.711495
428.000000	1.711495
429.000000	1.711353
430.000000	1.710969
431.000000	1.710851
432.000000	1.710941
433.000000	1.711473
434.000000	1.712071
435.000000	1.712547
436.000000	1.713012
437.000000	1.713790
438.000000	1.714436
439.000000	1.715190
440.000000	1.716223
441.000000	1.717358
442.000000	1.718657
443.000000	1.720000
444.000000	1.721020
445.000000	1.722429
446.000000	1.724233
447.000000	1.725620
448.000000	1.727062
449.000000	1.728949
450.000000	1.730927
451.000000	1.732817
452.000000	1.734697
453.000000	1.736877
454.000000	1.739647
455.000000	1.742619
456.000000	1.745794
457.000000	1.749562
458.000000	1.753707
459.000000	1.758049
460.000000	1.763003
461.000000	1.768467
462.000000	1.774697
463.000000	1.781497
464.000000	1.788667
465.000000	1.796661
466.000000	1.805384
467.000000	1.814971
468.000000	1.825285
469.000000	1.836694
470.000000	1.848834
471.000000	1.861888
472.000000	1.875865
473.000000	1.890452
474.000000	1.906057
475.000000	1.922527
476.000000	1.940044
477.000000	1.959007
478.000000	1.979958
479.000000	2.003490
480.000000	2.030690
481.000000	2.062266
482.000000	2.099330
483.000000	2.143638
484.000000	2.196751
485.000000	2.260047
486.000000	2.334730
487.000000	2.422068
488.000000	2.522161
489.000000	2.634971
490.000000	2.760245
491.000000	2.897064
492.000000	3.045138
493.000000	3.202238
494.000000	3.365985
495.000000	3.533806
496.000000	3.703221
497.000000	3.872631
498.000000	4.040167
499.000000	4.204651
500.000000	4.364820
501.000000	4.519838
502.000000	4.667680
503.000000	4.808807
504.000000	4.943231
505.000000	5.070823
506.000000	5.192107
507.000000	5.306308
508.000000	5.414502
509.000000	5.515918
510.000000	5.610815
511.000000	5.699097
512.000000	5.780057
513.000000	5.853538
514.000000	5.919113
515.000000	5.976602
516.000000	6.025727
517.000000	6.066196
518.000000	6.097434
519.000000	6.119269
520.000000	6.130620
521.000000	6.131795
522.000000	6.123348
523.000000	6.104564
524.000000	6.075285
525.000000	6.035951
526.000000	5.987189
527.000000	5.929474
528.000000	5.862714
529.000000	5.787588
530.000000	5.705907
531.000000	5.619943
532.000000	5.532112
533.000000	5.445063
534.000000	5.361585
535.000000	5.284071
536.000000	5.214771
537.000000	5.155920
538.000000	5.110205
539.000000	5.077640
540.000000	5.058127
541.000000	5.049124
542.000000	5.047587
543.000000	5.050725
544.000000	5.053768
545.000000	5.052373
546.000000	5.042770
547.000000	5.020496
548.000000	4.982501
549.000000	4.928496
550.000000	4.857772
551.000000	4.772228
552.000000	4.674954
553.000000	4.569428
554.000000	4.461210
555.000000	4.355953
556.000000	4.258157
557.000000	4.174065
558.000000	4.106191
559.000000	4.057081
560.000000	4.017566
561.000000	3.996522
562.000000	3.992703
563.000000	4.003438
564.000000	4.023821
565.000000	4.049009
566.000000	4.074390
567.000000	4.095603
568.000000	4.108619
569.000000	4.110040
570.000000	4.108899
571.000000	4.094774
572.000000	4.067271
573.000000	4.027534
574.000000	3.979175
575.000000	3.925608
576.000000	3.870234
577.000000	3.815639
578.000000	3.766657
579.000000	3.726688
580.000000	3.696862
581.000000	3.678695
582.000000	3.674166
583.000000	3.682573
584.000000	3.700960
585.000000	3.727619
586.000000	3.760193
587.000000	3.795779
588.000000	3.830169
589.000000	3.860851
590.000000	3.885049
591.000000	3.901556
592.000000	3.907891
593.000000	3.903130
594.000000	3.889324
595.000000	3.866968
596.000000	3.837785
597.000000	3.803396
598.000000	3.767889
599.000000	3.732310
600.000000	3.700441
601.000000	3.672982
602.000000	3.653300
603.000000	3.642361
604.000000	3.640484
605.000000	3.647581
606.000000	3.661833
607.000000	3.683594
608.000000	3.709830
609.000000	3.739258
610.000000	3.770047
611.000000	3.800128
612.000000	3.826817
613.000000	3.848916
614.000000	3.864517
615.000000	3.873432
616.000000	3.876013
617.000000	3.872089
618.000000	3.862455
619.000000	3.848180
620.000000	3.829933
621.000000	3.810801
622.000000	3.791979
623.000000	3.774717
624.000000	3.760361
625.000000	3.750936
626.000000	3.747229
627.000000	3.750099
628.000000	3.758404
629.000000	3.772837
630.000000	3.793054
631.000000	3.817603
632.000000	3.844904
633.000000	3.873637
634.000000	3.904787
635.000000	3.935029
636.000000	3.963191
637.000000	3.987857
638.000000	4.009478
639.000000	4.027019
640.000000	4.040816
641.000000	4.049708
642.000000	4.054908
643.000000	4.056935
644.000000	4.055940
645.000000	4.052872
646.000000	4.049513
647.000000	4.047260
648.000000	4.046465
649.000000	4.048089
650.000000	4.051447
651.000000	4.059637
652.000000	4.071981
653.000000	4.088975
654.000000	4.110132
655.000000	4.134778
656.000000	4.163153
657.000000	4.193719
658.000000	4.226054
659.000000	4.259236
660.000000	4.293572
661.000000	4.326538
662.000000	4.358158
663.000000	4.388021
664.000000	4.415551
665.000000	4.440977
666.000000	4.462780
667.000000	4.481699
668.000000	4.498604
669.000000	4.513321
670.000000	4.526253
671.000000	4.537148
672.000000	4.546934
673.000000	4.556730
674.000000	4.566598
675.000000	4.577578
676.000000	4.590535
677.000000	4.604608
678.000000	4.621109
679.000000	4.640030
680.000000	4.660268
681.000000	4.684548
682.000000	4.712121
683.000000	4.741421
684.000000	4.772760
685.000000	4.805632
686.000000	4.839323
687.000000	4.874630
688.000000	4.910050
689.000000	4.944603
690.000000	4.979796
691.000000	5.013986
692.000000	5.045663
693.000000	5.076571
694.000000	5.106228
695.000000	5.134307
696.000000	5.160710
697.000000	5.185039
698.000000	5.207749
699.000000	5.230384
700.000000	5.252243
701.000000	5.272404
702.000000	5.292196
703.000000	5.311834
704.000000	5.331651
705.000000	5.352029
706.000000	5.373681
707.000000	5.397393
708.000000	5.422396
709.000000	5.449230
710.000000	5.477079
711.000000	5.507670
712.000000	5.541179
713.000000	5.576391
714.000000	5.612193
715.000000	5.649343
716.000000	5.687984
717.000000	5.726850
718.000000	5.765173
719.000000	5.803123
720.000000	5.842607
721.000000	5.880430
722.000000	5.915539
723.000000	5.949332
724.000000	5.982706
725.000000	6.013604
726.000000	6.043208
727.000000	6.071491
728.000000	6.099667
729.000000	6.127247
730.000000	6.152191
731.000000	6.176548
732.000000	6.201220
733.000000	6.225532
734.000000	6.250751
735.000000	6.277365
736.000000	6.303983
737.000000	6.331613
738.000000	6.360328
739.000000	6.389715
740.000000	6.420006
741.000000	6.452383
742.000000	6.487988
743.000000	6.525879
744.000000	6.564153
745.000000	6.603574
746.000000	6.644276
747.000000	6.685121
748.000000	6.726028
749.000000	6.767549
750.000000	6.809303
751.000000	6.850649
752.000000	6.890074
753.000000	6.927786
754.000000	6.964075
755.000000	7.001412
756.000000	7.038921
757.000000	7.074675
758.000000	7.109488
759.000000	7.143527
760.000000	7.177364
761.000000	7.210970
762.000000	7.244024
763.000000	7.276809
764.000000	7.311670
765.000000	7.346287
766.000000	7.379189
767.000000	7.412840
768.000000	7.448678
769.000000	7.485819
770.000000	7.524503
771.000000	7.565661
772.000000	7.609959
773.000000	7.655501
774.000000	7.702816
775.000000	7.750919
776.000000	7.801964
777.000000	7.856393
778.000000	7.911041
779.000000	7.967051
780.000000	8.024909
781.000000	8.082824
782.000000	8.141475
783.000000	8.203827
784.000000	8.268339
785.000000	8.332133
786.000000	8.395629
787.000000	8.459699
788.000000	8.526471
789.000000	8.594551
790.000000	8.663185
791.000000	8.731862
792.000000	8.803132
793.000000	8.875550
794.000000	8.946425
795.000000	9.020071
796.000000	9.094553
797.000000	9.171477
798.000000	9.247956
799.000000	9.325733
800.000000	9.404047
801.000000	9.486020
802.000000	9.567559
803.000000	9.647617
804.000000	9.729493
805.000000	9.812858
806.000000	9.901384
807.000000	9.989190
808.000000	10.079395
809.000000	10.170730
810.000000	10.266794
811.000000	10.363925
812.000000	10.461518
813.000000	10.563388
814.000000	10.664205
815.000000	10.766827
816.000000	10.868344
817.000000	10.971865
818.000000	11.073977
819.000000	11.179359
820.000000	11.281116
821.000000	11.379345
822.000000	11.480512
823.000000	11.575901
824.000000	11.668299
825.000000	11.760235
826.000000	11.849689
827.000000	11.937466
828.000000	12.026643
829.000000	12.111998
830.000000	12.197713
831.000000	12.278126
832.000000	12.362166
833.000000	12.447919
834.000000	12.538260
835.000000	12.617299
836.000000	12.696067
837.000000	12.772343
838.000000	12.848747
839.000000	12.918780
840.000000	12.983563
841.000000	13.059113
842.000000	13.127934
843.000000	13.195915
844.000000	13.259998
845.000000	13.328169
846.000000	13.398248
847.000000	13.460662
848.000000	13.526296
849.000000	13.589619
850.000000	13.661634
851.000000	13.713962
852.000000	13.774035
853.000000	13.825308
854.000000	13.872372
855.000000	13.931845
856.000000	13.985762
857.000000	14.048833
858.000000	14.256825
859.000000	14.337849
860.000000	14.411439
861.000000	14.496116
862.000000	14.567917
863.000000	14.647626
864.000000	14.730913
865.000000	14.802441
866.000000	14.874272
867.000000	14.941987
868.000000	14.853160
869.000000	14.892243
870.000000	14.927857
871.000000	14.961043
872.000000	14.990243
873.000000	15.014957
874.000000	15.036063
875.000000	15.053930
876.000000	15.069140
877.000000	15.082230
878.000000	15.094877
879.000000	15.107127
880.000000	15.118503
881.000000	15.129023
882.000000	15.139377
883.000000	15.149237
884.000000	15.161053
885.000000	15.171527
886.000000	15.181367
887.000000	15.190457
888.000000	15.199603
889.000000	15.206877
890.000000	15.214437
891.000000	15.222710
892.000000	15.230273
893.000000	15.236000
894.000000	15.238970
895.000000	15.243393
896.000000	15.246670
897.000000	15.250443
898.000000	15.253927
899.000000	15.258710
900.000000	15.262957
901.000000	15.264467
902.000000	15.268737
903.000000	15.272760
904.000000	15.276093
905.000000	15.279093
906.000000	15.282257
907.000000	15.283743
908.000000	15.285067
909.000000	15.285523
910.000000	15.283317
911.000000	15.282393
912.000000	15.278900
913.000000	15.275437
914.000000	15.272753
915.000000	15.267280
916.000000	15.261597
917.000000	15.255510
918.000000	15.247283
919.000000	15.236750
920.000000	15.228817
921.000000	15.219397
922.000000	15.208297
923.000000	15.196083
924.000000	15.182690
925.000000	15.169513
926.000000	15.154377
927.000000	15.138390
928.000000	15.122287
929.000000	15.107063
930.000000	15.088833
931.000000	15.069457
932.000000	15.051807
933.000000	15.035297
934.000000	15.019347
935.000000	15.005210
936.000000	14.992563
937.000000	14.980813
938.000000	14.968300
939.000000	14.955233
940.000000	14.941713
941.000000	14.928963
942.000000	14.914170
943.000000	14.897987
944.000000	14.880847
945.000000	14.862670
946.000000	14.845300
947.000000	14.826647
948.000000	14.809053
949.000000	14.793057
950.000000	14.778670
951.000000	14.764427
952.000000	14.752003
953.000000	14.743320
954.000000	14.732733
955.000000	14.722677
956.000000	14.712563
957.000000	14.704787
958.000000	14.698543
959.000000	14.690580
960.000000	14.683143
961.000000	14.677127
962.000000	14.671193
963.000000	14.663423
964.000000	14.656410
965.000000	14.650087
966.000000	14.644190
967.000000	14.637213
968.000000	14.630187
969.000000	14.625317
970.000000	14.620800
971.000000	14.616427
972.000000	14.612913
973.000000	14.609703
974.000000	14.608603
975.000000	14.607657
976.000000	14.606230
977.000000	14.606627
978.000000	14.606563
979.000000	14.605813
980.000000	14.606150
981.000000	14.607310
982.000000	14.609977
983.000000	14.612563
984.000000	14.614693
985.000000	14.618230
986.000000	14.622880
987.000000	14.627467
988.000000	14.632397
989.000000	14.638957
990.000000	14.644800
991.000000	14.651117
992.000000	14.656443
993.000000	14.661563
994.000000	14.667103
995.000000	14.672660
996.000000	14.678987
997.000000	14.685290
998.000000	14.692417
999.000000	14.699360
1000.000000	14.706997
1001.000000	14.714260
1002.000000	14.722673
1003.000000	14.733650
1004.000000	14.745023
1005.000000	14.755300
1006.000000	14.764450
1007.000000	14.773167
1008.000000	14.782253
1009.000000	14.793393
1010.000000	14.805643
1011.000000	14.817870
1012.000000	14.829600
1013.000000	14.840947
1014.000000	14.852277
1015.000000	14.864667
1016.000000	14.877563
1017.000000	14.892330
1018.000000	14.907697
1019.000000	14.920853
1020.000000	14.934600
1021.000000	14.949500
1022.000000	14.963360
1023.000000	14.976343
1024.000000	14.990650
1025.000000	15.004703
1026.000000	15.017570
1027.000000	15.030000
1028.000000	15.042763
1029.000000	15.055657
1030.000000	15.067100
1031.000000	15.079130
1032.000000	15.093800
1033.000000	15.110090
1034.000000	15.125807
1035.000000	15.141360
1036.000000	15.158630
1037.000000	15.175817
1038.000000	15.192523
1039.000000	15.209490
1040.000000	15.226063
1041.000000	15.241030
1042.000000	15.254290
1043.000000	15.267950
1044.000000	15.283033
1045.000000	15.298120
1046.000000	15.311883
1047.000000	15.325597
1048.000000	15.339320
1049.000000	15.353423
1050.000000	15.369650
1051.000000	15.386957
1052.000000	15.405417
1053.000000	15.423323
1054.000000	15.438907
1055.000000	15.454243
1056.000000	15.470713
1057.000000	15.487170
1058.000000	15.503590
1059.000000	15.519963
1060.000000	15.535410
1061.000000	15.550450
1062.000000	15.563947
1063.000000	15.577700
1064.000000	15.592377
1065.000000	15.607613
1066.000000	15.621857
1067.000000	15.635897
1068.000000	15.650850
1069.000000	15.667010
1070.000000	15.683007
1071.000000	15.698250
1072.000000	15.713160
1073.000000	15.727637
1074.000000	15.743977
1075.000000	15.760900
1076.000000	15.778283
1077.000000	15.794947
1078.000000	15.810217
1079.000000	15.824887
1080.000000	15.838780
1081.000000	15.852873
1082.000000	15.868350
1083.000000	15.883323
1084.000000	15.896483
1085.000000	15.909287
1086.000000	15.921977
1087.000000	15.934720
1088.000000	15.948347
1089.000000	15.958793
1090.000000	15.970137
1091.000000	15.981800
1092.000000	15.992590
1093.000000	16.003780
1094.000000	16.014540
1095.000000	16.024940
1096.000000	16.036703
1097.000000	16.049223
1098.000000	16.060027
1099.000000	16.072647
1100.000000	16.084103
1101.000000	16.095093
1102.000000	16.106460
1103.000000	16.117673
1104.000000	16.129277
1105.000000	16.139413
1106.000000	16.148060
1107.000000	16.157023
1108.000000	16.166677
1109.000000	16.176220
1110.000000	16.185133
1111.000000	16.194253
1112.000000	16.203190
1113.000000	16.211253
1114.000000	16.218090
1115.000000	16.227103
1116.000000	16.235743
1117.000000	16.243260
1118.000000	16.249233
1119.000000	16.256620
1120.000000	16.264923
1121.000000	16.272780
1122.000000	16.280880
1123.000000	16.288623
1124.000000	16.298233
1125.000000	16.304810
1126.000000	16.311533
1127.000000	16.318280
1128.000000	16.325373
1129.000000	16.331263
1130.000000	16.336977
1131.000000	16.341370
1132.000000	16.341693
1133.000000	16.338710
1134.000000	16.334273
1135.000000	16.335540
1136.000000	16.339340
1137.000000	16.340110
1138.000000	16.337180
1139.000000	16.331780
1140.000000	16.326280
1141.000000	16.320547
1142.000000	16.318007
1143.000000	16.318157
1144.000000	16.317090
1145.000000	16.311387
1146.000000	16.303997
1147.000000	16.299550
1148.000000	16.297490
1149.000000	16.297563
1150.000000	16.295877
1151.000000	16.295800
1152.000000	16.295140
1153.000000	16.295173
1154.000000	16.295160
1155.000000	16.295080
1156.000000	16.292630
1157.000000	16.289273
1158.000000	16.286117
1159.000000	16.281787
1160.000000	16.278347
1161.000000	16.272413
1162.000000	16.266323
1163.000000	16.255913
1164.000000	16.244567
1165.000000	16.231430
1166.000000	16.216647
1167.000000	16.200730
1168.000000	16.184447
1169.000000	16.169197
1170.000000	16.152450
1171.000000	16.136523
1172.000000	16.120263
1173.000000	16.107120
1174.000000	16.095447
1175.000000	16.085240
1176.000000	16.076827
1177.000000	16.070300
1178.000000	16.062297
1179.000000	16.053347
1180.000000	16.047837
1181.000000	16.041963
1182.000000	16.036410
1183.000000	16.031473
1184.000000	16.027050
1185.000000	16.024683
1186.000000	16.023517
1187.000000	16.022023
1188.000000	16.021293
1189.000000	16.020820
1190.000000	16.019937
1191.000000	16.022270
1192.000000	16.025063
1193.000000	16.028897
1194.000000	16.033487
1195.000000	16.037600
1196.000000	16.043350
1197.000000	16.050647
1198.000000	16.063453
1199.000000	16.079577
1200.000000	16.095433
1201.000000	16.109533
1202.000000	16.124077
1203.000000	16.138697
1204.000000	16.152973
1205.000000	16.167680
1206.000000	16.181477
1207.000000	16.194230
1208.000000	16.206350
1209.000000	16.217120
1210.000000	16.227390
1211.000000	16.240100
1212.000000	16.253440
1213.000000	16.266043
1214.000000	16.279003
1215.000000	16.292340
1216.000000	16.305783
1217.000000	16.319340
1218.000000	16.332227
1219.000000	16.344213
1220.000000	16.357837
1221.000000	16.367903
1222.000000	16.377523
1223.000000	16.386350
1224.000000	16.395413
1225.000000	16.402463
1226.000000	16.409630
1227.000000	16.415317
1228.000000	16.418633
1229.000000	16.420943
1230.000000	16.423090
1231.000000	16.427470
1232.000000	16.431387
1233.000000	16.435423
1234.000000	16.437837
1235.000000	16.439277
1236.000000	16.439803
1237.000000	16.440547
1238.000000	16.441170
1239.000000	16.443790
1240.000000	16.445397
1241.000000	16.445880
1242.000000	16.445983
1243.000000	16.446340
1244.000000	16.447460
1245.000000	16.451573
1246.000000	16.455727
1247.000000	16.460743
1248.000000	16.468387
1249.000000	16.476417
1250.000000	16.484830
1251.000000	16.495300
1252.000000	16.506890
1253.000000	16.519343
1254.000000	16.532243
1255.000000	16.543943
1256.000000	16.556653
1257.000000	16.570507
1258.000000	16.583510
1259.000000	16.596647
1260.000000	16.610313
1261.000000	16.622320
1262.000000	16.634403
1263.000000	16.645797
1264.000000	16.657010
1265.000000	16.667740
1266.000000	16.677407
1267.000000	16.684907
1268.000000	16.691317
1269.000000	16.696777
1270.000000	16.700917
1271.000000	16.703800
1272.000000	16.706140
1273.000000	16.707923
1274.000000	16.709220
1275.000000	16.711060
1276.000000	16.711493
1277.000000	16.712630
1278.000000	16.715257
1279.000000	16.716537
1280.000000	16.717187
1281.000000	16.718847
1282.000000	16.719717
1283.000000	16.722103
1284.000000	16.724623
1285.000000	16.726013
1286.000000	16.729843
1287.000000	16.734547
1288.000000	16.738790
1289.000000	16.744663
1290.000000	16.751667
1291.000000	16.758793
1292.000000	16.766927
1293.000000	16.775510
1294.000000	16.784397
1295.000000	16.793933
1296.000000	16.802563
1297.000000	16.811247
1298.000000	16.820067
1299.000000	16.828430
1300.000000	16.836500
1301.000000	16.844377
1302.000000	16.850783
1303.000000	16.855290
1304.000000	16.858390
1305.000000	16.861587
1306.000000	16.864960
1307.000000	16.867503
1308.000000	16.869430
1309.000000	16.869687
1310.000000	16.869410
1311.000000	16.869333
1312.000000	16.869300
1313.000000	16.870090
1314.000000	16.872543
1315.000000	16.873630
1316.000000	16.871780
1317.000000	16.868297
1318.000000	16.863567
1319.000000	16.859217
1320.000000	16.854330
1321.000000	16.847397
1322.000000	16.840263
1323.000000	16.831787
1324.000000	16.821087
1325.000000	16.810930
1326.000000	16.801067
1327.000000	16.789990
1328.000000	16.778230
1329.000000	16.766160
1330.000000	16.753487
1331.000000	16.740520
1332.000000	16.726660
1333.000000	16.712470
1334.000000	16.697973
1335.000000	16.683600
1336.000000	16.670150
1337.000000	16.656417
1338.000000	16.640893
1339.000000	16.624510
1340.000000	16.607657
1341.000000	16.591143
1342.000000	16.574033
1343.000000	16.555733
1344.000000	16.537430
1345.000000	16.516323
1346.000000	16.492073
1347.000000	16.468233
1348.000000	16.446857
1349.000000	16.425547
1350.000000	16.401433
1351.000000	16.374843
1352.000000	16.347677
1353.000000	16.317427
1354.000000	16.287193
1355.000000	16.262690
1356.000000	16.244830
1357.000000	16.224750
1358.000000	16.200163
1359.000000	16.173580
1360.000000	16.144583
1361.000000	16.120127
1362.000000	16.110507
1363.000000	16.107233
1364.000000	16.096057
1365.000000	16.080923
1366.000000	16.061817
1367.000000	16.037677
1368.000000	16.016153
1369.000000	15.996523
1370.000000	15.973697
1371.000000	15.943393
1372.000000	15.896290
1373.000000	15.837567
1374.000000	15.769957
1375.000000	15.686600
1376.000000	15.590847
1377.000000	15.486127
1378.000000	15.368290
1379.000000	15.232307
1380.000000	15.092017
1381.000000	14.951307
1382.000000	14.819523
1383.000000	14.699813
1384.000000	14.601407
1385.000000	14.515353
1386.000000	14.437883
1387.000000	14.374680
1388.000000	14.330737
1389.000000	14.312543
1390.000000	14.306560
1391.000000	14.299137
1392.000000	14.293077
1393.000000	14.291197
1394.000000	14.285817
1395.000000	14.283637
1396.000000	14.301933
1397.000000	14.330447
1398.000000	14.343880
1399.000000	14.338287
1400.000000	14.339403
1401.000000	14.367647
1402.000000	14.388997
1403.000000	14.389197
1404.000000	14.381513
1405.000000	14.379963
1406.000000	14.363157
1407.000000	14.335150
1408.000000	14.313457
1409.000000	14.302850
1410.000000	14.287933
1411.000000	14.249307
1412.000000	14.202373
1413.000000	14.163643
1414.000000	14.133220
1415.000000	14.100157
1416.000000	14.062073
1417.000000	14.017537
1418.000000	13.972670
1419.000000	13.932407
1420.000000	13.892460
1421.000000	13.851133
1422.000000	13.811700
1423.000000	13.776763
1424.000000	13.741167
1425.000000	13.701643
1426.000000	13.661910
1427.000000	13.629637
1428.000000	13.600733
1429.000000	13.567403
1430.000000	13.529650
1431.000000	13.495750
1432.000000	13.470473
1433.000000	13.446227
1434.000000	13.421643
1435.000000	13.395847
1436.000000	13.372323
1437.000000	13.350307
1438.000000	13.330627
1439.000000	13.312223
1440.000000	13.294783
1441.000000	13.279010
1442.000000	13.261163
1443.000000	13.244260
1444.000000	13.223643
1445.000000	13.206353
1446.000000	13.193900
1447.000000	13.184147
1448.000000	13.168437
1449.000000	13.149937
1450.000000	13.134207
1451.000000	13.121833
1452.000000	13.112143
1453.000000	13.099277
1454.000000	13.089007
1455.000000	13.076543
1456.000000	13.062783
1457.000000	13.048203
1458.000000	13.036553
1459.000000	13.025480
1460.000000	13.014113
1461.000000	13.000550
1462.000000	12.982930
1463.000000	12.968147
1464.000000	12.953737
1465.000000	12.940663
1466.000000	12.926793
1467.000000	12.911910
1468.000000	12.896473
1469.000000	12.881237
1470.000000	12.866417
1471.000000	12.853103
1472.000000	12.842630
1473.000000	12.831667
1474.000000	12.820387
1475.000000	12.807867
1476.000000	12.794063
1477.000000	12.780920
1478.000000	12.771390
1479.000000	12.763920
1480.000000	12.754470
1481.000000	12.743887
1482.000000	12.733070
1483.000000	12.721660
1484.000000	12.711853
1485.000000	12.703810
1486.000000	12.695470
1487.000000	12.688340
1488.000000	12.679750
1489.000000	12.670467
1490.000000	12.662607
1491.000000	12.653673
1492.000000	12.645250
1493.000000	12.638580
1494.000000	12.631637
1495.000000	12.624827
1496.000000	12.619977
1497.000000	12.615133
1498.000000	12.612393
1499.000000	12.611050
1500.000000	12.610387
1501.000000	12.611793
1502.000000	12.614290
1503.000000	12.618093
1504.000000	12.623913
1505.000000	12.631630
1506.000000	12.641083
1507.000000	12.651140
1508.000000	12.662243
1509.000000	12.674737
1510.000000	12.688743
1511.000000	12.703270
1512.000000	12.717910
1513.000000	12.734570
1514.000000	12.751523
1515.000000	12.768587
1516.000000	12.786110
1517.000000	12.804207
1518.000000	12.821607
1519.000000	12.839330
1520.000000	12.856623
1521.000000	12.874243
1522.000000	12.893210
1523.000000	12.910313
1524.000000	12.927397
1525.000000	12.944397
1526.000000	12.959800
1527.000000	12.975563
1528.000000	12.992067
1529.000000	13.007953
1530.000000	13.023983
1531.000000	13.039097
1532.000000	13.052507
1533.000000	13.066027
1534.000000	13.079247
1535.000000	13.092827
1536.000000	13.106870
1537.000000	13.120167
1538.000000	13.131737
1539.000000	13.142820
1540.000000	13.153537
1541.000000	13.164857
1542.000000	13.175260
1543.000000	13.186053
1544.000000	13.197480
1545.000000	13.208177
1546.000000	13.218553
1547.000000	13.228867
1548.000000	13.241417
1549.000000	13.255927
1550.000000	13.270120
1551.000000	13.284490
1552.000000	13.300637
1553.000000	13.316390
1554.000000	13.331787
1555.000000	13.347097
1556.000000	13.362380
1557.000000	13.377047
1558.000000	13.389583
1559.000000	13.400300
1560.000000	13.411557
1561.000000	13.420590
1562.000000	13.427587
1563.000000	13.434133
1564.000000	13.438887
1565.000000	13.443030
1566.000000	13.446563
1567.000000	13.448890
1568.000000	13.450203
1569.000000	13.450147
1570.000000	13.449250
1571.000000	13.448660
1572.000000	13.447487
1573.000000	13.447240
1574.000000	13.447743
1575.000000	13.446667
1576.000000	13.445573
1577.000000	13.446513
1578.000000	13.448923
1579.000000	13.451743
1580.000000	13.455123
1581.000000	13.459957
1582.000000	13.466507
1583.000000	13.472947
1584.000000	13.479813
1585.000000	13.488430
1586.000000	13.497667
1587.000000	13.506650
1588.000000	13.515597
1589.000000	13.525760
1590.000000	13.535883
1591.000000	13.545907
1592.000000	13.556663
1593.000000	13.567823
1594.000000	13.579970
1595.000000	13.592023
1596.000000	13.603457
1597.000000	13.615413
1598.000000	13.628227
1599.000000	13.641337
1600.000000	13.654337
1601.000000	13.667693
1602.000000	13.680423
1603.000000	13.693433
1604.000000	13.706107
1605.000000	13.719400
1606.000000	13.734097
1607.000000	13.747810
1608.000000	13.760577
1609.000000	13.773180
1610.000000	13.786393
1611.000000	13.798813
1612.000000	13.809593
1613.000000	13.819157
1614.000000	13.827773
1615.000000	13.836240
1616.000000	13.843947
1617.000000	13.851580
1618.000000	13.859597
1619.000000	13.866317
1620.000000	13.872210
1621.000000	13.878077
1622.000000	13.884947
1623.000000	13.891750
1624.000000	13.899157
1625.000000	13.906347
1626.000000	13.914150
1627.000000	13.922063
1628.000000	13.928957
1629.000000	13.937047
1630.000000	13.946640
1631.000000	13.956143
1632.000000	13.965487
1633.000000	13.975687
1634.000000	13.985807
1635.000000	13.995117
1636.000000	14.003463
1637.000000	14.011573
1638.000000	14.019890
1639.000000	14.028533
1640.000000	14.034507
1641.000000	14.040327
1642.000000	14.044980
1643.000000	14.049213
1644.000000	14.053130
1645.000000	14.056947
1646.000000	14.061517
1647.000000	14.066010
1648.000000	14.070813
1649.000000	14.073790
1650.000000	14.077290
1651.000000	14.079927
1652.000000	14.082233
1653.000000	14.082527
1654.000000	14.080947
1655.000000	14.078487
1656.000000	14.073380
1657.000000	14.066733
1658.000000	14.059267
1659.000000	14.050200
1660.000000	14.038913
1661.000000	14.024593
1662.000000	14.009513
1663.000000	13.992633
1664.000000	13.974050
1665.000000	13.952250
1666.000000	13.930267
1667.000000	13.906543
1668.000000	13.875613
1669.000000	13.842100
1670.000000	13.807110
1671.000000	13.771610
1672.000000	13.733733
1673.000000	13.696967
1674.000000	13.659000
1675.000000	13.620567
1676.000000	13.580457
1677.000000	13.540793
1678.000000	13.505087
1679.000000	13.467370
1680.000000	13.428797
1681.000000	13.390573
1682.000000	13.353267
1683.000000	13.312153
1684.000000	13.270073
1685.000000	13.227737
1686.000000	13.185953
1687.000000	13.145420
1688.000000	13.106300
1689.000000	13.073250
1690.000000	13.044537
1691.000000	13.020897
1692.000000	13.001830
1693.000000	12.989167
1694.000000	12.984197
1695.000000	12.984577
1696.000000	12.988080
1697.000000	12.993567
1698.000000	13.000393
1699.000000	13.009277
1700.000000	13.017893
1701.000000	13.025287
1702.000000	13.031563
1703.000000	13.036843
1704.000000	13.038777
1705.000000	13.040180
1706.000000	13.039060
1707.000000	13.036853
1708.000000	13.032823
1709.000000	13.024873
1710.000000	13.015270
1711.000000	13.003070
1712.000000	12.987267
1713.000000	12.967937
1714.000000	12.944340
1715.000000	12.917253
1716.000000	12.887977
1717.000000	12.853343
1718.000000	12.818197
1719.000000	12.781300
1720.000000	12.741910
1721.000000	12.702067
1722.000000	12.663710
1723.000000	12.626117
1724.000000	12.593090
1725.000000	12.564797
1726.000000	12.538583
1727.000000	12.521327
1728.000000	12.507570
1729.000000	12.498910
1730.000000	12.497040
1731.000000	12.497360
1732.000000	12.499580
1733.000000	12.505720
1734.000000	12.513460
1735.000000	12.521517
1736.000000	12.532900
1737.000000	12.542960
1738.000000	12.554007
1739.000000	12.565843
1740.000000	12.577120
1741.000000	12.591357
1742.000000	12.607243
1743.000000	12.623877
1744.000000	12.642207
1745.000000	12.660393
1746.000000	12.678207
1747.000000	12.697213
1748.000000	12.715787
1749.000000	12.734100
1750.000000	12.752103
1751.000000	12.768367
1752.000000	12.783940
1753.000000	12.797423
1754.000000	12.806840
1755.000000	12.815423
1756.000000	12.824973
1757.000000	12.831123
1758.000000	12.835233
1759.000000	12.838737
1760.000000	12.842353
1761.000000	12.845147
1762.000000	12.847480
1763.000000	12.850917
1764.000000	12.856390
1765.000000	12.861510
1766.000000	12.867117
1767.000000	12.874430
1768.000000	12.883257
1769.000000	12.892210
1770.000000	12.900733
1771.000000	12.910640
1772.000000	12.921617
1773.000000	12.932690
1774.000000	12.942720
1775.000000	12.953207
1776.000000	12.962733
1777.000000	12.973177
1778.000000	12.984103
1779.000000	12.994797
1780.000000	13.006260
1781.000000	13.017730
1782.000000	13.028423
1783.000000	13.037043
1784.000000	13.046183
1785.000000	13.057003
1786.000000	13.066890
1787.000000	13.075623
1788.000000	13.082367
1789.000000	13.086963
1790.000000	13.090410
1791.000000	13.092807
1792.000000	13.093597
1793.000000	13.095193
1794.000000	13.097950
1795.000000	13.098413
1796.000000	13.099413
1797.000000	13.099773
1798.000000	13.099793
1799.000000	13.099353
1800.000000	13.099353
1801.000000	13.101630
1802.000000	13.107400
1803.000000	13.113893
1804.000000	13.116230
1805.000000	13.116003
1806.000000	13.116640
1807.000000	13.120763
1808.000000	13.127450
1809.000000	13.131893
1810.000000	13.132327
1811.000000	13.132040
1812.000000	13.133137
1813.000000	13.134487
1814.000000	13.136463
1815.000000	13.141467
1816.000000	13.146483
1817.000000	13.146357
1818.000000	13.137930
1819.000000	13.126083
1820.000000	13.121393
1821.000000	13.129040
1822.000000	13.144840
1823.000000	13.157610
1824.000000	13.158473
1825.000000	13.149373
1826.000000	13.136677
1827.000000	13.129157
1828.000000	13.133217
1829.000000	13.146267
1830.000000	13.157167
1831.000000	13.158920
1832.000000	13.148920
1833.000000	13.134287
1834.000000	13.123837
1835.000000	13.118243
1836.000000	13.117540
1837.000000	13.122360
1838.000000	13.129080
1839.000000	13.134020
1840.000000	13.137517
1841.000000	13.142893
1842.000000	13.161620
1843.000000	13.191393
1844.000000	13.217200
1845.000000	13.225750
1846.000000	13.218310
1847.000000	13.207840
1848.000000	13.213523
1849.000000	13.238983
1850.000000	13.263833
1851.000000	13.266460
1852.000000	13.240980
1853.000000	13.209250
1854.000000	13.195250
1855.000000	13.206773
1856.000000	13.231803
1857.000000	13.242740
1858.000000	13.225273
1859.000000	13.193093
1860.000000	13.167997
1861.000000	13.162473
1862.000000	13.169467
1863.000000	13.171470
1864.000000	13.156913
1865.000000	13.125607
1866.000000	13.083953
1867.000000	13.042080
1868.000000	13.001360
1869.000000	12.952863
1870.000000	12.902920
1871.000000	12.858207
1872.000000	12.819363
1873.000000	12.791573
1874.000000	12.777963
1875.000000	12.773270
1876.000000	12.775003
1877.000000	12.778763
1878.000000	12.779327
1879.000000	12.773503
1880.000000	12.750363
1881.000000	12.703107
1882.000000	12.639627
1883.000000	12.564313
1884.000000	12.482490
1885.000000	12.398173
1886.000000	12.309093
1887.000000	12.213803
1888.000000	12.109527
1889.000000	11.998283
1890.000000	11.888083
1891.000000	11.783420
1892.000000	11.684850
1893.000000	11.586627
1894.000000	11.478607
1895.000000	11.358890
1896.000000	11.226263
1897.000000	11.085220
1898.000000	10.945647
1899.000000	10.813833
1900.000000	10.689290
1901.000000	10.564050
1902.000000	10.432127
1903.000000	10.292670
1904.000000	10.155257
1905.000000	10.029633
1906.000000	9.923553
1907.000000	9.831823
1908.000000	9.745913
1909.000000	9.656127
1910.000000	9.554050
1911.000000	9.448330
1912.000000	9.348443
1913.000000	9.262370
1914.000000	9.188493
1915.000000	9.117863
1916.000000	9.041337
1917.000000	8.960890
1918.000000	8.878797
1919.000000	8.802310
1920.000000	8.740433
1921.000000	8.691423
1922.000000	8.648940
1923.000000	8.607217
1924.000000	8.562210
1925.000000	8.511340
1926.000000	8.464710
1927.000000	8.429833
1928.000000	8.404557
1929.000000	8.385627
1930.000000	8.370383
1931.000000	8.353730
1932.000000	8.335547
1933.000000	8.315323
1934.000000	8.300840
1935.000000	8.292470
1936.000000	8.285303
1937.000000	8.277430
1938.000000	8.273363
1939.000000	8.273107
1940.000000	8.272840
1941.000000	8.276503
1942.000000	8.282547
1943.000000	8.291880
1944.000000	8.299797
1945.000000	8.312790
1946.000000	8.328040
1947.000000	8.346860
1948.000000	8.365277
1949.000000	8.382313
1950.000000	8.399307
1951.000000	8.415697
1952.000000	8.433000
1953.000000	8.452253
1954.000000	8.473037
1955.000000	8.494957
1956.000000	8.520147
1957.000000	8.543373
1958.000000	8.565933
1959.000000	8.591277
1960.000000	8.614510
1961.000000	8.637887
1962.000000	8.662147
1963.000000	8.688110
1964.000000	8.714340
1965.000000	8.738983
1966.000000	8.761770
1967.000000	8.782243
1968.000000	8.804863
1969.000000	8.824610
1970.000000	8.844927
1971.000000	8.866660
1972.000000	8.887987
1973.000000	8.906700
1974.000000	8.925513
1975.000000	8.944323
1976.000000	8.964703
1977.000000	8.985673
1978.000000	9.006133
1979.000000	9.027670
1980.000000	9.051557
1981.000000	9.073177
1982.000000	9.095200
1983.000000	9.118847
1984.000000	9.140630
1985.000000	9.162200
1986.000000	9.183220
1987.000000	9.206150
1988.000000	9.228870
1989.000000	9.250063
1990.000000	9.269667
1991.000000	9.289930
1992.000000	9.311197
1993.000000	9.330377
1994.000000	9.351643
1995.000000	9.371740
1996.000000	9.390087
1997.000000	9.408160
1998.000000	9.424897
1999.000000	9.441757
2000.000000	9.458187
2001.000000	9.475237
2002.000000	9.490660
2003.000000	9.505947
2004.000000	9.519010
2005.000000	9.532010
2006.000000	9.545890
2007.000000	9.556313
2008.000000	9.565650
2009.000000	9.572853
2010.000000	9.579457
2011.000000	9.583623
2012.000000	9.585387
2013.000000	9.585477
2014.000000	9.583817
2015.000000	9.581477
2016.000000	9.576833
2017.000000	9.572927
2018.000000	9.568523
2019.000000	9.562190
2020.000000	9.552800
2021.000000	9.543203
2022.000000	9.531733
2023.000000	9.518587
2024.000000	9.504543
2025.000000	9.488920
2026.000000	9.471613
2027.000000	9.451187
2028.000000	9.430027
2029.000000	9.409060
2030.000000	9.386983
2031.000000	9.361877
2032.000000	9.336983
2033.000000	9.310707
2034.000000	9.283583
2035.000000	9.255803
2036.000000	9.225757
2037.000000	9.196800
2038.000000	9.163560
2039.000000	9.128340
2040.000000	9.091780
2041.000000	9.055290
2042.000000	9.016340
2043.000000	8.977880
2044.000000	8.937820
2045.000000	8.897343
2046.000000	8.857837
2047.000000	8.817887
2048.000000	8.779477
2049.000000	8.741530
2050.000000	8.707387
2051.000000	8.674170
2052.000000	8.644800
2053.000000	8.617490
2054.000000	8.594767
2055.000000	8.575187
2056.000000	8.560753
2057.000000	8.549890
2058.000000	8.544557
2059.000000	8.545183
2060.000000	8.549873
2061.000000	8.558587
2062.000000	8.570803
2063.000000	8.587120
2064.000000	8.606740
2065.000000	8.629180
2066.000000	8.652493
2067.000000	8.678063
2068.000000	8.704983
2069.000000	8.732500
2070.000000	8.759327
2071.000000	8.787877
2072.000000	8.816100
2073.000000	8.843123
2074.000000	8.868950
2075.000000	8.894030
2076.000000	8.918627
2077.000000	8.942310
2078.000000	8.963903
2079.000000	8.983607
2080.000000	9.001210
2081.000000	9.016500
2082.000000	9.030767
2083.000000	9.044570
2084.000000	9.055880
2085.000000	9.063750
2086.000000	9.068873
2087.000000	9.071687
2088.000000	9.073747
2089.000000	9.074750
2090.000000	9.075230
2091.000000	9.073980
2092.000000	9.069777
2093.000000	9.063830
2094.000000	9.058397
2095.000000	9.054567
2096.000000	9.050487
2097.000000	9.045063
2098.000000	9.038773
2099.000000	9.031817
2100.000000	9.024980
2101.000000	9.019047
2102.000000	9.013760
2103.000000	9.007787
2104.000000	9.000647
2105.000000	8.991610
2106.000000	8.983013
2107.000000	8.976163
2108.000000	8.969010
2109.000000	8.961747
2110.000000	8.953757
2111.000000	8.944247
2112.000000	8.934900
2113.000000	8.925190
2114.000000	8.914140
2115.000000	8.903247
2116.000000	8.891887
2117.000000	8.879100
2118.000000	8.865863
2119.000000	8.851620
2120.000000	8.836103
2121.000000	8.820553
2122.000000	8.804830
2123.000000	8.787207
2124.000000	8.769790
2125.000000	8.752800
2126.000000	8.734113
2127.000000	8.714347
2128.000000	8.693970
2129.000000	8.673867
2130.000000	8.653853
2131.000000	8.632607
2132.000000	8.608777
2133.000000	8.586300
2134.000000	8.562617
2135.000000	8.536340
2136.000000	8.510030
2137.000000	8.483220
2138.000000	8.454477
2139.000000	8.424770
2140.000000	8.394600
2141.000000	8.364173
2142.000000	8.333897
2143.000000	8.302097
2144.000000	8.270087
2145.000000	8.238507
2146.000000	8.206117
2147.000000	8.173523
2148.000000	8.141580
2149.000000	8.108637
2150.000000	8.075653
2151.000000	8.042947
2152.000000	8.009450
2153.000000	7.976923
2154.000000	7.945140
2155.000000	7.913577
2156.000000	7.883303
2157.000000	7.854833
2158.000000	7.827130
2159.000000	7.800223
2160.000000	7.775263
2161.000000	7.751683
2162.000000	7.730550
2163.000000	7.710583
2164.000000	7.690883
2165.000000	7.672610
2166.000000	7.655593
2167.000000	7.638130
2168.000000	7.620827
2169.000000	7.605697
2170.000000	7.589797
2171.000000	7.574350
2172.000000	7.559320
2173.000000	7.544817
2174.000000	7.530727
2175.000000	7.516107
2176.000000	7.502050
2177.000000	7.487813
2178.000000	7.473430
2179.000000	7.458193
2180.000000	7.442853
2181.000000	7.426540
2182.000000	7.409307
2183.000000	7.389233
2184.000000	7.369027
2185.000000	7.346287
2186.000000	7.319063
2187.000000	7.289303
2188.000000	7.257127
2189.000000	7.220690
2190.000000	7.178883
2191.000000	7.132893
2192.000000	7.081133
2193.000000	7.025717
2194.000000	6.963810
2195.000000	6.896660
2196.000000	6.825920
2197.000000	6.750310
2198.000000	6.670300
2199.000000	6.586517
2200.000000	6.500290
2201.000000	6.412700
2202.000000	6.325183
2203.000000	6.238910
2204.000000	6.154880
2205.000000	6.074727
2206.000000	5.999467
2207.000000	5.930037
2208.000000	5.866763
2209.000000	5.811720
2210.000000	5.767040
2211.000000	5.729517
2212.000000	5.702283
2213.000000	5.684470
2214.000000	5.676520
2215.000000	5.675837
2216.000000	5.682713
2217.000000	5.695903
2218.000000	5.718560
2219.000000	5.747460
2220.000000	5.778353
2221.000000	5.815097
2222.000000	5.853257
2223.000000	5.892467
2224.000000	5.931327
2225.000000	5.972550
2226.000000	6.013063
2227.000000	6.053033
2228.000000	6.090020
2229.000000	6.124023
2230.000000	6.156957
2231.000000	6.186687
2232.000000	6.213427
2233.000000	6.236073
2234.000000	6.256533
2235.000000	6.273833
2236.000000	6.288327
2237.000000	6.300133
2238.000000	6.307837
2239.000000	6.314000
2240.000000	6.317443
2241.000000	6.317447
2242.000000	6.314050
2243.000000	6.309103
2244.000000	6.301520
2245.000000	6.291583
2246.000000	6.279983
2247.000000	6.266890
2248.000000	6.252057
2249.000000	6.234617
2250.000000	6.216743
2251.000000	6.198507
2252.000000	6.180073
2253.000000	6.161383
2254.000000	6.143623
2255.000000	6.125440
2256.000000	6.106463
2257.000000	6.088740
2258.000000	6.071960
2259.000000	6.057030
2260.000000	6.042900
2261.000000	6.029393
2262.000000	6.018117
2263.000000	6.008960
2264.000000	6.002117
2265.000000	5.997303
2266.000000	5.995640
2267.000000	5.995827
2268.000000	5.997930
2269.000000	5.999990
2270.000000	6.004670
2271.000000	6.012007
2272.000000	6.021163
2273.000000	6.029617
2274.000000	6.038683
2275.000000	6.048697
2276.000000	6.058850
2277.000000	6.069827
2278.000000	6.081447
2279.000000	6.093713
2280.000000	6.104160
2281.000000	6.114243
2282.000000	6.123520
2283.000000	6.133737
2284.000000	6.141803
2285.000000	6.150527
2286.000000	6.159367
2287.000000	6.166830
2288.000000	6.173377
2289.000000	6.181180
2290.000000	6.188317
2291.000000	6.194843
2292.000000	6.202533
2293.000000	6.210097
2294.000000	6.217590
2295.000000	6.225663
2296.000000	6.233177
2297.000000	6.239953
2298.000000	6.248283
2299.000000	6.256360
2300.000000	6.265147
2301.000000	6.274527
2302.000000	6.284140
2303.000000	6.294397
2304.000000	6.307677
2305.000000	6.318853
2306.000000	6.331347
2307.000000	6.345207
2308.000000	6.358293
2309.000000	6.371217
2310.000000	6.384200
2311.000000	6.398210
2312.000000	6.412780
2313.000000	6.427027
2314.000000	6.439360
2315.000000	6.452250
2316.000000	6.464017
2317.000000	6.475587
2318.000000	6.486460
2319.000000	6.495777
2320.000000	6.504350
2321.000000	6.510197
2322.000000	6.514587
2323.000000	6.518523
2324.000000	6.520707
2325.000000	6.522107
2326.000000	6.520870
2327.000000	6.516720
2328.000000	6.512757
2329.000000	6.509120
2330.000000	6.505207
2331.000000	6.501003
2332.000000	6.495273
2333.000000	6.488440
2334.000000	6.482657
2335.000000	6.477147
2336.000000	6.472453
2337.000000	6.468747
2338.000000	6.464633
2339.000000	6.460853
2340.000000	6.458503
2341.000000	6.457387
2342.000000	6.457290
2343.000000	6.457353
2344.000000	6.457457
2345.000000	6.458013
2346.000000	6.458607
2347.000000	6.461297
2348.000000	6.465443
2349.000000	6.469057
2350.000000	6.471870
2351.000000	6.475343
2352.000000	6.479637
2353.000000	6.483537
2354.000000	6.486693
2355.000000	6.489853
2356.000000	6.494067
2357.000000	6.497603
2358.000000	6.500247
2359.000000	6.502830
2360.000000	6.505247
2361.000000	6.506500
2362.000000	6.507093
2363.000000	6.507943
2364.000000	6.508880
2365.000000	6.509870
2366.000000	6.510467
2367.000000	6.509780
2368.000000	6.508403
2369.000000	6.508363
2370.000000	6.507970
2371.000000	6.506867
2372.000000	6.506413
2373.000000	6.506987
2374.000000	6.508230
2375.000000	6.509267
2376.000000	6.509180
2377.000000	6.509397
2378.000000	6.511240
2379.000000	6.511603
2380.000000	6.511350
2381.000000	6.512033
2382.000000	6.511850
2383.000000	6.509667
2384.000000	6.506497
2385.000000	6.503640
2386.000000	6.501613
2387.000000	6.498917
2388.000000	6.493253
2389.000000	6.487397
2390.000000	6.481577
2391.000000	6.474353
2392.000000	6.466360
2393.000000	6.458817
2394.000000	6.450317
2395.000000	6.439457
2396.000000	6.427580
2397.000000	6.414650
2398.000000	6.401540
2399.000000	6.387420
2400.000000	6.374053
2401.000000	6.360907
2402.000000	6.346000
2403.000000	6.329610
2404.000000	6.313373
2405.000000	6.296987
2406.000000	6.278853
2407.000000	6.260383
2408.000000	6.241683
2409.000000	6.222803
2410.000000	6.201987
2411.000000	6.177873
2412.000000	6.153930
2413.000000	6.130660
2414.000000	6.105943
2415.000000	6.080660
2416.000000	6.055543
2417.000000	6.027457
2418.000000	5.996267
2419.000000	5.962753
2420.000000	5.926187
2421.000000	5.891117
2422.000000	5.855770
2423.000000	5.818630
2424.000000	5.781523
2425.000000	5.744620
2426.000000	5.707447
2427.000000	5.672630
2428.000000	5.640410
2429.000000	5.609273
2430.000000	5.580263
2431.000000	5.549890
2432.000000	5.518870
2433.000000	5.488117
2434.000000	5.457437
2435.000000	5.424903
2436.000000	5.391630
2437.000000	5.358663
2438.000000	5.325647
2439.000000	5.291760
2440.000000	5.257383
2441.000000	5.225377
2442.000000	5.193147
2443.000000	5.160780
2444.000000	5.127717
2445.000000	5.094733
2446.000000	5.061883
2447.000000	5.029330
2448.000000	4.995057
2449.000000	4.962997
2450.000000	4.931660
2451.000000	4.900460
2452.000000	4.869890
2453.000000	4.838860
2454.000000	4.807387
2455.000000	4.778413
2456.000000	4.750770
2457.000000	4.723757
2458.000000	4.698440
2459.000000	4.672433
2460.000000	4.646953
2461.000000	4.618433
2462.000000	4.591157
2463.000000	4.566580
2464.000000	4.545553
2465.000000	4.522247
2466.000000	4.499650
2467.000000	4.476037
2468.000000	4.452703
2469.000000	4.433293
2470.000000	4.415550
2471.000000	4.401217
2472.000000	4.387607
2473.000000	4.373400
2474.000000	4.356337
2475.000000	4.342093
2476.000000	4.331600
2477.000000	4.322127
2478.000000	4.312523
2479.000000	4.301070
2480.000000	4.290590
2481.000000	4.284367
2482.000000	4.272610
2483.000000	4.266260
2484.000000	4.263577
2485.000000	4.264647
2486.000000	4.259017
2487.000000	4.249773
2488.000000	4.247750
2489.000000	4.250373
2490.000000	4.249007
2491.000000	4.247013
2492.000000	4.249303
2493.000000	4.249277
2494.000000	4.253250
2495.000000	4.246563
2496.000000	4.250093
2497.000000	4.258663
2498.000000	4.263013
2499.000000	4.270130
2500.000000	4.275067
