PE UV       SUBTECH     SPECTRUM    ASCII       PEDS        4.00        
   -1
BIOUCR0004-3.Sample.ASC
24/02/19
12:09:18.00
24/02/19
12:09:18.00
Vinicio Soto Monge
P. cupreomarginata (sin datos) Monteverde(dudoso)
250,000000
1
Lambda 1050
1050L1511233
PerkinElmer UV WinLab 6.3.2.0749 / 2.02.05 Lambda 900 UV/VIS/NIR, Aug  7 2015 09:38:08

0
0
3350/servo 860,8/2
0
0
UV/VIS
1
1
1
DoubleDePol,CommonBeamDepol,RBeamAtt,SBeamAtt,60mm sphere, WB InGaAs Detector
0
0
0
0
Program
Program
3350/servo 860,8/2
3350/0,2 860,8/0,2
3350/0,2 860,8/0,2
0
15.00
 
 
 
0
 
860,8
319,2
860,8
Front
100
on
S:100 R:100
0
0
0
0
 
0
 
 
 
0
 
 
0
0
0
0
0
 
 
 
 
0
0


0
0
#HDR
-1
-1
#GR
nm
%R
1.0
0.0
2500,000000
-1,000000
2251
8
24,970600
1,666300
#DATA

250.000000	nan
251.000000	nan
252.000000	nan
253.000000	nan
254.000000	nan
255.000000	nan
256.000000	nan
257.000000	nan
258.000000	nan
259.000000	2.069467
260.000000	2.065971
261.000000	2.063751
262.000000	2.058722
263.000000	2.054366
264.000000	2.049427
265.000000	2.045526
266.000000	2.040456
267.000000	2.036625
268.000000	2.030649
269.000000	2.025626
270.000000	2.020113
271.000000	2.014107
272.000000	2.008766
273.000000	2.005122
274.000000	2.002424
275.000000	1.998091
276.000000	1.994884
277.000000	1.991673
278.000000	1.989246
279.000000	1.988167
280.000000	1.985603
281.000000	1.984571
282.000000	1.982538
283.000000	1.979320
284.000000	1.975456
285.000000	1.973031
286.000000	1.970915
287.000000	1.966865
288.000000	1.964332
289.000000	1.960449
290.000000	1.957595
291.000000	1.952954
292.000000	1.950604
293.000000	1.947506
294.000000	1.943264
295.000000	1.940643
296.000000	1.938404
297.000000	1.936665
298.000000	1.934693
299.000000	1.933005
300.000000	1.932354
301.000000	1.932079
302.000000	1.928564
303.000000	1.926098
304.000000	1.925481
305.000000	1.924243
306.000000	1.920289
307.000000	1.917551
308.000000	1.915187
309.000000	1.913202
310.000000	1.910052
311.000000	1.908105
312.000000	1.907440
313.000000	1.905319
314.000000	1.903286
315.000000	1.901563
316.000000	1.903085
317.000000	1.919878
318.000000	1.925865
319.000000	1.928849
320.000000	1.939306
321.000000	1.949146
322.000000	1.953623
323.000000	1.964111
324.000000	1.971730
325.000000	1.977085
326.000000	1.978821
327.000000	1.964020
328.000000	1.957203
329.000000	1.957534
330.000000	1.950286
331.000000	1.942047
332.000000	1.944987
333.000000	1.939743
334.000000	1.935762
335.000000	1.931302
336.000000	1.929742
337.000000	1.926365
338.000000	1.925737
339.000000	1.920757
340.000000	1.916247
341.000000	1.912904
342.000000	1.904715
343.000000	1.900246
344.000000	1.894220
345.000000	1.893280
346.000000	1.890528
347.000000	1.890178
348.000000	1.891113
349.000000	1.889123
350.000000	1.890762
351.000000	1.889002
352.000000	1.884901
353.000000	1.884264
354.000000	1.883320
355.000000	1.879188
356.000000	1.878349
357.000000	1.875590
358.000000	1.870124
359.000000	1.867678
360.000000	1.862541
361.000000	1.862492
362.000000	1.863297
363.000000	1.860892
364.000000	1.858333
365.000000	1.857871
366.000000	1.855108
367.000000	1.855374
368.000000	1.855744
369.000000	1.856989
370.000000	1.856787
371.000000	1.852877
372.000000	1.849993
373.000000	1.843073
374.000000	1.839044
375.000000	1.832239
376.000000	1.824973
377.000000	1.802732
378.000000	1.782599
379.000000	1.761764
380.000000	1.742229
381.000000	1.723731
382.000000	1.706104
383.000000	1.693043
384.000000	1.680927
385.000000	1.669808
386.000000	1.660221
387.000000	1.664839
388.000000	1.669391
389.000000	1.674078
390.000000	1.679967
391.000000	1.687204
392.000000	1.694719
393.000000	1.703104
394.000000	1.712618
395.000000	1.722805
396.000000	1.733738
397.000000	1.746552
398.000000	1.760742
399.000000	1.776683
400.000000	1.794097
401.000000	1.813008
402.000000	1.834075
403.000000	1.856994
404.000000	1.882158
405.000000	1.909868
406.000000	1.940830
407.000000	1.973677
408.000000	2.009120
409.000000	2.047525
410.000000	2.089067
411.000000	2.133857
412.000000	2.181461
413.000000	2.232013
414.000000	2.285554
415.000000	2.341929
416.000000	2.400628
417.000000	2.462752
418.000000	2.527266
419.000000	2.593951
420.000000	2.662571
421.000000	2.732454
422.000000	2.804088
423.000000	2.877303
424.000000	2.951345
425.000000	3.026310
426.000000	3.101832
427.000000	3.177214
428.000000	3.253280
429.000000	3.329329
430.000000	3.405373
431.000000	3.480835
432.000000	3.555198
433.000000	3.628940
434.000000	3.702013
435.000000	3.774274
436.000000	3.845488
437.000000	3.915517
438.000000	3.984275
439.000000	4.051730
440.000000	4.117662
441.000000	4.182841
442.000000	4.246871
443.000000	4.309490
444.000000	4.370691
445.000000	4.430429
446.000000	4.489482
447.000000	4.547381
448.000000	4.603541
449.000000	4.658458
450.000000	4.711432
451.000000	4.763277
452.000000	4.814415
453.000000	4.863623
454.000000	4.910986
455.000000	4.956644
456.000000	5.000396
457.000000	5.041815
458.000000	5.081209
459.000000	5.118607
460.000000	5.153678
461.000000	5.185645
462.000000	5.214233
463.000000	5.240347
464.000000	5.264530
465.000000	5.284963
466.000000	5.301483
467.000000	5.315722
468.000000	5.327098
469.000000	5.335296
470.000000	5.340958
471.000000	5.344191
472.000000	5.344932
473.000000	5.343143
474.000000	5.339512
475.000000	5.336545
476.000000	5.333821
477.000000	5.331433
478.000000	5.331545
479.000000	5.335166
480.000000	5.341926
481.000000	5.352234
482.000000	5.368565
483.000000	5.393419
484.000000	5.428207
485.000000	5.472869
486.000000	5.529389
487.000000	5.597656
488.000000	5.676359
489.000000	5.765681
490.000000	5.866606
491.000000	5.978954
492.000000	6.101026
493.000000	6.230177
494.000000	6.364220
495.000000	6.501876
496.000000	6.641892
497.000000	6.784125
498.000000	6.927495
499.000000	7.069843
500.000000	7.211924
501.000000	7.353139
502.000000	7.493267
503.000000	7.632876
504.000000	7.772697
505.000000	7.912728
506.000000	8.051736
507.000000	8.190100
508.000000	8.328892
509.000000	8.469773
510.000000	8.612794
511.000000	8.758782
512.000000	8.906980
513.000000	9.058042
514.000000	9.212343
515.000000	9.370804
516.000000	9.535190
517.000000	9.705982
518.000000	9.883232
519.000000	10.067706
520.000000	10.259563
521.000000	10.460019
522.000000	10.669857
523.000000	10.887893
524.000000	11.114264
525.000000	11.348606
526.000000	11.589944
527.000000	11.838280
528.000000	12.092294
529.000000	12.351236
530.000000	12.613079
531.000000	12.876673
532.000000	13.142246
533.000000	13.408415
534.000000	13.673734
535.000000	13.937909
536.000000	14.200919
537.000000	14.460124
538.000000	14.716632
539.000000	14.967909
540.000000	15.214688
541.000000	15.456645
542.000000	15.692850
543.000000	15.923074
544.000000	16.147079
545.000000	16.364180
546.000000	16.573415
547.000000	16.775710
548.000000	16.970626
549.000000	17.159911
550.000000	17.342337
551.000000	17.516555
552.000000	17.682825
553.000000	17.843277
554.000000	17.996252
555.000000	18.143815
556.000000	18.285520
557.000000	18.421517
558.000000	18.551095
559.000000	18.673801
560.000000	18.743857
561.000000	18.801767
562.000000	18.853960
563.000000	18.899777
564.000000	18.940319
565.000000	18.974019
566.000000	19.000486
567.000000	19.019817
568.000000	19.032942
569.000000	19.040735
570.000000	19.088105
571.000000	19.137276
572.000000	19.180532
573.000000	19.216721
574.000000	19.244511
575.000000	19.264808
576.000000	19.280135
577.000000	19.289502
578.000000	19.293576
579.000000	19.291488
580.000000	19.283729
581.000000	19.269024
582.000000	19.250438
583.000000	19.226922
584.000000	19.202299
585.000000	19.176192
586.000000	19.147232
587.000000	19.117219
588.000000	19.081910
589.000000	19.041651
590.000000	18.997571
591.000000	18.946256
592.000000	18.883926
593.000000	18.814986
594.000000	18.734267
595.000000	18.641821
596.000000	18.537893
597.000000	18.422248
598.000000	18.296323
599.000000	18.161485
600.000000	18.017719
601.000000	17.868446
602.000000	17.717118
603.000000	17.562202
604.000000	17.405729
605.000000	17.247868
606.000000	17.089197
607.000000	16.929489
608.000000	16.769699
609.000000	16.606846
610.000000	16.440411
611.000000	16.271298
612.000000	16.097302
613.000000	15.918346
614.000000	15.737424
615.000000	15.554771
616.000000	15.372948
617.000000	15.194843
618.000000	15.023853
619.000000	14.865589
620.000000	14.725258
621.000000	14.605022
622.000000	14.509479
623.000000	14.439276
624.000000	14.397820
625.000000	14.386016
626.000000	14.403518
627.000000	14.445919
628.000000	14.513763
629.000000	14.601728
630.000000	14.705827
631.000000	14.821487
632.000000	14.946716
633.000000	15.078109
634.000000	15.209688
635.000000	15.341584
636.000000	15.469009
637.000000	15.593176
638.000000	15.711680
639.000000	15.826366
640.000000	15.936977
641.000000	16.044804
642.000000	16.150091
643.000000	16.253720
644.000000	16.357119
645.000000	16.456987
646.000000	16.556007
647.000000	16.652887
648.000000	16.747326
649.000000	16.838173
650.000000	16.922731
651.000000	17.000322
652.000000	17.067808
653.000000	17.126185
654.000000	17.176742
655.000000	17.219544
656.000000	17.255456
657.000000	17.284697
658.000000	17.310227
659.000000	17.331702
660.000000	17.352227
661.000000	17.374154
662.000000	17.399712
663.000000	17.429155
664.000000	17.461862
665.000000	17.500456
666.000000	17.542601
667.000000	17.589340
668.000000	17.638405
669.000000	17.691689
670.000000	17.746142
671.000000	17.798462
672.000000	17.848666
673.000000	17.898704
674.000000	17.945677
675.000000	17.988459
676.000000	18.027924
677.000000	18.064667
678.000000	18.098375
679.000000	18.130243
680.000000	18.161055
681.000000	18.194971
682.000000	18.232597
683.000000	18.272806
684.000000	18.317809
685.000000	18.368649
686.000000	18.427103
687.000000	18.493678
688.000000	18.566136
689.000000	18.646440
690.000000	18.735898
691.000000	18.832440
692.000000	18.933971
693.000000	19.040015
694.000000	19.151339
695.000000	19.268160
696.000000	19.388490
697.000000	19.511446
698.000000	19.638887
699.000000	19.767375
700.000000	19.898086
701.000000	20.030723
702.000000	20.164362
703.000000	20.301226
704.000000	20.440357
705.000000	20.579494
706.000000	20.718449
707.000000	20.857599
708.000000	20.997340
709.000000	21.134743
710.000000	21.269173
711.000000	21.399854
712.000000	21.528512
713.000000	21.650671
714.000000	21.764340
715.000000	21.869903
716.000000	21.967653
717.000000	22.057329
718.000000	22.138714
719.000000	22.214721
720.000000	22.285324
721.000000	22.349697
722.000000	22.406625
723.000000	22.458790
724.000000	22.507585
725.000000	22.553906
726.000000	22.599390
727.000000	22.644057
728.000000	22.686021
729.000000	22.724064
730.000000	22.759307
731.000000	22.793267
732.000000	22.825706
733.000000	22.855397
734.000000	22.884260
735.000000	22.912053
736.000000	22.936644
737.000000	22.958314
738.000000	22.978313
739.000000	22.997474
740.000000	23.016088
741.000000	23.035442
742.000000	23.055559
743.000000	23.076458
744.000000	23.098766
745.000000	23.120988
746.000000	23.142524
747.000000	23.164094
748.000000	23.188041
749.000000	23.213220
750.000000	23.237365
751.000000	23.260278
752.000000	23.282599
753.000000	23.304282
754.000000	23.321388
755.000000	23.337657
756.000000	23.356345
757.000000	23.373791
758.000000	23.388527
759.000000	23.403288
760.000000	23.420894
761.000000	23.439717
762.000000	23.456478
763.000000	23.476037
764.000000	23.499602
765.000000	23.522204
766.000000	23.543497
767.000000	23.567506
768.000000	23.590280
769.000000	23.609359
770.000000	23.625266
771.000000	23.639661
772.000000	23.657228
773.000000	23.671398
774.000000	23.683637
775.000000	23.695263
776.000000	23.704272
777.000000	23.712030
778.000000	23.719118
779.000000	23.727816
780.000000	23.736551
781.000000	23.741979
782.000000	23.744907
783.000000	23.745060
784.000000	23.740466
785.000000	23.733298
786.000000	23.725300
787.000000	23.714556
788.000000	23.703393
789.000000	23.688814
790.000000	23.668603
791.000000	23.639775
792.000000	23.609751
793.000000	23.580431
794.000000	23.547795
795.000000	23.509788
796.000000	23.468638
797.000000	23.421135
798.000000	23.366967
799.000000	23.309707
800.000000	23.251652
801.000000	23.195348
802.000000	23.129560
803.000000	23.055901
804.000000	22.977670
805.000000	22.904337
806.000000	22.825376
807.000000	22.742119
808.000000	22.659472
809.000000	22.576391
810.000000	22.492171
811.000000	22.403005
812.000000	22.312600
813.000000	22.221755
814.000000	22.130116
815.000000	22.031552
816.000000	21.930873
817.000000	21.830895
818.000000	21.727417
819.000000	21.617825
820.000000	21.502095
821.000000	21.382086
822.000000	21.268551
823.000000	21.152758
824.000000	21.034916
825.000000	20.914874
826.000000	20.793048
827.000000	20.675101
828.000000	20.559991
829.000000	20.443097
830.000000	20.323938
831.000000	20.218061
832.000000	20.106287
833.000000	19.996773
834.000000	19.896122
835.000000	19.795690
836.000000	19.704699
837.000000	19.608387
838.000000	19.505877
839.000000	19.416992
840.000000	19.331450
841.000000	19.241214
842.000000	19.157428
843.000000	19.080099
844.000000	18.998339
845.000000	18.917894
846.000000	18.842192
847.000000	18.769007
848.000000	18.709763
849.000000	18.652118
850.000000	18.591291
851.000000	18.542785
852.000000	18.484790
853.000000	18.432563
854.000000	18.384111
855.000000	18.335766
856.000000	18.279198
857.000000	18.229798
858.000000	18.185013
859.000000	18.173998
860.000000	18.173792
861.000000	18.169389
862.000000	18.181569
863.000000	18.193093
864.000000	18.212449
865.000000	18.244634
866.000000	18.286185
867.000000	18.331345
868.000000	18.372993
869.000000	18.379540
870.000000	18.389317
871.000000	18.398730
872.000000	18.404873
873.000000	18.407947
874.000000	18.408700
875.000000	18.406163
876.000000	18.401850
877.000000	18.395747
878.000000	18.388820
879.000000	18.383420
880.000000	18.377413
881.000000	18.371887
882.000000	18.365073
883.000000	18.359360
884.000000	18.354140
885.000000	18.347113
886.000000	18.342517
887.000000	18.336890
888.000000	18.331503
889.000000	18.324007
890.000000	18.317397
891.000000	18.307727
892.000000	18.299233
893.000000	18.290080
894.000000	18.281443
895.000000	18.273483
896.000000	18.261887
897.000000	18.249693
898.000000	18.236087
899.000000	18.221570
900.000000	18.207373
901.000000	18.197943
902.000000	18.187477
903.000000	18.176757
904.000000	18.160203
905.000000	18.146423
906.000000	18.133240
907.000000	18.123087
908.000000	18.112540
909.000000	18.106803
910.000000	18.096510
911.000000	18.082720
912.000000	18.069333
913.000000	18.056740
914.000000	18.047637
915.000000	18.036007
916.000000	18.025300
917.000000	18.013683
918.000000	17.999940
919.000000	17.983053
920.000000	17.967257
921.000000	17.952480
922.000000	17.935793
923.000000	17.918003
924.000000	17.898777
925.000000	17.879030
926.000000	17.856437
927.000000	17.831287
928.000000	17.807227
929.000000	17.780787
930.000000	17.755687
931.000000	17.727760
932.000000	17.700040
933.000000	17.672370
934.000000	17.646847
935.000000	17.621440
936.000000	17.597667
937.000000	17.576137
938.000000	17.554857
939.000000	17.533587
940.000000	17.511607
941.000000	17.491793
942.000000	17.471160
943.000000	17.450257
944.000000	17.428223
945.000000	17.407847
946.000000	17.387777
947.000000	17.366723
948.000000	17.346370
949.000000	17.328540
950.000000	17.311607
951.000000	17.294770
952.000000	17.280520
953.000000	17.267303
954.000000	17.256543
955.000000	17.245620
956.000000	17.236357
957.000000	17.226840
958.000000	17.219303
959.000000	17.211907
960.000000	17.205033
961.000000	17.199740
962.000000	17.194777
963.000000	17.189977
964.000000	17.183603
965.000000	17.178653
966.000000	17.173997
967.000000	17.171343
968.000000	17.167373
969.000000	17.164190
970.000000	17.162323
971.000000	17.160530
972.000000	17.160253
973.000000	17.159480
974.000000	17.159897
975.000000	17.160003
976.000000	17.160107
977.000000	17.160480
978.000000	17.162320
979.000000	17.164367
980.000000	17.167423
981.000000	17.170217
982.000000	17.172910
983.000000	17.177293
984.000000	17.182417
985.000000	17.188187
986.000000	17.193743
987.000000	17.199307
988.000000	17.206450
989.000000	17.213473
990.000000	17.219803
991.000000	17.228373
992.000000	17.236790
993.000000	17.244700
994.000000	17.252003
995.000000	17.259003
996.000000	17.267207
997.000000	17.277430
998.000000	17.286693
999.000000	17.296193
1000.000000	17.306713
1001.000000	17.316813
1002.000000	17.327590
1003.000000	17.338787
1004.000000	17.351043
1005.000000	17.363370
1006.000000	17.375847
1007.000000	17.386017
1008.000000	17.395987
1009.000000	17.407807
1010.000000	17.420003
1011.000000	17.431050
1012.000000	17.442897
1013.000000	17.456187
1014.000000	17.469953
1015.000000	17.484303
1016.000000	17.497870
1017.000000	17.513513
1018.000000	17.531193
1019.000000	17.547273
1020.000000	17.562773
1021.000000	17.579100
1022.000000	17.594523
1023.000000	17.609740
1024.000000	17.625360
1025.000000	17.641983
1026.000000	17.658973
1027.000000	17.674177
1028.000000	17.688590
1029.000000	17.703173
1030.000000	17.718237
1031.000000	17.734010
1032.000000	17.749813
1033.000000	17.765560
1034.000000	17.781643
1035.000000	17.797900
1036.000000	17.814810
1037.000000	17.832610
1038.000000	17.850537
1039.000000	17.869120
1040.000000	17.887890
1041.000000	17.906090
1042.000000	17.924600
1043.000000	17.942563
1044.000000	17.959800
1045.000000	17.976483
1046.000000	17.992507
1047.000000	18.009423
1048.000000	18.025970
1049.000000	18.041933
1050.000000	18.058613
1051.000000	18.075573
1052.000000	18.091917
1053.000000	18.109340
1054.000000	18.127700
1055.000000	18.146210
1056.000000	18.164923
1057.000000	18.184050
1058.000000	18.203300
1059.000000	18.223483
1060.000000	18.243713
1061.000000	18.263663
1062.000000	18.284040
1063.000000	18.304553
1064.000000	18.324550
1065.000000	18.343973
1066.000000	18.362780
1067.000000	18.381400
1068.000000	18.400903
1069.000000	18.420533
1070.000000	18.439340
1071.000000	18.459080
1072.000000	18.479527
1073.000000	18.499403
1074.000000	18.518837
1075.000000	18.538647
1076.000000	18.559507
1077.000000	18.580213
1078.000000	18.600337
1079.000000	18.620363
1080.000000	18.639953
1081.000000	18.659557
1082.000000	18.679183
1083.000000	18.697743
1084.000000	18.715417
1085.000000	18.733973
1086.000000	18.751920
1087.000000	18.768383
1088.000000	18.784673
1089.000000	18.800073
1090.000000	18.815913
1091.000000	18.831173
1092.000000	18.845373
1093.000000	18.859237
1094.000000	18.875083
1095.000000	18.889247
1096.000000	18.903157
1097.000000	18.917077
1098.000000	18.930357
1099.000000	18.943943
1100.000000	18.957447
1101.000000	18.970393
1102.000000	18.982223
1103.000000	18.994217
1104.000000	19.003757
1105.000000	19.014067
1106.000000	19.024620
1107.000000	19.036590
1108.000000	19.047330
1109.000000	19.056453
1110.000000	19.064800
1111.000000	19.072473
1112.000000	19.081547
1113.000000	19.090780
1114.000000	19.100623
1115.000000	19.109553
1116.000000	19.117343
1117.000000	19.123837
1118.000000	19.131953
1119.000000	19.140397
1120.000000	19.148973
1121.000000	19.156963
1122.000000	19.165097
1123.000000	19.173123
1124.000000	19.180810
1125.000000	19.186567
1126.000000	19.191167
1127.000000	19.192463
1128.000000	19.192603
1129.000000	19.191703
1130.000000	19.190237
1131.000000	19.186970
1132.000000	19.177683
1133.000000	19.164467
1134.000000	19.151960
1135.000000	19.144320
1136.000000	19.136777
1137.000000	19.126960
1138.000000	19.114187
1139.000000	19.101690
1140.000000	19.087557
1141.000000	19.074393
1142.000000	19.064083
1143.000000	19.054487
1144.000000	19.042580
1145.000000	19.027117
1146.000000	19.014193
1147.000000	19.003983
1148.000000	18.994683
1149.000000	18.985763
1150.000000	18.977710
1151.000000	18.969363
1152.000000	18.961757
1153.000000	18.955563
1154.000000	18.949427
1155.000000	18.941133
1156.000000	18.929857
1157.000000	18.918507
1158.000000	18.905240
1159.000000	18.887773
1160.000000	18.868257
1161.000000	18.845900
1162.000000	18.821797
1163.000000	18.795320
1164.000000	18.765390
1165.000000	18.734740
1166.000000	18.703480
1167.000000	18.669453
1168.000000	18.635853
1169.000000	18.604690
1170.000000	18.573950
1171.000000	18.544353
1172.000000	18.516523
1173.000000	18.491447
1174.000000	18.467747
1175.000000	18.446050
1176.000000	18.424057
1177.000000	18.405760
1178.000000	18.390193
1179.000000	18.375460
1180.000000	18.361897
1181.000000	18.349843
1182.000000	18.337490
1183.000000	18.326017
1184.000000	18.317600
1185.000000	18.308037
1186.000000	18.301340
1187.000000	18.295917
1188.000000	18.290750
1189.000000	18.288017
1190.000000	18.287010
1191.000000	18.287780
1192.000000	18.292653
1193.000000	18.299177
1194.000000	18.306900
1195.000000	18.318980
1196.000000	18.330923
1197.000000	18.343583
1198.000000	18.359423
1199.000000	18.375533
1200.000000	18.392240
1201.000000	18.408900
1202.000000	18.423883
1203.000000	18.439227
1204.000000	18.454943
1205.000000	18.469107
1206.000000	18.483703
1207.000000	18.499257
1208.000000	18.512380
1209.000000	18.525270
1210.000000	18.538817
1211.000000	18.553353
1212.000000	18.568353
1213.000000	18.582800
1214.000000	18.597803
1215.000000	18.612767
1216.000000	18.627467
1217.000000	18.641730
1218.000000	18.655733
1219.000000	18.669693
1220.000000	18.682337
1221.000000	18.693940
1222.000000	18.704350
1223.000000	18.714187
1224.000000	18.722537
1225.000000	18.729727
1226.000000	18.737377
1227.000000	18.743490
1228.000000	18.748210
1229.000000	18.751333
1230.000000	18.754280
1231.000000	18.757480
1232.000000	18.760570
1233.000000	18.762423
1234.000000	18.763580
1235.000000	18.766150
1236.000000	18.768260
1237.000000	18.770063
1238.000000	18.772737
1239.000000	18.774650
1240.000000	18.775567
1241.000000	18.776343
1242.000000	18.778303
1243.000000	18.781673
1244.000000	18.785773
1245.000000	18.789513
1246.000000	18.793183
1247.000000	18.800067
1248.000000	18.808213
1249.000000	18.819683
1250.000000	18.833570
1251.000000	18.847380
1252.000000	18.860737
1253.000000	18.873980
1254.000000	18.888080
1255.000000	18.902010
1256.000000	18.917063
1257.000000	18.929550
1258.000000	18.941940
1259.000000	18.952070
1260.000000	18.961047
1261.000000	18.970740
1262.000000	18.981040
1263.000000	18.991233
1264.000000	18.999867
1265.000000	19.008380
1266.000000	19.015287
1267.000000	19.021113
1268.000000	19.026330
1269.000000	19.032200
1270.000000	19.036827
1271.000000	19.040900
1272.000000	19.043670
1273.000000	19.045783
1274.000000	19.048677
1275.000000	19.050953
1276.000000	19.052850
1277.000000	19.055510
1278.000000	19.058507
1279.000000	19.061233
1280.000000	19.064833
1281.000000	19.068237
1282.000000	19.071317
1283.000000	19.074750
1284.000000	19.078837
1285.000000	19.083977
1286.000000	19.090043
1287.000000	19.096647
1288.000000	19.102687
1289.000000	19.108943
1290.000000	19.115517
1291.000000	19.122787
1292.000000	19.131773
1293.000000	19.140347
1294.000000	19.147840
1295.000000	19.155443
1296.000000	19.162710
1297.000000	19.169610
1298.000000	19.176990
1299.000000	19.183537
1300.000000	19.189207
1301.000000	19.193887
1302.000000	19.197563
1303.000000	19.201260
1304.000000	19.204247
1305.000000	19.206130
1306.000000	19.207957
1307.000000	19.209180
1308.000000	19.208963
1309.000000	19.208703
1310.000000	19.207813
1311.000000	19.205407
1312.000000	19.200963
1313.000000	19.194390
1314.000000	19.187127
1315.000000	19.178680
1316.000000	19.168040
1317.000000	19.157447
1318.000000	19.146953
1319.000000	19.134670
1320.000000	19.121393
1321.000000	19.108473
1322.000000	19.095340
1323.000000	19.082473
1324.000000	19.068897
1325.000000	19.055100
1326.000000	19.040577
1327.000000	19.023933
1328.000000	19.004897
1329.000000	18.984517
1330.000000	18.962880
1331.000000	18.940243
1332.000000	18.917897
1333.000000	18.893857
1334.000000	18.867937
1335.000000	18.838923
1336.000000	18.810480
1337.000000	18.781867
1338.000000	18.753127
1339.000000	18.723453
1340.000000	18.692743
1341.000000	18.661133
1342.000000	18.626473
1343.000000	18.590563
1344.000000	18.554163
1345.000000	18.517070
1346.000000	18.476083
1347.000000	18.433890
1348.000000	18.390133
1349.000000	18.345333
1350.000000	18.298737
1351.000000	18.249487
1352.000000	18.198813
1353.000000	18.146707
1354.000000	18.096697
1355.000000	18.052107
1356.000000	18.010857
1357.000000	17.968783
1358.000000	17.926673
1359.000000	17.884603
1360.000000	17.844823
1361.000000	17.814383
1362.000000	17.793633
1363.000000	17.773953
1364.000000	17.751577
1365.000000	17.725750
1366.000000	17.695673
1367.000000	17.663980
1368.000000	17.633377
1369.000000	17.599270
1370.000000	17.558433
1371.000000	17.505567
1372.000000	17.437007
1373.000000	17.356487
1374.000000	17.262173
1375.000000	17.153280
1376.000000	17.032830
1377.000000	16.899723
1378.000000	16.750600
1379.000000	16.590977
1380.000000	16.426627
1381.000000	16.265437
1382.000000	16.115980
1383.000000	15.981103
1384.000000	15.860483
1385.000000	15.751810
1386.000000	15.654657
1387.000000	15.575477
1388.000000	15.517767
1389.000000	15.477590
1390.000000	15.445103
1391.000000	15.414357
1392.000000	15.385113
1393.000000	15.356910
1394.000000	15.328117
1395.000000	15.310730
1396.000000	15.304433
1397.000000	15.293790
1398.000000	15.267127
1399.000000	15.236687
1400.000000	15.219387
1401.000000	15.206800
1402.000000	15.179787
1403.000000	15.140090
1404.000000	15.096887
1405.000000	15.044787
1406.000000	14.981047
1407.000000	14.913183
1408.000000	14.851547
1409.000000	14.789190
1410.000000	14.713110
1411.000000	14.623930
1412.000000	14.535963
1413.000000	14.453823
1414.000000	14.376597
1415.000000	14.296547
1416.000000	14.211910
1417.000000	14.125897
1418.000000	14.043197
1419.000000	13.963820
1420.000000	13.886337
1421.000000	13.810577
1422.000000	13.740617
1423.000000	13.673343
1424.000000	13.606160
1425.000000	13.539197
1426.000000	13.476847
1427.000000	13.419383
1428.000000	13.362640
1429.000000	13.305357
1430.000000	13.248533
1431.000000	13.198120
1432.000000	13.151520
1433.000000	13.105820
1434.000000	13.061937
1435.000000	13.018707
1436.000000	12.980000
1437.000000	12.945587
1438.000000	12.911560
1439.000000	12.878320
1440.000000	12.846337
1441.000000	12.816043
1442.000000	12.785520
1443.000000	12.756373
1444.000000	12.723673
1445.000000	12.697243
1446.000000	12.673507
1447.000000	12.648800
1448.000000	12.622280
1449.000000	12.596417
1450.000000	12.573927
1451.000000	12.553800
1452.000000	12.532323
1453.000000	12.509020
1454.000000	12.489713
1455.000000	12.465940
1456.000000	12.439960
1457.000000	12.413293
1458.000000	12.388980
1459.000000	12.365037
1460.000000	12.339770
1461.000000	12.311490
1462.000000	12.283890
1463.000000	12.258547
1464.000000	12.230740
1465.000000	12.203927
1466.000000	12.177087
1467.000000	12.151983
1468.000000	12.126197
1469.000000	12.099600
1470.000000	12.074707
1471.000000	12.051040
1472.000000	12.027587
1473.000000	12.003733
1474.000000	11.981483
1475.000000	11.957910
1476.000000	11.935937
1477.000000	11.913593
1478.000000	11.893177
1479.000000	11.873350
1480.000000	11.853773
1481.000000	11.833800
1482.000000	11.816877
1483.000000	11.800790
1484.000000	11.784933
1485.000000	11.772650
1486.000000	11.759263
1487.000000	11.746823
1488.000000	11.735493
1489.000000	11.725310
1490.000000	11.714343
1491.000000	11.704700
1492.000000	11.694647
1493.000000	11.685413
1494.000000	11.678077
1495.000000	11.670067
1496.000000	11.665167
1497.000000	11.661027
1498.000000	11.658420
1499.000000	11.657870
1500.000000	11.659607
1501.000000	11.662717
1502.000000	11.668100
1503.000000	11.676490
1504.000000	11.687107
1505.000000	11.700093
1506.000000	11.714367
1507.000000	11.731683
1508.000000	11.749767
1509.000000	11.769113
1510.000000	11.791133
1511.000000	11.815287
1512.000000	11.838523
1513.000000	11.862363
1514.000000	11.886830
1515.000000	11.911583
1516.000000	11.936953
1517.000000	11.961603
1518.000000	11.986817
1519.000000	12.012087
1520.000000	12.036237
1521.000000	12.059357
1522.000000	12.082817
1523.000000	12.106320
1524.000000	12.129477
1525.000000	12.152523
1526.000000	12.175000
1527.000000	12.197687
1528.000000	12.219790
1529.000000	12.240707
1530.000000	12.261987
1531.000000	12.283417
1532.000000	12.304957
1533.000000	12.325707
1534.000000	12.344990
1535.000000	12.363337
1536.000000	12.380357
1537.000000	12.397157
1538.000000	12.414220
1539.000000	12.430117
1540.000000	12.444450
1541.000000	12.457697
1542.000000	12.470233
1543.000000	12.482350
1544.000000	12.495567
1545.000000	12.509407
1546.000000	12.524023
1547.000000	12.538620
1548.000000	12.552613
1549.000000	12.568220
1550.000000	12.584717
1551.000000	12.602023
1552.000000	12.620247
1553.000000	12.639327
1554.000000	12.657657
1555.000000	12.675897
1556.000000	12.692807
1557.000000	12.708707
1558.000000	12.724600
1559.000000	12.737933
1560.000000	12.748410
1561.000000	12.757870
1562.000000	12.764510
1563.000000	12.768150
1564.000000	12.770180
1565.000000	12.770637
1566.000000	12.769927
1567.000000	12.767507
1568.000000	12.762620
1569.000000	12.758453
1570.000000	12.755587
1571.000000	12.750843
1572.000000	12.746713
1573.000000	12.743333
1574.000000	12.739487
1575.000000	12.736303
1576.000000	12.733787
1577.000000	12.731733
1578.000000	12.731633
1579.000000	12.732587
1580.000000	12.732837
1581.000000	12.734727
1582.000000	12.738283
1583.000000	12.743303
1584.000000	12.750507
1585.000000	12.758060
1586.000000	12.766963
1587.000000	12.777953
1588.000000	12.790063
1589.000000	12.802037
1590.000000	12.814487
1591.000000	12.827690
1592.000000	12.840867
1593.000000	12.853787
1594.000000	12.867247
1595.000000	12.881827
1596.000000	12.896030
1597.000000	12.910437
1598.000000	12.925850
1599.000000	12.942327
1600.000000	12.959260
1601.000000	12.977047
1602.000000	12.994737
1603.000000	13.013860
1604.000000	13.033507
1605.000000	13.052890
1606.000000	13.072133
1607.000000	13.091423
1608.000000	13.110907
1609.000000	13.129380
1610.000000	13.148003
1611.000000	13.166470
1612.000000	13.184097
1613.000000	13.201140
1614.000000	13.216347
1615.000000	13.230873
1616.000000	13.245997
1617.000000	13.259550
1618.000000	13.270663
1619.000000	13.281133
1620.000000	13.290960
1621.000000	13.301013
1622.000000	13.312053
1623.000000	13.321150
1624.000000	13.329760
1625.000000	13.338213
1626.000000	13.345437
1627.000000	13.352787
1628.000000	13.362140
1629.000000	13.372157
1630.000000	13.381980
1631.000000	13.390323
1632.000000	13.398700
1633.000000	13.407883
1634.000000	13.417647
1635.000000	13.426487
1636.000000	13.435450
1637.000000	13.444257
1638.000000	13.451220
1639.000000	13.457420
1640.000000	13.462073
1641.000000	13.465620
1642.000000	13.467713
1643.000000	13.470667
1644.000000	13.472233
1645.000000	13.474177
1646.000000	13.476197
1647.000000	13.476077
1648.000000	13.475150
1649.000000	13.472900
1650.000000	13.471380
1651.000000	13.469020
1652.000000	13.466330
1653.000000	13.459640
1654.000000	13.451363
1655.000000	13.440467
1656.000000	13.426637
1657.000000	13.411023
1658.000000	13.391997
1659.000000	13.370887
1660.000000	13.347020
1661.000000	13.319733
1662.000000	13.288930
1663.000000	13.255747
1664.000000	13.220263
1665.000000	13.183250
1666.000000	13.143173
1667.000000	13.101880
1668.000000	13.054000
1669.000000	13.003107
1670.000000	12.949563
1671.000000	12.895243
1672.000000	12.839217
1673.000000	12.784147
1674.000000	12.727313
1675.000000	12.669690
1676.000000	12.612780
1677.000000	12.555447
1678.000000	12.503050
1679.000000	12.451473
1680.000000	12.398350
1681.000000	12.345560
1682.000000	12.291257
1683.000000	12.234640
1684.000000	12.177347
1685.000000	12.120533
1686.000000	12.065043
1687.000000	12.013127
1688.000000	11.965463
1689.000000	11.924477
1690.000000	11.892197
1691.000000	11.867807
1692.000000	11.854457
1693.000000	11.849980
1694.000000	11.854433
1695.000000	11.865360
1696.000000	11.881723
1697.000000	11.899007
1698.000000	11.919083
1699.000000	11.935613
1700.000000	11.951840
1701.000000	11.965110
1702.000000	11.973573
1703.000000	11.978563
1704.000000	11.979873
1705.000000	11.976420
1706.000000	11.968687
1707.000000	11.958730
1708.000000	11.944773
1709.000000	11.930193
1710.000000	11.909030
1711.000000	11.882487
1712.000000	11.851557
1713.000000	11.816490
1714.000000	11.775907
1715.000000	11.731323
1716.000000	11.682343
1717.000000	11.629790
1718.000000	11.573117
1719.000000	11.511553
1720.000000	11.449967
1721.000000	11.389450
1722.000000	11.331043
1723.000000	11.276200
1724.000000	11.227677
1725.000000	11.185943
1726.000000	11.152463
1727.000000	11.125957
1728.000000	11.106507
1729.000000	11.096770
1730.000000	11.095070
1731.000000	11.099003
1732.000000	11.108390
1733.000000	11.121240
1734.000000	11.137810
1735.000000	11.156877
1736.000000	11.176050
1737.000000	11.198117
1738.000000	11.221583
1739.000000	11.246650
1740.000000	11.271377
1741.000000	11.298157
1742.000000	11.326803
1743.000000	11.355557
1744.000000	11.382733
1745.000000	11.410047
1746.000000	11.438637
1747.000000	11.465367
1748.000000	11.490343
1749.000000	11.513257
1750.000000	11.535063
1751.000000	11.554443
1752.000000	11.568783
1753.000000	11.581837
1754.000000	11.592660
1755.000000	11.601077
1756.000000	11.607700
1757.000000	11.613067
1758.000000	11.616153
1759.000000	11.618307
1760.000000	11.619730
1761.000000	11.619893
1762.000000	11.621120
1763.000000	11.620857
1764.000000	11.621520
1765.000000	11.623657
1766.000000	11.626000
1767.000000	11.629337
1768.000000	11.635497
1769.000000	11.642167
1770.000000	11.649547
1771.000000	11.658570
1772.000000	11.668787
1773.000000	11.680377
1774.000000	11.693237
1775.000000	11.705573
1776.000000	11.717740
1777.000000	11.729930
1778.000000	11.743040
1779.000000	11.756190
1780.000000	11.768977
1781.000000	11.780623
1782.000000	11.791930
1783.000000	11.802287
1784.000000	11.810800
1785.000000	11.818307
1786.000000	11.824990
1787.000000	11.829403
1788.000000	11.830957
1789.000000	11.830477
1790.000000	11.829473
1791.000000	11.827993
1792.000000	11.825090
1793.000000	11.823507
1794.000000	11.822957
1795.000000	11.822410
1796.000000	11.822397
1797.000000	11.822627
1798.000000	11.821750
1799.000000	11.821020
1800.000000	11.822177
1801.000000	11.826400
1802.000000	11.831573
1803.000000	11.834593
1804.000000	11.835250
1805.000000	11.835507
1806.000000	11.838403
1807.000000	11.843503
1808.000000	11.847940
1809.000000	11.850447
1810.000000	11.850387
1811.000000	11.850763
1812.000000	11.852907
1813.000000	11.855477
1814.000000	11.859323
1815.000000	11.862810
1816.000000	11.862163
1817.000000	11.856730
1818.000000	11.848087
1819.000000	11.841150
1820.000000	11.841740
1821.000000	11.849697
1822.000000	11.857380
1823.000000	11.857923
1824.000000	11.851563
1825.000000	11.841550
1826.000000	11.832727
1827.000000	11.829630
1828.000000	11.834260
1829.000000	11.840823
1830.000000	11.843347
1831.000000	11.837887
1832.000000	11.828420
1833.000000	11.820953
1834.000000	11.815147
1835.000000	11.814133
1836.000000	11.818123
1837.000000	11.824563
1838.000000	11.830313
1839.000000	11.835337
1840.000000	11.842140
1841.000000	11.855087
1842.000000	11.877163
1843.000000	11.901777
1844.000000	11.918363
1845.000000	11.920190
1846.000000	11.913470
1847.000000	11.913487
1848.000000	11.929927
1849.000000	11.952973
1850.000000	11.964117
1851.000000	11.956403
1852.000000	11.935437
1853.000000	11.916943
1854.000000	11.914107
1855.000000	11.927223
1856.000000	11.941243
1857.000000	11.938110
1858.000000	11.915893
1859.000000	11.890250
1860.000000	11.874207
1861.000000	11.867910
1862.000000	11.863610
1863.000000	11.852040
1864.000000	11.827883
1865.000000	11.791560
1866.000000	11.748073
1867.000000	11.703157
1868.000000	11.654700
1869.000000	11.600600
1870.000000	11.547517
1871.000000	11.498053
1872.000000	11.452983
1873.000000	11.416027
1874.000000	11.387220
1875.000000	11.364713
1876.000000	11.345527
1877.000000	11.323960
1878.000000	11.296987
1879.000000	11.259740
1880.000000	11.204820
1881.000000	11.133093
1882.000000	11.049503
1883.000000	10.956013
1884.000000	10.855737
1885.000000	10.747980
1886.000000	10.633533
1887.000000	10.511037
1888.000000	10.379930
1889.000000	10.243137
1890.000000	10.106010
1891.000000	9.970310
1892.000000	9.833110
1893.000000	9.691037
1894.000000	9.538673
1895.000000	9.376293
1896.000000	9.204000
1897.000000	9.029623
1898.000000	8.856353
1899.000000	8.688537
1900.000000	8.522703
1901.000000	8.355107
1902.000000	8.183137
1903.000000	8.009643
1904.000000	7.843150
1905.000000	7.689723
1906.000000	7.550537
1907.000000	7.418957
1908.000000	7.292830
1909.000000	7.165567
1910.000000	7.036827
1911.000000	6.911667
1912.000000	6.797290
1913.000000	6.695437
1914.000000	6.601653
1915.000000	6.509710
1916.000000	6.416023
1917.000000	6.324397
1918.000000	6.237043
1919.000000	6.158980
1920.000000	6.094033
1921.000000	6.037107
1922.000000	5.984657
1923.000000	5.932083
1924.000000	5.878507
1925.000000	5.826080
1926.000000	5.782263
1927.000000	5.746597
1928.000000	5.717487
1929.000000	5.692950
1930.000000	5.668870
1931.000000	5.646040
1932.000000	5.624377
1933.000000	5.604763
1934.000000	5.589707
1935.000000	5.577647
1936.000000	5.567690
1937.000000	5.560977
1938.000000	5.557190
1939.000000	5.555270
1940.000000	5.556397
1941.000000	5.560067
1942.000000	5.564247
1943.000000	5.570930
1944.000000	5.580180
1945.000000	5.594593
1946.000000	5.610000
1947.000000	5.626383
1948.000000	5.643400
1949.000000	5.660623
1950.000000	5.675263
1951.000000	5.690297
1952.000000	5.708863
1953.000000	5.730680
1954.000000	5.753870
1955.000000	5.776463
1956.000000	5.800643
1957.000000	5.823423
1958.000000	5.845663
1959.000000	5.867943
1960.000000	5.893607
1961.000000	5.920210
1962.000000	5.947080
1963.000000	5.972563
1964.000000	5.996643
1965.000000	6.019930
1966.000000	6.043577
1967.000000	6.067157
1968.000000	6.090273
1969.000000	6.114323
1970.000000	6.136843
1971.000000	6.159293
1972.000000	6.180067
1973.000000	6.201923
1974.000000	6.225013
1975.000000	6.248057
1976.000000	6.269273
1977.000000	6.292703
1978.000000	6.316930
1979.000000	6.340840
1980.000000	6.365510
1981.000000	6.390453
1982.000000	6.416977
1983.000000	6.441500
1984.000000	6.464950
1985.000000	6.489407
1986.000000	6.514853
1987.000000	6.539403
1988.000000	6.564480
1989.000000	6.589417
1990.000000	6.614420
1991.000000	6.638300
1992.000000	6.660753
1993.000000	6.683817
1994.000000	6.707557
1995.000000	6.730997
1996.000000	6.752667
1997.000000	6.773803
1998.000000	6.793967
1999.000000	6.812437
2000.000000	6.830007
2001.000000	6.847293
2002.000000	6.865047
2003.000000	6.880290
2004.000000	6.894090
2005.000000	6.907007
2006.000000	6.920263
2007.000000	6.930527
2008.000000	6.939707
2009.000000	6.948257
2010.000000	6.955030
2011.000000	6.960423
2012.000000	6.962257
2013.000000	6.964823
2014.000000	6.966510
2015.000000	6.965657
2016.000000	6.962440
2017.000000	6.958130
2018.000000	6.952167
2019.000000	6.944143
2020.000000	6.934787
2021.000000	6.923587
2022.000000	6.911333
2023.000000	6.896547
2024.000000	6.878800
2025.000000	6.859630
2026.000000	6.839487
2027.000000	6.818753
2028.000000	6.796777
2029.000000	6.772770
2030.000000	6.746807
2031.000000	6.719110
2032.000000	6.690720
2033.000000	6.660247
2034.000000	6.628787
2035.000000	6.597087
2036.000000	6.563010
2037.000000	6.526870
2038.000000	6.489637
2039.000000	6.450997
2040.000000	6.411303
2041.000000	6.370857
2042.000000	6.329267
2043.000000	6.286867
2044.000000	6.244213
2045.000000	6.201483
2046.000000	6.159057
2047.000000	6.117330
2048.000000	6.076013
2049.000000	6.037967
2050.000000	6.001550
2051.000000	5.967867
2052.000000	5.938290
2053.000000	5.914103
2054.000000	5.894917
2055.000000	5.879327
2056.000000	5.869167
2057.000000	5.863693
2058.000000	5.863113
2059.000000	5.867650
2060.000000	5.877020
2061.000000	5.890397
2062.000000	5.907143
2063.000000	5.926200
2064.000000	5.947037
2065.000000	5.970360
2066.000000	5.995393
2067.000000	6.022870
2068.000000	6.051057
2069.000000	6.078140
2070.000000	6.105327
2071.000000	6.132173
2072.000000	6.158097
2073.000000	6.183083
2074.000000	6.206930
2075.000000	6.229113
2076.000000	6.249627
2077.000000	6.267540
2078.000000	6.284717
2079.000000	6.300680
2080.000000	6.313907
2081.000000	6.325440
2082.000000	6.334697
2083.000000	6.341287
2084.000000	6.346037
2085.000000	6.349437
2086.000000	6.350957
2087.000000	6.351323
2088.000000	6.349137
2089.000000	6.344787
2090.000000	6.339253
2091.000000	6.332767
2092.000000	6.325250
2093.000000	6.316680
2094.000000	6.307617
2095.000000	6.296733
2096.000000	6.285213
2097.000000	6.274583
2098.000000	6.263527
2099.000000	6.252257
2100.000000	6.242713
2101.000000	6.233010
2102.000000	6.223540
2103.000000	6.215003
2104.000000	6.205910
2105.000000	6.197737
2106.000000	6.189230
2107.000000	6.179493
2108.000000	6.170407
2109.000000	6.161157
2110.000000	6.150223
2111.000000	6.138710
2112.000000	6.127323
2113.000000	6.115457
2114.000000	6.103767
2115.000000	6.090887
2116.000000	6.077243
2117.000000	6.063127
2118.000000	6.048483
2119.000000	6.034047
2120.000000	6.019103
2121.000000	6.003043
2122.000000	5.985457
2123.000000	5.967393
2124.000000	5.948943
2125.000000	5.930973
2126.000000	5.912640
2127.000000	5.891943
2128.000000	5.869970
2129.000000	5.847280
2130.000000	5.824840
2131.000000	5.801767
2132.000000	5.778737
2133.000000	5.754463
2134.000000	5.728010
2135.000000	5.700747
2136.000000	5.674597
2137.000000	5.648687
2138.000000	5.620997
2139.000000	5.591563
2140.000000	5.561670
2141.000000	5.532007
2142.000000	5.501207
2143.000000	5.471177
2144.000000	5.441320
2145.000000	5.410657
2146.000000	5.377540
2147.000000	5.344050
2148.000000	5.312197
2149.000000	5.281253
2150.000000	5.249440
2151.000000	5.218580
2152.000000	5.189473
2153.000000	5.159057
2154.000000	5.129197
2155.000000	5.100743
2156.000000	5.073777
2157.000000	5.047750
2158.000000	5.023373
2159.000000	4.999757
2160.000000	4.977197
2161.000000	4.956137
2162.000000	4.934553
2163.000000	4.915290
2164.000000	4.898827
2165.000000	4.883180
2166.000000	4.867833
2167.000000	4.854453
2168.000000	4.841403
2169.000000	4.828837
2170.000000	4.817300
2171.000000	4.804810
2172.000000	4.794153
2173.000000	4.782790
2174.000000	4.770960
2175.000000	4.760400
2176.000000	4.750313
2177.000000	4.741407
2178.000000	4.731163
2179.000000	4.723927
2180.000000	4.716120
2181.000000	4.707667
2182.000000	4.699347
2183.000000	4.691253
2184.000000	4.681337
2185.000000	4.669097
2186.000000	4.655793
2187.000000	4.639283
2188.000000	4.621453
2189.000000	4.598607
2190.000000	4.574053
2191.000000	4.546600
2192.000000	4.515917
2193.000000	4.480683
2194.000000	4.442573
2195.000000	4.401270
2196.000000	4.356890
2197.000000	4.309460
2198.000000	4.259913
2199.000000	4.209017
2200.000000	4.155823
2201.000000	4.103650
2202.000000	4.050017
2203.000000	3.998147
2204.000000	3.948910
2205.000000	3.901327
2206.000000	3.858907
2207.000000	3.819740
2208.000000	3.786000
2209.000000	3.758743
2210.000000	3.736467
2211.000000	3.719717
2212.000000	3.708643
2213.000000	3.704633
2214.000000	3.705460
2215.000000	3.714413
2216.000000	3.725890
2217.000000	3.744293
2218.000000	3.766073
2219.000000	3.789637
2220.000000	3.816083
2221.000000	3.843633
2222.000000	3.874810
2223.000000	3.906690
2224.000000	3.938740
2225.000000	3.968917
2226.000000	3.998603
2227.000000	4.029000
2228.000000	4.056903
2229.000000	4.082823
2230.000000	4.108130
2231.000000	4.130273
2232.000000	4.148587
2233.000000	4.165447
2234.000000	4.179537
2235.000000	4.191030
2236.000000	4.200797
2237.000000	4.204753
2238.000000	4.207623
2239.000000	4.208360
2240.000000	4.207973
2241.000000	4.205360
2242.000000	4.199157
2243.000000	4.189523
2244.000000	4.178660
2245.000000	4.166397
2246.000000	4.151410
2247.000000	4.134967
2248.000000	4.115990
2249.000000	4.097030
2250.000000	4.074823
2251.000000	4.052363
2252.000000	4.031063
2253.000000	4.009610
2254.000000	3.985113
2255.000000	3.961250
2256.000000	3.939290
2257.000000	3.917203
2258.000000	3.897530
2259.000000	3.876813
2260.000000	3.857450
2261.000000	3.840713
2262.000000	3.824967
2263.000000	3.809057
2264.000000	3.798407
2265.000000	3.789977
2266.000000	3.781590
2267.000000	3.775260
2268.000000	3.771370
2269.000000	3.768860
2270.000000	3.768620
2271.000000	3.770517
2272.000000	3.773210
2273.000000	3.776803
2274.000000	3.780883
2275.000000	3.784200
2276.000000	3.789743
2277.000000	3.795840
2278.000000	3.800047
2279.000000	3.805310
2280.000000	3.809913
2281.000000	3.811787
2282.000000	3.814230
2283.000000	3.818660
2284.000000	3.821547
2285.000000	3.822487
2286.000000	3.822807
2287.000000	3.822910
2288.000000	3.824003
2289.000000	3.823297
2290.000000	3.823797
2291.000000	3.824903
2292.000000	3.825173
2293.000000	3.824727
2294.000000	3.825577
2295.000000	3.827543
2296.000000	3.828123
2297.000000	3.830073
2298.000000	3.832330
2299.000000	3.836607
2300.000000	3.839650
2301.000000	3.843430
2302.000000	3.847453
2303.000000	3.851993
2304.000000	3.857627
2305.000000	3.864467
2306.000000	3.873733
2307.000000	3.883430
2308.000000	3.891850
2309.000000	3.901527
2310.000000	3.911560
2311.000000	3.920850
2312.000000	3.931497
2313.000000	3.942427
2314.000000	3.952297
2315.000000	3.962057
2316.000000	3.971067
2317.000000	3.978097
2318.000000	3.984560
2319.000000	3.989493
2320.000000	3.993460
2321.000000	3.997090
2322.000000	3.998983
2323.000000	3.998850
2324.000000	3.996227
2325.000000	3.991350
2326.000000	3.985937
2327.000000	3.980227
2328.000000	3.974470
2329.000000	3.967053
2330.000000	3.959397
2331.000000	3.951983
2332.000000	3.945110
2333.000000	3.939363
2334.000000	3.934783
2335.000000	3.931277
2336.000000	3.927497
2337.000000	3.925507
2338.000000	3.924087
2339.000000	3.923387
2340.000000	3.923107
2341.000000	3.923733
2342.000000	3.925370
2343.000000	3.926470
2344.000000	3.929007
2345.000000	3.931360
2346.000000	3.933660
2347.000000	3.936323
2348.000000	3.938793
2349.000000	3.942463
2350.000000	3.946807
2351.000000	3.950833
2352.000000	3.954900
2353.000000	3.958617
2354.000000	3.962073
2355.000000	3.966240
2356.000000	3.970560
2357.000000	3.973890
2358.000000	3.977610
2359.000000	3.980173
2360.000000	3.982550
2361.000000	3.984327
2362.000000	3.985023
2363.000000	3.986910
2364.000000	3.987377
2365.000000	3.986937
2366.000000	3.987363
2367.000000	3.987603
2368.000000	3.987027
2369.000000	3.986750
2370.000000	3.985960
2371.000000	3.986770
2372.000000	3.988277
2373.000000	3.988777
2374.000000	3.990277
2375.000000	3.992147
2376.000000	3.992840
2377.000000	3.993420
2378.000000	3.994613
2379.000000	3.996183
2380.000000	3.997670
2381.000000	3.996947
2382.000000	3.995723
2383.000000	3.995770
2384.000000	3.995040
2385.000000	3.993140
2386.000000	3.990300
2387.000000	3.987463
2388.000000	3.983897
2389.000000	3.980220
2390.000000	3.976600
2391.000000	3.973067
2392.000000	3.968660
2393.000000	3.961943
2394.000000	3.955100
2395.000000	3.949220
2396.000000	3.943347
2397.000000	3.936800
2398.000000	3.929427
2399.000000	3.920573
2400.000000	3.911613
2401.000000	3.902157
2402.000000	3.891807
2403.000000	3.881623
2404.000000	3.870710
2405.000000	3.859423
2406.000000	3.847237
2407.000000	3.833863
2408.000000	3.820233
2409.000000	3.805927
2410.000000	3.791043
2411.000000	3.775490
2412.000000	3.760153
2413.000000	3.744987
2414.000000	3.730353
2415.000000	3.713493
2416.000000	3.695087
2417.000000	3.674913
2418.000000	3.653150
2419.000000	3.631180
2420.000000	3.609190
2421.000000	3.586293
2422.000000	3.562517
2423.000000	3.537553
2424.000000	3.510797
2425.000000	3.484047
2426.000000	3.458857
2427.000000	3.434623
2428.000000	3.412207
2429.000000	3.388987
2430.000000	3.364347
2431.000000	3.339553
2432.000000	3.314087
2433.000000	3.288397
2434.000000	3.263187
2435.000000	3.236707
2436.000000	3.210803
2437.000000	3.186933
2438.000000	3.161013
2439.000000	3.134337
2440.000000	3.107483
2441.000000	3.081423
2442.000000	3.056443
2443.000000	3.031600
2444.000000	3.006413
2445.000000	2.982820
2446.000000	2.957497
2447.000000	2.930803
2448.000000	2.905803
2449.000000	2.881740
2450.000000	2.857503
2451.000000	2.833387
2452.000000	2.808547
2453.000000	2.784693
2454.000000	2.762160
2455.000000	2.740763
2456.000000	2.718963
2457.000000	2.698170
2458.000000	2.677633
2459.000000	2.658327
2460.000000	2.642093
2461.000000	2.623927
2462.000000	2.608890
2463.000000	2.591660
2464.000000	2.572037
2465.000000	2.554053
2466.000000	2.537777
2467.000000	2.522127
2468.000000	2.508600
2469.000000	2.495480
2470.000000	2.480733
2471.000000	2.468367
2472.000000	2.453633
2473.000000	2.446560
2474.000000	2.440783
2475.000000	2.431170
2476.000000	2.424100
2477.000000	2.417543
2478.000000	2.411617
2479.000000	2.404277
2480.000000	2.399960
2481.000000	2.395800
2482.000000	2.393123
2483.000000	2.386983
2484.000000	2.384123
2485.000000	2.383363
2486.000000	2.383127
2487.000000	2.382833
2488.000000	2.382493
2489.000000	2.384880
2490.000000	2.387420
2491.000000	2.391863
2492.000000	2.395487
2493.000000	2.407363
2494.000000	2.415190
2495.000000	2.425147
2496.000000	2.429630
2497.000000	2.432217
2498.000000	2.437227
2499.000000	2.447210
2500.000000	2.446593
