PE UV       SUBTECH     SPECTRUM    ASCII       PEDS        4.00        
   -1
BIOUCR0025-3.Sample.ASC
24/02/20
14:15:33.00
24/02/20
14:15:33.00
Vinicio Soto Monge
P. resplendens 18 de Mayo de 1985 R.W. Volcan, Panama
250,000000
1
Lambda 1050
1050L1511233
PerkinElmer UV WinLab 6.3.2.0749 / 2.02.05 Lambda 900 UV/VIS/NIR, Aug  7 2015 09:38:08

0
0
3350/servo 860,8/2
0
0
UV/VIS
1
1
1
DoubleDePol,CommonBeamDepol,RBeamAtt,SBeamAtt,60mm sphere, WB InGaAs Detector
0
0
0
0
Program
Program
3350/servo 860,8/2
3350/0,2 860,8/0,2
3350/0,2 860,8/0,2
0
15.00
 
 
 
0
 
860,8
319,2
860,8
Front
100
on
S:100 R:100
0
0
0
0
 
0
 
 
 
0
 
 
0
0
0
0
0
 
 
 
 
0
0


0
0
#HDR
-1
-1
#GR
nm
%R
1.0
0.0
2500,000000
-1,000000
2251
8
22,736500
1,498200
#DATA

250.000000	nan
251.000000	nan
252.000000	nan
253.000000	nan
254.000000	nan
255.000000	nan
256.000000	nan
257.000000	nan
258.000000	nan
259.000000	1.912540
260.000000	1.908337
261.000000	1.906376
262.000000	1.898949
263.000000	1.900930
264.000000	1.899457
265.000000	1.896353
266.000000	1.892995
267.000000	1.890304
268.000000	1.884922
269.000000	1.882232
270.000000	1.878245
271.000000	1.873897
272.000000	1.870264
273.000000	1.864028
274.000000	1.858463
275.000000	1.852371
276.000000	1.846224
277.000000	1.841343
278.000000	1.840725
279.000000	1.836758
280.000000	1.835065
281.000000	1.833257
282.000000	1.832372
283.000000	1.829881
284.000000	1.832101
285.000000	1.829040
286.000000	1.830822
287.000000	1.828326
288.000000	1.827534
289.000000	1.828179
290.000000	1.828011
291.000000	1.826964
292.000000	1.826536
293.000000	1.824037
294.000000	1.818495
295.000000	1.815065
296.000000	1.814241
297.000000	1.814350
298.000000	1.815680
299.000000	1.811756
300.000000	1.810599
301.000000	1.810724
302.000000	1.812642
303.000000	1.811885
304.000000	1.812276
305.000000	1.814961
306.000000	1.811902
307.000000	1.809962
308.000000	1.807625
309.000000	1.806701
310.000000	1.806819
311.000000	1.805805
312.000000	1.800208
313.000000	1.798469
314.000000	1.794990
315.000000	1.800350
316.000000	1.813191
317.000000	1.902324
318.000000	1.982452
319.000000	2.053225
320.000000	2.102511
321.000000	2.149337
322.000000	2.197705
323.000000	2.238384
324.000000	2.291906
325.000000	2.324308
326.000000	2.352046
327.000000	2.318128
328.000000	2.267469
329.000000	2.229130
330.000000	2.215218
331.000000	2.204510
332.000000	2.188866
333.000000	2.169356
334.000000	2.151503
335.000000	2.138829
336.000000	2.122293
337.000000	2.084041
338.000000	2.070706
339.000000	2.056816
340.000000	2.037777
341.000000	2.020001
342.000000	2.015698
343.000000	2.010984
344.000000	1.993361
345.000000	1.982363
346.000000	1.964428
347.000000	1.963119
348.000000	1.960442
349.000000	1.954435
350.000000	1.941881
351.000000	1.928962
352.000000	1.905342
353.000000	1.891938
354.000000	1.880030
355.000000	1.868209
356.000000	1.867934
357.000000	1.856066
358.000000	1.850042
359.000000	1.839118
360.000000	1.834532
361.000000	1.833789
362.000000	1.831607
363.000000	1.826676
364.000000	1.816689
365.000000	1.814356
366.000000	1.812992
367.000000	1.803399
368.000000	1.791857
369.000000	1.784057
370.000000	1.763516
371.000000	1.738510
372.000000	1.712340
373.000000	1.686163
374.000000	1.655323
375.000000	1.627460
376.000000	1.613894
377.000000	1.601769
378.000000	1.587164
379.000000	1.577868
380.000000	1.581169
381.000000	1.585295
382.000000	1.594655
383.000000	1.608745
384.000000	1.631319
385.000000	1.647294
386.000000	1.645424
387.000000	1.653596
388.000000	1.662345
389.000000	1.671450
390.000000	1.680792
391.000000	1.691210
392.000000	1.702864
393.000000	1.715577
394.000000	1.730716
395.000000	1.747127
396.000000	1.764758
397.000000	1.783094
398.000000	1.802714
399.000000	1.824079
400.000000	1.847309
401.000000	1.872393
402.000000	1.899128
403.000000	1.928393
404.000000	1.958935
405.000000	1.990967
406.000000	2.024698
407.000000	2.061244
408.000000	2.099626
409.000000	2.140210
410.000000	2.182662
411.000000	2.226572
412.000000	2.272525
413.000000	2.320387
414.000000	2.369653
415.000000	2.419995
416.000000	2.472356
417.000000	2.525485
418.000000	2.579449
419.000000	2.634586
420.000000	2.690716
421.000000	2.747386
422.000000	2.804276
423.000000	2.861286
424.000000	2.918992
425.000000	2.977334
426.000000	3.034780
427.000000	3.092184
428.000000	3.149455
429.000000	3.206140
430.000000	3.262077
431.000000	3.317505
432.000000	3.372965
433.000000	3.428069
434.000000	3.481926
435.000000	3.534531
436.000000	3.586535
437.000000	3.637961
438.000000	3.688080
439.000000	3.736895
440.000000	3.785182
441.000000	3.832532
442.000000	3.877855
443.000000	3.921149
444.000000	3.962863
445.000000	4.003448
446.000000	4.043170
447.000000	4.080937
448.000000	4.116647
449.000000	4.150728
450.000000	4.182875
451.000000	4.213251
452.000000	4.242279
453.000000	4.270269
454.000000	4.297498
455.000000	4.323043
456.000000	4.346413
457.000000	4.368992
458.000000	4.391616
459.000000	4.414000
460.000000	4.436088
461.000000	4.458603
462.000000	4.481973
463.000000	4.506467
464.000000	4.532531
465.000000	4.561159
466.000000	4.592691
467.000000	4.626680
468.000000	4.663826
469.000000	4.704433
470.000000	4.748341
471.000000	4.796583
472.000000	4.849201
473.000000	4.906647
474.000000	4.968668
475.000000	5.034585
476.000000	5.104700
477.000000	5.180348
478.000000	5.261391
479.000000	5.346952
480.000000	5.435811
481.000000	5.525652
482.000000	5.617067
483.000000	5.710286
484.000000	5.807012
485.000000	5.908109
486.000000	6.012414
487.000000	6.118658
488.000000	6.226326
489.000000	6.335766
490.000000	6.448615
491.000000	6.565794
492.000000	6.685735
493.000000	6.808754
494.000000	6.933173
495.000000	7.057891
496.000000	7.183062
497.000000	7.309562
498.000000	7.438430
499.000000	7.570264
500.000000	7.704600
501.000000	7.842127
502.000000	7.984801
503.000000	8.131765
504.000000	8.283835
505.000000	8.442022
506.000000	8.606802
507.000000	8.777218
508.000000	8.953408
509.000000	9.135954
510.000000	9.324773
511.000000	9.519697
512.000000	9.719493
513.000000	9.924753
514.000000	10.133455
515.000000	10.343938
516.000000	10.556890
517.000000	10.772973
518.000000	10.989123
519.000000	11.204168
520.000000	11.418486
521.000000	11.631385
522.000000	11.842750
523.000000	12.051553
524.000000	12.258724
525.000000	12.465099
526.000000	12.669399
527.000000	12.871838
528.000000	13.072628
529.000000	13.271962
530.000000	13.469820
531.000000	13.665885
532.000000	13.860667
533.000000	14.052953
534.000000	14.242414
535.000000	14.428445
536.000000	14.610719
537.000000	14.787267
538.000000	14.957780
539.000000	15.122869
540.000000	15.281963
541.000000	15.435285
542.000000	15.582455
543.000000	15.723903
544.000000	15.859579
545.000000	15.989256
546.000000	16.113485
547.000000	16.233526
548.000000	16.349582
549.000000	16.462044
550.000000	16.569327
551.000000	16.671361
552.000000	16.768646
553.000000	16.861240
554.000000	16.947104
555.000000	17.027344
556.000000	17.100091
557.000000	17.165895
558.000000	17.224878
559.000000	17.276464
560.000000	17.280283
561.000000	17.271273
562.000000	17.252955
563.000000	17.225593
564.000000	17.192683
565.000000	17.153775
566.000000	17.109626
567.000000	17.062426
568.000000	17.011187
569.000000	16.955152
570.000000	16.936035
571.000000	16.920853
572.000000	16.904448
573.000000	16.886792
574.000000	16.866747
575.000000	16.843076
576.000000	16.817996
577.000000	16.788499
578.000000	16.756079
579.000000	16.720848
580.000000	16.681429
581.000000	16.638074
582.000000	16.590366
583.000000	16.538782
584.000000	16.483433
585.000000	16.424148
586.000000	16.360752
587.000000	16.295153
588.000000	16.228859
589.000000	16.159590
590.000000	16.091413
591.000000	16.021422
592.000000	15.950595
593.000000	15.880250
594.000000	15.811699
595.000000	15.747454
596.000000	15.685884
597.000000	15.625850
598.000000	15.566837
599.000000	15.511448
600.000000	15.458040
601.000000	15.409189
602.000000	15.362863
603.000000	15.319184
604.000000	15.278023
605.000000	15.237489
606.000000	15.196074
607.000000	15.155848
608.000000	15.116083
609.000000	15.073590
610.000000	15.029077
611.000000	14.982594
612.000000	14.933785
613.000000	14.881872
614.000000	14.825735
615.000000	14.766419
616.000000	14.706133
617.000000	14.643781
618.000000	14.578989
619.000000	14.515618
620.000000	14.453471
621.000000	14.391907
622.000000	14.334404
623.000000	14.280328
624.000000	14.232524
625.000000	14.193179
626.000000	14.161305
627.000000	14.137408
628.000000	14.123765
629.000000	14.120808
630.000000	14.128069
631.000000	14.146091
632.000000	14.173198
633.000000	14.210723
634.000000	14.256741
635.000000	14.309673
636.000000	14.370154
637.000000	14.436922
638.000000	14.508366
639.000000	14.584122
640.000000	14.662358
641.000000	14.740388
642.000000	14.818205
643.000000	14.895445
644.000000	14.969736
645.000000	15.039724
646.000000	15.106408
647.000000	15.167203
648.000000	15.223050
649.000000	15.272642
650.000000	15.316742
651.000000	15.355414
652.000000	15.389282
653.000000	15.417205
654.000000	15.439133
655.000000	15.458181
656.000000	15.474964
657.000000	15.489133
658.000000	15.501067
659.000000	15.511097
660.000000	15.521850
661.000000	15.535675
662.000000	15.554562
663.000000	15.579385
664.000000	15.611189
665.000000	15.647708
666.000000	15.688008
667.000000	15.738065
668.000000	15.796647
669.000000	15.863620
670.000000	15.938725
671.000000	16.019002
672.000000	16.104128
673.000000	16.193779
674.000000	16.288263
675.000000	16.387249
676.000000	16.491059
677.000000	16.594128
678.000000	16.695861
679.000000	16.796775
680.000000	16.895777
681.000000	16.994682
682.000000	17.090993
683.000000	17.184401
684.000000	17.274265
685.000000	17.359126
686.000000	17.438555
687.000000	17.514783
688.000000	17.588182
689.000000	17.658438
690.000000	17.724562
691.000000	17.785581
692.000000	17.842231
693.000000	17.895887
694.000000	17.945974
695.000000	17.993408
696.000000	18.039548
697.000000	18.084247
698.000000	18.128599
699.000000	18.175231
700.000000	18.223752
701.000000	18.275517
702.000000	18.333148
703.000000	18.394539
704.000000	18.459995
705.000000	18.530370
706.000000	18.608264
707.000000	18.694354
708.000000	18.784788
709.000000	18.876858
710.000000	18.973309
711.000000	19.075178
712.000000	19.180095
713.000000	19.289245
714.000000	19.401707
715.000000	19.516326
716.000000	19.630125
717.000000	19.741671
718.000000	19.855784
719.000000	19.970994
720.000000	20.083911
721.000000	20.193115
722.000000	20.299655
723.000000	20.401820
724.000000	20.500759
725.000000	20.597843
726.000000	20.693189
727.000000	20.783757
728.000000	20.867055
729.000000	20.945089
730.000000	21.020076
731.000000	21.090709
732.000000	21.156437
733.000000	21.217651
734.000000	21.273411
735.000000	21.321628
736.000000	21.363343
737.000000	21.402304
738.000000	21.440278
739.000000	21.476188
740.000000	21.507055
741.000000	21.534358
742.000000	21.558319
743.000000	21.580296
744.000000	21.600668
745.000000	21.621627
746.000000	21.642924
747.000000	21.665378
748.000000	21.687675
749.000000	21.709716
750.000000	21.734254
751.000000	21.761297
752.000000	21.791070
753.000000	21.820356
754.000000	21.851140
755.000000	21.886898
756.000000	21.925817
757.000000	21.963360
758.000000	22.000307
759.000000	22.038510
760.000000	22.077788
761.000000	22.118851
762.000000	22.158789
763.000000	22.201347
764.000000	22.246899
765.000000	22.290056
766.000000	22.326672
767.000000	22.361830
768.000000	22.397723
769.000000	22.430939
770.000000	22.458049
771.000000	22.477676
772.000000	22.493851
773.000000	22.505996
774.000000	22.511627
775.000000	22.513897
776.000000	22.513831
777.000000	22.508591
778.000000	22.497619
779.000000	22.483283
780.000000	22.468982
781.000000	22.451090
782.000000	22.431660
783.000000	22.408250
784.000000	22.380640
785.000000	22.348512
786.000000	22.311557
787.000000	22.272431
788.000000	22.229614
789.000000	22.184890
790.000000	22.137261
791.000000	22.089506
792.000000	22.037000
793.000000	21.982752
794.000000	21.929970
795.000000	21.872772
796.000000	21.819226
797.000000	21.769309
798.000000	21.717508
799.000000	21.661385
800.000000	21.606781
801.000000	21.550723
802.000000	21.494962
803.000000	21.436407
804.000000	21.380370
805.000000	21.328761
806.000000	21.277879
807.000000	21.223840
808.000000	21.179703
809.000000	21.138791
810.000000	21.100791
811.000000	21.062601
812.000000	21.026519
813.000000	20.989986
814.000000	20.948712
815.000000	20.909310
816.000000	20.867301
817.000000	20.826476
818.000000	20.773455
819.000000	20.723596
820.000000	20.665858
821.000000	20.609855
822.000000	20.552643
823.000000	20.498517
824.000000	20.440676
825.000000	20.375250
826.000000	20.304267
827.000000	20.226572
828.000000	20.149561
829.000000	20.069258
830.000000	19.987059
831.000000	19.900255
832.000000	19.812189
833.000000	19.715976
834.000000	19.630042
835.000000	19.545788
836.000000	19.459624
837.000000	19.368040
838.000000	19.274348
839.000000	19.181982
840.000000	19.091049
841.000000	19.000158
842.000000	18.912934
843.000000	18.827215
844.000000	18.728427
845.000000	18.627362
846.000000	18.526716
847.000000	18.436134
848.000000	18.351223
849.000000	18.248003
850.000000	18.160489
851.000000	18.059429
852.000000	17.954092
853.000000	17.867061
854.000000	17.784693
855.000000	17.698251
856.000000	17.626853
857.000000	17.587250
858.000000	17.565817
859.000000	17.593173
860.000000	17.606577
861.000000	17.640282
862.000000	17.678129
863.000000	17.709228
864.000000	17.749940
865.000000	17.807141
866.000000	17.862160
867.000000	17.892686
868.000000	17.911043
869.000000	17.902260
870.000000	17.900093
871.000000	17.899553
872.000000	17.900460
873.000000	17.898867
874.000000	17.893793
875.000000	17.884117
876.000000	17.871933
877.000000	17.856917
878.000000	17.841930
879.000000	17.824050
880.000000	17.803523
881.000000	17.781677
882.000000	17.759253
883.000000	17.738747
884.000000	17.718073
885.000000	17.697797
886.000000	17.677887
887.000000	17.660207
888.000000	17.640490
889.000000	17.619963
890.000000	17.599047
891.000000	17.581663
892.000000	17.564840
893.000000	17.548690
894.000000	17.533323
895.000000	17.518700
896.000000	17.504823
897.000000	17.490087
898.000000	17.475153
899.000000	17.462610
900.000000	17.452387
901.000000	17.442520
902.000000	17.433243
903.000000	17.422977
904.000000	17.411520
905.000000	17.401497
906.000000	17.390940
907.000000	17.381913
908.000000	17.373990
909.000000	17.365713
910.000000	17.356723
911.000000	17.343740
912.000000	17.329327
913.000000	17.316870
914.000000	17.306103
915.000000	17.292303
916.000000	17.279230
917.000000	17.263570
918.000000	17.246020
919.000000	17.228980
920.000000	17.211910
921.000000	17.194643
922.000000	17.179063
923.000000	17.161213
924.000000	17.141587
925.000000	17.121897
926.000000	17.099913
927.000000	17.079410
928.000000	17.060697
929.000000	17.039073
930.000000	17.016840
931.000000	16.997453
932.000000	16.977133
933.000000	16.958823
934.000000	16.943397
935.000000	16.931517
936.000000	16.922077
937.000000	16.912290
938.000000	16.903537
939.000000	16.898633
940.000000	16.894083
941.000000	16.889000
942.000000	16.884940
943.000000	16.882563
944.000000	16.879633
945.000000	16.877283
946.000000	16.876520
947.000000	16.877107
948.000000	16.877557
949.000000	16.881260
950.000000	16.887630
951.000000	16.896607
952.000000	16.906950
953.000000	16.916480
954.000000	16.927507
955.000000	16.939233
956.000000	16.951040
957.000000	16.962810
958.000000	16.976117
959.000000	16.988983
960.000000	17.001657
961.000000	17.013923
962.000000	17.025807
963.000000	17.037753
964.000000	17.050207
965.000000	17.063327
966.000000	17.076013
967.000000	17.089420
968.000000	17.102803
969.000000	17.115093
970.000000	17.127907
971.000000	17.140223
972.000000	17.153513
973.000000	17.167923
974.000000	17.182170
975.000000	17.194597
976.000000	17.208757
977.000000	17.223607
978.000000	17.239150
979.000000	17.254927
980.000000	17.270893
981.000000	17.287633
982.000000	17.305337
983.000000	17.323103
984.000000	17.340153
985.000000	17.357680
986.000000	17.374607
987.000000	17.392113
988.000000	17.409873
989.000000	17.428643
990.000000	17.447297
991.000000	17.465840
992.000000	17.484497
993.000000	17.503653
994.000000	17.524880
995.000000	17.547290
996.000000	17.569430
997.000000	17.591930
998.000000	17.615087
999.000000	17.637183
1000.000000	17.659333
1001.000000	17.682230
1002.000000	17.704787
1003.000000	17.726473
1004.000000	17.748223
1005.000000	17.770190
1006.000000	17.793430
1007.000000	17.816247
1008.000000	17.837020
1009.000000	17.858797
1010.000000	17.881393
1011.000000	17.904663
1012.000000	17.928840
1013.000000	17.952773
1014.000000	17.974437
1015.000000	17.996833
1016.000000	18.019383
1017.000000	18.040470
1018.000000	18.062677
1019.000000	18.085227
1020.000000	18.107913
1021.000000	18.130763
1022.000000	18.153697
1023.000000	18.177727
1024.000000	18.202127
1025.000000	18.224873
1026.000000	18.247367
1027.000000	18.270607
1028.000000	18.294377
1029.000000	18.318123
1030.000000	18.340947
1031.000000	18.362940
1032.000000	18.383887
1033.000000	18.403560
1034.000000	18.424973
1035.000000	18.446573
1036.000000	18.467603
1037.000000	18.488707
1038.000000	18.508147
1039.000000	18.526873
1040.000000	18.546507
1041.000000	18.567027
1042.000000	18.588163
1043.000000	18.609183
1044.000000	18.629087
1045.000000	18.648917
1046.000000	18.668243
1047.000000	18.686933
1048.000000	18.706377
1049.000000	18.727100
1050.000000	18.746717
1051.000000	18.764440
1052.000000	18.781547
1053.000000	18.799633
1054.000000	18.818427
1055.000000	18.837657
1056.000000	18.856587
1057.000000	18.875637
1058.000000	18.896143
1059.000000	18.915920
1060.000000	18.936037
1061.000000	18.956570
1062.000000	18.976080
1063.000000	18.995553
1064.000000	19.014310
1065.000000	19.032293
1066.000000	19.052443
1067.000000	19.073040
1068.000000	19.092857
1069.000000	19.112290
1070.000000	19.133243
1071.000000	19.155123
1072.000000	19.177543
1073.000000	19.199143
1074.000000	19.220623
1075.000000	19.242910
1076.000000	19.265507
1077.000000	19.289427
1078.000000	19.311103
1079.000000	19.333020
1080.000000	19.354330
1081.000000	19.375437
1082.000000	19.396983
1083.000000	19.417130
1084.000000	19.436497
1085.000000	19.455940
1086.000000	19.473660
1087.000000	19.489497
1088.000000	19.506607
1089.000000	19.522403
1090.000000	19.537033
1091.000000	19.550940
1092.000000	19.565563
1093.000000	19.580093
1094.000000	19.593297
1095.000000	19.605413
1096.000000	19.617867
1097.000000	19.630190
1098.000000	19.641610
1099.000000	19.652197
1100.000000	19.662397
1101.000000	19.673463
1102.000000	19.682260
1103.000000	19.689913
1104.000000	19.699213
1105.000000	19.708210
1106.000000	19.715120
1107.000000	19.721327
1108.000000	19.728067
1109.000000	19.734860
1110.000000	19.741750
1111.000000	19.746657
1112.000000	19.751743
1113.000000	19.757777
1114.000000	19.762590
1115.000000	19.767207
1116.000000	19.773477
1117.000000	19.779350
1118.000000	19.785760
1119.000000	19.791840
1120.000000	19.796643
1121.000000	19.800430
1122.000000	19.805400
1123.000000	19.813000
1124.000000	19.820170
1125.000000	19.824933
1126.000000	19.826830
1127.000000	19.828027
1128.000000	19.826750
1129.000000	19.827200
1130.000000	19.829013
1131.000000	19.828713
1132.000000	19.822337
1133.000000	19.808813
1134.000000	19.796103
1135.000000	19.787733
1136.000000	19.783200
1137.000000	19.775947
1138.000000	19.764880
1139.000000	19.750193
1140.000000	19.732707
1141.000000	19.718027
1142.000000	19.704943
1143.000000	19.696663
1144.000000	19.685607
1145.000000	19.672967
1146.000000	19.656693
1147.000000	19.642603
1148.000000	19.633763
1149.000000	19.624850
1150.000000	19.617350
1151.000000	19.609713
1152.000000	19.602713
1153.000000	19.594050
1154.000000	19.587107
1155.000000	19.576167
1156.000000	19.564310
1157.000000	19.551540
1158.000000	19.534260
1159.000000	19.515263
1160.000000	19.493480
1161.000000	19.467850
1162.000000	19.440950
1163.000000	19.410740
1164.000000	19.378963
1165.000000	19.347370
1166.000000	19.313440
1167.000000	19.276070
1168.000000	19.240553
1169.000000	19.205410
1170.000000	19.169840
1171.000000	19.136543
1172.000000	19.104953
1173.000000	19.074800
1174.000000	19.047673
1175.000000	19.021553
1176.000000	18.998507
1177.000000	18.979560
1178.000000	18.962237
1179.000000	18.948930
1180.000000	18.936810
1181.000000	18.925067
1182.000000	18.915100
1183.000000	18.907683
1184.000000	18.898863
1185.000000	18.891070
1186.000000	18.884620
1187.000000	18.879723
1188.000000	18.874707
1189.000000	18.870867
1190.000000	18.870747
1191.000000	18.873340
1192.000000	18.877077
1193.000000	18.884100
1194.000000	18.893930
1195.000000	18.907040
1196.000000	18.921557
1197.000000	18.937340
1198.000000	18.955490
1199.000000	18.972993
1200.000000	18.990673
1201.000000	19.009247
1202.000000	19.027993
1203.000000	19.046047
1204.000000	19.062987
1205.000000	19.077873
1206.000000	19.092770
1207.000000	19.108300
1208.000000	19.122140
1209.000000	19.136347
1210.000000	19.151523
1211.000000	19.165910
1212.000000	19.180100
1213.000000	19.194517
1214.000000	19.208863
1215.000000	19.224380
1216.000000	19.239117
1217.000000	19.251993
1218.000000	19.265273
1219.000000	19.278490
1220.000000	19.288617
1221.000000	19.297653
1222.000000	19.305600
1223.000000	19.311897
1224.000000	19.318633
1225.000000	19.324137
1226.000000	19.329270
1227.000000	19.334243
1228.000000	19.338837
1229.000000	19.342423
1230.000000	19.346007
1231.000000	19.349540
1232.000000	19.353177
1233.000000	19.355533
1234.000000	19.356553
1235.000000	19.356277
1236.000000	19.356257
1237.000000	19.356200
1238.000000	19.357140
1239.000000	19.358477
1240.000000	19.359797
1241.000000	19.362750
1242.000000	19.365780
1243.000000	19.370477
1244.000000	19.376520
1245.000000	19.384483
1246.000000	19.390957
1247.000000	19.398713
1248.000000	19.407137
1249.000000	19.416597
1250.000000	19.429547
1251.000000	19.442820
1252.000000	19.456617
1253.000000	19.471207
1254.000000	19.485663
1255.000000	19.500410
1256.000000	19.516893
1257.000000	19.533187
1258.000000	19.548967
1259.000000	19.564053
1260.000000	19.576920
1261.000000	19.588403
1262.000000	19.600247
1263.000000	19.611487
1264.000000	19.622993
1265.000000	19.633350
1266.000000	19.642593
1267.000000	19.651450
1268.000000	19.659420
1269.000000	19.666960
1270.000000	19.673480
1271.000000	19.679177
1272.000000	19.683877
1273.000000	19.687230
1274.000000	19.688910
1275.000000	19.690010
1276.000000	19.691123
1277.000000	19.692007
1278.000000	19.692410
1279.000000	19.692163
1280.000000	19.691757
1281.000000	19.691810
1282.000000	19.692557
1283.000000	19.694117
1284.000000	19.696067
1285.000000	19.698647
1286.000000	19.702400
1287.000000	19.705450
1288.000000	19.708053
1289.000000	19.712300
1290.000000	19.718127
1291.000000	19.724593
1292.000000	19.731247
1293.000000	19.736673
1294.000000	19.741243
1295.000000	19.746200
1296.000000	19.751240
1297.000000	19.757367
1298.000000	19.764143
1299.000000	19.769083
1300.000000	19.772747
1301.000000	19.775627
1302.000000	19.777380
1303.000000	19.779650
1304.000000	19.782543
1305.000000	19.785263
1306.000000	19.786703
1307.000000	19.786060
1308.000000	19.785057
1309.000000	19.783917
1310.000000	19.782360
1311.000000	19.780173
1312.000000	19.777667
1313.000000	19.774083
1314.000000	19.768567
1315.000000	19.761077
1316.000000	19.752817
1317.000000	19.744790
1318.000000	19.735073
1319.000000	19.723767
1320.000000	19.710927
1321.000000	19.696403
1322.000000	19.680097
1323.000000	19.663717
1324.000000	19.646960
1325.000000	19.629847
1326.000000	19.611870
1327.000000	19.593090
1328.000000	19.574630
1329.000000	19.555833
1330.000000	19.536470
1331.000000	19.516943
1332.000000	19.497060
1333.000000	19.475720
1334.000000	19.452867
1335.000000	19.427737
1336.000000	19.401387
1337.000000	19.373413
1338.000000	19.343160
1339.000000	19.311850
1340.000000	19.280340
1341.000000	19.246607
1342.000000	19.210693
1343.000000	19.173510
1344.000000	19.135470
1345.000000	19.096027
1346.000000	19.053453
1347.000000	19.008980
1348.000000	18.964830
1349.000000	18.918320
1350.000000	18.867010
1351.000000	18.813960
1352.000000	18.759853
1353.000000	18.703647
1354.000000	18.648610
1355.000000	18.598873
1356.000000	18.555703
1357.000000	18.513437
1358.000000	18.468177
1359.000000	18.424207
1360.000000	18.381263
1361.000000	18.343853
1362.000000	18.318493
1363.000000	18.298453
1364.000000	18.274607
1365.000000	18.246420
1366.000000	18.214610
1367.000000	18.177987
1368.000000	18.143810
1369.000000	18.108473
1370.000000	18.069777
1371.000000	18.022640
1372.000000	17.960403
1373.000000	17.884997
1374.000000	17.798493
1375.000000	17.697617
1376.000000	17.582780
1377.000000	17.456593
1378.000000	17.315057
1379.000000	17.157680
1380.000000	16.993140
1381.000000	16.825970
1382.000000	16.663700
1383.000000	16.514040
1384.000000	16.380663
1385.000000	16.259607
1386.000000	16.148553
1387.000000	16.054460
1388.000000	15.980760
1389.000000	15.930197
1390.000000	15.892947
1391.000000	15.859050
1392.000000	15.830253
1393.000000	15.802520
1394.000000	15.772413
1395.000000	15.746943
1396.000000	15.736077
1397.000000	15.729713
1398.000000	15.710127
1399.000000	15.677430
1400.000000	15.647520
1401.000000	15.632700
1402.000000	15.610260
1403.000000	15.575533
1404.000000	15.531617
1405.000000	15.485453
1406.000000	15.425513
1407.000000	15.355993
1408.000000	15.290700
1409.000000	15.229173
1410.000000	15.159797
1411.000000	15.074333
1412.000000	14.982393
1413.000000	14.893260
1414.000000	14.812703
1415.000000	14.730523
1416.000000	14.644833
1417.000000	14.554077
1418.000000	14.465577
1419.000000	14.378997
1420.000000	14.296163
1421.000000	14.215130
1422.000000	14.135280
1423.000000	14.061620
1424.000000	13.987167
1425.000000	13.912807
1426.000000	13.839420
1427.000000	13.774840
1428.000000	13.712083
1429.000000	13.650153
1430.000000	13.586850
1431.000000	13.525247
1432.000000	13.473307
1433.000000	13.421137
1434.000000	13.371330
1435.000000	13.323790
1436.000000	13.279707
1437.000000	13.236543
1438.000000	13.195700
1439.000000	13.157303
1440.000000	13.121940
1441.000000	13.089213
1442.000000	13.053253
1443.000000	13.018813
1444.000000	12.984993
1445.000000	12.952303
1446.000000	12.925403
1447.000000	12.899843
1448.000000	12.872633
1449.000000	12.843793
1450.000000	12.815750
1451.000000	12.789763
1452.000000	12.768287
1453.000000	12.745603
1454.000000	12.722950
1455.000000	12.699590
1456.000000	12.673260
1457.000000	12.647820
1458.000000	12.621280
1459.000000	12.594970
1460.000000	12.568037
1461.000000	12.540633
1462.000000	12.511603
1463.000000	12.484520
1464.000000	12.457440
1465.000000	12.430197
1466.000000	12.403157
1467.000000	12.375023
1468.000000	12.347723
1469.000000	12.321327
1470.000000	12.295387
1471.000000	12.270760
1472.000000	12.247450
1473.000000	12.222873
1474.000000	12.197383
1475.000000	12.172337
1476.000000	12.147267
1477.000000	12.123067
1478.000000	12.101500
1479.000000	12.082137
1480.000000	12.064680
1481.000000	12.046707
1482.000000	12.028047
1483.000000	12.011640
1484.000000	11.998287
1485.000000	11.985553
1486.000000	11.973573
1487.000000	11.962730
1488.000000	11.952843
1489.000000	11.942567
1490.000000	11.932097
1491.000000	11.922100
1492.000000	11.913363
1493.000000	11.903893
1494.000000	11.895063
1495.000000	11.887560
1496.000000	11.883107
1497.000000	11.879487
1498.000000	11.876560
1499.000000	11.876233
1500.000000	11.877743
1501.000000	11.880420
1502.000000	11.884917
1503.000000	11.892487
1504.000000	11.903003
1505.000000	11.917090
1506.000000	11.932077
1507.000000	11.949447
1508.000000	11.969330
1509.000000	11.989433
1510.000000	12.010537
1511.000000	12.033317
1512.000000	12.056957
1513.000000	12.082773
1514.000000	12.108103
1515.000000	12.133580
1516.000000	12.158810
1517.000000	12.184657
1518.000000	12.210343
1519.000000	12.236030
1520.000000	12.262427
1521.000000	12.288623
1522.000000	12.315807
1523.000000	12.342307
1524.000000	12.368897
1525.000000	12.395183
1526.000000	12.420587
1527.000000	12.445590
1528.000000	12.469407
1529.000000	12.494443
1530.000000	12.518777
1531.000000	12.542287
1532.000000	12.564660
1533.000000	12.585597
1534.000000	12.604710
1535.000000	12.623257
1536.000000	12.642127
1537.000000	12.658937
1538.000000	12.675340
1539.000000	12.689603
1540.000000	12.703287
1541.000000	12.716580
1542.000000	12.728840
1543.000000	12.740813
1544.000000	12.753410
1545.000000	12.765030
1546.000000	12.776607
1547.000000	12.789483
1548.000000	12.802360
1549.000000	12.816703
1550.000000	12.831957
1551.000000	12.847810
1552.000000	12.865027
1553.000000	12.882903
1554.000000	12.900610
1555.000000	12.919560
1556.000000	12.937907
1557.000000	12.954687
1558.000000	12.971173
1559.000000	12.985243
1560.000000	12.997767
1561.000000	13.008790
1562.000000	13.016960
1563.000000	13.023140
1564.000000	13.027300
1565.000000	13.028857
1566.000000	13.029410
1567.000000	13.028640
1568.000000	13.026407
1569.000000	13.023387
1570.000000	13.018643
1571.000000	13.013487
1572.000000	13.007310
1573.000000	12.999823
1574.000000	12.993497
1575.000000	12.988587
1576.000000	12.984590
1577.000000	12.981327
1578.000000	12.977983
1579.000000	12.976380
1580.000000	12.977267
1581.000000	12.979127
1582.000000	12.983093
1583.000000	12.988790
1584.000000	12.994753
1585.000000	13.000803
1586.000000	13.007027
1587.000000	13.015020
1588.000000	13.024810
1589.000000	13.035277
1590.000000	13.045200
1591.000000	13.055830
1592.000000	13.066580
1593.000000	13.077473
1594.000000	13.089347
1595.000000	13.101803
1596.000000	13.115627
1597.000000	13.128973
1598.000000	13.142513
1599.000000	13.156630
1600.000000	13.172067
1601.000000	13.187800
1602.000000	13.204977
1603.000000	13.224300
1604.000000	13.243593
1605.000000	13.261603
1606.000000	13.279700
1607.000000	13.299060
1608.000000	13.318433
1609.000000	13.337680
1610.000000	13.356610
1611.000000	13.373897
1612.000000	13.390877
1613.000000	13.406957
1614.000000	13.422677
1615.000000	13.438813
1616.000000	13.454067
1617.000000	13.467513
1618.000000	13.480570
1619.000000	13.492203
1620.000000	13.501820
1621.000000	13.511790
1622.000000	13.521137
1623.000000	13.530017
1624.000000	13.538750
1625.000000	13.547280
1626.000000	13.555503
1627.000000	13.563967
1628.000000	13.571467
1629.000000	13.579193
1630.000000	13.587517
1631.000000	13.595957
1632.000000	13.604780
1633.000000	13.613023
1634.000000	13.621430
1635.000000	13.630600
1636.000000	13.638720
1637.000000	13.646947
1638.000000	13.655647
1639.000000	13.662920
1640.000000	13.670060
1641.000000	13.677417
1642.000000	13.684647
1643.000000	13.690387
1644.000000	13.694940
1645.000000	13.699450
1646.000000	13.702987
1647.000000	13.706270
1648.000000	13.708423
1649.000000	13.710877
1650.000000	13.713907
1651.000000	13.713953
1652.000000	13.710270
1653.000000	13.705937
1654.000000	13.699487
1655.000000	13.690677
1656.000000	13.679353
1657.000000	13.664330
1658.000000	13.646313
1659.000000	13.625583
1660.000000	13.601450
1661.000000	13.575690
1662.000000	13.547917
1663.000000	13.516130
1664.000000	13.481013
1665.000000	13.443880
1666.000000	13.404587
1667.000000	13.364053
1668.000000	13.316250
1669.000000	13.265720
1670.000000	13.212600
1671.000000	13.157813
1672.000000	13.101377
1673.000000	13.045587
1674.000000	12.991067
1675.000000	12.934123
1676.000000	12.877663
1677.000000	12.820373
1678.000000	12.767800
1679.000000	12.715570
1680.000000	12.663933
1681.000000	12.609647
1682.000000	12.553617
1683.000000	12.495457
1684.000000	12.436357
1685.000000	12.376897
1686.000000	12.318463
1687.000000	12.261710
1688.000000	12.210690
1689.000000	12.164977
1690.000000	12.125973
1691.000000	12.096817
1692.000000	12.078570
1693.000000	12.068780
1694.000000	12.068263
1695.000000	12.075883
1696.000000	12.089493
1697.000000	12.107020
1698.000000	12.125180
1699.000000	12.144330
1700.000000	12.160520
1701.000000	12.173860
1702.000000	12.185527
1703.000000	12.194427
1704.000000	12.197633
1705.000000	12.196560
1706.000000	12.192447
1707.000000	12.184317
1708.000000	12.172177
1709.000000	12.155800
1710.000000	12.135737
1711.000000	12.113710
1712.000000	12.082623
1713.000000	12.047473
1714.000000	12.007837
1715.000000	11.964283
1716.000000	11.913457
1717.000000	11.859673
1718.000000	11.801547
1719.000000	11.740407
1720.000000	11.677723
1721.000000	11.611293
1722.000000	11.548070
1723.000000	11.487737
1724.000000	11.433003
1725.000000	11.383187
1726.000000	11.341767
1727.000000	11.308200
1728.000000	11.284100
1729.000000	11.268090
1730.000000	11.260967
1731.000000	11.262107
1732.000000	11.268210
1733.000000	11.279437
1734.000000	11.293330
1735.000000	11.310473
1736.000000	11.328860
1737.000000	11.350093
1738.000000	11.372237
1739.000000	11.395927
1740.000000	11.418223
1741.000000	11.441203
1742.000000	11.467597
1743.000000	11.493667
1744.000000	11.520280
1745.000000	11.546963
1746.000000	11.575473
1747.000000	11.601367
1748.000000	11.627953
1749.000000	11.652093
1750.000000	11.675597
1751.000000	11.697457
1752.000000	11.715133
1753.000000	11.730673
1754.000000	11.744427
1755.000000	11.756270
1756.000000	11.763433
1757.000000	11.769337
1758.000000	11.772030
1759.000000	11.773643
1760.000000	11.774413
1761.000000	11.774673
1762.000000	11.775127
1763.000000	11.775887
1764.000000	11.776303
1765.000000	11.777117
1766.000000	11.780510
1767.000000	11.786083
1768.000000	11.792993
1769.000000	11.799347
1770.000000	11.805927
1771.000000	11.815390
1772.000000	11.825983
1773.000000	11.837420
1774.000000	11.849537
1775.000000	11.861757
1776.000000	11.874297
1777.000000	11.885373
1778.000000	11.895890
1779.000000	11.909293
1780.000000	11.923303
1781.000000	11.936447
1782.000000	11.949613
1783.000000	11.961267
1784.000000	11.971150
1785.000000	11.980310
1786.000000	11.988053
1787.000000	11.994077
1788.000000	11.999983
1789.000000	12.003823
1790.000000	12.005767
1791.000000	12.005583
1792.000000	12.004570
1793.000000	12.004657
1794.000000	12.005873
1795.000000	12.007600
1796.000000	12.009573
1797.000000	12.012320
1798.000000	12.013590
1799.000000	12.013853
1800.000000	12.015950
1801.000000	12.020117
1802.000000	12.025610
1803.000000	12.030720
1804.000000	12.033717
1805.000000	12.033687
1806.000000	12.033927
1807.000000	12.038163
1808.000000	12.043677
1809.000000	12.047787
1810.000000	12.050370
1811.000000	12.051917
1812.000000	12.054280
1813.000000	12.056603
1814.000000	12.059017
1815.000000	12.063873
1816.000000	12.068273
1817.000000	12.067280
1818.000000	12.062170
1819.000000	12.052907
1820.000000	12.045753
1821.000000	12.047797
1822.000000	12.055750
1823.000000	12.061650
1824.000000	12.059080
1825.000000	12.048633
1826.000000	12.035897
1827.000000	12.026583
1828.000000	12.024510
1829.000000	12.030767
1830.000000	12.037637
1831.000000	12.038317
1832.000000	12.030447
1833.000000	12.019203
1834.000000	12.011560
1835.000000	12.007897
1836.000000	12.009473
1837.000000	12.014987
1838.000000	12.020130
1839.000000	12.023530
1840.000000	12.026477
1841.000000	12.030580
1842.000000	12.043727
1843.000000	12.065107
1844.000000	12.084367
1845.000000	12.093150
1846.000000	12.088217
1847.000000	12.079737
1848.000000	12.082833
1849.000000	12.099900
1850.000000	12.116680
1851.000000	12.118723
1852.000000	12.102820
1853.000000	12.079690
1854.000000	12.066197
1855.000000	12.068940
1856.000000	12.081623
1857.000000	12.086290
1858.000000	12.071800
1859.000000	12.045050
1860.000000	12.021243
1861.000000	12.007813
1862.000000	12.000333
1863.000000	11.989587
1864.000000	11.968057
1865.000000	11.934040
1866.000000	11.891140
1867.000000	11.846810
1868.000000	11.801220
1869.000000	11.747763
1870.000000	11.689970
1871.000000	11.635377
1872.000000	11.585477
1873.000000	11.543587
1874.000000	11.509763
1875.000000	11.480710
1876.000000	11.454887
1877.000000	11.428117
1878.000000	11.396870
1879.000000	11.361353
1880.000000	11.314333
1881.000000	11.247383
1882.000000	11.165380
1883.000000	11.071943
1884.000000	10.969403
1885.000000	10.861770
1886.000000	10.749140
1887.000000	10.628843
1888.000000	10.500537
1889.000000	10.363263
1890.000000	10.221447
1891.000000	10.081710
1892.000000	9.943087
1893.000000	9.799843
1894.000000	9.649673
1895.000000	9.489527
1896.000000	9.318703
1897.000000	9.142443
1898.000000	8.964870
1899.000000	8.791043
1900.000000	8.621990
1901.000000	8.452707
1902.000000	8.279383
1903.000000	8.105013
1904.000000	7.932427
1905.000000	7.769320
1906.000000	7.619997
1907.000000	7.482400
1908.000000	7.352103
1909.000000	7.223730
1910.000000	7.093070
1911.000000	6.963913
1912.000000	6.841720
1913.000000	6.730673
1914.000000	6.631497
1915.000000	6.538017
1916.000000	6.445187
1917.000000	6.352753
1918.000000	6.263707
1919.000000	6.180660
1920.000000	6.107240
1921.000000	6.045387
1922.000000	5.990400
1923.000000	5.938600
1924.000000	5.885657
1925.000000	5.832530
1926.000000	5.782530
1927.000000	5.741087
1928.000000	5.707710
1929.000000	5.680807
1930.000000	5.658737
1931.000000	5.636547
1932.000000	5.616557
1933.000000	5.595670
1934.000000	5.579190
1935.000000	5.567273
1936.000000	5.559040
1937.000000	5.552370
1938.000000	5.548200
1939.000000	5.546307
1940.000000	5.546993
1941.000000	5.549067
1942.000000	5.551113
1943.000000	5.558747
1944.000000	5.566930
1945.000000	5.578543
1946.000000	5.593403
1947.000000	5.609683
1948.000000	5.627297
1949.000000	5.645437
1950.000000	5.661670
1951.000000	5.679333
1952.000000	5.699813
1953.000000	5.719627
1954.000000	5.741587
1955.000000	5.765110
1956.000000	5.789383
1957.000000	5.814020
1958.000000	5.836857
1959.000000	5.861407
1960.000000	5.887377
1961.000000	5.914957
1962.000000	5.942343
1963.000000	5.968997
1964.000000	5.997727
1965.000000	6.025560
1966.000000	6.050397
1967.000000	6.074210
1968.000000	6.099930
1969.000000	6.124093
1970.000000	6.147797
1971.000000	6.170137
1972.000000	6.192083
1973.000000	6.214610
1974.000000	6.236843
1975.000000	6.258630
1976.000000	6.282337
1977.000000	6.307073
1978.000000	6.330187
1979.000000	6.354003
1980.000000	6.376593
1981.000000	6.400467
1982.000000	6.425917
1983.000000	6.450143
1984.000000	6.472727
1985.000000	6.495080
1986.000000	6.517300
1987.000000	6.538510
1988.000000	6.562423
1989.000000	6.584257
1990.000000	6.607563
1991.000000	6.630773
1992.000000	6.651260
1993.000000	6.673373
1994.000000	6.694723
1995.000000	6.715687
1996.000000	6.736553
1997.000000	6.756683
1998.000000	6.773960
1999.000000	6.792187
2000.000000	6.809960
2001.000000	6.825823
2002.000000	6.841390
2003.000000	6.857550
2004.000000	6.872363
2005.000000	6.886180
2006.000000	6.900337
2007.000000	6.913987
2008.000000	6.926130
2009.000000	6.936673
2010.000000	6.945513
2011.000000	6.952797
2012.000000	6.959997
2013.000000	6.963500
2014.000000	6.966153
2015.000000	6.967863
2016.000000	6.966867
2017.000000	6.963540
2018.000000	6.959533
2019.000000	6.953653
2020.000000	6.945197
2021.000000	6.934150
2022.000000	6.920623
2023.000000	6.906523
2024.000000	6.891173
2025.000000	6.873717
2026.000000	6.854077
2027.000000	6.834087
2028.000000	6.811987
2029.000000	6.788237
2030.000000	6.763543
2031.000000	6.738713
2032.000000	6.713063
2033.000000	6.685563
2034.000000	6.655383
2035.000000	6.623417
2036.000000	6.589520
2037.000000	6.554540
2038.000000	6.518603
2039.000000	6.482110
2040.000000	6.443907
2041.000000	6.404557
2042.000000	6.363643
2043.000000	6.322627
2044.000000	6.280673
2045.000000	6.239150
2046.000000	6.198643
2047.000000	6.157083
2048.000000	6.116313
2049.000000	6.076857
2050.000000	6.040290
2051.000000	6.006043
2052.000000	5.974950
2053.000000	5.946063
2054.000000	5.922937
2055.000000	5.903717
2056.000000	5.888747
2057.000000	5.879037
2058.000000	5.874113
2059.000000	5.874633
2060.000000	5.879553
2061.000000	5.889140
2062.000000	5.902993
2063.000000	5.920853
2064.000000	5.941420
2065.000000	5.964343
2066.000000	5.989927
2067.000000	6.017823
2068.000000	6.045800
2069.000000	6.074267
2070.000000	6.103003
2071.000000	6.130947
2072.000000	6.158543
2073.000000	6.186027
2074.000000	6.212043
2075.000000	6.236740
2076.000000	6.261060
2077.000000	6.283650
2078.000000	6.304720
2079.000000	6.324517
2080.000000	6.341713
2081.000000	6.356340
2082.000000	6.369840
2083.000000	6.381643
2084.000000	6.391150
2085.000000	6.399783
2086.000000	6.405587
2087.000000	6.409160
2088.000000	6.412027
2089.000000	6.411453
2090.000000	6.409913
2091.000000	6.409617
2092.000000	6.406973
2093.000000	6.402063
2094.000000	6.397710
2095.000000	6.391853
2096.000000	6.385277
2097.000000	6.378760
2098.000000	6.371163
2099.000000	6.364587
2100.000000	6.359470
2101.000000	6.353647
2102.000000	6.347660
2103.000000	6.342310
2104.000000	6.336663
2105.000000	6.331613
2106.000000	6.326503
2107.000000	6.320877
2108.000000	6.315677
2109.000000	6.310387
2110.000000	6.303777
2111.000000	6.297127
2112.000000	6.291053
2113.000000	6.283910
2114.000000	6.276153
2115.000000	6.267673
2116.000000	6.258400
2117.000000	6.249133
2118.000000	6.239703
2119.000000	6.229000
2120.000000	6.217297
2121.000000	6.204810
2122.000000	6.191167
2123.000000	6.177213
2124.000000	6.162497
2125.000000	6.146933
2126.000000	6.130693
2127.000000	6.113393
2128.000000	6.095177
2129.000000	6.077113
2130.000000	6.058840
2131.000000	6.037420
2132.000000	6.015270
2133.000000	5.992950
2134.000000	5.969993
2135.000000	5.946907
2136.000000	5.923027
2137.000000	5.898203
2138.000000	5.872530
2139.000000	5.845803
2140.000000	5.818477
2141.000000	5.792020
2142.000000	5.765227
2143.000000	5.737717
2144.000000	5.709210
2145.000000	5.679063
2146.000000	5.649083
2147.000000	5.618803
2148.000000	5.588317
2149.000000	5.557307
2150.000000	5.525950
2151.000000	5.494810
2152.000000	5.463267
2153.000000	5.431343
2154.000000	5.400007
2155.000000	5.370050
2156.000000	5.340173
2157.000000	5.311140
2158.000000	5.283960
2159.000000	5.258563
2160.000000	5.234950
2161.000000	5.212387
2162.000000	5.191843
2163.000000	5.172580
2164.000000	5.153190
2165.000000	5.136260
2166.000000	5.120480
2167.000000	5.105637
2168.000000	5.090917
2169.000000	5.076417
2170.000000	5.063203
2171.000000	5.051317
2172.000000	5.038543
2173.000000	5.025783
2174.000000	5.015507
2175.000000	5.003480
2176.000000	4.992537
2177.000000	4.981400
2178.000000	4.969740
2179.000000	4.958733
2180.000000	4.947143
2181.000000	4.934267
2182.000000	4.922870
2183.000000	4.910340
2184.000000	4.897310
2185.000000	4.883800
2186.000000	4.867583
2187.000000	4.850563
2188.000000	4.831750
2189.000000	4.810010
2190.000000	4.783710
2191.000000	4.755203
2192.000000	4.722673
2193.000000	4.688230
2194.000000	4.648220
2195.000000	4.604453
2196.000000	4.558130
2197.000000	4.508503
2198.000000	4.456220
2199.000000	4.402827
2200.000000	4.347083
2201.000000	4.290673
2202.000000	4.233577
2203.000000	4.176780
2204.000000	4.123203
2205.000000	4.071460
2206.000000	4.022650
2207.000000	3.976650
2208.000000	3.937167
2209.000000	3.903610
2210.000000	3.876760
2211.000000	3.854113
2212.000000	3.838010
2213.000000	3.829267
2214.000000	3.825757
2215.000000	3.828800
2216.000000	3.837550
2217.000000	3.851473
2218.000000	3.868873
2219.000000	3.888617
2220.000000	3.912287
2221.000000	3.939357
2222.000000	3.967867
2223.000000	3.997630
2224.000000	4.028140
2225.000000	4.058910
2226.000000	4.089467
2227.000000	4.121157
2228.000000	4.150513
2229.000000	4.177047
2230.000000	4.202180
2231.000000	4.226527
2232.000000	4.248837
2233.000000	4.267163
2234.000000	4.283147
2235.000000	4.297150
2236.000000	4.308067
2237.000000	4.316280
2238.000000	4.320967
2239.000000	4.325573
2240.000000	4.326877
2241.000000	4.324507
2242.000000	4.320740
2243.000000	4.314763
2244.000000	4.305320
2245.000000	4.294787
2246.000000	4.281397
2247.000000	4.266413
2248.000000	4.250757
2249.000000	4.231553
2250.000000	4.211957
2251.000000	4.191800
2252.000000	4.168607
2253.000000	4.146687
2254.000000	4.126843
2255.000000	4.104247
2256.000000	4.084427
2257.000000	4.063533
2258.000000	4.043563
2259.000000	4.025383
2260.000000	4.006247
2261.000000	3.989670
2262.000000	3.977143
2263.000000	3.964920
2264.000000	3.953260
2265.000000	3.944143
2266.000000	3.937013
2267.000000	3.932523
2268.000000	3.930407
2269.000000	3.930940
2270.000000	3.933663
2271.000000	3.937123
2272.000000	3.940950
2273.000000	3.946133
2274.000000	3.953663
2275.000000	3.963030
2276.000000	3.970943
2277.000000	3.978227
2278.000000	3.986397
2279.000000	3.993373
2280.000000	4.001150
2281.000000	4.008943
2282.000000	4.015487
2283.000000	4.020980
2284.000000	4.026893
2285.000000	4.031263
2286.000000	4.036077
2287.000000	4.041637
2288.000000	4.045950
2289.000000	4.049560
2290.000000	4.053553
2291.000000	4.057517
2292.000000	4.062813
2293.000000	4.068640
2294.000000	4.073183
2295.000000	4.079150
2296.000000	4.084113
2297.000000	4.089297
2298.000000	4.095787
2299.000000	4.104230
2300.000000	4.111340
2301.000000	4.120050
2302.000000	4.128750
2303.000000	4.137087
2304.000000	4.147003
2305.000000	4.157250
2306.000000	4.168090
2307.000000	4.179867
2308.000000	4.191500
2309.000000	4.202930
2310.000000	4.216133
2311.000000	4.227730
2312.000000	4.240523
2313.000000	4.254483
2314.000000	4.267257
2315.000000	4.278870
2316.000000	4.290557
2317.000000	4.301337
2318.000000	4.311513
2319.000000	4.320473
2320.000000	4.328447
2321.000000	4.334747
2322.000000	4.338000
2323.000000	4.340003
2324.000000	4.341080
2325.000000	4.340480
2326.000000	4.339407
2327.000000	4.338127
2328.000000	4.335223
2329.000000	4.330757
2330.000000	4.325800
2331.000000	4.322153
2332.000000	4.320413
2333.000000	4.317667
2334.000000	4.314450
2335.000000	4.312603
2336.000000	4.311803
2337.000000	4.310123
2338.000000	4.309410
2339.000000	4.310997
2340.000000	4.312967
2341.000000	4.315327
2342.000000	4.317240
2343.000000	4.320513
2344.000000	4.324260
2345.000000	4.328950
2346.000000	4.333677
2347.000000	4.338513
2348.000000	4.343927
2349.000000	4.349730
2350.000000	4.355710
2351.000000	4.361683
2352.000000	4.367843
2353.000000	4.373023
2354.000000	4.378763
2355.000000	4.384520
2356.000000	4.389387
2357.000000	4.393783
2358.000000	4.397913
2359.000000	4.402217
2360.000000	4.406293
2361.000000	4.408877
2362.000000	4.411497
2363.000000	4.414950
2364.000000	4.416717
2365.000000	4.417010
2366.000000	4.417937
2367.000000	4.419407
2368.000000	4.419657
2369.000000	4.419220
2370.000000	4.419413
2371.000000	4.420063
2372.000000	4.420197
2373.000000	4.419863
2374.000000	4.421160
2375.000000	4.422907
2376.000000	4.424333
2377.000000	4.425763
2378.000000	4.427730
2379.000000	4.429550
2380.000000	4.430437
2381.000000	4.430633
2382.000000	4.430860
2383.000000	4.430633
2384.000000	4.430173
2385.000000	4.428983
2386.000000	4.425660
2387.000000	4.422163
2388.000000	4.419590
2389.000000	4.416667
2390.000000	4.412000
2391.000000	4.406613
2392.000000	4.400380
2393.000000	4.394683
2394.000000	4.387407
2395.000000	4.379970
2396.000000	4.373297
2397.000000	4.364547
2398.000000	4.354390
2399.000000	4.343457
2400.000000	4.333353
2401.000000	4.323080
2402.000000	4.313150
2403.000000	4.300797
2404.000000	4.288333
2405.000000	4.277083
2406.000000	4.264817
2407.000000	4.253010
2408.000000	4.239957
2409.000000	4.225757
2410.000000	4.210753
2411.000000	4.195687
2412.000000	4.178730
2413.000000	4.162397
2414.000000	4.145553
2415.000000	4.126373
2416.000000	4.106857
2417.000000	4.086303
2418.000000	4.065137
2419.000000	4.042913
2420.000000	4.019530
2421.000000	3.994210
2422.000000	3.968223
2423.000000	3.941190
2424.000000	3.913710
2425.000000	3.885817
2426.000000	3.857273
2427.000000	3.827943
2428.000000	3.799037
2429.000000	3.771637
2430.000000	3.744200
2431.000000	3.716677
2432.000000	3.688287
2433.000000	3.661720
2434.000000	3.634227
2435.000000	3.606330
2436.000000	3.578343
2437.000000	3.550880
2438.000000	3.522523
2439.000000	3.492987
2440.000000	3.464263
2441.000000	3.434777
2442.000000	3.407293
2443.000000	3.378220
2444.000000	3.349610
2445.000000	3.321263
2446.000000	3.293803
2447.000000	3.265740
2448.000000	3.236843
2449.000000	3.209420
2450.000000	3.181140
2451.000000	3.155140
2452.000000	3.128893
2453.000000	3.103523
2454.000000	3.078827
2455.000000	3.053487
2456.000000	3.028893
2457.000000	3.005570
2458.000000	2.984730
2459.000000	2.964217
2460.000000	2.944537
2461.000000	2.925033
2462.000000	2.903493
2463.000000	2.881997
2464.000000	2.860310
2465.000000	2.842417
2466.000000	2.823800
2467.000000	2.806320
2468.000000	2.788953
2469.000000	2.772167
2470.000000	2.755120
2471.000000	2.740030
2472.000000	2.728507
2473.000000	2.720760
2474.000000	2.711000
2475.000000	2.700360
2476.000000	2.689793
2477.000000	2.682970
2478.000000	2.673870
2479.000000	2.663940
2480.000000	2.660363
2481.000000	2.650350
2482.000000	2.645690
2483.000000	2.638610
2484.000000	2.636183
2485.000000	2.631270
2486.000000	2.628653
2487.000000	2.630993
2488.000000	2.633310
2489.000000	2.638300
2490.000000	2.638490
2491.000000	2.644397
2492.000000	2.650093
2493.000000	2.662647
2494.000000	2.668283
2495.000000	2.677230
2496.000000	2.684393
2497.000000	2.678940
2498.000000	2.690100
2499.000000	2.690967
2500.000000	2.699187
