PE UV       SUBTECH     SPECTRUM    ASCII       PEDS        4.00        
   -1
BIOUCR0029-3.Sample.ASC
24/02/20
15:11:54.00
24/02/20
15:11:54.00
Vinicio Soto Monge
P. resplendens June 12 2007 Monteverde, CR
250,000000
1
Lambda 1050
1050L1511233
PerkinElmer UV WinLab 6.3.2.0749 / 2.02.05 Lambda 900 UV/VIS/NIR, Aug  7 2015 09:38:08

0
0
3350/servo 860,8/2
0
0
UV/VIS
1
1
1
DoubleDePol,CommonBeamDepol,RBeamAtt,SBeamAtt,60mm sphere, WB InGaAs Detector
0
0
0
0
Program
Program
3350/servo 860,8/2
3350/0,2 860,8/0,2
3350/0,2 860,8/0,2
0
15.00
 
 
 
0
 
860,8
319,2
860,8
Front
100
on
S:100 R:100
0
0
0
0
 
0
 
 
 
0
 
 
0
0
0
0
0
 
 
 
 
0
0


0
0
#HDR
-1
-1
#GR
nm
%R
1.0
0.0
2500,000000
-1,000000
2251
8
22,947500
1,915300
#DATA

250.000000	nan
251.000000	nan
252.000000	nan
253.000000	nan
254.000000	nan
255.000000	nan
256.000000	nan
257.000000	nan
258.000000	nan
259.000000	2.116477
260.000000	2.111749
261.000000	2.108644
262.000000	2.105481
263.000000	2.101790
264.000000	2.098547
265.000000	2.092527
266.000000	2.089588
267.000000	2.085000
268.000000	2.078981
269.000000	2.076744
270.000000	2.072780
271.000000	2.068816
272.000000	2.066711
273.000000	2.061235
274.000000	2.053462
275.000000	2.052554
276.000000	2.047935
277.000000	2.045373
278.000000	2.043604
279.000000	2.040862
280.000000	2.040914
281.000000	2.036395
282.000000	2.034342
283.000000	2.033940
284.000000	2.033264
285.000000	2.032525
286.000000	2.029624
287.000000	2.026395
288.000000	2.026451
289.000000	2.024168
290.000000	2.020035
291.000000	2.017164
292.000000	2.013696
293.000000	2.011331
294.000000	2.008540
295.000000	2.006226
296.000000	2.005519
297.000000	2.003079
298.000000	1.995130
299.000000	1.991925
300.000000	1.987473
301.000000	1.986539
302.000000	1.984503
303.000000	1.981333
304.000000	1.981913
305.000000	1.978653
306.000000	1.974743
307.000000	1.973492
308.000000	1.974417
309.000000	1.973459
310.000000	1.971600
311.000000	1.968453
312.000000	1.965088
313.000000	1.960245
314.000000	1.956751
315.000000	1.953782
316.000000	1.953580
317.000000	1.976562
318.000000	2.014286
319.000000	2.042106
320.000000	2.072408
321.000000	2.094010
322.000000	2.111696
323.000000	2.122830
324.000000	2.132684
325.000000	2.149652
326.000000	2.153833
327.000000	2.141318
328.000000	2.109742
329.000000	2.092310
330.000000	2.077598
331.000000	2.071051
332.000000	2.070631
333.000000	2.074561
334.000000	2.074705
335.000000	2.071655
336.000000	2.079597
337.000000	2.077730
338.000000	2.084952
339.000000	2.079099
340.000000	2.068590
341.000000	2.050392
342.000000	2.039574
343.000000	2.034831
344.000000	2.029191
345.000000	2.019473
346.000000	2.012345
347.000000	2.006419
348.000000	1.997784
349.000000	1.996870
350.000000	1.996114
351.000000	2.001469
352.000000	1.999734
353.000000	1.998025
354.000000	2.003996
355.000000	2.003262
356.000000	2.002028
357.000000	2.001542
358.000000	2.004064
359.000000	2.010347
360.000000	2.016862
361.000000	2.025541
362.000000	2.029826
363.000000	2.031528
364.000000	2.031986
365.000000	2.037801
366.000000	2.043778
367.000000	2.053629
368.000000	2.058125
369.000000	2.057795
370.000000	2.064028
371.000000	2.066540
372.000000	2.070762
373.000000	2.078352
374.000000	2.082868
375.000000	2.091427
376.000000	2.102207
377.000000	2.097143
378.000000	2.095531
379.000000	2.098790
380.000000	2.100180
381.000000	2.109265
382.000000	2.121945
383.000000	2.135438
384.000000	2.154390
385.000000	2.177166
386.000000	2.202141
387.000000	2.244877
388.000000	2.291322
389.000000	2.341435
390.000000	2.394531
391.000000	2.450875
392.000000	2.511519
393.000000	2.575934
394.000000	2.643294
395.000000	2.713854
396.000000	2.787496
397.000000	2.864095
398.000000	2.942881
399.000000	3.024389
400.000000	3.108464
401.000000	3.194170
402.000000	3.281395
403.000000	3.369890
404.000000	3.459613
405.000000	3.549549
406.000000	3.639663
407.000000	3.730624
408.000000	3.821796
409.000000	3.912039
410.000000	4.002147
411.000000	4.091712
412.000000	4.180232
413.000000	4.267459
414.000000	4.353642
415.000000	4.438776
416.000000	4.522888
417.000000	4.605352
418.000000	4.686167
419.000000	4.765335
420.000000	4.842363
421.000000	4.917544
422.000000	4.990741
423.000000	5.062661
424.000000	5.132152
425.000000	5.199152
426.000000	5.264022
427.000000	5.325795
428.000000	5.384662
429.000000	5.441226
430.000000	5.494332
431.000000	5.543602
432.000000	5.589102
433.000000	5.630165
434.000000	5.667022
435.000000	5.698335
436.000000	5.724490
437.000000	5.745357
438.000000	5.760844
439.000000	5.770125
440.000000	5.771486
441.000000	5.765918
442.000000	5.754004
443.000000	5.735234
444.000000	5.710369
445.000000	5.680963
446.000000	5.647116
447.000000	5.609802
448.000000	5.569764
449.000000	5.528834
450.000000	5.490007
451.000000	5.453527
452.000000	5.421182
453.000000	5.395659
454.000000	5.379015
455.000000	5.372833
456.000000	5.378528
457.000000	5.398433
458.000000	5.433554
459.000000	5.484717
460.000000	5.553210
461.000000	5.639273
462.000000	5.742484
463.000000	5.861954
464.000000	5.995998
465.000000	6.143299
466.000000	6.300871
467.000000	6.465709
468.000000	6.636267
469.000000	6.809853
470.000000	6.983713
471.000000	7.155658
472.000000	7.322139
473.000000	7.480442
474.000000	7.629515
475.000000	7.767985
476.000000	7.895375
477.000000	8.010946
478.000000	8.114071
479.000000	8.204070
480.000000	8.279020
481.000000	8.337979
482.000000	8.382894
483.000000	8.417167
484.000000	8.442930
485.000000	8.462032
486.000000	8.476305
487.000000	8.487911
488.000000	8.498640
489.000000	8.510735
490.000000	8.528052
491.000000	8.554050
492.000000	8.590931
493.000000	8.638652
494.000000	8.697477
495.000000	8.768622
496.000000	8.853391
497.000000	8.952431
498.000000	9.065108
499.000000	9.191923
500.000000	9.334684
501.000000	9.493795
502.000000	9.668537
503.000000	9.857710
504.000000	10.062117
505.000000	10.280389
506.000000	10.512178
507.000000	10.757465
508.000000	11.017662
509.000000	11.292734
510.000000	11.581200
511.000000	11.882385
512.000000	12.194136
513.000000	12.516802
514.000000	12.847177
515.000000	13.185281
516.000000	13.528505
517.000000	13.875155
518.000000	14.222689
519.000000	14.569148
520.000000	14.912952
521.000000	15.252242
522.000000	15.588093
523.000000	15.920618
524.000000	16.249471
525.000000	16.571031
526.000000	16.886419
527.000000	17.195062
528.000000	17.497255
529.000000	17.792366
530.000000	18.080018
531.000000	18.361675
532.000000	18.635596
533.000000	18.899028
534.000000	19.152627
535.000000	19.399460
536.000000	19.638198
537.000000	19.869327
538.000000	20.092638
539.000000	20.307594
540.000000	20.513744
541.000000	20.711512
542.000000	20.899407
543.000000	21.078080
544.000000	21.247281
545.000000	21.405481
546.000000	21.553701
547.000000	21.690666
548.000000	21.818584
549.000000	21.935216
550.000000	22.041798
551.000000	22.137701
552.000000	22.227099
553.000000	22.309631
554.000000	22.386033
555.000000	22.457807
556.000000	22.526503
557.000000	22.594089
558.000000	22.655718
559.000000	22.716721
560.000000	22.720661
561.000000	22.715452
562.000000	22.704850
563.000000	22.691602
564.000000	22.675283
565.000000	22.654608
566.000000	22.626077
567.000000	22.590167
568.000000	22.549471
569.000000	22.500183
570.000000	22.498324
571.000000	22.496178
572.000000	22.487984
573.000000	22.470555
574.000000	22.446772
575.000000	22.418210
576.000000	22.388191
577.000000	22.357137
578.000000	22.325388
579.000000	22.295589
580.000000	22.268124
581.000000	22.244372
582.000000	22.222985
583.000000	22.206017
584.000000	22.189298
585.000000	22.172657
586.000000	22.151879
587.000000	22.124427
588.000000	22.088939
589.000000	22.041422
590.000000	21.982771
591.000000	21.909982
592.000000	21.826385
593.000000	21.731119
594.000000	21.626555
595.000000	21.513761
596.000000	21.397756
597.000000	21.280994
598.000000	21.165949
599.000000	21.058673
600.000000	20.957941
601.000000	20.863514
602.000000	20.774123
603.000000	20.689186
604.000000	20.605843
605.000000	20.520297
606.000000	20.429521
607.000000	20.330612
608.000000	20.220741
609.000000	20.096337
610.000000	19.954576
611.000000	19.797262
612.000000	19.623263
613.000000	19.434169
614.000000	19.231972
615.000000	19.019685
616.000000	18.798557
617.000000	18.572375
618.000000	18.343305
619.000000	18.112545
620.000000	17.880926
621.000000	17.646987
622.000000	17.409826
623.000000	17.168482
624.000000	16.922156
625.000000	16.669376
626.000000	16.407725
627.000000	16.135011
628.000000	15.853424
629.000000	15.563448
630.000000	15.271497
631.000000	14.978615
632.000000	14.692522
633.000000	14.417188
634.000000	14.160081
635.000000	13.926580
636.000000	13.725713
637.000000	13.562591
638.000000	13.441071
639.000000	13.364970
640.000000	13.333550
641.000000	13.351124
642.000000	13.416023
643.000000	13.523299
644.000000	13.669172
645.000000	13.849604
646.000000	14.057715
647.000000	14.288192
648.000000	14.533511
649.000000	14.791433
650.000000	15.058565
651.000000	15.328472
652.000000	15.597388
653.000000	15.868050
654.000000	16.134829
655.000000	16.397641
656.000000	16.655332
657.000000	16.908636
658.000000	17.158154
659.000000	17.400485
660.000000	17.633828
661.000000	17.860731
662.000000	18.078896
663.000000	18.286605
664.000000	18.484745
665.000000	18.670468
666.000000	18.841734
667.000000	18.998692
668.000000	19.139934
669.000000	19.267538
670.000000	19.381893
671.000000	19.482686
672.000000	19.572181
673.000000	19.651892
674.000000	19.723795
675.000000	19.788955
676.000000	19.851156
677.000000	19.909667
678.000000	19.967945
679.000000	20.026950
680.000000	20.087513
681.000000	20.148852
682.000000	20.210477
683.000000	20.273750
684.000000	20.337507
685.000000	20.403140
686.000000	20.469862
687.000000	20.536857
688.000000	20.603999
689.000000	20.670791
690.000000	20.737053
691.000000	20.801664
692.000000	20.865873
693.000000	20.927503
694.000000	20.988269
695.000000	21.046774
696.000000	21.104526
697.000000	21.161907
698.000000	21.217683
699.000000	21.270833
700.000000	21.317225
701.000000	21.362055
702.000000	21.405397
703.000000	21.446844
704.000000	21.484416
705.000000	21.520298
706.000000	21.552731
707.000000	21.583215
708.000000	21.614401
709.000000	21.645153
710.000000	21.680470
711.000000	21.718723
712.000000	21.758635
713.000000	21.801305
714.000000	21.848184
715.000000	21.898084
716.000000	21.956011
717.000000	22.018861
718.000000	22.081071
719.000000	22.147781
720.000000	22.222144
721.000000	22.297926
722.000000	22.371325
723.000000	22.442932
724.000000	22.511920
725.000000	22.575646
726.000000	22.627520
727.000000	22.670808
728.000000	22.706821
729.000000	22.731459
730.000000	22.739104
731.000000	22.732838
732.000000	22.717957
733.000000	22.694505
734.000000	22.661937
735.000000	22.621358
736.000000	22.576953
737.000000	22.530354
738.000000	22.482874
739.000000	22.434685
740.000000	22.388116
741.000000	22.346856
742.000000	22.310574
743.000000	22.276557
744.000000	22.247386
745.000000	22.226930
746.000000	22.214577
747.000000	22.206433
748.000000	22.201612
749.000000	22.200761
750.000000	22.207924
751.000000	22.220933
752.000000	22.237022
753.000000	22.258537
754.000000	22.283275
755.000000	22.309383
756.000000	22.336593
757.000000	22.365547
758.000000	22.398301
759.000000	22.431991
760.000000	22.460780
761.000000	22.484823
762.000000	22.503931
763.000000	22.514374
764.000000	22.515016
765.000000	22.504689
766.000000	22.480814
767.000000	22.443035
768.000000	22.390417
769.000000	22.326146
770.000000	22.251459
771.000000	22.162420
772.000000	22.064520
773.000000	21.962104
774.000000	21.854652
775.000000	21.745028
776.000000	21.638261
777.000000	21.535636
778.000000	21.437673
779.000000	21.343899
780.000000	21.256382
781.000000	21.178355
782.000000	21.109913
783.000000	21.048063
784.000000	20.994787
785.000000	20.951391
786.000000	20.914469
787.000000	20.882575
788.000000	20.856478
789.000000	20.833454
790.000000	20.815509
791.000000	20.799831
792.000000	20.782893
793.000000	20.765284
794.000000	20.746601
795.000000	20.724163
796.000000	20.695636
797.000000	20.657996
798.000000	20.610537
799.000000	20.556226
800.000000	20.491560
801.000000	20.421612
802.000000	20.341685
803.000000	20.249623
804.000000	20.148722
805.000000	20.039490
806.000000	19.920541
807.000000	19.801756
808.000000	19.691828
809.000000	19.581425
810.000000	19.472121
811.000000	19.369317
812.000000	19.271421
813.000000	19.184784
814.000000	19.105190
815.000000	19.032259
816.000000	18.968728
817.000000	18.911579
818.000000	18.853838
819.000000	18.806932
820.000000	18.766580
821.000000	18.722397
822.000000	18.684650
823.000000	18.650059
824.000000	18.625763
825.000000	18.606546
826.000000	18.598517
827.000000	18.598056
828.000000	18.603787
829.000000	18.601843
830.000000	18.602110
831.000000	18.604125
832.000000	18.614422
833.000000	18.629441
834.000000	18.639066
835.000000	18.647717
836.000000	18.647738
837.000000	18.642384
838.000000	18.636714
839.000000	18.635362
840.000000	18.630115
841.000000	18.629095
842.000000	18.611173
843.000000	18.587160
844.000000	18.560840
845.000000	18.539370
846.000000	18.515780
847.000000	18.485821
848.000000	18.449679
849.000000	18.406308
850.000000	18.376588
851.000000	18.332660
852.000000	18.294339
853.000000	18.253667
854.000000	18.210726
855.000000	18.146178
856.000000	18.084836
857.000000	18.035070
858.000000	18.015033
859.000000	18.015482
860.000000	18.005507
861.000000	18.007977
862.000000	18.018265
863.000000	18.037185
864.000000	18.065465
865.000000	18.113638
866.000000	18.166378
867.000000	18.217141
868.000000	18.241573
869.000000	18.256843
870.000000	18.272613
871.000000	18.288300
872.000000	18.300570
873.000000	18.309213
874.000000	18.312830
875.000000	18.314673
876.000000	18.316303
877.000000	18.316730
878.000000	18.315517
879.000000	18.311307
880.000000	18.306990
881.000000	18.302280
882.000000	18.296920
883.000000	18.289967
884.000000	18.283143
885.000000	18.276243
886.000000	18.267437
887.000000	18.256870
888.000000	18.245690
889.000000	18.232543
890.000000	18.218623
891.000000	18.204700
892.000000	18.190897
893.000000	18.177483
894.000000	18.163553
895.000000	18.148700
896.000000	18.134093
897.000000	18.118610
898.000000	18.104590
899.000000	18.091130
900.000000	18.078767
901.000000	18.068960
902.000000	18.059103
903.000000	18.046733
904.000000	18.035313
905.000000	18.024457
906.000000	18.012980
907.000000	18.004873
908.000000	17.995657
909.000000	17.987230
910.000000	17.976817
911.000000	17.965277
912.000000	17.954050
913.000000	17.945180
914.000000	17.933457
915.000000	17.923137
916.000000	17.910630
917.000000	17.896190
918.000000	17.879807
919.000000	17.863313
920.000000	17.847113
921.000000	17.829313
922.000000	17.809900
923.000000	17.788300
924.000000	17.768557
925.000000	17.745987
926.000000	17.725667
927.000000	17.705060
928.000000	17.684710
929.000000	17.666260
930.000000	17.646607
931.000000	17.627003
932.000000	17.609147
933.000000	17.594943
934.000000	17.582897
935.000000	17.574717
936.000000	17.566770
937.000000	17.561520
938.000000	17.558260
939.000000	17.555827
940.000000	17.554030
941.000000	17.552647
942.000000	17.550683
943.000000	17.549453
944.000000	17.548503
945.000000	17.546833
946.000000	17.544527
947.000000	17.542050
948.000000	17.540707
949.000000	17.538897
950.000000	17.540183
951.000000	17.541307
952.000000	17.542563
953.000000	17.542397
954.000000	17.542047
955.000000	17.540267
956.000000	17.538613
957.000000	17.535053
958.000000	17.530057
959.000000	17.523520
960.000000	17.515910
961.000000	17.508043
962.000000	17.499667
963.000000	17.490307
964.000000	17.481093
965.000000	17.473403
966.000000	17.465747
967.000000	17.458013
968.000000	17.452150
969.000000	17.448780
970.000000	17.445270
971.000000	17.444547
972.000000	17.444840
973.000000	17.448490
974.000000	17.453207
975.000000	17.457653
976.000000	17.465297
977.000000	17.475713
978.000000	17.487043
979.000000	17.499897
980.000000	17.514053
981.000000	17.529053
982.000000	17.547230
983.000000	17.564387
984.000000	17.581657
985.000000	17.601243
986.000000	17.620937
987.000000	17.640413
988.000000	17.660090
989.000000	17.680623
990.000000	17.702810
991.000000	17.724847
992.000000	17.745483
993.000000	17.766493
994.000000	17.789023
995.000000	17.810743
996.000000	17.831683
997.000000	17.852270
998.000000	17.873793
999.000000	17.894233
1000.000000	17.911863
1001.000000	17.928420
1002.000000	17.944670
1003.000000	17.960583
1004.000000	17.973480
1005.000000	17.985443
1006.000000	17.997220
1007.000000	18.008243
1008.000000	18.017373
1009.000000	18.025827
1010.000000	18.034820
1011.000000	18.043113
1012.000000	18.050880
1013.000000	18.058957
1014.000000	18.068113
1015.000000	18.076720
1016.000000	18.085580
1017.000000	18.095070
1018.000000	18.104167
1019.000000	18.112800
1020.000000	18.123227
1021.000000	18.134627
1022.000000	18.145133
1023.000000	18.156260
1024.000000	18.167750
1025.000000	18.179130
1026.000000	18.190563
1027.000000	18.202890
1028.000000	18.216980
1029.000000	18.231863
1030.000000	18.245977
1031.000000	18.260720
1032.000000	18.276700
1033.000000	18.292527
1034.000000	18.309540
1035.000000	18.327357
1036.000000	18.344617
1037.000000	18.361827
1038.000000	18.379140
1039.000000	18.396610
1040.000000	18.414397
1041.000000	18.432377
1042.000000	18.451327
1043.000000	18.470310
1044.000000	18.488880
1045.000000	18.509190
1046.000000	18.530660
1047.000000	18.551150
1048.000000	18.570723
1049.000000	18.589847
1050.000000	18.609403
1051.000000	18.629617
1052.000000	18.649737
1053.000000	18.670703
1054.000000	18.691393
1055.000000	18.710743
1056.000000	18.730523
1057.000000	18.751350
1058.000000	18.771903
1059.000000	18.793147
1060.000000	18.814143
1061.000000	18.834923
1062.000000	18.855073
1063.000000	18.874173
1064.000000	18.893503
1065.000000	18.912550
1066.000000	18.930863
1067.000000	18.949463
1068.000000	18.969710
1069.000000	18.989500
1070.000000	19.009420
1071.000000	19.029487
1072.000000	19.049887
1073.000000	19.070717
1074.000000	19.090943
1075.000000	19.110620
1076.000000	19.130123
1077.000000	19.149493
1078.000000	19.167587
1079.000000	19.184823
1080.000000	19.201970
1081.000000	19.218653
1082.000000	19.235387
1083.000000	19.251520
1084.000000	19.266510
1085.000000	19.282083
1086.000000	19.297733
1087.000000	19.311610
1088.000000	19.325253
1089.000000	19.339423
1090.000000	19.352610
1091.000000	19.365290
1092.000000	19.377340
1093.000000	19.388743
1094.000000	19.400757
1095.000000	19.412787
1096.000000	19.423917
1097.000000	19.435253
1098.000000	19.445863
1099.000000	19.456963
1100.000000	19.467087
1101.000000	19.476620
1102.000000	19.486993
1103.000000	19.497750
1104.000000	19.508097
1105.000000	19.518153
1106.000000	19.527777
1107.000000	19.537883
1108.000000	19.549410
1109.000000	19.559943
1110.000000	19.570860
1111.000000	19.581387
1112.000000	19.589893
1113.000000	19.598407
1114.000000	19.607347
1115.000000	19.615103
1116.000000	19.623567
1117.000000	19.632097
1118.000000	19.639227
1119.000000	19.646067
1120.000000	19.652250
1121.000000	19.658110
1122.000000	19.664763
1123.000000	19.671253
1124.000000	19.675997
1125.000000	19.681100
1126.000000	19.684530
1127.000000	19.686773
1128.000000	19.687453
1129.000000	19.688563
1130.000000	19.688890
1131.000000	19.686083
1132.000000	19.681007
1133.000000	19.671937
1134.000000	19.663060
1135.000000	19.654593
1136.000000	19.647130
1137.000000	19.635097
1138.000000	19.621517
1139.000000	19.604427
1140.000000	19.585583
1141.000000	19.568880
1142.000000	19.553007
1143.000000	19.537040
1144.000000	19.520553
1145.000000	19.503797
1146.000000	19.484873
1147.000000	19.469183
1148.000000	19.455493
1149.000000	19.443950
1150.000000	19.432637
1151.000000	19.421510
1152.000000	19.410423
1153.000000	19.400580
1154.000000	19.391387
1155.000000	19.378810
1156.000000	19.366653
1157.000000	19.351440
1158.000000	19.335320
1159.000000	19.316703
1160.000000	19.296910
1161.000000	19.274533
1162.000000	19.247817
1163.000000	19.219517
1164.000000	19.187847
1165.000000	19.157167
1166.000000	19.121683
1167.000000	19.088220
1168.000000	19.053447
1169.000000	19.016333
1170.000000	18.982073
1171.000000	18.949047
1172.000000	18.918767
1173.000000	18.888670
1174.000000	18.860110
1175.000000	18.832613
1176.000000	18.809357
1177.000000	18.787950
1178.000000	18.766663
1179.000000	18.751207
1180.000000	18.733940
1181.000000	18.716523
1182.000000	18.699923
1183.000000	18.685290
1184.000000	18.671570
1185.000000	18.658290
1186.000000	18.646640
1187.000000	18.635830
1188.000000	18.628997
1189.000000	18.621797
1190.000000	18.618513
1191.000000	18.618787
1192.000000	18.621610
1193.000000	18.628327
1194.000000	18.637443
1195.000000	18.648363
1196.000000	18.661630
1197.000000	18.676047
1198.000000	18.690950
1199.000000	18.708503
1200.000000	18.726040
1201.000000	18.744180
1202.000000	18.762087
1203.000000	18.778087
1204.000000	18.795017
1205.000000	18.813083
1206.000000	18.830760
1207.000000	18.849597
1208.000000	18.869043
1209.000000	18.887553
1210.000000	18.906930
1211.000000	18.925867
1212.000000	18.945043
1213.000000	18.965090
1214.000000	18.984560
1215.000000	19.003520
1216.000000	19.023153
1217.000000	19.040687
1218.000000	19.056587
1219.000000	19.071600
1220.000000	19.087310
1221.000000	19.102830
1222.000000	19.117800
1223.000000	19.132583
1224.000000	19.147030
1225.000000	19.159237
1226.000000	19.169783
1227.000000	19.181227
1228.000000	19.192493
1229.000000	19.203187
1230.000000	19.211467
1231.000000	19.218760
1232.000000	19.225037
1233.000000	19.229333
1234.000000	19.234637
1235.000000	19.240553
1236.000000	19.246910
1237.000000	19.251247
1238.000000	19.254850
1239.000000	19.259530
1240.000000	19.263933
1241.000000	19.267730
1242.000000	19.273167
1243.000000	19.281193
1244.000000	19.288230
1245.000000	19.294727
1246.000000	19.301523
1247.000000	19.310370
1248.000000	19.320850
1249.000000	19.331510
1250.000000	19.344507
1251.000000	19.359143
1252.000000	19.374660
1253.000000	19.390453
1254.000000	19.405413
1255.000000	19.421540
1256.000000	19.437460
1257.000000	19.451900
1258.000000	19.465987
1259.000000	19.480257
1260.000000	19.492020
1261.000000	19.502687
1262.000000	19.511757
1263.000000	19.519747
1264.000000	19.527357
1265.000000	19.533603
1266.000000	19.538847
1267.000000	19.545080
1268.000000	19.550140
1269.000000	19.552657
1270.000000	19.554853
1271.000000	19.556657
1272.000000	19.558183
1273.000000	19.557637
1274.000000	19.556863
1275.000000	19.556187
1276.000000	19.555337
1277.000000	19.554037
1278.000000	19.553187
1279.000000	19.552680
1280.000000	19.551997
1281.000000	19.551303
1282.000000	19.550603
1283.000000	19.551713
1284.000000	19.553167
1285.000000	19.554947
1286.000000	19.557933
1287.000000	19.560767
1288.000000	19.564527
1289.000000	19.569253
1290.000000	19.575300
1291.000000	19.582627
1292.000000	19.590247
1293.000000	19.597617
1294.000000	19.605453
1295.000000	19.613517
1296.000000	19.620557
1297.000000	19.628460
1298.000000	19.635377
1299.000000	19.640470
1300.000000	19.645160
1301.000000	19.648913
1302.000000	19.651947
1303.000000	19.654493
1304.000000	19.656580
1305.000000	19.658813
1306.000000	19.662010
1307.000000	19.663963
1308.000000	19.664577
1309.000000	19.665510
1310.000000	19.665530
1311.000000	19.664343
1312.000000	19.662203
1313.000000	19.658377
1314.000000	19.652883
1315.000000	19.645203
1316.000000	19.636077
1317.000000	19.626197
1318.000000	19.615050
1319.000000	19.602683
1320.000000	19.588440
1321.000000	19.573253
1322.000000	19.558297
1323.000000	19.543247
1324.000000	19.527667
1325.000000	19.511667
1326.000000	19.493933
1327.000000	19.475417
1328.000000	19.456303
1329.000000	19.436097
1330.000000	19.415097
1331.000000	19.393237
1332.000000	19.370057
1333.000000	19.345867
1334.000000	19.319900
1335.000000	19.291547
1336.000000	19.261903
1337.000000	19.231680
1338.000000	19.201337
1339.000000	19.169423
1340.000000	19.136227
1341.000000	19.103263
1342.000000	19.067737
1343.000000	19.028637
1344.000000	18.989107
1345.000000	18.948550
1346.000000	18.904420
1347.000000	18.858143
1348.000000	18.810900
1349.000000	18.762623
1350.000000	18.712403
1351.000000	18.657820
1352.000000	18.602570
1353.000000	18.546827
1354.000000	18.491563
1355.000000	18.441293
1356.000000	18.395427
1357.000000	18.349070
1358.000000	18.301290
1359.000000	18.253113
1360.000000	18.205623
1361.000000	18.165530
1362.000000	18.136570
1363.000000	18.111067
1364.000000	18.082560
1365.000000	18.051370
1366.000000	18.016513
1367.000000	17.977287
1368.000000	17.940613
1369.000000	17.902813
1370.000000	17.859853
1371.000000	17.807103
1372.000000	17.739337
1373.000000	17.660997
1374.000000	17.569757
1375.000000	17.463033
1376.000000	17.345187
1377.000000	17.215980
1378.000000	17.072097
1379.000000	16.914090
1380.000000	16.750210
1381.000000	16.585653
1382.000000	16.428823
1383.000000	16.284323
1384.000000	16.156693
1385.000000	16.039923
1386.000000	15.933510
1387.000000	15.844350
1388.000000	15.774113
1389.000000	15.726207
1390.000000	15.690890
1391.000000	15.658673
1392.000000	15.630137
1393.000000	15.602603
1394.000000	15.575330
1395.000000	15.555240
1396.000000	15.549260
1397.000000	15.544863
1398.000000	15.528153
1399.000000	15.501553
1400.000000	15.480113
1401.000000	15.473510
1402.000000	15.456483
1403.000000	15.425750
1404.000000	15.386543
1405.000000	15.345870
1406.000000	15.292873
1407.000000	15.233337
1408.000000	15.178300
1409.000000	15.127147
1410.000000	15.066680
1411.000000	14.987530
1412.000000	14.903950
1413.000000	14.826800
1414.000000	14.755480
1415.000000	14.682403
1416.000000	14.603550
1417.000000	14.521720
1418.000000	14.440457
1419.000000	14.361887
1420.000000	14.286037
1421.000000	14.211897
1422.000000	14.141877
1423.000000	14.074023
1424.000000	14.008337
1425.000000	13.939390
1426.000000	13.873473
1427.000000	13.813147
1428.000000	13.754683
1429.000000	13.694730
1430.000000	13.635513
1431.000000	13.579703
1432.000000	13.529733
1433.000000	13.481600
1434.000000	13.432663
1435.000000	13.387297
1436.000000	13.344640
1437.000000	13.305597
1438.000000	13.266333
1439.000000	13.229857
1440.000000	13.193287
1441.000000	13.159560
1442.000000	13.126977
1443.000000	13.095733
1444.000000	13.064147
1445.000000	13.033650
1446.000000	13.009480
1447.000000	12.984067
1448.000000	12.957690
1449.000000	12.930980
1450.000000	12.906927
1451.000000	12.884550
1452.000000	12.862923
1453.000000	12.838440
1454.000000	12.815650
1455.000000	12.792003
1456.000000	12.765270
1457.000000	12.740450
1458.000000	12.717157
1459.000000	12.692883
1460.000000	12.667810
1461.000000	12.643027
1462.000000	12.615250
1463.000000	12.591093
1464.000000	12.566420
1465.000000	12.544217
1466.000000	12.520493
1467.000000	12.496980
1468.000000	12.473287
1469.000000	12.448213
1470.000000	12.425577
1471.000000	12.402757
1472.000000	12.381270
1473.000000	12.360437
1474.000000	12.338550
1475.000000	12.315743
1476.000000	12.294463
1477.000000	12.273253
1478.000000	12.254733
1479.000000	12.238160
1480.000000	12.222097
1481.000000	12.206940
1482.000000	12.193390
1483.000000	12.178937
1484.000000	12.167660
1485.000000	12.156653
1486.000000	12.147027
1487.000000	12.137490
1488.000000	12.128277
1489.000000	12.120953
1490.000000	12.111930
1491.000000	12.102770
1492.000000	12.093540
1493.000000	12.085813
1494.000000	12.078803
1495.000000	12.074177
1496.000000	12.069933
1497.000000	12.067383
1498.000000	12.065803
1499.000000	12.064493
1500.000000	12.067100
1501.000000	12.070743
1502.000000	12.077360
1503.000000	12.085547
1504.000000	12.094940
1505.000000	12.106533
1506.000000	12.120987
1507.000000	12.135677
1508.000000	12.152627
1509.000000	12.171787
1510.000000	12.190697
1511.000000	12.210370
1512.000000	12.230373
1513.000000	12.250957
1514.000000	12.272580
1515.000000	12.293717
1516.000000	12.315410
1517.000000	12.338123
1518.000000	12.360893
1519.000000	12.382987
1520.000000	12.405363
1521.000000	12.427003
1522.000000	12.448627
1523.000000	12.470367
1524.000000	12.492150
1525.000000	12.512563
1526.000000	12.531803
1527.000000	12.551720
1528.000000	12.571170
1529.000000	12.590300
1530.000000	12.609513
1531.000000	12.629187
1532.000000	12.647130
1533.000000	12.665217
1534.000000	12.684067
1535.000000	12.702697
1536.000000	12.721000
1537.000000	12.737677
1538.000000	12.753180
1539.000000	12.768050
1540.000000	12.781330
1541.000000	12.793913
1542.000000	12.806760
1543.000000	12.819450
1544.000000	12.830433
1545.000000	12.841923
1546.000000	12.854560
1547.000000	12.867580
1548.000000	12.881343
1549.000000	12.896180
1550.000000	12.912167
1551.000000	12.929823
1552.000000	12.948967
1553.000000	12.968060
1554.000000	12.987690
1555.000000	13.007120
1556.000000	13.025230
1557.000000	13.043467
1558.000000	13.060680
1559.000000	13.075897
1560.000000	13.090413
1561.000000	13.103383
1562.000000	13.113733
1563.000000	13.122053
1564.000000	13.128243
1565.000000	13.132143
1566.000000	13.134537
1567.000000	13.136247
1568.000000	13.136843
1569.000000	13.136280
1570.000000	13.133833
1571.000000	13.130317
1572.000000	13.126847
1573.000000	13.123273
1574.000000	13.119943
1575.000000	13.117827
1576.000000	13.115910
1577.000000	13.113483
1578.000000	13.112567
1579.000000	13.113590
1580.000000	13.115817
1581.000000	13.118903
1582.000000	13.123913
1583.000000	13.130340
1584.000000	13.138223
1585.000000	13.147437
1586.000000	13.157580
1587.000000	13.168330
1588.000000	13.180063
1589.000000	13.193180
1590.000000	13.206860
1591.000000	13.220303
1592.000000	13.233420
1593.000000	13.247747
1594.000000	13.262000
1595.000000	13.275860
1596.000000	13.290453
1597.000000	13.305637
1598.000000	13.320433
1599.000000	13.335473
1600.000000	13.351013
1601.000000	13.368540
1602.000000	13.385947
1603.000000	13.403293
1604.000000	13.421820
1605.000000	13.441143
1606.000000	13.459777
1607.000000	13.478340
1608.000000	13.497250
1609.000000	13.515967
1610.000000	13.534233
1611.000000	13.551850
1612.000000	13.569393
1613.000000	13.585257
1614.000000	13.599390
1615.000000	13.613087
1616.000000	13.626910
1617.000000	13.639937
1618.000000	13.651133
1619.000000	13.660793
1620.000000	13.670717
1621.000000	13.679583
1622.000000	13.688283
1623.000000	13.696790
1624.000000	13.705750
1625.000000	13.713153
1626.000000	13.719930
1627.000000	13.727327
1628.000000	13.736103
1629.000000	13.745277
1630.000000	13.754017
1631.000000	13.762523
1632.000000	13.770317
1633.000000	13.778553
1634.000000	13.787610
1635.000000	13.796783
1636.000000	13.805553
1637.000000	13.813677
1638.000000	13.820050
1639.000000	13.826120
1640.000000	13.831277
1641.000000	13.836580
1642.000000	13.841000
1643.000000	13.844697
1644.000000	13.847140
1645.000000	13.850820
1646.000000	13.853720
1647.000000	13.855790
1648.000000	13.857187
1649.000000	13.858277
1650.000000	13.859000
1651.000000	13.858153
1652.000000	13.857933
1653.000000	13.856997
1654.000000	13.852947
1655.000000	13.845530
1656.000000	13.836123
1657.000000	13.825870
1658.000000	13.814100
1659.000000	13.799863
1660.000000	13.783980
1661.000000	13.765380
1662.000000	13.742243
1663.000000	13.716040
1664.000000	13.689330
1665.000000	13.660857
1666.000000	13.630937
1667.000000	13.598223
1668.000000	13.557153
1669.000000	13.512487
1670.000000	13.465710
1671.000000	13.417857
1672.000000	13.369340
1673.000000	13.320350
1674.000000	13.269993
1675.000000	13.219010
1676.000000	13.167333
1677.000000	13.113893
1678.000000	13.065460
1679.000000	13.017447
1680.000000	12.969013
1681.000000	12.919340
1682.000000	12.868617
1683.000000	12.817687
1684.000000	12.765157
1685.000000	12.710500
1686.000000	12.655990
1687.000000	12.605840
1688.000000	12.558363
1689.000000	12.515743
1690.000000	12.478363
1691.000000	12.448483
1692.000000	12.426530
1693.000000	12.412943
1694.000000	12.405383
1695.000000	12.407630
1696.000000	12.415070
1697.000000	12.424050
1698.000000	12.437010
1699.000000	12.450173
1700.000000	12.463443
1701.000000	12.474760
1702.000000	12.482943
1703.000000	12.486187
1704.000000	12.488223
1705.000000	12.486583
1706.000000	12.481437
1707.000000	12.474573
1708.000000	12.464340
1709.000000	12.451937
1710.000000	12.435957
1711.000000	12.415020
1712.000000	12.391883
1713.000000	12.364630
1714.000000	12.332223
1715.000000	12.295837
1716.000000	12.256773
1717.000000	12.212597
1718.000000	12.164017
1719.000000	12.112603
1720.000000	12.058790
1721.000000	12.006040
1722.000000	11.952620
1723.000000	11.902430
1724.000000	11.858587
1725.000000	11.818693
1726.000000	11.782890
1727.000000	11.755767
1728.000000	11.737090
1729.000000	11.725537
1730.000000	11.720020
1731.000000	11.720243
1732.000000	11.725697
1733.000000	11.734380
1734.000000	11.745037
1735.000000	11.756463
1736.000000	11.770850
1737.000000	11.784223
1738.000000	11.798767
1739.000000	11.812763
1740.000000	11.827137
1741.000000	11.843030
1742.000000	11.860820
1743.000000	11.880307
1744.000000	11.899117
1745.000000	11.918367
1746.000000	11.938153
1747.000000	11.959393
1748.000000	11.979723
1749.000000	11.999590
1750.000000	12.019663
1751.000000	12.037267
1752.000000	12.052187
1753.000000	12.065060
1754.000000	12.075503
1755.000000	12.084260
1756.000000	12.091460
1757.000000	12.096983
1758.000000	12.100923
1759.000000	12.103387
1760.000000	12.104687
1761.000000	12.105997
1762.000000	12.106753
1763.000000	12.107173
1764.000000	12.108463
1765.000000	12.111700
1766.000000	12.115567
1767.000000	12.120150
1768.000000	12.125983
1769.000000	12.132727
1770.000000	12.140557
1771.000000	12.149893
1772.000000	12.161173
1773.000000	12.172517
1774.000000	12.184643
1775.000000	12.197167
1776.000000	12.209913
1777.000000	12.222327
1778.000000	12.234733
1779.000000	12.248320
1780.000000	12.262250
1781.000000	12.275087
1782.000000	12.286343
1783.000000	12.296677
1784.000000	12.305913
1785.000000	12.314313
1786.000000	12.322540
1787.000000	12.329387
1788.000000	12.334343
1789.000000	12.337480
1790.000000	12.337663
1791.000000	12.337373
1792.000000	12.337470
1793.000000	12.338370
1794.000000	12.339460
1795.000000	12.340300
1796.000000	12.341557
1797.000000	12.342767
1798.000000	12.342713
1799.000000	12.342023
1800.000000	12.343713
1801.000000	12.346377
1802.000000	12.351087
1803.000000	12.355717
1804.000000	12.358470
1805.000000	12.360093
1806.000000	12.361753
1807.000000	12.366177
1808.000000	12.372200
1809.000000	12.376033
1810.000000	12.377137
1811.000000	12.378997
1812.000000	12.381350
1813.000000	12.383810
1814.000000	12.387113
1815.000000	12.390697
1816.000000	12.392680
1817.000000	12.390630
1818.000000	12.384427
1819.000000	12.377307
1820.000000	12.374950
1821.000000	12.379803
1822.000000	12.388687
1823.000000	12.394117
1824.000000	12.391210
1825.000000	12.382967
1826.000000	12.373920
1827.000000	12.368193
1828.000000	12.369303
1829.000000	12.375540
1830.000000	12.381273
1831.000000	12.381883
1832.000000	12.374913
1833.000000	12.364813
1834.000000	12.358403
1835.000000	12.356043
1836.000000	12.356833
1837.000000	12.360653
1838.000000	12.364977
1839.000000	12.368207
1840.000000	12.371300
1841.000000	12.376610
1842.000000	12.390427
1843.000000	12.410580
1844.000000	12.427707
1845.000000	12.433360
1846.000000	12.427463
1847.000000	12.421783
1848.000000	12.428760
1849.000000	12.447380
1850.000000	12.461577
1851.000000	12.458767
1852.000000	12.440373
1853.000000	12.419823
1854.000000	12.408810
1855.000000	12.412807
1856.000000	12.425703
1857.000000	12.427643
1858.000000	12.409013
1859.000000	12.381350
1860.000000	12.358887
1861.000000	12.347727
1862.000000	12.341993
1863.000000	12.331900
1864.000000	12.311610
1865.000000	12.279307
1866.000000	12.238423
1867.000000	12.195230
1868.000000	12.150453
1869.000000	12.097673
1870.000000	12.044170
1871.000000	11.995343
1872.000000	11.947407
1873.000000	11.905633
1874.000000	11.870763
1875.000000	11.841980
1876.000000	11.817270
1877.000000	11.792240
1878.000000	11.764880
1879.000000	11.732493
1880.000000	11.685527
1881.000000	11.619137
1882.000000	11.542223
1883.000000	11.455320
1884.000000	11.362143
1885.000000	11.262440
1886.000000	11.156590
1887.000000	11.044697
1888.000000	10.922960
1889.000000	10.793540
1890.000000	10.662070
1891.000000	10.530863
1892.000000	10.399303
1893.000000	10.264700
1894.000000	10.122890
1895.000000	9.972370
1896.000000	9.811820
1897.000000	9.644927
1898.000000	9.479013
1899.000000	9.317057
1900.000000	9.157470
1901.000000	8.997990
1902.000000	8.833753
1903.000000	8.667010
1904.000000	8.502333
1905.000000	8.347070
1906.000000	8.204840
1907.000000	8.072440
1908.000000	7.946707
1909.000000	7.821403
1910.000000	7.693557
1911.000000	7.566460
1912.000000	7.448973
1913.000000	7.341560
1914.000000	7.243767
1915.000000	7.149373
1916.000000	7.055397
1917.000000	6.962793
1918.000000	6.871130
1919.000000	6.786893
1920.000000	6.714167
1921.000000	6.652347
1922.000000	6.594887
1923.000000	6.540887
1924.000000	6.486837
1925.000000	6.433607
1926.000000	6.383103
1927.000000	6.341697
1928.000000	6.309337
1929.000000	6.281890
1930.000000	6.257957
1931.000000	6.234793
1932.000000	6.212940
1933.000000	6.191453
1934.000000	6.172570
1935.000000	6.159017
1936.000000	6.150257
1937.000000	6.141840
1938.000000	6.135643
1939.000000	6.133470
1940.000000	6.133877
1941.000000	6.136790
1942.000000	6.142260
1943.000000	6.149380
1944.000000	6.160420
1945.000000	6.172140
1946.000000	6.186923
1947.000000	6.205057
1948.000000	6.223367
1949.000000	6.242727
1950.000000	6.259470
1951.000000	6.276520
1952.000000	6.294663
1953.000000	6.315937
1954.000000	6.337880
1955.000000	6.362893
1956.000000	6.387370
1957.000000	6.411573
1958.000000	6.436463
1959.000000	6.460690
1960.000000	6.486027
1961.000000	6.512023
1962.000000	6.538110
1963.000000	6.564767
1964.000000	6.592113
1965.000000	6.616230
1966.000000	6.641377
1967.000000	6.665373
1968.000000	6.689597
1969.000000	6.713217
1970.000000	6.737010
1971.000000	6.760610
1972.000000	6.786333
1973.000000	6.808040
1974.000000	6.830153
1975.000000	6.855640
1976.000000	6.879947
1977.000000	6.903160
1978.000000	6.927013
1979.000000	6.951840
1980.000000	6.976083
1981.000000	7.000103
1982.000000	7.022427
1983.000000	7.048523
1984.000000	7.072010
1985.000000	7.094580
1986.000000	7.118003
1987.000000	7.142993
1988.000000	7.166470
1989.000000	7.188940
1990.000000	7.214090
1991.000000	7.239513
1992.000000	7.263790
1993.000000	7.285550
1994.000000	7.309170
1995.000000	7.331500
1996.000000	7.352457
1997.000000	7.372637
1998.000000	7.393533
1999.000000	7.412987
2000.000000	7.430077
2001.000000	7.445883
2002.000000	7.462420
2003.000000	7.479160
2004.000000	7.491970
2005.000000	7.506190
2006.000000	7.517913
2007.000000	7.528340
2008.000000	7.537373
2009.000000	7.545617
2010.000000	7.551817
2011.000000	7.556183
2012.000000	7.558330
2013.000000	7.558833
2014.000000	7.559783
2015.000000	7.555750
2016.000000	7.551537
2017.000000	7.547853
2018.000000	7.540117
2019.000000	7.530740
2020.000000	7.520007
2021.000000	7.508897
2022.000000	7.495623
2023.000000	7.480407
2024.000000	7.463840
2025.000000	7.445930
2026.000000	7.425663
2027.000000	7.402003
2028.000000	7.378287
2029.000000	7.354203
2030.000000	7.330020
2031.000000	7.301490
2032.000000	7.272440
2033.000000	7.242977
2034.000000	7.211283
2035.000000	7.179713
2036.000000	7.146413
2037.000000	7.112153
2038.000000	7.076367
2039.000000	7.038033
2040.000000	6.996860
2041.000000	6.956360
2042.000000	6.914813
2043.000000	6.871933
2044.000000	6.828857
2045.000000	6.784850
2046.000000	6.741100
2047.000000	6.697053
2048.000000	6.654013
2049.000000	6.612420
2050.000000	6.572690
2051.000000	6.536543
2052.000000	6.503377
2053.000000	6.474210
2054.000000	6.449240
2055.000000	6.427647
2056.000000	6.410630
2057.000000	6.399110
2058.000000	6.393170
2059.000000	6.391460
2060.000000	6.394700
2061.000000	6.401930
2062.000000	6.413683
2063.000000	6.428383
2064.000000	6.445327
2065.000000	6.465843
2066.000000	6.489797
2067.000000	6.514957
2068.000000	6.541527
2069.000000	6.570353
2070.000000	6.599703
2071.000000	6.628397
2072.000000	6.654670
2073.000000	6.681003
2074.000000	6.707337
2075.000000	6.732233
2076.000000	6.755230
2077.000000	6.776233
2078.000000	6.795580
2079.000000	6.811550
2080.000000	6.825890
2081.000000	6.839250
2082.000000	6.851443
2083.000000	6.860787
2084.000000	6.868027
2085.000000	6.874477
2086.000000	6.879103
2087.000000	6.882120
2088.000000	6.881843
2089.000000	6.880583
2090.000000	6.877917
2091.000000	6.873290
2092.000000	6.867673
2093.000000	6.860477
2094.000000	6.852543
2095.000000	6.844490
2096.000000	6.835857
2097.000000	6.827497
2098.000000	6.819650
2099.000000	6.811910
2100.000000	6.804683
2101.000000	6.797110
2102.000000	6.790487
2103.000000	6.785400
2104.000000	6.779843
2105.000000	6.773503
2106.000000	6.767123
2107.000000	6.760860
2108.000000	6.756250
2109.000000	6.751617
2110.000000	6.744930
2111.000000	6.738167
2112.000000	6.731183
2113.000000	6.724170
2114.000000	6.716773
2115.000000	6.707430
2116.000000	6.697137
2117.000000	6.686540
2118.000000	6.674517
2119.000000	6.661820
2120.000000	6.648417
2121.000000	6.633610
2122.000000	6.618687
2123.000000	6.601433
2124.000000	6.583110
2125.000000	6.565817
2126.000000	6.548863
2127.000000	6.530603
2128.000000	6.510623
2129.000000	6.490403
2130.000000	6.470213
2131.000000	6.449467
2132.000000	6.426553
2133.000000	6.403983
2134.000000	6.380933
2135.000000	6.356260
2136.000000	6.330197
2137.000000	6.303597
2138.000000	6.277077
2139.000000	6.249023
2140.000000	6.221137
2141.000000	6.192643
2142.000000	6.162480
2143.000000	6.130680
2144.000000	6.098857
2145.000000	6.068263
2146.000000	6.036967
2147.000000	6.005287
2148.000000	5.973780
2149.000000	5.941530
2150.000000	5.908537
2151.000000	5.877507
2152.000000	5.847710
2153.000000	5.818007
2154.000000	5.788163
2155.000000	5.759163
2156.000000	5.730410
2157.000000	5.701120
2158.000000	5.672780
2159.000000	5.646590
2160.000000	5.622390
2161.000000	5.598440
2162.000000	5.575103
2163.000000	5.553977
2164.000000	5.534973
2165.000000	5.515603
2166.000000	5.498150
2167.000000	5.483833
2168.000000	5.469073
2169.000000	5.454327
2170.000000	5.439973
2171.000000	5.427050
2172.000000	5.415237
2173.000000	5.403300
2174.000000	5.392023
2175.000000	5.381247
2176.000000	5.370817
2177.000000	5.360213
2178.000000	5.349877
2179.000000	5.339983
2180.000000	5.327977
2181.000000	5.316343
2182.000000	5.303933
2183.000000	5.290840
2184.000000	5.275947
2185.000000	5.260323
2186.000000	5.242853
2187.000000	5.221823
2188.000000	5.198753
2189.000000	5.172957
2190.000000	5.146373
2191.000000	5.114560
2192.000000	5.078820
2193.000000	5.039617
2194.000000	4.997540
2195.000000	4.951370
2196.000000	4.900967
2197.000000	4.847670
2198.000000	4.792480
2199.000000	4.733970
2200.000000	4.673427
2201.000000	4.612630
2202.000000	4.553413
2203.000000	4.493180
2204.000000	4.434883
2205.000000	4.378930
2206.000000	4.327780
2207.000000	4.281683
2208.000000	4.239273
2209.000000	4.203340
2210.000000	4.173797
2211.000000	4.151007
2212.000000	4.134680
2213.000000	4.125700
2214.000000	4.123640
2215.000000	4.128890
2216.000000	4.138040
2217.000000	4.151563
2218.000000	4.170670
2219.000000	4.193757
2220.000000	4.220530
2221.000000	4.248293
2222.000000	4.279080
2223.000000	4.311783
2224.000000	4.342900
2225.000000	4.374357
2226.000000	4.406837
2227.000000	4.439203
2228.000000	4.471053
2229.000000	4.500907
2230.000000	4.527687
2231.000000	4.552967
2232.000000	4.575757
2233.000000	4.594187
2234.000000	4.611360
2235.000000	4.624790
2236.000000	4.636133
2237.000000	4.645053
2238.000000	4.647940
2239.000000	4.650263
2240.000000	4.649307
2241.000000	4.646717
2242.000000	4.640857
2243.000000	4.634997
2244.000000	4.625707
2245.000000	4.613473
2246.000000	4.598937
2247.000000	4.583203
2248.000000	4.566693
2249.000000	4.547280
2250.000000	4.528083
2251.000000	4.506243
2252.000000	4.484170
2253.000000	4.460083
2254.000000	4.437367
2255.000000	4.414343
2256.000000	4.391847
2257.000000	4.368297
2258.000000	4.347657
2259.000000	4.328703
2260.000000	4.310307
2261.000000	4.294670
2262.000000	4.278980
2263.000000	4.265683
2264.000000	4.254590
2265.000000	4.246373
2266.000000	4.238993
2267.000000	4.233977
2268.000000	4.231087
2269.000000	4.229993
2270.000000	4.229950
2271.000000	4.230800
2272.000000	4.234267
2273.000000	4.239417
2274.000000	4.244910
2275.000000	4.249693
2276.000000	4.255653
2277.000000	4.262750
2278.000000	4.270157
2279.000000	4.276123
2280.000000	4.282977
2281.000000	4.290190
2282.000000	4.296210
2283.000000	4.302057
2284.000000	4.307490
2285.000000	4.312027
2286.000000	4.316833
2287.000000	4.320700
2288.000000	4.323723
2289.000000	4.326183
2290.000000	4.328937
2291.000000	4.330950
2292.000000	4.332340
2293.000000	4.334473
2294.000000	4.336270
2295.000000	4.339887
2296.000000	4.341953
2297.000000	4.345673
2298.000000	4.349687
2299.000000	4.355840
2300.000000	4.361387
2301.000000	4.368780
2302.000000	4.377187
2303.000000	4.385137
2304.000000	4.393657
2305.000000	4.402903
2306.000000	4.413757
2307.000000	4.425100
2308.000000	4.435300
2309.000000	4.445447
2310.000000	4.457157
2311.000000	4.467503
2312.000000	4.476777
2313.000000	4.487480
2314.000000	4.498437
2315.000000	4.509210
2316.000000	4.518640
2317.000000	4.525800
2318.000000	4.533950
2319.000000	4.539907
2320.000000	4.543530
2321.000000	4.546443
2322.000000	4.549517
2323.000000	4.549487
2324.000000	4.548040
2325.000000	4.545983
2326.000000	4.543633
2327.000000	4.540103
2328.000000	4.534797
2329.000000	4.529177
2330.000000	4.523823
2331.000000	4.518807
2332.000000	4.512557
2333.000000	4.506523
2334.000000	4.500763
2335.000000	4.495753
2336.000000	4.492117
2337.000000	4.488660
2338.000000	4.485820
2339.000000	4.485550
2340.000000	4.486087
2341.000000	4.486107
2342.000000	4.487570
2343.000000	4.490210
2344.000000	4.493057
2345.000000	4.495777
2346.000000	4.497830
2347.000000	4.500873
2348.000000	4.505210
2349.000000	4.508410
2350.000000	4.509897
2351.000000	4.512863
2352.000000	4.517150
2353.000000	4.521417
2354.000000	4.525157
2355.000000	4.528303
2356.000000	4.531027
2357.000000	4.534073
2358.000000	4.536733
2359.000000	4.538613
2360.000000	4.541793
2361.000000	4.543720
2362.000000	4.543593
2363.000000	4.543647
2364.000000	4.543103
2365.000000	4.541313
2366.000000	4.539757
2367.000000	4.538243
2368.000000	4.536077
2369.000000	4.534443
2370.000000	4.532917
2371.000000	4.531753
2372.000000	4.530603
2373.000000	4.529180
2374.000000	4.529133
2375.000000	4.529687
2376.000000	4.529480
2377.000000	4.529500
2378.000000	4.530167
2379.000000	4.529920
2380.000000	4.528767
2381.000000	4.527693
2382.000000	4.526977
2383.000000	4.525520
2384.000000	4.522347
2385.000000	4.519213
2386.000000	4.515913
2387.000000	4.510953
2388.000000	4.504877
2389.000000	4.498847
2390.000000	4.493343
2391.000000	4.486797
2392.000000	4.479023
2393.000000	4.469997
2394.000000	4.461080
2395.000000	4.451750
2396.000000	4.442873
2397.000000	4.433623
2398.000000	4.423200
2399.000000	4.412827
2400.000000	4.400840
2401.000000	4.388117
2402.000000	4.375990
2403.000000	4.364560
2404.000000	4.352597
2405.000000	4.338540
2406.000000	4.322933
2407.000000	4.308200
2408.000000	4.292900
2409.000000	4.275630
2410.000000	4.257543
2411.000000	4.240053
2412.000000	4.220243
2413.000000	4.200020
2414.000000	4.179407
2415.000000	4.159290
2416.000000	4.138120
2417.000000	4.113697
2418.000000	4.086740
2419.000000	4.059160
2420.000000	4.031407
2421.000000	4.001963
2422.000000	3.973583
2423.000000	3.944127
2424.000000	3.914210
2425.000000	3.883817
2426.000000	3.853143
2427.000000	3.823980
2428.000000	3.797200
2429.000000	3.770853
2430.000000	3.744047
2431.000000	3.717697
2432.000000	3.689490
2433.000000	3.661427
2434.000000	3.633093
2435.000000	3.605420
2436.000000	3.578007
2437.000000	3.549207
2438.000000	3.520967
2439.000000	3.492000
2440.000000	3.462580
2441.000000	3.433193
2442.000000	3.404950
2443.000000	3.375133
2444.000000	3.346153
2445.000000	3.316123
2446.000000	3.285590
2447.000000	3.257670
2448.000000	3.229760
2449.000000	3.202237
2450.000000	3.175280
2451.000000	3.148787
2452.000000	3.121983
2453.000000	3.097233
2454.000000	3.071447
2455.000000	3.046197
2456.000000	3.023547
2457.000000	2.999730
2458.000000	2.977907
2459.000000	2.955837
2460.000000	2.933773
2461.000000	2.911537
2462.000000	2.891483
2463.000000	2.872770
2464.000000	2.854923
2465.000000	2.836223
2466.000000	2.819103
2467.000000	2.801877
2468.000000	2.784210
2469.000000	2.770633
2470.000000	2.755190
2471.000000	2.742077
2472.000000	2.731863
2473.000000	2.720387
2474.000000	2.708747
2475.000000	2.700063
2476.000000	2.691970
2477.000000	2.682373
2478.000000	2.677420
2479.000000	2.669387
2480.000000	2.663033
2481.000000	2.655577
2482.000000	2.648877
2483.000000	2.646270
2484.000000	2.640860
2485.000000	2.639730
2486.000000	2.635663
2487.000000	2.638373
2488.000000	2.631017
2489.000000	2.630383
2490.000000	2.635347
2491.000000	2.634053
2492.000000	2.634177
2493.000000	2.633280
2494.000000	2.641943
2495.000000	2.646323
2496.000000	2.649573
2497.000000	2.651357
2498.000000	2.659223
2499.000000	2.663540
2500.000000	2.675873
