PE UV       SUBTECH     SPECTRUM    ASCII       PEDS        4.00        
   -1
BIOUCR0015-3.Sample.ASC
24/02/19
16:09:51.00
24/02/19
16:09:51.00
Vinicio Soto Monge
P. resplendens (sin datos)
250,000000
1
Lambda 1050
1050L1511233
PerkinElmer UV WinLab 6.3.2.0749 / 2.02.05 Lambda 900 UV/VIS/NIR, Aug  7 2015 09:38:08

0
0
3350/servo 860,8/2
0
0
UV/VIS
1
1
1
DoubleDePol,CommonBeamDepol,RBeamAtt,SBeamAtt,60mm sphere, WB InGaAs Detector
0
0
0
0
Program
Program
3350/servo 860,8/2
3350/0,2 860,8/0,2
3350/0,2 860,8/0,2
0
15.00
 
 
 
0
 
860,8
319,2
860,8
Front
100
on
S:100 R:100
0
0
0
0
 
0
 
 
 
0
 
 
0
0
0
0
0
 
 
 
 
0
0


0
0
#HDR
-1
-1
#GR
nm
%R
1.0
0.0
2500,000000
-1,000000
2251
8
25,126700
1,700500
#DATA

250.000000	nan
251.000000	nan
252.000000	nan
253.000000	nan
254.000000	nan
255.000000	nan
256.000000	nan
257.000000	nan
258.000000	nan
259.000000	2.121299
260.000000	2.115541
261.000000	2.111078
262.000000	2.106760
263.000000	2.102959
264.000000	2.100795
265.000000	2.097683
266.000000	2.093654
267.000000	2.088553
268.000000	2.082750
269.000000	2.077875
270.000000	2.072523
271.000000	2.067379
272.000000	2.062669
273.000000	2.056358
274.000000	2.048665
275.000000	2.044839
276.000000	2.039895
277.000000	2.036102
278.000000	2.033802
279.000000	2.031342
280.000000	2.031842
281.000000	2.030543
282.000000	2.029759
283.000000	2.030862
284.000000	2.033417
285.000000	2.031775
286.000000	2.031406
287.000000	2.031303
288.000000	2.029610
289.000000	2.029997
290.000000	2.027258
291.000000	2.024949
292.000000	2.021976
293.000000	2.014722
294.000000	2.012391
295.000000	2.007884
296.000000	2.002376
297.000000	2.000681
298.000000	1.996834
299.000000	1.991731
300.000000	1.988730
301.000000	1.989363
302.000000	1.987749
303.000000	1.989582
304.000000	1.984530
305.000000	1.988933
306.000000	1.990144
307.000000	1.989241
308.000000	1.989028
309.000000	1.986373
310.000000	1.986478
311.000000	1.980119
312.000000	1.978476
313.000000	1.973226
314.000000	1.972561
315.000000	1.968375
316.000000	1.972238
317.000000	2.022946
318.000000	2.054298
319.000000	2.091249
320.000000	2.125949
321.000000	2.152665
322.000000	2.181570
323.000000	2.212805
324.000000	2.243099
325.000000	2.276670
326.000000	2.287055
327.000000	2.249797
328.000000	2.232420
329.000000	2.196137
330.000000	2.177930
331.000000	2.164756
332.000000	2.139254
333.000000	2.115592
334.000000	2.096421
335.000000	2.067188
336.000000	2.055796
337.000000	2.051468
338.000000	2.049936
339.000000	2.052118
340.000000	2.036258
341.000000	2.030289
342.000000	2.031529
343.000000	2.031787
344.000000	2.029155
345.000000	2.029594
346.000000	2.027811
347.000000	2.021086
348.000000	2.011581
349.000000	2.010288
350.000000	2.008429
351.000000	2.001599
352.000000	1.994341
353.000000	1.992329
354.000000	1.990695
355.000000	1.985460
356.000000	1.982292
357.000000	1.978180
358.000000	1.973213
359.000000	1.970079
360.000000	1.968606
361.000000	1.965363
362.000000	1.965841
363.000000	1.955727
364.000000	1.942020
365.000000	1.941153
366.000000	1.938140
367.000000	1.925919
368.000000	1.918427
369.000000	1.909290
370.000000	1.899169
371.000000	1.890405
372.000000	1.874071
373.000000	1.862414
374.000000	1.845140
375.000000	1.824286
376.000000	1.813897
377.000000	1.799516
378.000000	1.781997
379.000000	1.766909
380.000000	1.751395
381.000000	1.739382
382.000000	1.732493
383.000000	1.725933
384.000000	1.726950
385.000000	1.723823
386.000000	1.714224
387.000000	1.716498
388.000000	1.719150
389.000000	1.723149
390.000000	1.727125
391.000000	1.730018
392.000000	1.734323
393.000000	1.739398
394.000000	1.744141
395.000000	1.749736
396.000000	1.755360
397.000000	1.761848
398.000000	1.768868
399.000000	1.776668
400.000000	1.785652
401.000000	1.796112
402.000000	1.806914
403.000000	1.819361
404.000000	1.833421
405.000000	1.849160
406.000000	1.866729
407.000000	1.886675
408.000000	1.908918
409.000000	1.933251
410.000000	1.959519
411.000000	1.988810
412.000000	2.021560
413.000000	2.056499
414.000000	2.093903
415.000000	2.134441
416.000000	2.178340
417.000000	2.224704
418.000000	2.273776
419.000000	2.325954
420.000000	2.381371
421.000000	2.439052
422.000000	2.498787
423.000000	2.561236
424.000000	2.626214
425.000000	2.692848
426.000000	2.760887
427.000000	2.830693
428.000000	2.902311
429.000000	2.975491
430.000000	3.049023
431.000000	3.122602
432.000000	3.197259
433.000000	3.272357
434.000000	3.347017
435.000000	3.421688
436.000000	3.496136
437.000000	3.569990
438.000000	3.643011
439.000000	3.714875
440.000000	3.786360
441.000000	3.857434
442.000000	3.926962
443.000000	3.995420
444.000000	4.062579
445.000000	4.128934
446.000000	4.194704
447.000000	4.258869
448.000000	4.321627
449.000000	4.383544
450.000000	4.444528
451.000000	4.504094
452.000000	4.562764
453.000000	4.620210
454.000000	4.676745
455.000000	4.732340
456.000000	4.786600
457.000000	4.840049
458.000000	4.892236
459.000000	4.943093
460.000000	4.992666
461.000000	5.040285
462.000000	5.086352
463.000000	5.130859
464.000000	5.173629
465.000000	5.213967
466.000000	5.251814
467.000000	5.287764
468.000000	5.320709
469.000000	5.349971
470.000000	5.375424
471.000000	5.397439
472.000000	5.415039
473.000000	5.428168
474.000000	5.436776
475.000000	5.440460
476.000000	5.439612
477.000000	5.433944
478.000000	5.424365
479.000000	5.411675
480.000000	5.395922
481.000000	5.376703
482.000000	5.355163
483.000000	5.333337
484.000000	5.313280
485.000000	5.296453
486.000000	5.283872
487.000000	5.277116
488.000000	5.278163
489.000000	5.288135
490.000000	5.308596
491.000000	5.342187
492.000000	5.390330
493.000000	5.452539
494.000000	5.529135
495.000000	5.620176
496.000000	5.726830
497.000000	5.848667
498.000000	5.984640
499.000000	6.134488
500.000000	6.297676
501.000000	6.474317
502.000000	6.661829
503.000000	6.860298
504.000000	7.066969
505.000000	7.281114
506.000000	7.500267
507.000000	7.723255
508.000000	7.948073
509.000000	8.173755
510.000000	8.399467
511.000000	8.622853
512.000000	8.844838
513.000000	9.063220
514.000000	9.278875
515.000000	9.491433
516.000000	9.701665
517.000000	9.909324
518.000000	10.116273
519.000000	10.322701
520.000000	10.528682
521.000000	10.734936
522.000000	10.942190
523.000000	11.151614
524.000000	11.363847
525.000000	11.578396
526.000000	11.794668
527.000000	12.012805
528.000000	12.232028
529.000000	12.453095
530.000000	12.674271
531.000000	12.896670
532.000000	13.118756
533.000000	13.338762
534.000000	13.556147
535.000000	13.771113
536.000000	13.984204
537.000000	14.194838
538.000000	14.403221
539.000000	14.607644
540.000000	14.809501
541.000000	15.008123
542.000000	15.203701
543.000000	15.396894
544.000000	15.586256
545.000000	15.772938
546.000000	15.954825
547.000000	16.132843
548.000000	16.305660
549.000000	16.474100
550.000000	16.636218
551.000000	16.792303
552.000000	16.942369
553.000000	17.084279
554.000000	17.219565
555.000000	17.347765
556.000000	17.468523
557.000000	17.581958
558.000000	17.689386
559.000000	17.791875
560.000000	17.844455
561.000000	17.884658
562.000000	17.919435
563.000000	17.951363
564.000000	17.979667
565.000000	18.001622
566.000000	18.020060
567.000000	18.034548
568.000000	18.045015
569.000000	18.050040
570.000000	18.096505
571.000000	18.145602
572.000000	18.188849
573.000000	18.226453
574.000000	18.259663
575.000000	18.289005
576.000000	18.313115
577.000000	18.332001
578.000000	18.344394
579.000000	18.349865
580.000000	18.348425
581.000000	18.339974
582.000000	18.325411
583.000000	18.304127
584.000000	18.276369
585.000000	18.242881
586.000000	18.202642
587.000000	18.155829
588.000000	18.104718
589.000000	18.050141
590.000000	17.990623
591.000000	17.927669
592.000000	17.862106
593.000000	17.792180
594.000000	17.719283
595.000000	17.644518
596.000000	17.568296
597.000000	17.489891
598.000000	17.408087
599.000000	17.321679
600.000000	17.231763
601.000000	17.137822
602.000000	17.037817
603.000000	16.934749
604.000000	16.824610
605.000000	16.706324
606.000000	16.581645
607.000000	16.450326
608.000000	16.313136
609.000000	16.170918
610.000000	16.023901
611.000000	15.873716
612.000000	15.721432
613.000000	15.567791
614.000000	15.415658
615.000000	15.268979
616.000000	15.128016
617.000000	14.996280
618.000000	14.874135
619.000000	14.763872
620.000000	14.667537
621.000000	14.584330
622.000000	14.516992
623.000000	14.467534
624.000000	14.432708
625.000000	14.412531
626.000000	14.406216
627.000000	14.412675
628.000000	14.430717
629.000000	14.458201
630.000000	14.495389
631.000000	14.540832
632.000000	14.592258
633.000000	14.645030
634.000000	14.701606
635.000000	14.758466
636.000000	14.815730
637.000000	14.869867
638.000000	14.922785
639.000000	14.974492
640.000000	15.021271
641.000000	15.063682
642.000000	15.101689
643.000000	15.135280
644.000000	15.163825
645.000000	15.188356
646.000000	15.208240
647.000000	15.225954
648.000000	15.239474
649.000000	15.250249
650.000000	15.260624
651.000000	15.271340
652.000000	15.282821
653.000000	15.298303
654.000000	15.317329
655.000000	15.341782
656.000000	15.373154
657.000000	15.412301
658.000000	15.462976
659.000000	15.524356
660.000000	15.597032
661.000000	15.678651
662.000000	15.772474
663.000000	15.875791
664.000000	15.989708
665.000000	16.111506
666.000000	16.241136
667.000000	16.375602
668.000000	16.512852
669.000000	16.651196
670.000000	16.786551
671.000000	16.921132
672.000000	17.051053
673.000000	17.176076
674.000000	17.296902
675.000000	17.409198
676.000000	17.513113
677.000000	17.611331
678.000000	17.702761
679.000000	17.786757
680.000000	17.864083
681.000000	17.935372
682.000000	18.002554
683.000000	18.066785
684.000000	18.125458
685.000000	18.184127
686.000000	18.243060
687.000000	18.303168
688.000000	18.364217
689.000000	18.428241
690.000000	18.499472
691.000000	18.579599
692.000000	18.666374
693.000000	18.760838
694.000000	18.868175
695.000000	18.988514
696.000000	19.120041
697.000000	19.262526
698.000000	19.416907
699.000000	19.583312
700.000000	19.759867
701.000000	19.944028
702.000000	20.137312
703.000000	20.336038
704.000000	20.539381
705.000000	20.743589
706.000000	20.947657
707.000000	21.150593
708.000000	21.349469
709.000000	21.543225
710.000000	21.730272
711.000000	21.908397
712.000000	22.076881
713.000000	22.237296
714.000000	22.385085
715.000000	22.524486
716.000000	22.654235
717.000000	22.773283
718.000000	22.884500
719.000000	22.986946
720.000000	23.079763
721.000000	23.166678
722.000000	23.245898
723.000000	23.318806
724.000000	23.388115
725.000000	23.453310
726.000000	23.516763
727.000000	23.576021
728.000000	23.632063
729.000000	23.687074
730.000000	23.742333
731.000000	23.794146
732.000000	23.844854
733.000000	23.894812
734.000000	23.942474
735.000000	23.988125
736.000000	24.030947
737.000000	24.073665
738.000000	24.115561
739.000000	24.154624
740.000000	24.192551
741.000000	24.230033
742.000000	24.268625
743.000000	24.305316
744.000000	24.338334
745.000000	24.370110
746.000000	24.400375
747.000000	24.429748
748.000000	24.458527
749.000000	24.487208
750.000000	24.513268
751.000000	24.537745
752.000000	24.558148
753.000000	24.579664
754.000000	24.605134
755.000000	24.626110
756.000000	24.644822
757.000000	24.661957
758.000000	24.675977
759.000000	24.688555
760.000000	24.700215
761.000000	24.711513
762.000000	24.725134
763.000000	24.735196
764.000000	24.740684
765.000000	24.749272
766.000000	24.761134
767.000000	24.772626
768.000000	24.782790
769.000000	24.791040
770.000000	24.798058
771.000000	24.802671
772.000000	24.806414
773.000000	24.810849
774.000000	24.814255
775.000000	24.816367
776.000000	24.815602
777.000000	24.812577
778.000000	24.810819
779.000000	24.809570
780.000000	24.810721
781.000000	24.810400
782.000000	24.805699
783.000000	24.800978
784.000000	24.796941
785.000000	24.791398
786.000000	24.783802
787.000000	24.776515
788.000000	24.767799
789.000000	24.753556
790.000000	24.731039
791.000000	24.706832
792.000000	24.680851
793.000000	24.652295
794.000000	24.621517
795.000000	24.586253
796.000000	24.545210
797.000000	24.499050
798.000000	24.442571
799.000000	24.385192
800.000000	24.326225
801.000000	24.260164
802.000000	24.193747
803.000000	24.121676
804.000000	24.038789
805.000000	23.950965
806.000000	23.857101
807.000000	23.757508
808.000000	23.660455
809.000000	23.559788
810.000000	23.455084
811.000000	23.346660
812.000000	23.231402
813.000000	23.105864
814.000000	22.979439
815.000000	22.846112
816.000000	22.710160
817.000000	22.574776
818.000000	22.429427
819.000000	22.276501
820.000000	22.119428
821.000000	21.963697
822.000000	21.802463
823.000000	21.645199
824.000000	21.484367
825.000000	21.324664
826.000000	21.168804
827.000000	21.010778
828.000000	20.852035
829.000000	20.699708
830.000000	20.550785
831.000000	20.401971
832.000000	20.258664
833.000000	20.114177
834.000000	19.974900
835.000000	19.839817
836.000000	19.708686
837.000000	19.580162
838.000000	19.461052
839.000000	19.341914
840.000000	19.233115
841.000000	19.126906
842.000000	19.018402
843.000000	18.916814
844.000000	18.835418
845.000000	18.755933
846.000000	18.676636
847.000000	18.606620
848.000000	18.539744
849.000000	18.481862
850.000000	18.429083
851.000000	18.377324
852.000000	18.338335
853.000000	18.287705
854.000000	18.230467
855.000000	18.168288
856.000000	18.131863
857.000000	18.091918
858.000000	18.100745
859.000000	18.109029
860.000000	18.112839
861.000000	18.127706
862.000000	18.146949
863.000000	18.189891
864.000000	18.232925
865.000000	18.293092
866.000000	18.338734
867.000000	18.391530
868.000000	18.401793
869.000000	18.415653
870.000000	18.431010
871.000000	18.446620
872.000000	18.459060
873.000000	18.468383
874.000000	18.477103
875.000000	18.485080
876.000000	18.489550
877.000000	18.492523
878.000000	18.495300
879.000000	18.498370
880.000000	18.501970
881.000000	18.506560
882.000000	18.511240
883.000000	18.515210
884.000000	18.519253
885.000000	18.524213
886.000000	18.529103
887.000000	18.533000
888.000000	18.538870
889.000000	18.543607
890.000000	18.549837
891.000000	18.555670
892.000000	18.562460
893.000000	18.569050
894.000000	18.574863
895.000000	18.579587
896.000000	18.585927
897.000000	18.593473
898.000000	18.601633
899.000000	18.610960
900.000000	18.620327
901.000000	18.630220
902.000000	18.638953
903.000000	18.649150
904.000000	18.660930
905.000000	18.674287
906.000000	18.687320
907.000000	18.699580
908.000000	18.711903
909.000000	18.723183
910.000000	18.734743
911.000000	18.743350
912.000000	18.751210
913.000000	18.758180
914.000000	18.766437
915.000000	18.773313
916.000000	18.778050
917.000000	18.784017
918.000000	18.787177
919.000000	18.789523
920.000000	18.790123
921.000000	18.791003
922.000000	18.792583
923.000000	18.792710
924.000000	18.789477
925.000000	18.784857
926.000000	18.779630
927.000000	18.773653
928.000000	18.768657
929.000000	18.761063
930.000000	18.753443
931.000000	18.745553
932.000000	18.735433
933.000000	18.728617
934.000000	18.724017
935.000000	18.718990
936.000000	18.713823
937.000000	18.707890
938.000000	18.701283
939.000000	18.698197
940.000000	18.692237
941.000000	18.684713
942.000000	18.679693
943.000000	18.671483
944.000000	18.661360
945.000000	18.650637
946.000000	18.640933
947.000000	18.631280
948.000000	18.621743
949.000000	18.611780
950.000000	18.604930
951.000000	18.598530
952.000000	18.590777
953.000000	18.583380
954.000000	18.576473
955.000000	18.569530
956.000000	18.562690
957.000000	18.557627
958.000000	18.552163
959.000000	18.545990
960.000000	18.538753
961.000000	18.531700
962.000000	18.525477
963.000000	18.518590
964.000000	18.512793
965.000000	18.506797
966.000000	18.500293
967.000000	18.492060
968.000000	18.484533
969.000000	18.477087
970.000000	18.470553
971.000000	18.466610
972.000000	18.462400
973.000000	18.457620
974.000000	18.451840
975.000000	18.447403
976.000000	18.444623
977.000000	18.441297
978.000000	18.438167
979.000000	18.436970
980.000000	18.436917
981.000000	18.435513
982.000000	18.434090
983.000000	18.433707
984.000000	18.433950
985.000000	18.433887
986.000000	18.432393
987.000000	18.432227
988.000000	18.433517
989.000000	18.433513
990.000000	18.433293
991.000000	18.432997
992.000000	18.432937
993.000000	18.434050
994.000000	18.434517
995.000000	18.434460
996.000000	18.435827
997.000000	18.438530
998.000000	18.440687
999.000000	18.442500
1000.000000	18.443813
1001.000000	18.445933
1002.000000	18.448863
1003.000000	18.451680
1004.000000	18.454043
1005.000000	18.456223
1006.000000	18.459227
1007.000000	18.461497
1008.000000	18.462570
1009.000000	18.464263
1010.000000	18.466200
1011.000000	18.468530
1012.000000	18.470807
1013.000000	18.472750
1014.000000	18.475930
1015.000000	18.481513
1016.000000	18.487690
1017.000000	18.493847
1018.000000	18.500600
1019.000000	18.507460
1020.000000	18.513877
1021.000000	18.521123
1022.000000	18.529280
1023.000000	18.538443
1024.000000	18.548183
1025.000000	18.557070
1026.000000	18.565950
1027.000000	18.575170
1028.000000	18.585317
1029.000000	18.596223
1030.000000	18.607670
1031.000000	18.619587
1032.000000	18.631033
1033.000000	18.642107
1034.000000	18.654013
1035.000000	18.666493
1036.000000	18.678170
1037.000000	18.690487
1038.000000	18.703910
1039.000000	18.717563
1040.000000	18.731303
1041.000000	18.744577
1042.000000	18.757790
1043.000000	18.771787
1044.000000	18.785427
1045.000000	18.798403
1046.000000	18.811790
1047.000000	18.824107
1048.000000	18.834097
1049.000000	18.844487
1050.000000	18.855583
1051.000000	18.865933
1052.000000	18.876777
1053.000000	18.888093
1054.000000	18.899587
1055.000000	18.912133
1056.000000	18.925407
1057.000000	18.939153
1058.000000	18.954043
1059.000000	18.968617
1060.000000	18.983470
1061.000000	18.998847
1062.000000	19.014307
1063.000000	19.030797
1064.000000	19.046727
1065.000000	19.061823
1066.000000	19.077610
1067.000000	19.093657
1068.000000	19.110700
1069.000000	19.128350
1070.000000	19.146437
1071.000000	19.167080
1072.000000	19.188293
1073.000000	19.207680
1074.000000	19.227910
1075.000000	19.248780
1076.000000	19.269100
1077.000000	19.289593
1078.000000	19.309003
1079.000000	19.329360
1080.000000	19.349080
1081.000000	19.365380
1082.000000	19.381253
1083.000000	19.397423
1084.000000	19.412927
1085.000000	19.429533
1086.000000	19.445283
1087.000000	19.459857
1088.000000	19.475280
1089.000000	19.489240
1090.000000	19.502380
1091.000000	19.516597
1092.000000	19.530737
1093.000000	19.544260
1094.000000	19.557520
1095.000000	19.568740
1096.000000	19.579603
1097.000000	19.591807
1098.000000	19.603453
1099.000000	19.614730
1100.000000	19.626357
1101.000000	19.637417
1102.000000	19.647770
1103.000000	19.658037
1104.000000	19.667587
1105.000000	19.677210
1106.000000	19.688550
1107.000000	19.699337
1108.000000	19.709677
1109.000000	19.719600
1110.000000	19.729027
1111.000000	19.737900
1112.000000	19.745277
1113.000000	19.751617
1114.000000	19.758910
1115.000000	19.766207
1116.000000	19.772920
1117.000000	19.779143
1118.000000	19.786143
1119.000000	19.792397
1120.000000	19.798940
1121.000000	19.806463
1122.000000	19.814500
1123.000000	19.824993
1124.000000	19.833147
1125.000000	19.840250
1126.000000	19.844817
1127.000000	19.849183
1128.000000	19.850313
1129.000000	19.852843
1130.000000	19.853630
1131.000000	19.849887
1132.000000	19.842987
1133.000000	19.829717
1134.000000	19.817027
1135.000000	19.805427
1136.000000	19.794590
1137.000000	19.779103
1138.000000	19.761440
1139.000000	19.740000
1140.000000	19.715867
1141.000000	19.694263
1142.000000	19.673490
1143.000000	19.654133
1144.000000	19.633447
1145.000000	19.612157
1146.000000	19.589867
1147.000000	19.569747
1148.000000	19.550920
1149.000000	19.533167
1150.000000	19.518137
1151.000000	19.502180
1152.000000	19.486943
1153.000000	19.473370
1154.000000	19.460377
1155.000000	19.445317
1156.000000	19.428017
1157.000000	19.408603
1158.000000	19.388277
1159.000000	19.364710
1160.000000	19.338960
1161.000000	19.308760
1162.000000	19.276593
1163.000000	19.241640
1164.000000	19.203090
1165.000000	19.162533
1166.000000	19.120740
1167.000000	19.078880
1168.000000	19.036017
1169.000000	18.994390
1170.000000	18.952817
1171.000000	18.915730
1172.000000	18.879997
1173.000000	18.845337
1174.000000	18.813843
1175.000000	18.783683
1176.000000	18.757570
1177.000000	18.733400
1178.000000	18.713113
1179.000000	18.694303
1180.000000	18.677797
1181.000000	18.661653
1182.000000	18.647237
1183.000000	18.632960
1184.000000	18.620477
1185.000000	18.610197
1186.000000	18.601490
1187.000000	18.594920
1188.000000	18.587983
1189.000000	18.585593
1190.000000	18.586170
1191.000000	18.589163
1192.000000	18.594870
1193.000000	18.605390
1194.000000	18.618400
1195.000000	18.634067
1196.000000	18.650920
1197.000000	18.668707
1198.000000	18.688743
1199.000000	18.708960
1200.000000	18.729583
1201.000000	18.750397
1202.000000	18.769657
1203.000000	18.788113
1204.000000	18.806840
1205.000000	18.823987
1206.000000	18.841630
1207.000000	18.860847
1208.000000	18.880243
1209.000000	18.898083
1210.000000	18.915417
1211.000000	18.933557
1212.000000	18.951657
1213.000000	18.970463
1214.000000	18.989737
1215.000000	19.007870
1216.000000	19.025920
1217.000000	19.041117
1218.000000	19.056343
1219.000000	19.072100
1220.000000	19.086457
1221.000000	19.099587
1222.000000	19.113117
1223.000000	19.125687
1224.000000	19.135350
1225.000000	19.144157
1226.000000	19.151530
1227.000000	19.160180
1228.000000	19.166560
1229.000000	19.171163
1230.000000	19.175680
1231.000000	19.179903
1232.000000	19.184863
1233.000000	19.188890
1234.000000	19.192053
1235.000000	19.196787
1236.000000	19.200063
1237.000000	19.203413
1238.000000	19.207217
1239.000000	19.211230
1240.000000	19.215687
1241.000000	19.220310
1242.000000	19.224460
1243.000000	19.229477
1244.000000	19.236710
1245.000000	19.245510
1246.000000	19.255163
1247.000000	19.265567
1248.000000	19.278937
1249.000000	19.293630
1250.000000	19.309130
1251.000000	19.325857
1252.000000	19.343083
1253.000000	19.360803
1254.000000	19.378577
1255.000000	19.395877
1256.000000	19.413323
1257.000000	19.430590
1258.000000	19.445877
1259.000000	19.461227
1260.000000	19.474347
1261.000000	19.485013
1262.000000	19.494753
1263.000000	19.503887
1264.000000	19.512003
1265.000000	19.518843
1266.000000	19.525683
1267.000000	19.531257
1268.000000	19.535633
1269.000000	19.538560
1270.000000	19.540667
1271.000000	19.543017
1272.000000	19.544377
1273.000000	19.544917
1274.000000	19.544670
1275.000000	19.543630
1276.000000	19.542433
1277.000000	19.541757
1278.000000	19.540297
1279.000000	19.538813
1280.000000	19.538927
1281.000000	19.538687
1282.000000	19.538697
1283.000000	19.540307
1284.000000	19.543060
1285.000000	19.546200
1286.000000	19.548607
1287.000000	19.550867
1288.000000	19.555213
1289.000000	19.559923
1290.000000	19.564127
1291.000000	19.570363
1292.000000	19.577300
1293.000000	19.583067
1294.000000	19.588840
1295.000000	19.595173
1296.000000	19.601977
1297.000000	19.609240
1298.000000	19.616230
1299.000000	19.622693
1300.000000	19.629077
1301.000000	19.634390
1302.000000	19.638423
1303.000000	19.641300
1304.000000	19.643493
1305.000000	19.646520
1306.000000	19.649193
1307.000000	19.649667
1308.000000	19.648743
1309.000000	19.648513
1310.000000	19.647853
1311.000000	19.645463
1312.000000	19.643120
1313.000000	19.639743
1314.000000	19.633173
1315.000000	19.623000
1316.000000	19.611513
1317.000000	19.600370
1318.000000	19.588207
1319.000000	19.573627
1320.000000	19.558247
1321.000000	19.541953
1322.000000	19.523973
1323.000000	19.506067
1324.000000	19.488017
1325.000000	19.470310
1326.000000	19.452063
1327.000000	19.431010
1328.000000	19.408803
1329.000000	19.385307
1330.000000	19.359910
1331.000000	19.334070
1332.000000	19.307483
1333.000000	19.279053
1334.000000	19.248983
1335.000000	19.217197
1336.000000	19.184250
1337.000000	19.151630
1338.000000	19.117107
1339.000000	19.080930
1340.000000	19.043787
1341.000000	19.004973
1342.000000	18.963160
1343.000000	18.919843
1344.000000	18.875873
1345.000000	18.829037
1346.000000	18.778283
1347.000000	18.725123
1348.000000	18.671880
1349.000000	18.617737
1350.000000	18.560243
1351.000000	18.500247
1352.000000	18.438673
1353.000000	18.375880
1354.000000	18.314073
1355.000000	18.257343
1356.000000	18.204727
1357.000000	18.152713
1358.000000	18.099537
1359.000000	18.047017
1360.000000	17.995217
1361.000000	17.951787
1362.000000	17.922263
1363.000000	17.893460
1364.000000	17.861810
1365.000000	17.829800
1366.000000	17.793723
1367.000000	17.754990
1368.000000	17.718657
1369.000000	17.678990
1370.000000	17.634223
1371.000000	17.579333
1372.000000	17.508340
1373.000000	17.427560
1374.000000	17.334980
1375.000000	17.225457
1376.000000	17.105307
1377.000000	16.971700
1378.000000	16.823773
1379.000000	16.661333
1380.000000	16.495447
1381.000000	16.328653
1382.000000	16.171473
1383.000000	16.025217
1384.000000	15.895993
1385.000000	15.776683
1386.000000	15.667847
1387.000000	15.576573
1388.000000	15.502723
1389.000000	15.453603
1390.000000	15.413573
1391.000000	15.376383
1392.000000	15.339820
1393.000000	15.304957
1394.000000	15.268733
1395.000000	15.242427
1396.000000	15.226703
1397.000000	15.211140
1398.000000	15.183147
1399.000000	15.144300
1400.000000	15.114023
1401.000000	15.096007
1402.000000	15.066317
1403.000000	15.023113
1404.000000	14.972360
1405.000000	14.917353
1406.000000	14.851113
1407.000000	14.779660
1408.000000	14.713707
1409.000000	14.647937
1410.000000	14.572397
1411.000000	14.480873
1412.000000	14.388653
1413.000000	14.301653
1414.000000	14.221523
1415.000000	14.138270
1416.000000	14.052563
1417.000000	13.963230
1418.000000	13.873843
1419.000000	13.789587
1420.000000	13.707840
1421.000000	13.628400
1422.000000	13.549040
1423.000000	13.476830
1424.000000	13.404413
1425.000000	13.331803
1426.000000	13.261293
1427.000000	13.197197
1428.000000	13.137923
1429.000000	13.077270
1430.000000	13.015067
1431.000000	12.954787
1432.000000	12.903900
1433.000000	12.853683
1434.000000	12.802740
1435.000000	12.754973
1436.000000	12.711207
1437.000000	12.669263
1438.000000	12.628637
1439.000000	12.590333
1440.000000	12.554637
1441.000000	12.522753
1442.000000	12.490113
1443.000000	12.456430
1444.000000	12.425043
1445.000000	12.397380
1446.000000	12.372687
1447.000000	12.348783
1448.000000	12.322013
1449.000000	12.294443
1450.000000	12.269913
1451.000000	12.247230
1452.000000	12.225923
1453.000000	12.205510
1454.000000	12.185320
1455.000000	12.161307
1456.000000	12.136407
1457.000000	12.112197
1458.000000	12.088830
1459.000000	12.066817
1460.000000	12.043060
1461.000000	12.016733
1462.000000	11.989437
1463.000000	11.962447
1464.000000	11.935917
1465.000000	11.911840
1466.000000	11.887687
1467.000000	11.863287
1468.000000	11.838397
1469.000000	11.812520
1470.000000	11.788317
1471.000000	11.766360
1472.000000	11.746663
1473.000000	11.726383
1474.000000	11.705453
1475.000000	11.683127
1476.000000	11.662797
1477.000000	11.643173
1478.000000	11.626410
1479.000000	11.611733
1480.000000	11.597017
1481.000000	11.583323
1482.000000	11.570200
1483.000000	11.558800
1484.000000	11.547893
1485.000000	11.539657
1486.000000	11.531193
1487.000000	11.523563
1488.000000	11.516847
1489.000000	11.509933
1490.000000	11.503927
1491.000000	11.496767
1492.000000	11.488387
1493.000000	11.481703
1494.000000	11.476873
1495.000000	11.472473
1496.000000	11.467540
1497.000000	11.465727
1498.000000	11.464237
1499.000000	11.464637
1500.000000	11.466587
1501.000000	11.472107
1502.000000	11.480440
1503.000000	11.490683
1504.000000	11.502957
1505.000000	11.517023
1506.000000	11.533420
1507.000000	11.549657
1508.000000	11.568087
1509.000000	11.587373
1510.000000	11.608273
1511.000000	11.628863
1512.000000	11.649653
1513.000000	11.671267
1514.000000	11.694127
1515.000000	11.717037
1516.000000	11.740420
1517.000000	11.763267
1518.000000	11.786130
1519.000000	11.810323
1520.000000	11.833943
1521.000000	11.857013
1522.000000	11.880123
1523.000000	11.903650
1524.000000	11.926113
1525.000000	11.948227
1526.000000	11.969080
1527.000000	11.990433
1528.000000	12.011377
1529.000000	12.031000
1530.000000	12.049537
1531.000000	12.068800
1532.000000	12.088673
1533.000000	12.106963
1534.000000	12.123783
1535.000000	12.138907
1536.000000	12.155140
1537.000000	12.171320
1538.000000	12.186727
1539.000000	12.201377
1540.000000	12.214747
1541.000000	12.226600
1542.000000	12.237197
1543.000000	12.247243
1544.000000	12.258610
1545.000000	12.271313
1546.000000	12.283180
1547.000000	12.294660
1548.000000	12.307233
1549.000000	12.321307
1550.000000	12.338583
1551.000000	12.357127
1552.000000	12.374917
1553.000000	12.393400
1554.000000	12.411883
1555.000000	12.430123
1556.000000	12.448573
1557.000000	12.466933
1558.000000	12.483943
1559.000000	12.499143
1560.000000	12.510677
1561.000000	12.520157
1562.000000	12.529187
1563.000000	12.536490
1564.000000	12.541430
1565.000000	12.544893
1566.000000	12.546730
1567.000000	12.546190
1568.000000	12.544283
1569.000000	12.542150
1570.000000	12.540070
1571.000000	12.537600
1572.000000	12.534470
1573.000000	12.531143
1574.000000	12.527570
1575.000000	12.523487
1576.000000	12.520423
1577.000000	12.519453
1578.000000	12.519903
1579.000000	12.521183
1580.000000	12.523177
1581.000000	12.526183
1582.000000	12.531327
1583.000000	12.537570
1584.000000	12.545023
1585.000000	12.554750
1586.000000	12.564800
1587.000000	12.574983
1588.000000	12.585657
1589.000000	12.596910
1590.000000	12.609650
1591.000000	12.622707
1592.000000	12.635470
1593.000000	12.649337
1594.000000	12.664367
1595.000000	12.679353
1596.000000	12.694357
1597.000000	12.709603
1598.000000	12.725643
1599.000000	12.741883
1600.000000	12.758227
1601.000000	12.775573
1602.000000	12.794343
1603.000000	12.814403
1604.000000	12.834297
1605.000000	12.853967
1606.000000	12.874080
1607.000000	12.894910
1608.000000	12.915193
1609.000000	12.934950
1610.000000	12.954383
1611.000000	12.972393
1612.000000	12.988110
1613.000000	13.003300
1614.000000	13.018243
1615.000000	13.032213
1616.000000	13.044947
1617.000000	13.056733
1618.000000	13.067603
1619.000000	13.078330
1620.000000	13.087540
1621.000000	13.096530
1622.000000	13.106310
1623.000000	13.113420
1624.000000	13.120797
1625.000000	13.128330
1626.000000	13.136097
1627.000000	13.143850
1628.000000	13.152110
1629.000000	13.159500
1630.000000	13.168117
1631.000000	13.177150
1632.000000	13.184717
1633.000000	13.194187
1634.000000	13.202000
1635.000000	13.209563
1636.000000	13.216723
1637.000000	13.223473
1638.000000	13.229410
1639.000000	13.234477
1640.000000	13.237593
1641.000000	13.240307
1642.000000	13.243497
1643.000000	13.245163
1644.000000	13.246537
1645.000000	13.247417
1646.000000	13.247950
1647.000000	13.246913
1648.000000	13.245120
1649.000000	13.242247
1650.000000	13.240237
1651.000000	13.237613
1652.000000	13.232607
1653.000000	13.226157
1654.000000	13.219550
1655.000000	13.209847
1656.000000	13.197797
1657.000000	13.184690
1658.000000	13.167697
1659.000000	13.150377
1660.000000	13.129210
1661.000000	13.105827
1662.000000	13.077910
1663.000000	13.047500
1664.000000	13.013143
1665.000000	12.976760
1666.000000	12.938073
1667.000000	12.898277
1668.000000	12.851387
1669.000000	12.799557
1670.000000	12.745633
1671.000000	12.690240
1672.000000	12.636217
1673.000000	12.579277
1674.000000	12.522193
1675.000000	12.466247
1676.000000	12.410147
1677.000000	12.351753
1678.000000	12.298107
1679.000000	12.246663
1680.000000	12.194607
1681.000000	12.139813
1682.000000	12.082847
1683.000000	12.025313
1684.000000	11.967467
1685.000000	11.908577
1686.000000	11.849440
1687.000000	11.792933
1688.000000	11.741393
1689.000000	11.694373
1690.000000	11.655333
1691.000000	11.626167
1692.000000	11.606507
1693.000000	11.596497
1694.000000	11.594320
1695.000000	11.598013
1696.000000	11.609890
1697.000000	11.624533
1698.000000	11.641087
1699.000000	11.657830
1700.000000	11.672653
1701.000000	11.683760
1702.000000	11.691513
1703.000000	11.694967
1704.000000	11.695057
1705.000000	11.692767
1706.000000	11.686233
1707.000000	11.677670
1708.000000	11.665730
1709.000000	11.647917
1710.000000	11.627920
1711.000000	11.603150
1712.000000	11.575380
1713.000000	11.544770
1714.000000	11.509007
1715.000000	11.468667
1716.000000	11.422287
1717.000000	11.370377
1718.000000	11.313803
1719.000000	11.256880
1720.000000	11.196010
1721.000000	11.135957
1722.000000	11.076353
1723.000000	11.018950
1724.000000	10.966960
1725.000000	10.920450
1726.000000	10.883160
1727.000000	10.853957
1728.000000	10.832640
1729.000000	10.820960
1730.000000	10.815740
1731.000000	10.817843
1732.000000	10.825333
1733.000000	10.835927
1734.000000	10.850430
1735.000000	10.867340
1736.000000	10.884293
1737.000000	10.902937
1738.000000	10.923780
1739.000000	10.943727
1740.000000	10.966227
1741.000000	10.987993
1742.000000	11.010990
1743.000000	11.035377
1744.000000	11.058103
1745.000000	11.080607
1746.000000	11.103110
1747.000000	11.126480
1748.000000	11.147313
1749.000000	11.167807
1750.000000	11.187130
1751.000000	11.204723
1752.000000	11.219990
1753.000000	11.233107
1754.000000	11.244007
1755.000000	11.252957
1756.000000	11.259553
1757.000000	11.263243
1758.000000	11.266540
1759.000000	11.268470
1760.000000	11.269350
1761.000000	11.269510
1762.000000	11.268977
1763.000000	11.269400
1764.000000	11.269747
1765.000000	11.271510
1766.000000	11.274997
1767.000000	11.278770
1768.000000	11.284467
1769.000000	11.291000
1770.000000	11.297767
1771.000000	11.304940
1772.000000	11.313447
1773.000000	11.323563
1774.000000	11.335657
1775.000000	11.347260
1776.000000	11.359103
1777.000000	11.372167
1778.000000	11.384723
1779.000000	11.397380
1780.000000	11.409337
1781.000000	11.423330
1782.000000	11.436560
1783.000000	11.447477
1784.000000	11.457093
1785.000000	11.466057
1786.000000	11.473290
1787.000000	11.477563
1788.000000	11.480663
1789.000000	11.481617
1790.000000	11.483090
1791.000000	11.482650
1792.000000	11.481747
1793.000000	11.481090
1794.000000	11.480140
1795.000000	11.480017
1796.000000	11.481013
1797.000000	11.483733
1798.000000	11.485870
1799.000000	11.487440
1800.000000	11.489237
1801.000000	11.494103
1802.000000	11.500557
1803.000000	11.505290
1804.000000	11.508717
1805.000000	11.511307
1806.000000	11.514860
1807.000000	11.519853
1808.000000	11.525293
1809.000000	11.529807
1810.000000	11.533433
1811.000000	11.535367
1812.000000	11.537893
1813.000000	11.542373
1814.000000	11.547027
1815.000000	11.551673
1816.000000	11.554840
1817.000000	11.553413
1818.000000	11.546487
1819.000000	11.538230
1820.000000	11.535287
1821.000000	11.539227
1822.000000	11.546243
1823.000000	11.550267
1824.000000	11.546527
1825.000000	11.536817
1826.000000	11.526367
1827.000000	11.520940
1828.000000	11.523407
1829.000000	11.530927
1830.000000	11.536350
1831.000000	11.535867
1832.000000	11.529123
1833.000000	11.520160
1834.000000	11.514327
1835.000000	11.513180
1836.000000	11.515467
1837.000000	11.520790
1838.000000	11.526593
1839.000000	11.530377
1840.000000	11.534067
1841.000000	11.541920
1842.000000	11.558827
1843.000000	11.580307
1844.000000	11.597703
1845.000000	11.603557
1846.000000	11.600090
1847.000000	11.597420
1848.000000	11.606303
1849.000000	11.626907
1850.000000	11.642440
1851.000000	11.640810
1852.000000	11.623427
1853.000000	11.604517
1854.000000	11.595783
1855.000000	11.601127
1856.000000	11.612400
1857.000000	11.611860
1858.000000	11.593027
1859.000000	11.565870
1860.000000	11.543893
1861.000000	11.532597
1862.000000	11.526883
1863.000000	11.515953
1864.000000	11.494257
1865.000000	11.460860
1866.000000	11.418780
1867.000000	11.374563
1868.000000	11.328507
1869.000000	11.273673
1870.000000	11.217570
1871.000000	11.164787
1872.000000	11.112410
1873.000000	11.066927
1874.000000	11.029187
1875.000000	10.996410
1876.000000	10.967087
1877.000000	10.937970
1878.000000	10.905717
1879.000000	10.867930
1880.000000	10.815450
1881.000000	10.744780
1882.000000	10.663287
1883.000000	10.571887
1884.000000	10.472937
1885.000000	10.367523
1886.000000	10.254597
1887.000000	10.133803
1888.000000	10.003173
1889.000000	9.866157
1890.000000	9.727447
1891.000000	9.589223
1892.000000	9.450563
1893.000000	9.308913
1894.000000	9.159437
1895.000000	9.001437
1896.000000	8.835500
1897.000000	8.664920
1898.000000	8.494357
1899.000000	8.327527
1900.000000	8.162323
1901.000000	7.998290
1902.000000	7.831803
1903.000000	7.661250
1904.000000	7.494843
1905.000000	7.338507
1906.000000	7.195343
1907.000000	7.061957
1908.000000	6.935537
1909.000000	6.811060
1910.000000	6.686523
1911.000000	6.563557
1912.000000	6.448067
1913.000000	6.345227
1914.000000	6.251563
1915.000000	6.161297
1916.000000	6.073537
1917.000000	5.985377
1918.000000	5.900200
1919.000000	5.821563
1920.000000	5.753180
1921.000000	5.694633
1922.000000	5.642283
1923.000000	5.590657
1924.000000	5.539190
1925.000000	5.490833
1926.000000	5.444263
1927.000000	5.406910
1928.000000	5.377110
1929.000000	5.354267
1930.000000	5.333467
1931.000000	5.312803
1932.000000	5.292573
1933.000000	5.275217
1934.000000	5.260923
1935.000000	5.250093
1936.000000	5.243750
1937.000000	5.239160
1938.000000	5.237487
1939.000000	5.236483
1940.000000	5.237653
1941.000000	5.242983
1942.000000	5.250743
1943.000000	5.260343
1944.000000	5.273383
1945.000000	5.287473
1946.000000	5.303240
1947.000000	5.321957
1948.000000	5.341987
1949.000000	5.361580
1950.000000	5.381543
1951.000000	5.400753
1952.000000	5.421877
1953.000000	5.443397
1954.000000	5.466457
1955.000000	5.492057
1956.000000	5.518080
1957.000000	5.543537
1958.000000	5.569033
1959.000000	5.594920
1960.000000	5.622230
1961.000000	5.649107
1962.000000	5.677213
1963.000000	5.705457
1964.000000	5.734283
1965.000000	5.762543
1966.000000	5.787797
1967.000000	5.812933
1968.000000	5.838247
1969.000000	5.864013
1970.000000	5.889133
1971.000000	5.915547
1972.000000	5.939673
1973.000000	5.964170
1974.000000	5.987640
1975.000000	6.011827
1976.000000	6.038097
1977.000000	6.064167
1978.000000	6.089340
1979.000000	6.114903
1980.000000	6.140073
1981.000000	6.165620
1982.000000	6.191393
1983.000000	6.218697
1984.000000	6.245213
1985.000000	6.270527
1986.000000	6.295920
1987.000000	6.322560
1988.000000	6.348207
1989.000000	6.373577
1990.000000	6.399137
1991.000000	6.423187
1992.000000	6.447587
1993.000000	6.470603
1994.000000	6.493537
1995.000000	6.516830
1996.000000	6.539063
1997.000000	6.560520
1998.000000	6.582353
1999.000000	6.602353
2000.000000	6.621700
2001.000000	6.640367
2002.000000	6.658567
2003.000000	6.674710
2004.000000	6.690107
2005.000000	6.703123
2006.000000	6.716903
2007.000000	6.727853
2008.000000	6.737137
2009.000000	6.746270
2010.000000	6.752703
2011.000000	6.757397
2012.000000	6.760280
2013.000000	6.761880
2014.000000	6.760730
2015.000000	6.759040
2016.000000	6.755047
2017.000000	6.748817
2018.000000	6.740913
2019.000000	6.730943
2020.000000	6.720203
2021.000000	6.707713
2022.000000	6.694070
2023.000000	6.679103
2024.000000	6.663983
2025.000000	6.645723
2026.000000	6.624540
2027.000000	6.602747
2028.000000	6.581223
2029.000000	6.558030
2030.000000	6.532637
2031.000000	6.506967
2032.000000	6.477983
2033.000000	6.448720
2034.000000	6.417213
2035.000000	6.384503
2036.000000	6.351307
2037.000000	6.316707
2038.000000	6.279693
2039.000000	6.241937
2040.000000	6.203483
2041.000000	6.162533
2042.000000	6.121720
2043.000000	6.079037
2044.000000	6.035843
2045.000000	5.993473
2046.000000	5.950880
2047.000000	5.908760
2048.000000	5.867423
2049.000000	5.827040
2050.000000	5.788623
2051.000000	5.753677
2052.000000	5.721527
2053.000000	5.693203
2054.000000	5.669803
2055.000000	5.650163
2056.000000	5.634290
2057.000000	5.624270
2058.000000	5.619160
2059.000000	5.618447
2060.000000	5.624120
2061.000000	5.633617
2062.000000	5.646147
2063.000000	5.661820
2064.000000	5.679107
2065.000000	5.699640
2066.000000	5.723433
2067.000000	5.748717
2068.000000	5.775413
2069.000000	5.802647
2070.000000	5.827473
2071.000000	5.852587
2072.000000	5.878230
2073.000000	5.903177
2074.000000	5.927573
2075.000000	5.949957
2076.000000	5.970650
2077.000000	5.989143
2078.000000	6.005497
2079.000000	6.020730
2080.000000	6.035217
2081.000000	6.047100
2082.000000	6.056550
2083.000000	6.064607
2084.000000	6.070140
2085.000000	6.073780
2086.000000	6.075457
2087.000000	6.075023
2088.000000	6.072950
2089.000000	6.069093
2090.000000	6.063697
2091.000000	6.057320
2092.000000	6.050197
2093.000000	6.041340
2094.000000	6.032177
2095.000000	6.024153
2096.000000	6.015527
2097.000000	6.005877
2098.000000	5.996383
2099.000000	5.986630
2100.000000	5.976593
2101.000000	5.968160
2102.000000	5.960573
2103.000000	5.953053
2104.000000	5.945803
2105.000000	5.938263
2106.000000	5.931167
2107.000000	5.924090
2108.000000	5.916173
2109.000000	5.908980
2110.000000	5.902650
2111.000000	5.894220
2112.000000	5.884300
2113.000000	5.875153
2114.000000	5.866370
2115.000000	5.855777
2116.000000	5.843673
2117.000000	5.833053
2118.000000	5.822727
2119.000000	5.810360
2120.000000	5.797130
2121.000000	5.783943
2122.000000	5.770447
2123.000000	5.756867
2124.000000	5.741423
2125.000000	5.724360
2126.000000	5.707720
2127.000000	5.689417
2128.000000	5.670350
2129.000000	5.651057
2130.000000	5.630873
2131.000000	5.610010
2132.000000	5.588737
2133.000000	5.565860
2134.000000	5.543347
2135.000000	5.521327
2136.000000	5.497823
2137.000000	5.474457
2138.000000	5.450797
2139.000000	5.425913
2140.000000	5.400203
2141.000000	5.373983
2142.000000	5.346977
2143.000000	5.319457
2144.000000	5.290247
2145.000000	5.261290
2146.000000	5.233250
2147.000000	5.203343
2148.000000	5.172053
2149.000000	5.141560
2150.000000	5.111827
2151.000000	5.082450
2152.000000	5.053090
2153.000000	5.023637
2154.000000	4.995763
2155.000000	4.968777
2156.000000	4.941830
2157.000000	4.916790
2158.000000	4.892650
2159.000000	4.870393
2160.000000	4.849440
2161.000000	4.829113
2162.000000	4.809043
2163.000000	4.791213
2164.000000	4.774560
2165.000000	4.758450
2166.000000	4.743197
2167.000000	4.729640
2168.000000	4.718577
2169.000000	4.706723
2170.000000	4.694967
2171.000000	4.683033
2172.000000	4.673337
2173.000000	4.663660
2174.000000	4.654423
2175.000000	4.645677
2176.000000	4.637577
2177.000000	4.628310
2178.000000	4.617613
2179.000000	4.608830
2180.000000	4.599943
2181.000000	4.591240
2182.000000	4.583263
2183.000000	4.573100
2184.000000	4.561360
2185.000000	4.548130
2186.000000	4.533163
2187.000000	4.516660
2188.000000	4.499013
2189.000000	4.477897
2190.000000	4.453330
2191.000000	4.426957
2192.000000	4.395923
2193.000000	4.363040
2194.000000	4.325773
2195.000000	4.286740
2196.000000	4.243573
2197.000000	4.198497
2198.000000	4.150647
2199.000000	4.100087
2200.000000	4.049543
2201.000000	3.996650
2202.000000	3.944180
2203.000000	3.893113
2204.000000	3.844680
2205.000000	3.797277
2206.000000	3.754183
2207.000000	3.714247
2208.000000	3.679157
2209.000000	3.648623
2210.000000	3.623543
2211.000000	3.605803
2212.000000	3.593967
2213.000000	3.587117
2214.000000	3.586067
2215.000000	3.589560
2216.000000	3.599887
2217.000000	3.614110
2218.000000	3.630627
2219.000000	3.653463
2220.000000	3.677903
2221.000000	3.703373
2222.000000	3.731297
2223.000000	3.759870
2224.000000	3.787997
2225.000000	3.818000
2226.000000	3.845970
2227.000000	3.872913
2228.000000	3.899843
2229.000000	3.924160
2230.000000	3.947440
2231.000000	3.967787
2232.000000	3.983907
2233.000000	3.999760
2234.000000	4.014760
2235.000000	4.024753
2236.000000	4.033340
2237.000000	4.039323
2238.000000	4.043847
2239.000000	4.043663
2240.000000	4.041187
2241.000000	4.038077
2242.000000	4.032337
2243.000000	4.022407
2244.000000	4.010793
2245.000000	3.999903
2246.000000	3.985503
2247.000000	3.970060
2248.000000	3.951833
2249.000000	3.932367
2250.000000	3.912403
2251.000000	3.890260
2252.000000	3.868843
2253.000000	3.847310
2254.000000	3.824737
2255.000000	3.800033
2256.000000	3.776813
2257.000000	3.753550
2258.000000	3.731370
2259.000000	3.711353
2260.000000	3.691657
2261.000000	3.673653
2262.000000	3.657173
2263.000000	3.643490
2264.000000	3.630220
2265.000000	3.620333
2266.000000	3.611903
2267.000000	3.605650
2268.000000	3.600560
2269.000000	3.598880
2270.000000	3.598113
2271.000000	3.600360
2272.000000	3.603197
2273.000000	3.605833
2274.000000	3.610487
2275.000000	3.615383
2276.000000	3.620370
2277.000000	3.626440
2278.000000	3.632860
2279.000000	3.638390
2280.000000	3.643367
2281.000000	3.647557
2282.000000	3.651590
2283.000000	3.655423
2284.000000	3.658547
2285.000000	3.661210
2286.000000	3.663980
2287.000000	3.666373
2288.000000	3.668903
2289.000000	3.670137
2290.000000	3.671860
2291.000000	3.673083
2292.000000	3.674633
2293.000000	3.675803
2294.000000	3.678660
2295.000000	3.680467
2296.000000	3.681323
2297.000000	3.682653
2298.000000	3.684930
2299.000000	3.687663
2300.000000	3.690940
2301.000000	3.694177
2302.000000	3.698250
2303.000000	3.704340
2304.000000	3.708907
2305.000000	3.715447
2306.000000	3.723647
2307.000000	3.732113
2308.000000	3.741790
2309.000000	3.751207
2310.000000	3.761820
2311.000000	3.773170
2312.000000	3.782800
2313.000000	3.790727
2314.000000	3.799440
2315.000000	3.808220
2316.000000	3.817133
2317.000000	3.825507
2318.000000	3.830840
2319.000000	3.835453
2320.000000	3.838610
2321.000000	3.840713
2322.000000	3.842220
2323.000000	3.841563
2324.000000	3.839863
2325.000000	3.836190
2326.000000	3.831090
2327.000000	3.824403
2328.000000	3.817777
2329.000000	3.811607
2330.000000	3.803617
2331.000000	3.795933
2332.000000	3.788690
2333.000000	3.784023
2334.000000	3.779340
2335.000000	3.775357
2336.000000	3.772120
2337.000000	3.769560
2338.000000	3.767627
2339.000000	3.766690
2340.000000	3.767527
2341.000000	3.769640
2342.000000	3.772037
2343.000000	3.772993
2344.000000	3.774660
2345.000000	3.777103
2346.000000	3.779347
2347.000000	3.783500
2348.000000	3.787223
2349.000000	3.790360
2350.000000	3.793970
2351.000000	3.796397
2352.000000	3.799497
2353.000000	3.803330
2354.000000	3.807263
2355.000000	3.811743
2356.000000	3.816370
2357.000000	3.818800
2358.000000	3.821580
2359.000000	3.824023
2360.000000	3.825077
2361.000000	3.826060
2362.000000	3.827283
2363.000000	3.828483
2364.000000	3.828200
2365.000000	3.827060
2366.000000	3.825310
2367.000000	3.824093
2368.000000	3.822810
2369.000000	3.821797
2370.000000	3.821670
2371.000000	3.821403
2372.000000	3.821003
2373.000000	3.821013
2374.000000	3.821807
2375.000000	3.822463
2376.000000	3.823317
2377.000000	3.823873
2378.000000	3.825100
2379.000000	3.826383
2380.000000	3.826487
2381.000000	3.825913
2382.000000	3.825627
2383.000000	3.825457
2384.000000	3.824363
2385.000000	3.822007
2386.000000	3.818827
2387.000000	3.815343
2388.000000	3.811483
2389.000000	3.806473
2390.000000	3.801967
2391.000000	3.799280
2392.000000	3.794257
2393.000000	3.786780
2394.000000	3.780377
2395.000000	3.774570
2396.000000	3.767090
2397.000000	3.759430
2398.000000	3.750957
2399.000000	3.742840
2400.000000	3.734143
2401.000000	3.723253
2402.000000	3.713317
2403.000000	3.703690
2404.000000	3.692563
2405.000000	3.680400
2406.000000	3.668553
2407.000000	3.656017
2408.000000	3.642993
2409.000000	3.628003
2410.000000	3.612487
2411.000000	3.597577
2412.000000	3.581170
2413.000000	3.564833
2414.000000	3.549090
2415.000000	3.532653
2416.000000	3.514297
2417.000000	3.494403
2418.000000	3.474063
2419.000000	3.452963
2420.000000	3.430927
2421.000000	3.408290
2422.000000	3.385800
2423.000000	3.362187
2424.000000	3.337397
2425.000000	3.312643
2426.000000	3.289610
2427.000000	3.267607
2428.000000	3.244297
2429.000000	3.221320
2430.000000	3.197937
2431.000000	3.173570
2432.000000	3.149093
2433.000000	3.124333
2434.000000	3.098793
2435.000000	3.073317
2436.000000	3.047247
2437.000000	3.020863
2438.000000	2.994257
2439.000000	2.968613
2440.000000	2.943920
2441.000000	2.918897
2442.000000	2.893280
2443.000000	2.868500
2444.000000	2.843647
2445.000000	2.818857
2446.000000	2.794923
2447.000000	2.771093
2448.000000	2.747590
2449.000000	2.724720
2450.000000	2.700853
2451.000000	2.677347
2452.000000	2.654323
2453.000000	2.632653
2454.000000	2.612160
2455.000000	2.592040
2456.000000	2.571253
2457.000000	2.550830
2458.000000	2.532120
2459.000000	2.513170
2460.000000	2.496120
2461.000000	2.479407
2462.000000	2.463420
2463.000000	2.445340
2464.000000	2.429920
2465.000000	2.415453
2466.000000	2.399150
2467.000000	2.384063
2468.000000	2.368627
2469.000000	2.354577
2470.000000	2.340927
2471.000000	2.327507
2472.000000	2.317720
2473.000000	2.309397
2474.000000	2.302863
2475.000000	2.294170
2476.000000	2.288443
2477.000000	2.278393
2478.000000	2.273500
2479.000000	2.266837
2480.000000	2.265820
2481.000000	2.261387
2482.000000	2.253840
2483.000000	2.248263
2484.000000	2.240787
2485.000000	2.238013
2486.000000	2.235770
2487.000000	2.240603
2488.000000	2.240330
2489.000000	2.246247
2490.000000	2.250107
2491.000000	2.252557
2492.000000	2.259527
2493.000000	2.265613
2494.000000	2.273687
2495.000000	2.282597
2496.000000	2.294927
2497.000000	2.295257
2498.000000	2.303860
2499.000000	2.306060
2500.000000	2.308803
