PE UV       SUBTECH     SPECTRUM    ASCII       PEDS        4.00        
   -1
BIOUCR0006-3.Sample.ASC
24/02/19
13:22:08.00
24/02/19
13:22:08.00
Vinicio Soto Monge
P. cupreomarginata (sin datos) Monteverde(dudoso)
250,000000
1
Lambda 1050
1050L1511233
PerkinElmer UV WinLab 6.3.2.0749 / 2.02.05 Lambda 900 UV/VIS/NIR, Aug  7 2015 09:38:08

0
0
3350/servo 860,8/2
0
0
UV/VIS
1
1
1
DoubleDePol,CommonBeamDepol,RBeamAtt,SBeamAtt,60mm sphere, WB InGaAs Detector
0
0
0
0
Program
Program
3350/servo 860,8/2
3350/0,2 860,8/0,2
3350/0,2 860,8/0,2
0
15.00
 
 
 
0
 
860,8
319,2
860,8
Front
100
on
S:100 R:100
0
0
0
0
 
0
 
 
 
0
 
 
0
0
0
0
0
 
 
 
 
0
0


0
0
#HDR
-1
-1
#GR
nm
%R
1.0
0.0
2500,000000
-1,000000
2251
8
24,135800
1,746600
#DATA

250.000000	nan
251.000000	nan
252.000000	nan
253.000000	nan
254.000000	nan
255.000000	nan
256.000000	nan
257.000000	nan
258.000000	nan
259.000000	2.003351
260.000000	1.998966
261.000000	1.995045
262.000000	1.991470
263.000000	1.988338
264.000000	1.979222
265.000000	1.974872
266.000000	1.969317
267.000000	1.960840
268.000000	1.954155
269.000000	1.947284
270.000000	1.942085
271.000000	1.934917
272.000000	1.928686
273.000000	1.923165
274.000000	1.921520
275.000000	1.919270
276.000000	1.916200
277.000000	1.915097
278.000000	1.912052
279.000000	1.910547
280.000000	1.907295
281.000000	1.908380
282.000000	1.907563
283.000000	1.905367
284.000000	1.903579
285.000000	1.901638
286.000000	1.901419
287.000000	1.898933
288.000000	1.899556
289.000000	1.897680
290.000000	1.895830
291.000000	1.893783
292.000000	1.892417
293.000000	1.891206
294.000000	1.890959
295.000000	1.889608
296.000000	1.886183
297.000000	1.881853
298.000000	1.878513
299.000000	1.876313
300.000000	1.875224
301.000000	1.869453
302.000000	1.866941
303.000000	1.866976
304.000000	1.863309
305.000000	1.860508
306.000000	1.858566
307.000000	1.858626
308.000000	1.856727
309.000000	1.854882
310.000000	1.852277
311.000000	1.852355
312.000000	1.851758
313.000000	1.849149
314.000000	1.847735
315.000000	1.846426
316.000000	1.845201
317.000000	1.864332
318.000000	1.891030
319.000000	1.912096
320.000000	1.921639
321.000000	1.935715
322.000000	1.956545
323.000000	1.971310
324.000000	1.977700
325.000000	1.989784
326.000000	1.998598
327.000000	1.985841
328.000000	1.965977
329.000000	1.950285
330.000000	1.951601
331.000000	1.944087
332.000000	1.929893
333.000000	1.919873
334.000000	1.925176
335.000000	1.918918
336.000000	1.914998
337.000000	1.911955
338.000000	1.908168
339.000000	1.908117
340.000000	1.901671
341.000000	1.897638
342.000000	1.896173
343.000000	1.891943
344.000000	1.881938
345.000000	1.879803
346.000000	1.879769
347.000000	1.879033
348.000000	1.875930
349.000000	1.870393
350.000000	1.868874
351.000000	1.866244
352.000000	1.859871
353.000000	1.856489
354.000000	1.851241
355.000000	1.846734
356.000000	1.838616
357.000000	1.832146
358.000000	1.827139
359.000000	1.824220
360.000000	1.819589
361.000000	1.819891
362.000000	1.819293
363.000000	1.817668
364.000000	1.817850
365.000000	1.817054
366.000000	1.818807
367.000000	1.819317
368.000000	1.818770
369.000000	1.818667
370.000000	1.814883
371.000000	1.806395
372.000000	1.798832
373.000000	1.792969
374.000000	1.786118
375.000000	1.775268
376.000000	1.761449
377.000000	1.743730
378.000000	1.728204
379.000000	1.711280
380.000000	1.696945
381.000000	1.686181
382.000000	1.676525
383.000000	1.667952
384.000000	1.660951
385.000000	1.657810
386.000000	1.657697
387.000000	1.665374
388.000000	1.673385
389.000000	1.683225
390.000000	1.694885
391.000000	1.707261
392.000000	1.720173
393.000000	1.734283
394.000000	1.750324
395.000000	1.767974
396.000000	1.787089
397.000000	1.807856
398.000000	1.829790
399.000000	1.852826
400.000000	1.876808
401.000000	1.902661
402.000000	1.930550
403.000000	1.960627
404.000000	1.992130
405.000000	2.024553
406.000000	2.058482
407.000000	2.094114
408.000000	2.131567
409.000000	2.170601
410.000000	2.211192
411.000000	2.253625
412.000000	2.297899
413.000000	2.342857
414.000000	2.388653
415.000000	2.436283
416.000000	2.484989
417.000000	2.534792
418.000000	2.585350
419.000000	2.636377
420.000000	2.688467
421.000000	2.740886
422.000000	2.793059
423.000000	2.845301
424.000000	2.897492
425.000000	2.949403
426.000000	3.000847
427.000000	3.051617
428.000000	3.102042
429.000000	3.152170
430.000000	3.201052
431.000000	3.248689
432.000000	3.295786
433.000000	3.342551
434.000000	3.388325
435.000000	3.432350
436.000000	3.475174
437.000000	3.516956
438.000000	3.557063
439.000000	3.595608
440.000000	3.632592
441.000000	3.667969
442.000000	3.701535
443.000000	3.732875
444.000000	3.761439
445.000000	3.788238
446.000000	3.813503
447.000000	3.836638
448.000000	3.857743
449.000000	3.876519
450.000000	3.893080
451.000000	3.906791
452.000000	3.917240
453.000000	3.925506
454.000000	3.932679
455.000000	3.937996
456.000000	3.941309
457.000000	3.943307
458.000000	3.944181
459.000000	3.944719
460.000000	3.945956
461.000000	3.948744
462.000000	3.953472
463.000000	3.960457
464.000000	3.970345
465.000000	3.984154
466.000000	4.002226
467.000000	4.024831
468.000000	4.052897
469.000000	4.086794
470.000000	4.126911
471.000000	4.173294
472.000000	4.226643
473.000000	4.286495
474.000000	4.352667
475.000000	4.424898
476.000000	4.502437
477.000000	4.585362
478.000000	4.673133
479.000000	4.764996
480.000000	4.859295
481.000000	4.954648
482.000000	5.050023
483.000000	5.146074
484.000000	5.243336
485.000000	5.341264
486.000000	5.439434
487.000000	5.536660
488.000000	5.632912
489.000000	5.727720
490.000000	5.821901
491.000000	5.916031
492.000000	6.010404
493.000000	6.105004
494.000000	6.198542
495.000000	6.291120
496.000000	6.384847
497.000000	6.481281
498.000000	6.581762
499.000000	6.686903
500.000000	6.798123
501.000000	6.916727
502.000000	7.044034
503.000000	7.180898
504.000000	7.329141
505.000000	7.488776
506.000000	7.660079
507.000000	7.843292
508.000000	8.037216
509.000000	8.242519
510.000000	8.458590
511.000000	8.685060
512.000000	8.921250
513.000000	9.165428
514.000000	9.416240
515.000000	9.674043
516.000000	9.937051
517.000000	10.202999
518.000000	10.473049
519.000000	10.746116
520.000000	11.021435
521.000000	11.298398
522.000000	11.576183
523.000000	11.854379
524.000000	12.132337
525.000000	12.408705
526.000000	12.683055
527.000000	12.955655
528.000000	13.224754
529.000000	13.489969
530.000000	13.749789
531.000000	14.003933
532.000000	14.251476
533.000000	14.491639
534.000000	14.724174
535.000000	14.949675
536.000000	15.167760
537.000000	15.377823
538.000000	15.580092
539.000000	15.775266
540.000000	15.964446
541.000000	16.147676
542.000000	16.324926
543.000000	16.497540
544.000000	16.663812
545.000000	16.824177
546.000000	16.978782
547.000000	17.129534
548.000000	17.274811
549.000000	17.414144
550.000000	17.546648
551.000000	17.671832
552.000000	17.789912
553.000000	17.899841
554.000000	18.003986
555.000000	18.102818
556.000000	18.195235
557.000000	18.281798
558.000000	18.362305
559.000000	18.438325
560.000000	18.461572
561.000000	18.472782
562.000000	18.479801
563.000000	18.480612
564.000000	18.475939
565.000000	18.464704
566.000000	18.449450
567.000000	18.427063
568.000000	18.398313
569.000000	18.362502
570.000000	18.367656
571.000000	18.373280
572.000000	18.370878
573.000000	18.365554
574.000000	18.354277
575.000000	18.335313
576.000000	18.308017
577.000000	18.274553
578.000000	18.235412
579.000000	18.189474
580.000000	18.137620
581.000000	18.080038
582.000000	18.015709
583.000000	17.943689
584.000000	17.862599
585.000000	17.774511
586.000000	17.678176
587.000000	17.573247
588.000000	17.460975
589.000000	17.339630
590.000000	17.209775
591.000000	17.072683
592.000000	16.929534
593.000000	16.781892
594.000000	16.630121
595.000000	16.476878
596.000000	16.321878
597.000000	16.164979
598.000000	16.005894
599.000000	15.846363
600.000000	15.685312
601.000000	15.521062
602.000000	15.355530
603.000000	15.185401
604.000000	15.012930
605.000000	14.837373
606.000000	14.660386
607.000000	14.484070
608.000000	14.309979
609.000000	14.138372
610.000000	13.973852
611.000000	13.819394
612.000000	13.675384
613.000000	13.545232
614.000000	13.433132
615.000000	13.338813
616.000000	13.264324
617.000000	13.208724
618.000000	13.171092
619.000000	13.155183
620.000000	13.157663
621.000000	13.178308
622.000000	13.216954
623.000000	13.268843
624.000000	13.334082
625.000000	13.409899
626.000000	13.494683
627.000000	13.587370
628.000000	13.686790
629.000000	13.789463
630.000000	13.895084
631.000000	14.001392
632.000000	14.105285
633.000000	14.209900
634.000000	14.309330
635.000000	14.404808
636.000000	14.492488
637.000000	14.572254
638.000000	14.643909
639.000000	14.705591
640.000000	14.756588
641.000000	14.796190
642.000000	14.826808
643.000000	14.847758
644.000000	14.859498
645.000000	14.862361
646.000000	14.859081
647.000000	14.851874
648.000000	14.840793
649.000000	14.828956
650.000000	14.817655
651.000000	14.807559
652.000000	14.801036
653.000000	14.798692
654.000000	14.803053
655.000000	14.814382
656.000000	14.833723
657.000000	14.861179
658.000000	14.897730
659.000000	14.943379
660.000000	14.999586
661.000000	15.066357
662.000000	15.142451
663.000000	15.227025
664.000000	15.321543
665.000000	15.423005
666.000000	15.531258
667.000000	15.645721
668.000000	15.765968
669.000000	15.890863
670.000000	16.018430
671.000000	16.148943
672.000000	16.278974
673.000000	16.408660
674.000000	16.533147
675.000000	16.655013
676.000000	16.773765
677.000000	16.886208
678.000000	16.990941
679.000000	17.086579
680.000000	17.173868
681.000000	17.251475
682.000000	17.321242
683.000000	17.380435
684.000000	17.432386
685.000000	17.477062
686.000000	17.514232
687.000000	17.545608
688.000000	17.573613
689.000000	17.598965
690.000000	17.620564
691.000000	17.640333
692.000000	17.658346
693.000000	17.677223
694.000000	17.699483
695.000000	17.724774
696.000000	17.753673
697.000000	17.787993
698.000000	17.826049
699.000000	17.869388
700.000000	17.919595
701.000000	17.977476
702.000000	18.044021
703.000000	18.119188
704.000000	18.201117
705.000000	18.290063
706.000000	18.387482
707.000000	18.491790
708.000000	18.604401
709.000000	18.724423
710.000000	18.850368
711.000000	18.980205
712.000000	19.111504
713.000000	19.246296
714.000000	19.382202
715.000000	19.515867
716.000000	19.647606
717.000000	19.777269
718.000000	19.899558
719.000000	20.015989
720.000000	20.126657
721.000000	20.230590
722.000000	20.330383
723.000000	20.421757
724.000000	20.507008
725.000000	20.588631
726.000000	20.664016
727.000000	20.735102
728.000000	20.804341
729.000000	20.869033
730.000000	20.928526
731.000000	20.985459
732.000000	21.039427
733.000000	21.091991
734.000000	21.142243
735.000000	21.189823
736.000000	21.234929
737.000000	21.275842
738.000000	21.314361
739.000000	21.351248
740.000000	21.386307
741.000000	21.420600
742.000000	21.451347
743.000000	21.477404
744.000000	21.501011
745.000000	21.524078
746.000000	21.548330
747.000000	21.571231
748.000000	21.590972
749.000000	21.611843
750.000000	21.634719
751.000000	21.654591
752.000000	21.674113
753.000000	21.696486
754.000000	21.718988
755.000000	21.742012
756.000000	21.765456
757.000000	21.790418
758.000000	21.818320
759.000000	21.846071
760.000000	21.874992
761.000000	21.909420
762.000000	21.947833
763.000000	21.987877
764.000000	22.032124
765.000000	22.079083
766.000000	22.126010
767.000000	22.172596
768.000000	22.219193
769.000000	22.267314
770.000000	22.316027
771.000000	22.361244
772.000000	22.402492
773.000000	22.441044
774.000000	22.473768
775.000000	22.499856
776.000000	22.524662
777.000000	22.549112
778.000000	22.568021
779.000000	22.582123
780.000000	22.589697
781.000000	22.593504
782.000000	22.595725
783.000000	22.594790
784.000000	22.589966
785.000000	22.579463
786.000000	22.561995
787.000000	22.540471
788.000000	22.516320
789.000000	22.483751
790.000000	22.448570
791.000000	22.410191
792.000000	22.362878
793.000000	22.311082
794.000000	22.255586
795.000000	22.196810
796.000000	22.132800
797.000000	22.064850
798.000000	21.998637
799.000000	21.932710
800.000000	21.858479
801.000000	21.785495
802.000000	21.718390
803.000000	21.648057
804.000000	21.576452
805.000000	21.509567
806.000000	21.441364
807.000000	21.375143
808.000000	21.313174
809.000000	21.254370
810.000000	21.199916
811.000000	21.139778
812.000000	21.079354
813.000000	21.021101
814.000000	20.966366
815.000000	20.907320
816.000000	20.852518
817.000000	20.796713
818.000000	20.730844
819.000000	20.664356
820.000000	20.600805
821.000000	20.535885
822.000000	20.468005
823.000000	20.402739
824.000000	20.330497
825.000000	20.261333
826.000000	20.188441
827.000000	20.109357
828.000000	20.034619
829.000000	19.954727
830.000000	19.874346
831.000000	19.796611
832.000000	19.719299
833.000000	19.639940
834.000000	19.567080
835.000000	19.489356
836.000000	19.418721
837.000000	19.345001
838.000000	19.271753
839.000000	19.205276
840.000000	19.133465
841.000000	19.062633
842.000000	18.995465
843.000000	18.924885
844.000000	18.853237
845.000000	18.791304
846.000000	18.720441
847.000000	18.663881
848.000000	18.603058
849.000000	18.532008
850.000000	18.470829
851.000000	18.412310
852.000000	18.335753
853.000000	18.264176
854.000000	18.201667
855.000000	18.139808
856.000000	18.093598
857.000000	18.043193
858.000000	17.960790
859.000000	17.970201
860.000000	17.976894
861.000000	17.986302
862.000000	18.016495
863.000000	18.053752
864.000000	18.089640
865.000000	18.128003
866.000000	18.163213
867.000000	18.202838
868.000000	18.285483
869.000000	18.291157
870.000000	18.299837
871.000000	18.310530
872.000000	18.322893
873.000000	18.334990
874.000000	18.346850
875.000000	18.358990
876.000000	18.371870
877.000000	18.384427
878.000000	18.398520
879.000000	18.413163
880.000000	18.430887
881.000000	18.451437
882.000000	18.474583
883.000000	18.497530
884.000000	18.522827
885.000000	18.549523
886.000000	18.577257
887.000000	18.606757
888.000000	18.634597
889.000000	18.665387
890.000000	18.696653
891.000000	18.726247
892.000000	18.753280
893.000000	18.780293
894.000000	18.805143
895.000000	18.828380
896.000000	18.850837
897.000000	18.874817
898.000000	18.898937
899.000000	18.920797
900.000000	18.940623
901.000000	18.959003
902.000000	18.976443
903.000000	18.992530
904.000000	19.008873
905.000000	19.025140
906.000000	19.040463
907.000000	19.052777
908.000000	19.063417
909.000000	19.072363
910.000000	19.081490
911.000000	19.088073
912.000000	19.093947
913.000000	19.101903
914.000000	19.106317
915.000000	19.108197
916.000000	19.109190
917.000000	19.107897
918.000000	19.105457
919.000000	19.100607
920.000000	19.093700
921.000000	19.089047
922.000000	19.083623
923.000000	19.074867
924.000000	19.065663
925.000000	19.054473
926.000000	19.043093
927.000000	19.030760
928.000000	19.016447
929.000000	19.001263
930.000000	18.985690
931.000000	18.967930
932.000000	18.947917
933.000000	18.926420
934.000000	18.906947
935.000000	18.889943
936.000000	18.870990
937.000000	18.854177
938.000000	18.838673
939.000000	18.824943
940.000000	18.807077
941.000000	18.788990
942.000000	18.770493
943.000000	18.752390
944.000000	18.731537
945.000000	18.710760
946.000000	18.690383
947.000000	18.668663
948.000000	18.646050
949.000000	18.623767
950.000000	18.603033
951.000000	18.584453
952.000000	18.567627
953.000000	18.552383
954.000000	18.539197
955.000000	18.524973
956.000000	18.510250
957.000000	18.495920
958.000000	18.483820
959.000000	18.469713
960.000000	18.459160
961.000000	18.447640
962.000000	18.436747
963.000000	18.425627
964.000000	18.415510
965.000000	18.405747
966.000000	18.397353
967.000000	18.389953
968.000000	18.382523
969.000000	18.376973
970.000000	18.372400
971.000000	18.368537
972.000000	18.363820
973.000000	18.359740
974.000000	18.356027
975.000000	18.353383
976.000000	18.351637
977.000000	18.350230
978.000000	18.349517
979.000000	18.350233
980.000000	18.350127
981.000000	18.350307
982.000000	18.354023
983.000000	18.358767
984.000000	18.362850
985.000000	18.366727
986.000000	18.371050
987.000000	18.375283
988.000000	18.378793
989.000000	18.382137
990.000000	18.386150
991.000000	18.391587
992.000000	18.396713
993.000000	18.400983
994.000000	18.406090
995.000000	18.411023
996.000000	18.415090
997.000000	18.420370
998.000000	18.427250
999.000000	18.433840
1000.000000	18.440543
1001.000000	18.446307
1002.000000	18.450717
1003.000000	18.455477
1004.000000	18.460343
1005.000000	18.466110
1006.000000	18.472240
1007.000000	18.478093
1008.000000	18.483830
1009.000000	18.491077
1010.000000	18.499153
1011.000000	18.507773
1012.000000	18.517287
1013.000000	18.527317
1014.000000	18.538153
1015.000000	18.549377
1016.000000	18.561403
1017.000000	18.573470
1018.000000	18.585563
1019.000000	18.598157
1020.000000	18.611093
1021.000000	18.624393
1022.000000	18.638127
1023.000000	18.652780
1024.000000	18.668243
1025.000000	18.684460
1026.000000	18.702103
1027.000000	18.720970
1028.000000	18.740070
1029.000000	18.758073
1030.000000	18.776123
1031.000000	18.795433
1032.000000	18.814470
1033.000000	18.832773
1034.000000	18.850530
1035.000000	18.868960
1036.000000	18.887503
1037.000000	18.905647
1038.000000	18.924820
1039.000000	18.943980
1040.000000	18.962217
1041.000000	18.979937
1042.000000	18.998343
1043.000000	19.016673
1044.000000	19.034750
1045.000000	19.052880
1046.000000	19.070293
1047.000000	19.087330
1048.000000	19.103140
1049.000000	19.119940
1050.000000	19.138357
1051.000000	19.155707
1052.000000	19.172220
1053.000000	19.190170
1054.000000	19.209210
1055.000000	19.227470
1056.000000	19.245777
1057.000000	19.265103
1058.000000	19.284803
1059.000000	19.303940
1060.000000	19.322913
1061.000000	19.343900
1062.000000	19.366277
1063.000000	19.388457
1064.000000	19.409293
1065.000000	19.429453
1066.000000	19.450653
1067.000000	19.471917
1068.000000	19.494253
1069.000000	19.516937
1070.000000	19.538457
1071.000000	19.558883
1072.000000	19.579753
1073.000000	19.600467
1074.000000	19.621667
1075.000000	19.643540
1076.000000	19.665060
1077.000000	19.686213
1078.000000	19.705043
1079.000000	19.723350
1080.000000	19.742313
1081.000000	19.761123
1082.000000	19.779347
1083.000000	19.796783
1084.000000	19.813970
1085.000000	19.828460
1086.000000	19.842667
1087.000000	19.856260
1088.000000	19.870140
1089.000000	19.884560
1090.000000	19.898823
1091.000000	19.912640
1092.000000	19.925417
1093.000000	19.937577
1094.000000	19.948463
1095.000000	19.961543
1096.000000	19.973957
1097.000000	19.984963
1098.000000	19.996230
1099.000000	20.008577
1100.000000	20.020657
1101.000000	20.031670
1102.000000	20.042053
1103.000000	20.052530
1104.000000	20.063777
1105.000000	20.074783
1106.000000	20.084920
1107.000000	20.097230
1108.000000	20.108420
1109.000000	20.117677
1110.000000	20.126257
1111.000000	20.135537
1112.000000	20.145167
1113.000000	20.153330
1114.000000	20.162640
1115.000000	20.171490
1116.000000	20.181097
1117.000000	20.188347
1118.000000	20.196310
1119.000000	20.201880
1120.000000	20.206867
1121.000000	20.211123
1122.000000	20.214263
1123.000000	20.218607
1124.000000	20.221113
1125.000000	20.221853
1126.000000	20.220347
1127.000000	20.217747
1128.000000	20.212630
1129.000000	20.207277
1130.000000	20.199857
1131.000000	20.189733
1132.000000	20.175100
1133.000000	20.154517
1134.000000	20.131700
1135.000000	20.112213
1136.000000	20.092343
1137.000000	20.068730
1138.000000	20.042640
1139.000000	20.013593
1140.000000	19.983863
1141.000000	19.954287
1142.000000	19.926327
1143.000000	19.899883
1144.000000	19.873530
1145.000000	19.845560
1146.000000	19.816797
1147.000000	19.792343
1148.000000	19.769127
1149.000000	19.749337
1150.000000	19.729967
1151.000000	19.711440
1152.000000	19.694640
1153.000000	19.679103
1154.000000	19.664793
1155.000000	19.646890
1156.000000	19.628033
1157.000000	19.606597
1158.000000	19.583990
1159.000000	19.559187
1160.000000	19.534183
1161.000000	19.505463
1162.000000	19.473953
1163.000000	19.439857
1164.000000	19.401427
1165.000000	19.361990
1166.000000	19.322333
1167.000000	19.280987
1168.000000	19.239310
1169.000000	19.197053
1170.000000	19.154397
1171.000000	19.115323
1172.000000	19.075420
1173.000000	19.039333
1174.000000	19.007227
1175.000000	18.976613
1176.000000	18.947343
1177.000000	18.920250
1178.000000	18.895100
1179.000000	18.872430
1180.000000	18.850907
1181.000000	18.829377
1182.000000	18.811313
1183.000000	18.793590
1184.000000	18.774817
1185.000000	18.758110
1186.000000	18.741800
1187.000000	18.727317
1188.000000	18.715747
1189.000000	18.705843
1190.000000	18.698700
1191.000000	18.696220
1192.000000	18.695380
1193.000000	18.696123
1194.000000	18.701687
1195.000000	18.711200
1196.000000	18.722850
1197.000000	18.738297
1198.000000	18.755323
1199.000000	18.772963
1200.000000	18.791683
1201.000000	18.808247
1202.000000	18.825777
1203.000000	18.844353
1204.000000	18.861523
1205.000000	18.877990
1206.000000	18.895447
1207.000000	18.910280
1208.000000	18.926797
1209.000000	18.944253
1210.000000	18.962513
1211.000000	18.981220
1212.000000	19.001703
1213.000000	19.021423
1214.000000	19.041387
1215.000000	19.060893
1216.000000	19.080240
1217.000000	19.101927
1218.000000	19.121127
1219.000000	19.140420
1220.000000	19.157347
1221.000000	19.174560
1222.000000	19.191320
1223.000000	19.208420
1224.000000	19.225570
1225.000000	19.240853
1226.000000	19.253913
1227.000000	19.264623
1228.000000	19.275117
1229.000000	19.284037
1230.000000	19.293837
1231.000000	19.302800
1232.000000	19.309477
1233.000000	19.315630
1234.000000	19.319950
1235.000000	19.323643
1236.000000	19.327960
1237.000000	19.332240
1238.000000	19.336420
1239.000000	19.341393
1240.000000	19.345653
1241.000000	19.349857
1242.000000	19.354040
1243.000000	19.357877
1244.000000	19.364510
1245.000000	19.373077
1246.000000	19.383040
1247.000000	19.395437
1248.000000	19.407693
1249.000000	19.419467
1250.000000	19.432553
1251.000000	19.446170
1252.000000	19.462400
1253.000000	19.479497
1254.000000	19.494690
1255.000000	19.509803
1256.000000	19.524787
1257.000000	19.537830
1258.000000	19.551090
1259.000000	19.563980
1260.000000	19.575100
1261.000000	19.585263
1262.000000	19.594047
1263.000000	19.601340
1264.000000	19.608270
1265.000000	19.613963
1266.000000	19.619517
1267.000000	19.623767
1268.000000	19.626250
1269.000000	19.628107
1270.000000	19.629607
1271.000000	19.630867
1272.000000	19.630590
1273.000000	19.630463
1274.000000	19.629860
1275.000000	19.628243
1276.000000	19.624373
1277.000000	19.621293
1278.000000	19.619550
1279.000000	19.618267
1280.000000	19.617047
1281.000000	19.615447
1282.000000	19.615343
1283.000000	19.617330
1284.000000	19.620893
1285.000000	19.625157
1286.000000	19.631713
1287.000000	19.639573
1288.000000	19.647720
1289.000000	19.656627
1290.000000	19.666550
1291.000000	19.677827
1292.000000	19.689497
1293.000000	19.701300
1294.000000	19.712850
1295.000000	19.724167
1296.000000	19.735077
1297.000000	19.745263
1298.000000	19.755547
1299.000000	19.765827
1300.000000	19.775073
1301.000000	19.783830
1302.000000	19.791727
1303.000000	19.797223
1304.000000	19.801450
1305.000000	19.806420
1306.000000	19.810170
1307.000000	19.812390
1308.000000	19.813710
1309.000000	19.814230
1310.000000	19.813913
1311.000000	19.810897
1312.000000	19.804887
1313.000000	19.798150
1314.000000	19.790667
1315.000000	19.780707
1316.000000	19.769120
1317.000000	19.756507
1318.000000	19.742313
1319.000000	19.726277
1320.000000	19.707940
1321.000000	19.688957
1322.000000	19.670843
1323.000000	19.652160
1324.000000	19.632137
1325.000000	19.610760
1326.000000	19.588813
1327.000000	19.565717
1328.000000	19.541070
1329.000000	19.515180
1330.000000	19.489937
1331.000000	19.463783
1332.000000	19.435307
1333.000000	19.405120
1334.000000	19.372570
1335.000000	19.339947
1336.000000	19.306933
1337.000000	19.272487
1338.000000	19.236893
1339.000000	19.199037
1340.000000	19.159030
1341.000000	19.117420
1342.000000	19.073217
1343.000000	19.026550
1344.000000	18.980033
1345.000000	18.931910
1346.000000	18.879380
1347.000000	18.825523
1348.000000	18.772330
1349.000000	18.719423
1350.000000	18.662290
1351.000000	18.603550
1352.000000	18.545230
1353.000000	18.484977
1354.000000	18.424997
1355.000000	18.369063
1356.000000	18.318917
1357.000000	18.270690
1358.000000	18.220580
1359.000000	18.171653
1360.000000	18.123480
1361.000000	18.082020
1362.000000	18.053990
1363.000000	18.030123
1364.000000	18.002403
1365.000000	17.972773
1366.000000	17.939983
1367.000000	17.901297
1368.000000	17.864803
1369.000000	17.824960
1370.000000	17.782233
1371.000000	17.730690
1372.000000	17.661410
1373.000000	17.581703
1374.000000	17.490830
1375.000000	17.383187
1376.000000	17.263463
1377.000000	17.131800
1378.000000	16.985600
1379.000000	16.824697
1380.000000	16.659460
1381.000000	16.491953
1382.000000	16.333300
1383.000000	16.182717
1384.000000	16.049287
1385.000000	15.927283
1386.000000	15.816277
1387.000000	15.723183
1388.000000	15.649243
1389.000000	15.596523
1390.000000	15.552860
1391.000000	15.513503
1392.000000	15.476170
1393.000000	15.442510
1394.000000	15.406830
1395.000000	15.379540
1396.000000	15.363740
1397.000000	15.347647
1398.000000	15.318773
1399.000000	15.279727
1400.000000	15.247553
1401.000000	15.227967
1402.000000	15.196957
1403.000000	15.154597
1404.000000	15.104560
1405.000000	15.050577
1406.000000	14.982990
1407.000000	14.909530
1408.000000	14.838880
1409.000000	14.772453
1410.000000	14.697207
1411.000000	14.604957
1412.000000	14.510487
1413.000000	14.419603
1414.000000	14.335533
1415.000000	14.249683
1416.000000	14.160603
1417.000000	14.068783
1418.000000	13.980107
1419.000000	13.895790
1420.000000	13.812870
1421.000000	13.731430
1422.000000	13.654463
1423.000000	13.581073
1424.000000	13.508600
1425.000000	13.435147
1426.000000	13.365533
1427.000000	13.303577
1428.000000	13.243057
1429.000000	13.179567
1430.000000	13.118610
1431.000000	13.062057
1432.000000	13.013050
1433.000000	12.965570
1434.000000	12.917783
1435.000000	12.871717
1436.000000	12.830513
1437.000000	12.790657
1438.000000	12.754473
1439.000000	12.720143
1440.000000	12.686900
1441.000000	12.655623
1442.000000	12.623197
1443.000000	12.593737
1444.000000	12.563687
1445.000000	12.537240
1446.000000	12.514240
1447.000000	12.491227
1448.000000	12.464633
1449.000000	12.439220
1450.000000	12.414823
1451.000000	12.396263
1452.000000	12.376987
1453.000000	12.356030
1454.000000	12.336160
1455.000000	12.315460
1456.000000	12.292290
1457.000000	12.271090
1458.000000	12.249703
1459.000000	12.228020
1460.000000	12.207367
1461.000000	12.180703
1462.000000	12.154623
1463.000000	12.130163
1464.000000	12.106950
1465.000000	12.082383
1466.000000	12.057890
1467.000000	12.032870
1468.000000	12.008650
1469.000000	11.983657
1470.000000	11.959137
1471.000000	11.938067
1472.000000	11.917800
1473.000000	11.896800
1474.000000	11.876207
1475.000000	11.855727
1476.000000	11.834513
1477.000000	11.813283
1478.000000	11.794767
1479.000000	11.778040
1480.000000	11.760770
1481.000000	11.743247
1482.000000	11.725670
1483.000000	11.708923
1484.000000	11.692487
1485.000000	11.678307
1486.000000	11.665123
1487.000000	11.654827
1488.000000	11.643497
1489.000000	11.631617
1490.000000	11.620430
1491.000000	11.607927
1492.000000	11.596307
1493.000000	11.586597
1494.000000	11.577537
1495.000000	11.569547
1496.000000	11.562273
1497.000000	11.553643
1498.000000	11.547800
1499.000000	11.544423
1500.000000	11.541993
1501.000000	11.542833
1502.000000	11.545167
1503.000000	11.549460
1504.000000	11.557287
1505.000000	11.566887
1506.000000	11.578777
1507.000000	11.592943
1508.000000	11.608090
1509.000000	11.624543
1510.000000	11.642670
1511.000000	11.661537
1512.000000	11.681447
1513.000000	11.701597
1514.000000	11.722207
1515.000000	11.743090
1516.000000	11.764790
1517.000000	11.786720
1518.000000	11.809347
1519.000000	11.832223
1520.000000	11.855077
1521.000000	11.878777
1522.000000	11.901823
1523.000000	11.924823
1524.000000	11.947400
1525.000000	11.969997
1526.000000	11.991747
1527.000000	12.013463
1528.000000	12.034953
1529.000000	12.055953
1530.000000	12.076570
1531.000000	12.097397
1532.000000	12.118380
1533.000000	12.138380
1534.000000	12.158377
1535.000000	12.177703
1536.000000	12.196783
1537.000000	12.213717
1538.000000	12.230720
1539.000000	12.248543
1540.000000	12.265237
1541.000000	12.279670
1542.000000	12.293787
1543.000000	12.307750
1544.000000	12.321580
1545.000000	12.336217
1546.000000	12.351927
1547.000000	12.371217
1548.000000	12.389923
1549.000000	12.408807
1550.000000	12.429813
1551.000000	12.452093
1552.000000	12.475300
1553.000000	12.498443
1554.000000	12.520840
1555.000000	12.543150
1556.000000	12.564560
1557.000000	12.583813
1558.000000	12.602800
1559.000000	12.620950
1560.000000	12.636187
1561.000000	12.648443
1562.000000	12.658463
1563.000000	12.667543
1564.000000	12.675800
1565.000000	12.681193
1566.000000	12.684803
1567.000000	12.686547
1568.000000	12.685050
1569.000000	12.681430
1570.000000	12.677727
1571.000000	12.674033
1572.000000	12.670410
1573.000000	12.667217
1574.000000	12.664003
1575.000000	12.661243
1576.000000	12.658193
1577.000000	12.656797
1578.000000	12.657830
1579.000000	12.659590
1580.000000	12.661880
1581.000000	12.665097
1582.000000	12.669973
1583.000000	12.676097
1584.000000	12.683320
1585.000000	12.692037
1586.000000	12.702420
1587.000000	12.712833
1588.000000	12.724467
1589.000000	12.737553
1590.000000	12.751167
1591.000000	12.765340
1592.000000	12.779117
1593.000000	12.792773
1594.000000	12.805797
1595.000000	12.819103
1596.000000	12.832567
1597.000000	12.846277
1598.000000	12.860270
1599.000000	12.874987
1600.000000	12.890280
1601.000000	12.906203
1602.000000	12.923130
1603.000000	12.941633
1604.000000	12.960293
1605.000000	12.979123
1606.000000	12.998170
1607.000000	13.018290
1608.000000	13.037887
1609.000000	13.057143
1610.000000	13.076490
1611.000000	13.096073
1612.000000	13.114377
1613.000000	13.129670
1614.000000	13.145130
1615.000000	13.159933
1616.000000	13.173980
1617.000000	13.186370
1618.000000	13.197363
1619.000000	13.207100
1620.000000	13.216633
1621.000000	13.225640
1622.000000	13.234060
1623.000000	13.244133
1624.000000	13.253077
1625.000000	13.261607
1626.000000	13.271517
1627.000000	13.282593
1628.000000	13.294133
1629.000000	13.305520
1630.000000	13.315750
1631.000000	13.325283
1632.000000	13.334677
1633.000000	13.342703
1634.000000	13.350843
1635.000000	13.359707
1636.000000	13.366630
1637.000000	13.373087
1638.000000	13.378540
1639.000000	13.383157
1640.000000	13.387777
1641.000000	13.392887
1642.000000	13.396653
1643.000000	13.400957
1644.000000	13.405930
1645.000000	13.410033
1646.000000	13.413997
1647.000000	13.417297
1648.000000	13.418527
1649.000000	13.421430
1650.000000	13.423427
1651.000000	13.423560
1652.000000	13.422040
1653.000000	13.419193
1654.000000	13.413670
1655.000000	13.405127
1656.000000	13.394480
1657.000000	13.382247
1658.000000	13.369620
1659.000000	13.352290
1660.000000	13.332297
1661.000000	13.309010
1662.000000	13.283927
1663.000000	13.255743
1664.000000	13.224893
1665.000000	13.190873
1666.000000	13.153120
1667.000000	13.111687
1668.000000	13.062777
1669.000000	13.011607
1670.000000	12.957970
1671.000000	12.904210
1672.000000	12.849210
1673.000000	12.791587
1674.000000	12.732343
1675.000000	12.673833
1676.000000	12.616633
1677.000000	12.559280
1678.000000	12.504840
1679.000000	12.450850
1680.000000	12.397157
1681.000000	12.340693
1682.000000	12.282980
1683.000000	12.223523
1684.000000	12.164297
1685.000000	12.103837
1686.000000	12.043623
1687.000000	11.985617
1688.000000	11.932067
1689.000000	11.883990
1690.000000	11.842570
1691.000000	11.810393
1692.000000	11.787220
1693.000000	11.774810
1694.000000	11.771267
1695.000000	11.775007
1696.000000	11.784087
1697.000000	11.796197
1698.000000	11.811017
1699.000000	11.826437
1700.000000	11.839900
1701.000000	11.851457
1702.000000	11.859697
1703.000000	11.864977
1704.000000	11.865683
1705.000000	11.863847
1706.000000	11.857667
1707.000000	11.849447
1708.000000	11.838487
1709.000000	11.822717
1710.000000	11.802687
1711.000000	11.778477
1712.000000	11.750450
1713.000000	11.716270
1714.000000	11.678003
1715.000000	11.633853
1716.000000	11.584700
1717.000000	11.529893
1718.000000	11.471580
1719.000000	11.410923
1720.000000	11.348357
1721.000000	11.285327
1722.000000	11.223563
1723.000000	11.164977
1724.000000	11.111010
1725.000000	11.063347
1726.000000	11.024287
1727.000000	10.994703
1728.000000	10.973547
1729.000000	10.959177
1730.000000	10.952347
1731.000000	10.952253
1732.000000	10.958423
1733.000000	10.969347
1734.000000	10.982027
1735.000000	10.999920
1736.000000	11.018427
1737.000000	11.035953
1738.000000	11.054207
1739.000000	11.073450
1740.000000	11.095463
1741.000000	11.118240
1742.000000	11.140973
1743.000000	11.165007
1744.000000	11.190773
1745.000000	11.214880
1746.000000	11.240633
1747.000000	11.266660
1748.000000	11.290550
1749.000000	11.314060
1750.000000	11.335400
1751.000000	11.353827
1752.000000	11.369287
1753.000000	11.383413
1754.000000	11.394743
1755.000000	11.403760
1756.000000	11.409300
1757.000000	11.413700
1758.000000	11.417077
1759.000000	11.420290
1760.000000	11.421950
1761.000000	11.422900
1762.000000	11.425163
1763.000000	11.427543
1764.000000	11.430030
1765.000000	11.432140
1766.000000	11.436160
1767.000000	11.440903
1768.000000	11.447953
1769.000000	11.455193
1770.000000	11.464070
1771.000000	11.474897
1772.000000	11.486943
1773.000000	11.498087
1774.000000	11.509727
1775.000000	11.523263
1776.000000	11.538663
1777.000000	11.554340
1778.000000	11.568597
1779.000000	11.582643
1780.000000	11.598033
1781.000000	11.613040
1782.000000	11.626673
1783.000000	11.639953
1784.000000	11.653163
1785.000000	11.664977
1786.000000	11.674093
1787.000000	11.681680
1788.000000	11.688640
1789.000000	11.693223
1790.000000	11.694603
1791.000000	11.695793
1792.000000	11.697313
1793.000000	11.698807
1794.000000	11.701293
1795.000000	11.703680
1796.000000	11.706173
1797.000000	11.709307
1798.000000	11.711713
1799.000000	11.714263
1800.000000	11.718927
1801.000000	11.724630
1802.000000	11.731487
1803.000000	11.737820
1804.000000	11.742110
1805.000000	11.745247
1806.000000	11.749233
1807.000000	11.755800
1808.000000	11.762710
1809.000000	11.767840
1810.000000	11.769757
1811.000000	11.772137
1812.000000	11.775890
1813.000000	11.779817
1814.000000	11.783123
1815.000000	11.787857
1816.000000	11.791987
1817.000000	11.791200
1818.000000	11.785330
1819.000000	11.779517
1820.000000	11.779767
1821.000000	11.785620
1822.000000	11.793830
1823.000000	11.798530
1824.000000	11.796330
1825.000000	11.787127
1826.000000	11.775370
1827.000000	11.767550
1828.000000	11.768427
1829.000000	11.773920
1830.000000	11.777223
1831.000000	11.775990
1832.000000	11.768003
1833.000000	11.759757
1834.000000	11.754100
1835.000000	11.752053
1836.000000	11.754343
1837.000000	11.759347
1838.000000	11.764230
1839.000000	11.767680
1840.000000	11.771677
1841.000000	11.778240
1842.000000	11.794573
1843.000000	11.814747
1844.000000	11.831147
1845.000000	11.837490
1846.000000	11.832493
1847.000000	11.827517
1848.000000	11.834867
1849.000000	11.853660
1850.000000	11.868283
1851.000000	11.866813
1852.000000	11.848067
1853.000000	11.827790
1854.000000	11.818690
1855.000000	11.823310
1856.000000	11.834747
1857.000000	11.835010
1858.000000	11.814440
1859.000000	11.785610
1860.000000	11.762617
1861.000000	11.750067
1862.000000	11.744420
1863.000000	11.733760
1864.000000	11.710513
1865.000000	11.675753
1866.000000	11.633467
1867.000000	11.589103
1868.000000	11.543730
1869.000000	11.488943
1870.000000	11.429127
1871.000000	11.373263
1872.000000	11.318573
1873.000000	11.270453
1874.000000	11.230283
1875.000000	11.194647
1876.000000	11.163470
1877.000000	11.133153
1878.000000	11.099860
1879.000000	11.061683
1880.000000	11.010493
1881.000000	10.939827
1882.000000	10.857130
1883.000000	10.763117
1884.000000	10.660987
1885.000000	10.554143
1886.000000	10.440083
1887.000000	10.317067
1888.000000	10.184480
1889.000000	10.043800
1890.000000	9.900830
1891.000000	9.759003
1892.000000	9.616693
1893.000000	9.471883
1894.000000	9.319983
1895.000000	9.159403
1896.000000	8.989910
1897.000000	8.815760
1898.000000	8.642183
1899.000000	8.473240
1900.000000	8.308163
1901.000000	8.142640
1902.000000	7.975153
1903.000000	7.804697
1904.000000	7.638443
1905.000000	7.480983
1906.000000	7.337107
1907.000000	7.204613
1908.000000	7.078407
1909.000000	6.953810
1910.000000	6.828100
1911.000000	6.705197
1912.000000	6.589283
1913.000000	6.484420
1914.000000	6.389100
1915.000000	6.298930
1916.000000	6.209983
1917.000000	6.121813
1918.000000	6.036457
1919.000000	5.957583
1920.000000	5.890880
1921.000000	5.833433
1922.000000	5.781120
1923.000000	5.731233
1924.000000	5.681930
1925.000000	5.632440
1926.000000	5.586237
1927.000000	5.549237
1928.000000	5.519293
1929.000000	5.492497
1930.000000	5.468210
1931.000000	5.446013
1932.000000	5.425953
1933.000000	5.408620
1934.000000	5.394740
1935.000000	5.383797
1936.000000	5.376320
1937.000000	5.369913
1938.000000	5.366933
1939.000000	5.371057
1940.000000	5.375897
1941.000000	5.381693
1942.000000	5.388727
1943.000000	5.397143
1944.000000	5.407297
1945.000000	5.422840
1946.000000	5.440363
1947.000000	5.460320
1948.000000	5.480933
1949.000000	5.499403
1950.000000	5.518253
1951.000000	5.538867
1952.000000	5.560097
1953.000000	5.583653
1954.000000	5.608700
1955.000000	5.634120
1956.000000	5.660250
1957.000000	5.684900
1958.000000	5.710893
1959.000000	5.738497
1960.000000	5.765433
1961.000000	5.791627
1962.000000	5.818930
1963.000000	5.847033
1964.000000	5.874157
1965.000000	5.901543
1966.000000	5.927273
1967.000000	5.953830
1968.000000	5.979723
1969.000000	6.002833
1970.000000	6.027813
1971.000000	6.054263
1972.000000	6.080370
1973.000000	6.104227
1974.000000	6.128820
1975.000000	6.152777
1976.000000	6.177930
1977.000000	6.201850
1978.000000	6.226433
1979.000000	6.253083
1980.000000	6.278750
1981.000000	6.303337
1982.000000	6.328887
1983.000000	6.354293
1984.000000	6.379433
1985.000000	6.405483
1986.000000	6.431260
1987.000000	6.457783
1988.000000	6.484130
1989.000000	6.510340
1990.000000	6.535157
1991.000000	6.559613
1992.000000	6.585060
1993.000000	6.610313
1994.000000	6.635460
1995.000000	6.657657
1996.000000	6.678873
1997.000000	6.699993
1998.000000	6.719837
1999.000000	6.739007
2000.000000	6.758410
2001.000000	6.776520
2002.000000	6.792120
2003.000000	6.807773
2004.000000	6.821947
2005.000000	6.836840
2006.000000	6.851417
2007.000000	6.862847
2008.000000	6.872593
2009.000000	6.880733
2010.000000	6.886100
2011.000000	6.890343
2012.000000	6.891847
2013.000000	6.891530
2014.000000	6.890237
2015.000000	6.884967
2016.000000	6.877553
2017.000000	6.869653
2018.000000	6.860750
2019.000000	6.849463
2020.000000	6.837743
2021.000000	6.825013
2022.000000	6.809837
2023.000000	6.792813
2024.000000	6.772940
2025.000000	6.753457
2026.000000	6.732720
2027.000000	6.711397
2028.000000	6.688433
2029.000000	6.662523
2030.000000	6.635790
2031.000000	6.607610
2032.000000	6.579423
2033.000000	6.548937
2034.000000	6.517947
2035.000000	6.484930
2036.000000	6.450253
2037.000000	6.413333
2038.000000	6.375080
2039.000000	6.336243
2040.000000	6.294473
2041.000000	6.252380
2042.000000	6.211340
2043.000000	6.169387
2044.000000	6.124797
2045.000000	6.079790
2046.000000	6.035983
2047.000000	5.992960
2048.000000	5.950113
2049.000000	5.909250
2050.000000	5.871127
2051.000000	5.835290
2052.000000	5.800973
2053.000000	5.770737
2054.000000	5.746200
2055.000000	5.726857
2056.000000	5.712427
2057.000000	5.702497
2058.000000	5.696753
2059.000000	5.696950
2060.000000	5.702770
2061.000000	5.712047
2062.000000	5.724880
2063.000000	5.741083
2064.000000	5.761510
2065.000000	5.784763
2066.000000	5.808780
2067.000000	5.834683
2068.000000	5.863133
2069.000000	5.891177
2070.000000	5.918053
2071.000000	5.945323
2072.000000	5.972733
2073.000000	5.999873
2074.000000	6.025270
2075.000000	6.049160
2076.000000	6.071377
2077.000000	6.091673
2078.000000	6.109877
2079.000000	6.126803
2080.000000	6.142837
2081.000000	6.156960
2082.000000	6.169130
2083.000000	6.178487
2084.000000	6.184830
2085.000000	6.189567
2086.000000	6.193853
2087.000000	6.195977
2088.000000	6.195590
2089.000000	6.193190
2090.000000	6.188793
2091.000000	6.183100
2092.000000	6.176233
2093.000000	6.168357
2094.000000	6.160047
2095.000000	6.150930
2096.000000	6.140793
2097.000000	6.131427
2098.000000	6.122857
2099.000000	6.114057
2100.000000	6.105720
2101.000000	6.097033
2102.000000	6.089197
2103.000000	6.083017
2104.000000	6.076743
2105.000000	6.069983
2106.000000	6.062740
2107.000000	6.055643
2108.000000	6.048983
2109.000000	6.042120
2110.000000	6.035157
2111.000000	6.029170
2112.000000	6.020923
2113.000000	6.011160
2114.000000	6.002100
2115.000000	5.992523
2116.000000	5.982513
2117.000000	5.971153
2118.000000	5.959080
2119.000000	5.947180
2120.000000	5.933207
2121.000000	5.917140
2122.000000	5.901973
2123.000000	5.886993
2124.000000	5.870460
2125.000000	5.852840
2126.000000	5.834490
2127.000000	5.816303
2128.000000	5.796513
2129.000000	5.775023
2130.000000	5.753807
2131.000000	5.733253
2132.000000	5.711367
2133.000000	5.687950
2134.000000	5.663983
2135.000000	5.640963
2136.000000	5.616953
2137.000000	5.590220
2138.000000	5.563763
2139.000000	5.537290
2140.000000	5.510697
2141.000000	5.482400
2142.000000	5.454180
2143.000000	5.426167
2144.000000	5.396937
2145.000000	5.366320
2146.000000	5.335857
2147.000000	5.306333
2148.000000	5.275700
2149.000000	5.244607
2150.000000	5.213493
2151.000000	5.182323
2152.000000	5.150777
2153.000000	5.119320
2154.000000	5.089677
2155.000000	5.061490
2156.000000	5.033133
2157.000000	5.005607
2158.000000	4.979490
2159.000000	4.956683
2160.000000	4.935057
2161.000000	4.914470
2162.000000	4.895403
2163.000000	4.877447
2164.000000	4.861463
2165.000000	4.845900
2166.000000	4.832170
2167.000000	4.819480
2168.000000	4.808170
2169.000000	4.797000
2170.000000	4.785953
2171.000000	4.774657
2172.000000	4.763760
2173.000000	4.755117
2174.000000	4.746110
2175.000000	4.735450
2176.000000	4.724903
2177.000000	4.715600
2178.000000	4.707180
2179.000000	4.698403
2180.000000	4.689007
2181.000000	4.680543
2182.000000	4.671997
2183.000000	4.662110
2184.000000	4.650490
2185.000000	4.639633
2186.000000	4.628110
2187.000000	4.612513
2188.000000	4.594590
2189.000000	4.573493
2190.000000	4.550857
2191.000000	4.524767
2192.000000	4.494667
2193.000000	4.460763
2194.000000	4.424450
2195.000000	4.384160
2196.000000	4.340647
2197.000000	4.296057
2198.000000	4.246687
2199.000000	4.195143
2200.000000	4.141510
2201.000000	4.088497
2202.000000	4.035240
2203.000000	3.983023
2204.000000	3.932150
2205.000000	3.883767
2206.000000	3.837777
2207.000000	3.795797
2208.000000	3.760040
2209.000000	3.731063
2210.000000	3.706350
2211.000000	3.687263
2212.000000	3.675797
2213.000000	3.668617
2214.000000	3.667727
2215.000000	3.673123
2216.000000	3.682463
2217.000000	3.698257
2218.000000	3.716823
2219.000000	3.738327
2220.000000	3.763210
2221.000000	3.790700
2222.000000	3.819093
2223.000000	3.849067
2224.000000	3.877690
2225.000000	3.908173
2226.000000	3.939577
2227.000000	3.968247
2228.000000	3.996000
2229.000000	4.021963
2230.000000	4.046680
2231.000000	4.068093
2232.000000	4.086550
2233.000000	4.104497
2234.000000	4.120120
2235.000000	4.131760
2236.000000	4.140107
2237.000000	4.144430
2238.000000	4.148213
2239.000000	4.148863
2240.000000	4.147570
2241.000000	4.141873
2242.000000	4.134647
2243.000000	4.123480
2244.000000	4.112240
2245.000000	4.099173
2246.000000	4.084213
2247.000000	4.065953
2248.000000	4.045030
2249.000000	4.023540
2250.000000	4.002077
2251.000000	3.980843
2252.000000	3.957023
2253.000000	3.933773
2254.000000	3.909260
2255.000000	3.884070
2256.000000	3.859620
2257.000000	3.836503
2258.000000	3.814323
2259.000000	3.792517
2260.000000	3.769690
2261.000000	3.749710
2262.000000	3.731630
2263.000000	3.715163
2264.000000	3.700677
2265.000000	3.687167
2266.000000	3.675657
2267.000000	3.667667
2268.000000	3.662540
2269.000000	3.658290
2270.000000	3.656323
2271.000000	3.655600
2272.000000	3.658367
2273.000000	3.661347
2274.000000	3.663693
2275.000000	3.667653
2276.000000	3.673210
2277.000000	3.678487
2278.000000	3.681917
2279.000000	3.686383
2280.000000	3.690727
2281.000000	3.695027
2282.000000	3.697610
2283.000000	3.700820
2284.000000	3.703760
2285.000000	3.707230
2286.000000	3.708410
2287.000000	3.709813
2288.000000	3.711473
2289.000000	3.712217
2290.000000	3.712317
2291.000000	3.712433
2292.000000	3.713237
2293.000000	3.712720
2294.000000	3.713233
2295.000000	3.712707
2296.000000	3.713497
2297.000000	3.714297
2298.000000	3.715740
2299.000000	3.717380
2300.000000	3.719363
2301.000000	3.721800
2302.000000	3.724117
2303.000000	3.728100
2304.000000	3.732630
2305.000000	3.739040
2306.000000	3.746007
2307.000000	3.752720
2308.000000	3.759960
2309.000000	3.767927
2310.000000	3.776607
2311.000000	3.786030
2312.000000	3.796630
2313.000000	3.806653
2314.000000	3.816457
2315.000000	3.824003
2316.000000	3.830563
2317.000000	3.837693
2318.000000	3.844530
2319.000000	3.850637
2320.000000	3.855457
2321.000000	3.858230
2322.000000	3.858993
2323.000000	3.858370
2324.000000	3.855540
2325.000000	3.852630
2326.000000	3.850143
2327.000000	3.846460
2328.000000	3.840827
2329.000000	3.835127
2330.000000	3.829200
2331.000000	3.823130
2332.000000	3.817447
2333.000000	3.810860
2334.000000	3.805513
2335.000000	3.800877
2336.000000	3.796517
2337.000000	3.792917
2338.000000	3.790050
2339.000000	3.788163
2340.000000	3.786557
2341.000000	3.785257
2342.000000	3.784490
2343.000000	3.785400
2344.000000	3.788290
2345.000000	3.791063
2346.000000	3.792863
2347.000000	3.794497
2348.000000	3.797053
2349.000000	3.799633
2350.000000	3.803630
2351.000000	3.807967
2352.000000	3.812303
2353.000000	3.817047
2354.000000	3.820263
2355.000000	3.824023
2356.000000	3.828637
2357.000000	3.833320
2358.000000	3.837743
2359.000000	3.840630
2360.000000	3.841973
2361.000000	3.843760
2362.000000	3.844937
2363.000000	3.844770
2364.000000	3.844980
2365.000000	3.844227
2366.000000	3.842753
2367.000000	3.841487
2368.000000	3.839673
2369.000000	3.839267
2370.000000	3.839963
2371.000000	3.839357
2372.000000	3.839003
2373.000000	3.839193
2374.000000	3.839263
2375.000000	3.840757
2376.000000	3.842933
2377.000000	3.843980
2378.000000	3.845000
2379.000000	3.845613
2380.000000	3.845747
2381.000000	3.846087
2382.000000	3.845723
2383.000000	3.845100
2384.000000	3.844483
2385.000000	3.842993
2386.000000	3.840693
2387.000000	3.838567
2388.000000	3.835130
2389.000000	3.831160
2390.000000	3.826297
2391.000000	3.820513
2392.000000	3.814213
2393.000000	3.807793
2394.000000	3.801217
2395.000000	3.793150
2396.000000	3.783947
2397.000000	3.774590
2398.000000	3.765613
2399.000000	3.756247
2400.000000	3.747080
2401.000000	3.737827
2402.000000	3.727600
2403.000000	3.716657
2404.000000	3.704473
2405.000000	3.691790
2406.000000	3.679770
2407.000000	3.668190
2408.000000	3.655787
2409.000000	3.641540
2410.000000	3.626243
2411.000000	3.610080
2412.000000	3.593857
2413.000000	3.577710
2414.000000	3.561227
2415.000000	3.543910
2416.000000	3.525397
2417.000000	3.504503
2418.000000	3.481707
2419.000000	3.458327
2420.000000	3.434640
2421.000000	3.411320
2422.000000	3.389000
2423.000000	3.365073
2424.000000	3.341710
2425.000000	3.318200
2426.000000	3.293507
2427.000000	3.269117
2428.000000	3.245940
2429.000000	3.223537
2430.000000	3.200760
2431.000000	3.177993
2432.000000	3.152737
2433.000000	3.128223
2434.000000	3.102743
2435.000000	3.076330
2436.000000	3.051707
2437.000000	3.027313
2438.000000	3.003320
2439.000000	2.978843
2440.000000	2.953470
2441.000000	2.928417
2442.000000	2.905820
2443.000000	2.882100
2444.000000	2.857777
2445.000000	2.834653
2446.000000	2.809827
2447.000000	2.784760
2448.000000	2.760963
2449.000000	2.737307
2450.000000	2.713797
2451.000000	2.691677
2452.000000	2.668780
2453.000000	2.646627
2454.000000	2.624780
2455.000000	2.603597
2456.000000	2.585860
2457.000000	2.568537
2458.000000	2.548350
2459.000000	2.529253
2460.000000	2.514673
2461.000000	2.497797
2462.000000	2.480023
2463.000000	2.463910
2464.000000	2.447683
2465.000000	2.431077
2466.000000	2.414610
2467.000000	2.398967
2468.000000	2.387243
2469.000000	2.376650
2470.000000	2.361397
2471.000000	2.349623
2472.000000	2.334733
2473.000000	2.324363
2474.000000	2.316767
2475.000000	2.308780
2476.000000	2.296880
2477.000000	2.288927
2478.000000	2.283897
2479.000000	2.275143
2480.000000	2.270733
2481.000000	2.263080
2482.000000	2.262660
2483.000000	2.258030
2484.000000	2.253980
2485.000000	2.253473
2486.000000	2.252630
2487.000000	2.252607
2488.000000	2.251310
2489.000000	2.250017
2490.000000	2.257983
2491.000000	2.258713
2492.000000	2.266510
2493.000000	2.269767
2494.000000	2.277013
2495.000000	2.281783
2496.000000	2.290070
2497.000000	2.297057
2498.000000	2.304547
2499.000000	2.322227
2500.000000	2.324187
