PE UV       SUBTECH     SPECTRUM    ASCII       PEDS        4.00        
   -1
CICIMAUCR0204-3.ASC
24/06/06
14:12:33.00
24/06/06
14:12:33.00
Vinicio Soto Monge
C. cupreomarginata. Sex M. Ventral
250,000000
1
Lambda 1050
1050L1511233
PerkinElmer UV WinLab 6.3.2.0749 / 2.02.05 Lambda 900 UV/VIS/NIR, Aug  7 2015 09:38:08

0
0
3350/servo 860,8/2
0
0
UV/VIS
1
1
1
DoubleDePol,CommonBeamDepol,RBeamAtt,SBeamAtt,60mm sphere, WB InGaAs Detector
0
0
0
0
Program
Program
3350/servo 860,8/2
3350/0,2 860,8/0,2
3350/0,2 860,8/0,2
0
15.00
 
 
 
0
 
860,8
319,2
860,8
Front
100
on
S:100 R:100
0
0
0
0
 
0
 
 
 
0
 
 
0
0
0
0
0
 
 
 
 
0
0


0
0
#HDR
-1
-1
#GR
nm
%R
1.0
0.0
2500,000000
-1,000000
2251
8
53,165300
3,700600
#DATA
2482.000000	8.235758
2481.000000	8.185379
2480.000000	8.082173
2479.000000	8.183280
2478.000000	8.171385
2477.000000	8.115176
2476.000000	8.136167
2475.000000	8.210219
2474.000000	8.117391
2473.000000	8.147829
2472.000000	8.136633
2471.000000	8.217099
2470.000000	8.197624
2469.000000	8.190511
2468.000000	8.187479
2467.000000	8.205088
2466.000000	8.230044
2465.000000	8.267711
2464.000000	8.271676
2463.000000	8.294883
2462.000000	8.312609
2461.000000	8.339198
2460.000000	8.357390
2459.000000	8.434241
2458.000000	8.395174
2457.000000	8.459430
2456.000000	8.503045
2455.000000	8.549576
2454.000000	8.595989
2453.000000	8.625844
2452.000000	8.678088
2451.000000	8.713423
2450.000000	8.736747
2449.000000	8.776397
2448.000000	8.860011
2447.000000	8.906892
2446.000000	8.970332
2445.000000	9.002868
2444.000000	9.043801
2443.000000	9.100943
2442.000000	9.163333
2441.000000	9.214295
2440.000000	9.261175
2439.000000	9.331379
2438.000000	9.373245
2437.000000	9.401583
2436.000000	9.459658
2435.000000	9.493944
2434.000000	9.556218
2433.000000	9.599366
2432.000000	9.652544
2431.000000	9.703389
2430.000000	9.742222
2429.000000	9.788170
2428.000000	9.809044
2427.000000	9.849511
2426.000000	9.900939
2425.000000	9.967178
2424.000000	9.980589
2423.000000	10.018256
2422.000000	10.057323
2421.000000	10.098955
2420.000000	10.135223
2419.000000	10.163095
2418.000000	10.220237
2417.000000	10.242745
2416.000000	10.261287
2415.000000	10.297438
2414.000000	10.329158
2413.000000	10.355864
2412.000000	10.371957
2411.000000	10.402977
2410.000000	10.445776
2409.000000	10.474930
2408.000000	10.504084
2407.000000	10.522743
2406.000000	10.546416
2405.000000	10.574988
2404.000000	10.590614
2403.000000	10.609973
2402.000000	10.638894
2401.000000	10.673646
2400.000000	10.694054
2399.000000	10.715395
2398.000000	10.725424
2397.000000	10.742334
2396.000000	10.748165
2395.000000	10.769856
2394.000000	10.794812
2393.000000	10.816619
2392.000000	10.823966
2391.000000	10.838893
2390.000000	10.855220
2389.000000	10.878193
2388.000000	10.905598
2387.000000	10.913995
2386.000000	10.917377
2385.000000	10.925890
2384.000000	10.920059
2383.000000	10.924490
2382.000000	10.947930
2381.000000	10.955044
2380.000000	10.948747
2379.000000	10.951895
2378.000000	10.948747
2377.000000	10.941167
2376.000000	10.951079
2375.000000	10.952245
2374.000000	10.953178
2373.000000	10.937901
2372.000000	10.921808
2371.000000	10.929621
2370.000000	10.941400
2369.000000	10.936735
2368.000000	10.900584
2367.000000	10.894286
2366.000000	10.897552
2365.000000	10.877493
2364.000000	10.863849
2363.000000	10.852887
2362.000000	10.835511
2361.000000	10.833179
2360.000000	10.830613
2359.000000	10.818835
2358.000000	10.805307
2357.000000	10.777669
2356.000000	10.771138
2355.000000	10.777319
2354.000000	10.767057
2353.000000	10.762975
2352.000000	10.752946
2351.000000	10.749681
2350.000000	10.765891
2349.000000	10.769039
2348.000000	10.773004
2347.000000	10.790847
2346.000000	10.789680
2345.000000	10.789214
2344.000000	10.804724
2343.000000	10.826765
2342.000000	10.851021
2341.000000	10.864549
2340.000000	10.895219
2339.000000	10.909796
2338.000000	10.914228
2337.000000	10.920409
2336.000000	10.943965
2335.000000	10.962857
2334.000000	10.973470
2333.000000	10.975102
2332.000000	10.967755
2331.000000	10.985481
2330.000000	10.986298
2329.000000	10.985948
2328.000000	10.976035
2327.000000	10.965306
2326.000000	10.960525
2325.000000	10.939884
2324.000000	10.930438
2323.000000	10.923791
2322.000000	10.893353
2321.000000	10.869214
2320.000000	10.838543
2319.000000	10.800176
2318.000000	10.772888
2317.000000	10.731605
2316.000000	10.676562
2315.000000	10.650323
2314.000000	10.611955
2313.000000	10.574871
2312.000000	10.542102
2311.000000	10.479828
2310.000000	10.431665
2309.000000	10.402977
2308.000000	10.390849
2307.000000	10.353998
2306.000000	10.348050
2305.000000	10.336855
2304.000000	10.322394
2303.000000	10.314231
2302.000000	10.326826
2301.000000	10.333356
2300.000000	10.357380
2299.000000	10.397379
2298.000000	10.423502
2297.000000	10.434580
2296.000000	10.496971
2295.000000	10.528341
2294.000000	10.563326
2293.000000	10.603792
2292.000000	10.626766
2291.000000	10.653471
2290.000000	10.681576
2289.000000	10.724025
2288.000000	10.764841
2287.000000	10.750730
2286.000000	10.787931
2285.000000	10.794578
2284.000000	10.794928
2283.000000	10.803908
2282.000000	10.816153
2281.000000	10.811371
2280.000000	10.821284
2279.000000	10.797844
2278.000000	10.787698
2277.000000	10.792129
2276.000000	10.777319
2275.000000	10.773354
2274.000000	10.766590
2273.000000	10.773004
2272.000000	10.762042
2271.000000	10.768456
2270.000000	10.778135
2269.000000	10.806240
2268.000000	10.826065
2267.000000	10.864316
2266.000000	10.923557
2265.000000	10.973003
2264.000000	11.025131
2263.000000	11.091137
2262.000000	11.189445
2261.000000	11.312710
2260.000000	11.418365
2259.000000	11.539997
2258.000000	11.639822
2257.000000	11.771366
2256.000000	11.941511
2255.000000	12.049149
2254.000000	12.195970
2253.000000	12.342325
2252.000000	12.485298
2251.000000	12.604015
2250.000000	12.737192
2249.000000	12.874917
2248.000000	12.980339
2247.000000	13.107336
2246.000000	13.222321
2245.000000	13.331358
2244.000000	13.401095
2243.000000	13.493923
2242.000000	13.584068
2241.000000	13.681910
2240.000000	13.733805
2239.000000	13.787216
2238.000000	13.854387
2237.000000	13.899868
2236.000000	13.901734
2235.000000	13.984416
2234.000000	14.034445
2233.000000	14.025582
2232.000000	14.041325
2231.000000	14.075144
2230.000000	14.050421
2229.000000	14.069547
2228.000000	14.085406
2227.000000	14.089255
2226.000000	14.083657
2225.000000	14.039692
2224.000000	14.014853
2223.000000	13.981500
2222.000000	13.982550
2221.000000	13.916894
2220.000000	13.892988
2219.000000	13.848440
2218.000000	13.847040
2217.000000	13.767741
2216.000000	13.727741
2215.000000	13.719927
2214.000000	13.691706
2213.000000	13.649607
2212.000000	13.595846
2211.000000	13.563310
2210.000000	13.560161
2209.000000	13.520162
2208.000000	13.499870
2207.000000	13.456605
2206.000000	13.449841
2205.000000	13.396780
2204.000000	13.406110
2203.000000	13.386401
2202.000000	13.369958
2201.000000	13.337422
2200.000000	13.326227
2199.000000	13.309434
2198.000000	13.284245
2197.000000	13.274799
2196.000000	13.270017
2195.000000	13.247860
2194.000000	13.238997
2193.000000	13.251242
2192.000000	13.232233
2191.000000	13.224070
2190.000000	13.192350
2189.000000	13.179755
2188.000000	13.174158
2187.000000	13.171126
2186.000000	13.149551
2185.000000	13.125412
2184.000000	13.119347
2183.000000	13.098939
2182.000000	13.078182
2181.000000	13.060106
2180.000000	13.061622
2179.000000	13.036549
2178.000000	13.048327
2177.000000	13.024771
2176.000000	13.023721
2175.000000	13.011126
2174.000000	13.004829
2173.000000	12.998648
2172.000000	12.990369
2171.000000	13.005645
2170.000000	12.994917
2169.000000	12.989552
2168.000000	12.986753
2167.000000	13.032001
2166.000000	13.024421
2165.000000	13.038532
2164.000000	13.050660
2163.000000	13.054042
2162.000000	13.079581
2161.000000	13.108385
2160.000000	13.135324
2159.000000	13.145586
2158.000000	13.189318
2157.000000	13.237131
2156.000000	13.262087
2155.000000	13.308384
2154.000000	13.354215
2153.000000	13.384885
2152.000000	13.432349
2151.000000	13.472698
2150.000000	13.534039
2149.000000	13.572523
2148.000000	13.618703
2147.000000	13.666633
2146.000000	13.718528
2145.000000	13.761210
2144.000000	13.826283
2143.000000	13.859985
2142.000000	13.905466
2141.000000	13.954795
2140.000000	13.987914
2139.000000	14.033162
2138.000000	14.077593
2137.000000	14.117010
2136.000000	14.145698
2135.000000	14.184065
2134.000000	14.223365
2133.000000	14.259750
2132.000000	14.294268
2131.000000	14.328904
2130.000000	14.353044
2129.000000	14.370303
2128.000000	14.398524
2127.000000	14.403072
2126.000000	14.423481
2125.000000	14.454734
2124.000000	14.462314
2123.000000	14.484821
2122.000000	14.490069
2121.000000	14.508495
2120.000000	14.521789
2119.000000	14.511293
2118.000000	14.517474
2117.000000	14.526337
2116.000000	14.537649
2115.000000	14.540098
2114.000000	14.522722
2113.000000	14.520973
2112.000000	14.529952
2111.000000	14.521672
2110.000000	14.506162
2109.000000	14.488203
2108.000000	14.487387
2107.000000	14.480623
2106.000000	14.479807
2105.000000	14.464180
2104.000000	14.454501
2103.000000	14.445405
2102.000000	14.430244
2101.000000	14.413102
2100.000000	14.393160
2099.000000	14.370769
2098.000000	14.382081
2097.000000	14.373568
2096.000000	14.359341
2095.000000	14.366105
2094.000000	14.350245
2093.000000	14.328787
2092.000000	14.336134
2091.000000	14.341382
2090.000000	14.331936
2089.000000	14.322723
2088.000000	14.311644
2087.000000	14.306047
2086.000000	14.280974
2085.000000	14.260099
2084.000000	14.261032
2083.000000	14.245056
2082.000000	14.222199
2081.000000	14.193044
2080.000000	14.160858
2079.000000	14.135669
2078.000000	14.099517
2077.000000	14.063482
2076.000000	14.012521
2075.000000	13.954795
2074.000000	13.901617
2073.000000	13.866049
2072.000000	13.829431
2071.000000	13.756662
2070.000000	13.700802
2069.000000	13.644826
2068.000000	13.586867
2067.000000	13.527392
2066.000000	13.460220
2065.000000	13.399929
2064.000000	13.356781
2063.000000	13.301271
2062.000000	13.238064
2061.000000	13.192350
2060.000000	13.143021
2059.000000	13.097773
2058.000000	13.055324
2057.000000	13.022089
2056.000000	13.016141
2055.000000	13.000048
2054.000000	12.974042
2053.000000	12.983372
2052.000000	13.004129
2051.000000	13.026053
2050.000000	13.062088
2049.000000	13.092176
2048.000000	13.123662
2047.000000	13.164828
2046.000000	13.214974
2045.000000	13.264303
2044.000000	13.315498
2043.000000	13.370541
2042.000000	13.433748
2041.000000	13.489375
2040.000000	13.532173
2039.000000	13.600628
2038.000000	13.667100
2037.000000	13.719811
2036.000000	13.771589
2035.000000	13.827565
2034.000000	13.869431
2033.000000	13.901151
2032.000000	13.914562
2031.000000	13.956194
2030.000000	13.983949
2029.000000	14.007856
2028.000000	14.014736
2027.000000	14.044590
2026.000000	14.070013
2025.000000	14.096252
2024.000000	14.111879
2023.000000	14.103249
2022.000000	14.111529
2021.000000	14.126456
2020.000000	14.120975
2019.000000	14.133919
2018.000000	14.125989
2017.000000	14.134619
2016.000000	14.122491
2015.000000	14.116543
2014.000000	14.106048
2013.000000	14.113161
2012.000000	14.090538
2011.000000	14.061966
2010.000000	14.037710
2009.000000	14.025698
2008.000000	13.985582
2007.000000	13.951880
2006.000000	13.944416
2005.000000	13.916311
2004.000000	13.863483
2003.000000	13.821035
2002.000000	13.784300
2001.000000	13.737653
2000.000000	13.709898
1999.000000	13.651706
1998.000000	13.612639
1997.000000	13.567042
1996.000000	13.501386
1995.000000	13.459870
1994.000000	13.380920
1993.000000	13.321912
1992.000000	13.272350
1991.000000	13.236315
1990.000000	13.167627
1989.000000	13.109435
1988.000000	13.051943
1987.000000	12.959232
1986.000000	12.910369
1985.000000	12.865355
1984.000000	12.793052
1983.000000	12.720632
1982.000000	12.665589
1981.000000	12.610196
1980.000000	12.540109
1979.000000	12.486231
1978.000000	12.428156
1977.000000	12.351072
1976.000000	12.286232
1975.000000	12.235037
1974.000000	12.181976
1973.000000	12.120169
1972.000000	12.052298
1971.000000	12.019528
1970.000000	11.954222
1969.000000	11.892765
1968.000000	11.862444
1967.000000	11.796439
1966.000000	11.743845
1965.000000	11.683087
1964.000000	11.628510
1963.000000	11.591542
1962.000000	11.531484
1961.000000	11.485887
1960.000000	11.426412
1959.000000	11.394342
1958.000000	11.339182
1957.000000	11.261515
1956.000000	11.211836
1955.000000	11.165772
1954.000000	11.134985
1953.000000	11.103615
1952.000000	11.040875
1951.000000	11.014519
1950.000000	10.954228
1949.000000	10.909213
1948.000000	10.868980
1947.000000	10.842392
1946.000000	10.793645
1945.000000	10.785482
1944.000000	10.771255
1943.000000	10.708981
1942.000000	10.689739
1941.000000	10.681576
1940.000000	10.637028
1939.000000	10.656154
1938.000000	10.642509
1937.000000	10.639594
1936.000000	10.637145
1935.000000	10.652422
1934.000000	10.631547
1933.000000	10.660119
1932.000000	10.659302
1931.000000	10.676678
1930.000000	10.700818
1929.000000	10.762042
1928.000000	10.770672
1927.000000	10.817902
1926.000000	10.891488
1925.000000	10.953994
1924.000000	11.018484
1923.000000	11.043440
1922.000000	11.096151
1921.000000	11.190145
1920.000000	11.283322
1919.000000	11.420231
1918.000000	11.492884
1917.000000	11.580463
1916.000000	11.680988
1915.000000	11.757722
1914.000000	11.875389
1913.000000	12.045184
1912.000000	12.216145
1911.000000	12.376261
1910.000000	12.513986
1909.000000	12.639700
1908.000000	12.771711
1907.000000	12.914567
1906.000000	13.114216
1905.000000	13.360279
1904.000000	13.618587
1903.000000	13.852172
1902.000000	14.080159
1901.000000	14.317125
1900.000000	14.585229
1899.000000	14.881321
1898.000000	15.212398
1897.000000	15.540909
1896.000000	15.855076
1895.000000	16.097524
1894.000000	16.382187
1893.000000	16.686209
1892.000000	17.066265
1891.000000	17.517225
1890.000000	17.987077
1889.000000	18.411681
1888.000000	18.814478
1887.000000	19.227420
1886.000000	19.627185
1885.000000	20.051206
1884.000000	20.518259
1883.000000	21.021113
1882.000000	21.503793
1881.000000	21.936910
1880.000000	22.364430
1879.000000	22.743553
1878.000000	23.129907
1877.000000	23.555327
1876.000000	23.942381
1875.000000	24.317306
1874.000000	24.702377
1873.000000	25.111354
1872.000000	25.529428
1871.000000	25.902953
1870.000000	26.296421
1869.000000	26.664815
1868.000000	27.025863
1867.000000	27.285453
1866.000000	27.505977
1865.000000	27.652448
1864.000000	27.801952
1863.000000	27.929415
1862.000000	28.054079
1861.000000	28.226906
1860.000000	28.427605
1859.000000	28.583406
1858.000000	28.789352
1857.000000	28.932208
1856.000000	29.042412
1855.000000	29.101187
1854.000000	29.182236
1853.000000	29.318679
1852.000000	29.380836
1851.000000	29.413022
1850.000000	29.432964
1849.000000	29.407774
1848.000000	29.466550
1847.000000	29.613604
1846.000000	29.708414
1845.000000	29.700134
1844.000000	29.646374
1843.000000	29.577453
1842.000000	29.560310
1841.000000	29.616170
1840.000000	29.666549
1839.000000	29.683691
1838.000000	29.672030
1837.000000	29.644624
1836.000000	29.636811
1835.000000	29.642059
1834.000000	29.631913
1833.000000	29.561010
1832.000000	29.484742
1831.000000	29.419086
1830.000000	29.399378
1829.000000	29.379670
1828.000000	29.347950
1827.000000	29.303169
1826.000000	29.272731
1825.000000	29.268300
1824.000000	29.203227
1823.000000	29.139088
1822.000000	29.086260
1821.000000	29.074248
1820.000000	29.139904
1819.000000	29.160429
1818.000000	29.108884
1817.000000	29.046377
1816.000000	29.010575
1815.000000	29.008010
1814.000000	28.994132
1813.000000	28.966027
1812.000000	28.951100
1811.000000	28.937573
1810.000000	28.910051
1809.000000	28.864337
1808.000000	28.816291
1807.000000	28.779440
1806.000000	28.754600
1805.000000	28.731976
1804.000000	28.690111
1803.000000	28.646146
1802.000000	28.607312
1801.000000	28.574543
1800.000000	28.556817
1799.000000	28.518916
1798.000000	28.472852
1797.000000	28.440549
1796.000000	28.396235
1795.000000	28.354019
1794.000000	28.312387
1793.000000	28.280900
1792.000000	28.269238
1791.000000	28.248947
1790.000000	28.208247
1789.000000	28.163116
1788.000000	28.143641
1787.000000	28.120318
1786.000000	28.082417
1785.000000	28.051163
1784.000000	28.035420
1783.000000	28.020143
1782.000000	27.974429
1781.000000	27.923467
1780.000000	27.894430
1779.000000	27.857812
1778.000000	27.815596
1777.000000	27.771048
1776.000000	27.724401
1775.000000	27.674489
1774.000000	27.640320
1773.000000	27.589358
1772.000000	27.530583
1771.000000	27.457464
1770.000000	27.391109
1769.000000	27.343879
1768.000000	27.284754
1767.000000	27.217349
1766.000000	27.157407
1765.000000	27.113442
1764.000000	27.085221
1763.000000	27.057000
1762.000000	27.047670
1761.000000	27.040790
1760.000000	27.053151
1759.000000	27.076708
1758.000000	27.085921
1757.000000	27.119973
1756.000000	27.161022
1755.000000	27.187728
1754.000000	27.214317
1753.000000	27.242188
1752.000000	27.260730
1751.000000	27.277640
1750.000000	27.275657
1749.000000	27.270060
1748.000000	27.258748
1747.000000	27.218515
1746.000000	27.196358
1745.000000	27.142947
1744.000000	27.104113
1743.000000	27.048253
1742.000000	26.952627
1741.000000	26.875426
1740.000000	26.781316
1739.000000	26.683824
1738.000000	26.573387
1737.000000	26.484641
1736.000000	26.395779
1735.000000	26.300619
1734.000000	26.224118
1733.000000	26.170124
1732.000000	26.126392
1731.000000	26.109833
1730.000000	26.113448
1729.000000	26.122661
1728.000000	26.138637
1727.000000	26.148783
1726.000000	26.198928
1725.000000	26.237762
1724.000000	26.274846
1723.000000	26.312864
1722.000000	26.356712
1721.000000	26.440793
1720.000000	26.533037
1719.000000	26.618168
1718.000000	26.705398
1717.000000	26.814319
1716.000000	26.944814
1715.000000	27.061664
1714.000000	27.187145
1713.000000	27.312858
1712.000000	27.424111
1711.000000	27.498280
1710.000000	27.580495
1709.000000	27.676821
1708.000000	27.723352
1707.000000	27.766384
1706.000000	27.779561
1705.000000	27.808949
1704.000000	27.799853
1703.000000	27.775713
1702.000000	27.763118
1701.000000	27.714839
1700.000000	27.675305
1699.000000	27.605568
1698.000000	27.545977
1697.000000	27.499096
1696.000000	27.428543
1695.000000	27.376998
1694.000000	27.385977
1693.000000	27.357989
1692.000000	27.361371
1691.000000	27.392508
1690.000000	27.418630
1689.000000	27.468543
1688.000000	27.537930
1687.000000	27.610349
1686.000000	27.677055
1685.000000	27.776296
1684.000000	27.897928
1683.000000	28.030406
1682.000000	28.226906
1681.000000	28.418275
1680.000000	28.656525
1679.000000	28.929293
1678.000000	29.192848
1677.000000	29.519261
1676.000000	29.827481
1675.000000	30.066080
1674.000000	30.329286
1673.000000	30.566952
1672.000000	30.772315
1671.000000	30.955638
1670.000000	31.153071
1669.000000	31.312371
1668.000000	31.488930
1667.000000	31.666538
1666.000000	31.783622
1665.000000	31.905370
1664.000000	32.022804
1663.000000	32.113299
1662.000000	32.225252
1661.000000	32.299771
1660.000000	32.373939
1659.000000	32.468866
1658.000000	32.508050
1657.000000	32.612189
1656.000000	32.607874
1655.000000	32.654871
1654.000000	32.682509
1653.000000	32.707699
1652.000000	32.707815
1651.000000	32.719010
1650.000000	32.711430
1649.000000	32.679477
1648.000000	32.680177
1647.000000	32.632130
1646.000000	32.619419
1645.000000	32.580236
1644.000000	32.543851
1643.000000	32.510498
1642.000000	32.476679
1641.000000	32.423502
1640.000000	32.415922
1639.000000	32.362977
1638.000000	32.306418
1637.000000	32.268984
1636.000000	32.235981
1635.000000	32.171375
1634.000000	32.114116
1633.000000	32.070734
1632.000000	32.031551
1631.000000	31.980589
1630.000000	31.931143
1629.000000	31.856391
1628.000000	31.790736
1627.000000	31.709220
1626.000000	31.665488
1625.000000	31.587705
1624.000000	31.519250
1623.000000	31.436335
1622.000000	31.375344
1621.000000	31.318785
1620.000000	31.251380
1619.000000	31.190855
1618.000000	31.123217
1617.000000	31.076454
1616.000000	31.018495
1615.000000	30.947475
1614.000000	30.898845
1613.000000	30.840536
1612.000000	30.758438
1611.000000	30.703744
1610.000000	30.650683
1609.000000	30.602520
1608.000000	30.533599
1607.000000	30.462463
1606.000000	30.380947
1605.000000	30.293484
1604.000000	30.234242
1603.000000	30.155992
1602.000000	30.058500
1601.000000	29.998792
1600.000000	29.927538
1599.000000	29.830163
1598.000000	29.749697
1597.000000	29.674245
1596.000000	29.605091
1595.000000	29.516812
1594.000000	29.456171
1593.000000	29.401943
1592.000000	29.330457
1591.000000	29.235764
1590.000000	29.174773
1589.000000	29.133024
1588.000000	29.060138
1587.000000	29.000080
1586.000000	28.927310
1585.000000	28.862938
1584.000000	28.801830
1583.000000	28.740606
1582.000000	28.661772
1581.000000	28.599382
1580.000000	28.554368
1579.000000	28.515767
1578.000000	28.469004
1577.000000	28.424456
1576.000000	28.383057
1575.000000	28.340491
1574.000000	28.301075
1573.000000	28.254661
1572.000000	28.243349
1571.000000	28.218743
1570.000000	28.197985
1569.000000	28.174545
1568.000000	28.164399
1567.000000	28.159501
1566.000000	28.146557
1565.000000	28.107840
1564.000000	28.082883
1563.000000	28.060026
1562.000000	28.042067
1561.000000	28.024925
1560.000000	27.986791
1559.000000	27.958569
1558.000000	27.929065
1557.000000	27.879036
1556.000000	27.833789
1555.000000	27.776529
1554.000000	27.699795
1553.000000	27.641136
1552.000000	27.585627
1551.000000	27.526152
1550.000000	27.460379
1549.000000	27.382829
1548.000000	27.319039
1547.000000	27.258631
1546.000000	27.181314
1545.000000	27.116358
1544.000000	27.059682
1543.000000	26.998341
1542.000000	26.941782
1541.000000	26.901782
1540.000000	26.868196
1539.000000	26.818983
1538.000000	26.763240
1537.000000	26.712045
1536.000000	26.674961
1535.000000	26.631229
1534.000000	26.558110
1533.000000	26.516361
1532.000000	26.470647
1531.000000	26.405458
1530.000000	26.354030
1529.000000	26.294205
1528.000000	26.232631
1527.000000	26.170474
1526.000000	26.097938
1525.000000	26.020504
1524.000000	25.968959
1523.000000	25.913099
1522.000000	25.833799
1521.000000	25.765461
1520.000000	25.709485
1519.000000	25.639864
1518.000000	25.575142
1517.000000	25.511119
1516.000000	25.433451
1515.000000	25.358350
1514.000000	25.286980
1513.000000	25.224823
1512.000000	25.161616
1511.000000	25.068789
1510.000000	24.984474
1509.000000	24.929081
1508.000000	24.861909
1507.000000	24.777595
1506.000000	24.698761
1505.000000	24.614214
1504.000000	24.536430
1503.000000	24.483719
1502.000000	24.419113
1501.000000	24.340746
1500.000000	24.264012
1499.000000	24.205236
1498.000000	24.154391
1497.000000	24.098181
1496.000000	24.040106
1495.000000	23.980165
1494.000000	23.928853
1493.000000	23.890369
1492.000000	23.857483
1491.000000	23.820515
1490.000000	23.771769
1489.000000	23.721041
1488.000000	23.680924
1487.000000	23.646405
1486.000000	23.615735
1485.000000	23.578767
1484.000000	23.550429
1483.000000	23.520575
1482.000000	23.485823
1481.000000	23.463899
1480.000000	23.460984
1479.000000	23.431946
1478.000000	23.394978
1477.000000	23.382267
1476.000000	23.368040
1475.000000	23.353929
1474.000000	23.357078
1473.000000	23.355328
1472.000000	23.353113
1471.000000	23.345066
1470.000000	23.368273
1469.000000	23.368623
1468.000000	23.356145
1467.000000	23.369672
1466.000000	23.384716
1465.000000	23.374687
1464.000000	23.387631
1463.000000	23.435444
1462.000000	23.455503
1461.000000	23.476960
1460.000000	23.491304
1459.000000	23.551129
1458.000000	23.578884
1457.000000	23.618417
1456.000000	23.658184
1455.000000	23.690603
1454.000000	23.768621
1453.000000	23.828562
1452.000000	23.868445
1451.000000	23.937133
1450.000000	24.006170
1449.000000	24.071243
1448.000000	24.129668
1447.000000	24.179814
1446.000000	24.251300
1445.000000	24.351824
1444.000000	24.426460
1443.000000	24.480104
1442.000000	24.528500
1441.000000	24.613281
1440.000000	24.718470
1439.000000	24.823192
1438.000000	24.914970
1437.000000	25.007215
1436.000000	25.115202
1435.000000	25.209429
1434.000000	25.317883
1433.000000	25.445113
1432.000000	25.569077
1431.000000	25.684296
1430.000000	25.809659
1429.000000	25.936889
1428.000000	26.087209
1427.000000	26.250357
1426.000000	26.406041
1425.000000	26.567323
1424.000000	26.764873
1423.000000	26.960324
1422.000000	27.161372
1421.000000	27.343645
1420.000000	27.541895
1419.000000	27.806967
1418.000000	28.065507
1417.000000	28.314369
1416.000000	28.509353
1415.000000	28.767195
1414.000000	29.074948
1413.000000	29.430282
1412.000000	29.735936
1411.000000	29.976984
1410.000000	30.285554
1409.000000	30.685902
1408.000000	31.061410
1407.000000	31.470387
1406.000000	31.821173
1405.000000	32.221637
1404.000000	32.641576
1403.000000	33.083440
1402.000000	33.449619
1401.000000	33.820579
1400.000000	34.383025
1399.000000	34.981856
1398.000000	35.342437
1397.000000	35.651356
1396.000000	36.039809
1395.000000	36.636541
1394.000000	37.214030
1393.000000	37.597585
1392.000000	38.019974
1391.000000	38.573907
1390.000000	39.045158
1389.000000	39.448887
1388.000000	40.004803
1387.000000	40.627074
1386.000000	41.175875
1385.000000	41.679196
1384.000000	42.182750
1383.000000	42.704031
1382.000000	43.248168
1381.000000	43.768515
1380.000000	44.224372
1379.000000	44.529210
1378.000000	44.810958
1377.000000	45.026467
1376.000000	45.297953
1375.000000	45.526406
1374.000000	45.759175
1373.000000	45.977716
1372.000000	46.196140
1371.000000	46.455381
1370.000000	46.805000
1369.000000	46.998119
1368.000000	47.220625
1367.000000	47.502489
1366.000000	47.708552
1365.000000	47.845344
1364.000000	48.063302
1363.000000	48.198462
1362.000000	48.378636
1361.000000	48.529772
1360.000000	48.759509
1359.000000	48.818167
1358.000000	48.905514
1357.000000	49.032394
1356.000000	49.118924
1355.000000	49.304579
1354.000000	49.517056
1353.000000	49.775597
1352.000000	49.912622
1351.000000	50.207314
1350.000000	50.502473
1349.000000	50.761014
1348.000000	51.039380
1347.000000	51.302819
1346.000000	51.577686
1345.000000	51.807656
1344.000000	52.056051
1343.000000	52.334767
1342.000000	52.569984
1341.000000	52.828992
1340.000000	53.070623
1339.000000	53.331030
1338.000000	53.544906
1337.000000	53.804497
1336.000000	54.039597
1335.000000	54.283561
1334.000000	54.498254
1333.000000	54.719244
1332.000000	54.935219
1331.000000	55.161457
1330.000000	55.369619
1329.000000	55.559356
1328.000000	55.759122
1327.000000	55.925768
1326.000000	56.131598
1325.000000	56.311072
1324.000000	56.506640
1323.000000	56.655677
1322.000000	56.798883
1321.000000	56.969611
1320.000000	57.103371
1319.000000	57.266402
1318.000000	57.417072
1317.000000	57.562261
1316.000000	57.681211
1315.000000	57.796545
1314.000000	57.905466
1313.000000	58.058002
1312.000000	58.171937
1311.000000	58.266980
1310.000000	58.357475
1309.000000	58.471527
1308.000000	58.556308
1307.000000	58.633159
1306.000000	58.706978
1305.000000	58.800272
1304.000000	58.862079
1303.000000	58.913158
1302.000000	58.973216
1301.000000	59.020562
1300.000000	59.077705
1299.000000	59.122719
1298.000000	59.166684
1297.000000	59.208316
1296.000000	59.236421
1295.000000	59.273039
1294.000000	59.278520
1293.000000	59.287500
1292.000000	59.326916
1291.000000	59.351989
1290.000000	59.345925
1289.000000	59.339744
1288.000000	59.353972
1287.000000	59.321435
1286.000000	59.300211
1285.000000	59.293447
1284.000000	59.269890
1283.000000	59.257995
1282.000000	59.225926
1281.000000	59.177296
1280.000000	59.155255
1279.000000	59.131815
1278.000000	59.100212
1277.000000	59.072807
1276.000000	59.041320
1275.000000	59.012982
1274.000000	58.991758
1273.000000	58.976947
1272.000000	58.976131
1271.000000	58.965286
1270.000000	58.955840
1269.000000	58.950009
1268.000000	58.927152
1267.000000	58.901379
1266.000000	58.886219
1265.000000	58.874557
1264.000000	58.851000
1263.000000	58.819514
1262.000000	58.806103
1261.000000	58.781147
1260.000000	58.733450
1259.000000	58.697882
1258.000000	58.665812
1257.000000	58.628728
1256.000000	58.581264
1255.000000	58.526337
1254.000000	58.474443
1253.000000	58.426746
1252.000000	58.378233
1251.000000	58.309895
1250.000000	58.241208
1249.000000	58.180450
1248.000000	58.099984
1247.000000	58.013454
1246.000000	57.950947
1245.000000	57.876312
1244.000000	57.789782
1243.000000	57.695321
1242.000000	57.604826
1241.000000	57.521678
1240.000000	57.445993
1239.000000	57.366927
1238.000000	57.274449
1237.000000	57.193866
1236.000000	57.109085
1235.000000	57.023138
1234.000000	56.936142
1233.000000	56.848562
1232.000000	56.762149
1231.000000	56.662441
1230.000000	56.567048
1229.000000	56.466290
1228.000000	56.349439
1227.000000	56.250431
1226.000000	56.142094
1225.000000	56.022444
1224.000000	55.908275
1223.000000	55.788743
1222.000000	55.658947
1221.000000	55.519823
1220.000000	55.398074
1219.000000	55.279008
1218.000000	55.148280
1217.000000	55.031079
1216.000000	54.899068
1215.000000	54.781284
1214.000000	54.677262
1213.000000	54.555630
1212.000000	54.440178
1211.000000	54.317963
1210.000000	54.187118
1209.000000	54.082979
1208.000000	53.982688
1207.000000	53.872718
1206.000000	53.764497
1205.000000	53.673419
1204.000000	53.577326
1203.000000	53.484731
1202.000000	53.392837
1201.000000	53.312371
1200.000000	53.229106
1199.000000	53.151555
1198.000000	53.071439
1197.000000	52.976046
1196.000000	52.874006
1195.000000	52.752257
1194.000000	52.612200
1193.000000	52.469926
1192.000000	52.300248
1191.000000	52.105613
1190.000000	51.931154
1189.000000	51.753779
1188.000000	51.579435
1187.000000	51.434480
1186.000000	51.317746
1185.000000	51.252673
1184.000000	51.232615
1183.000000	51.289641
1182.000000	51.387716
1181.000000	51.552264
1180.000000	51.741184
1179.000000	51.938267
1178.000000	52.147712
1177.000000	52.335233
1176.000000	52.508293
1175.000000	52.692782
1174.000000	52.841120
1173.000000	53.008932
1172.000000	53.168815
1171.000000	53.312604
1170.000000	53.483449
1169.000000	53.655926
1168.000000	53.822106
1167.000000	53.970093
1166.000000	54.178255
1165.000000	54.368925
1164.000000	54.564493
1163.000000	54.770905
1162.000000	54.961108
1161.000000	55.186880
1160.000000	55.386762
1159.000000	55.590026
1158.000000	55.808218
1157.000000	56.017663
1156.000000	56.211014
1155.000000	56.406349
1154.000000	56.583141
1153.000000	56.734743
1152.000000	56.892877
1151.000000	57.026987
1150.000000	57.141155
1149.000000	57.259639
1148.000000	57.389550
1147.000000	57.521911
1146.000000	57.652173
1145.000000	57.807158
1144.000000	57.987215
1143.000000	58.169371
1142.000000	58.366805
1141.000000	58.562489
1140.000000	58.796773
1139.000000	59.052399
1138.000000	59.307791
1137.000000	59.560851
1136.000000	59.822774
1135.000000	60.118749
1134.000000	60.435482
1133.000000	60.705335
1132.000000	60.893322
1131.000000	61.095537
1130.000000	61.252271
1129.000000	61.426031
1128.000000	61.574485
1127.000000	61.695417
1126.000000	61.776233
1125.000000	61.870810
1124.000000	61.922121
1123.000000	61.951859
1122.000000	61.967719
1121.000000	61.994424
1120.000000	62.000022
1119.000000	61.986261
1118.000000	61.968302
1117.000000	61.964104
1116.000000	61.942063
1115.000000	61.895999
1114.000000	61.875707
1113.000000	61.836174
1112.000000	61.807253
1111.000000	61.740198
1110.000000	61.722122
1109.000000	61.683522
1108.000000	61.640607
1107.000000	61.605505
1106.000000	61.559208
1105.000000	61.529237
1104.000000	61.498916
1103.000000	61.424398
1102.000000	61.396993
1101.000000	61.354311
1100.000000	61.299967
1099.000000	61.261950
1098.000000	61.227431
1097.000000	61.163175
1096.000000	61.123641
1095.000000	61.052038
1094.000000	61.006907
1093.000000	60.953030
1092.000000	60.905217
1091.000000	60.837579
1090.000000	60.773206
1089.000000	60.714781
1088.000000	60.647376
1087.000000	60.582653
1086.000000	60.486210
1085.000000	60.442012
1084.000000	60.369360
1083.000000	60.316182
1082.000000	60.189069
1081.000000	60.141606
1080.000000	60.057875
1079.000000	59.966330
1078.000000	59.896359
1077.000000	59.810646
1076.000000	59.736710
1075.000000	59.654145
1074.000000	59.588606
1073.000000	59.492396
1072.000000	59.388840
1071.000000	59.312922
1070.000000	59.230590
1069.000000	59.144060
1068.000000	59.054615
1067.000000	58.944877
1066.000000	58.867910
1065.000000	58.771234
1064.000000	58.693683
1063.000000	58.613101
1062.000000	58.505813
1061.000000	58.411586
1060.000000	58.292286
1059.000000	58.207622
1058.000000	58.123308
1057.000000	58.011122
1056.000000	57.906049
1055.000000	57.783951
1054.000000	57.721211
1053.000000	57.614039
1052.000000	57.496022
1051.000000	57.383020
1050.000000	57.318764
1049.000000	57.202146
1048.000000	57.101855
1047.000000	57.010310
1046.000000	56.915617
1045.000000	56.826405
1044.000000	56.724714
1043.000000	56.620575
1042.000000	56.532995
1041.000000	56.437019
1040.000000	56.345241
1039.000000	56.238769
1038.000000	56.156321
1037.000000	56.065126
1036.000000	55.966468
1035.000000	55.857547
1034.000000	55.752941
1033.000000	55.652883
1032.000000	55.562271
1031.000000	55.430960
1030.000000	55.332418
1029.000000	55.230728
1028.000000	55.119475
1027.000000	55.028980
1026.000000	54.920642
1025.000000	54.789331
1024.000000	54.673297
1023.000000	54.555047
1022.000000	54.470266
1021.000000	54.376505
1020.000000	54.246360
1019.000000	54.142454
1018.000000	54.049393
1017.000000	53.933475
1016.000000	53.847295
1015.000000	53.752602
1014.000000	53.656043
1013.000000	53.566364
1012.000000	53.466073
1011.000000	53.383508
1010.000000	53.308289
1009.000000	53.223392
1008.000000	53.149690
1007.000000	53.079719
1006.000000	52.987941
1005.000000	52.926717
1004.000000	52.844268
1003.000000	52.776164
1002.000000	52.708292
1001.000000	52.636456
1000.000000	52.578730
999.000000	52.504328
998.000000	52.413250
997.000000	52.348761
996.000000	52.299665
995.000000	52.238091
994.000000	52.155992
993.000000	52.091386
992.000000	52.045789
991.000000	51.983398
990.000000	51.900367
989.000000	51.838443
988.000000	51.794128
987.000000	51.751096
986.000000	51.704099
985.000000	51.652671
984.000000	51.603575
983.000000	51.537103
982.000000	51.500136
981.000000	51.451623
980.000000	51.409524
979.000000	51.366958
978.000000	51.329174
977.000000	51.283927
976.000000	51.250924
975.000000	51.225152
974.000000	51.190516
973.000000	51.150750
972.000000	51.123111
971.000000	51.103403
970.000000	51.062354
969.000000	51.028301
968.000000	50.992733
967.000000	50.963112
966.000000	50.956232
965.000000	50.953666
964.000000	50.933608
963.000000	50.909585
962.000000	50.886028
961.000000	50.859906
960.000000	50.858856
959.000000	50.858156
958.000000	50.832384
957.000000	50.809760
956.000000	50.811976
955.000000	50.821072
954.000000	50.822238
953.000000	50.802996
952.000000	50.808711
951.000000	50.821072
950.000000	50.817107
949.000000	50.830402
948.000000	50.825154
947.000000	50.792734
946.000000	50.795416
945.000000	50.795183
944.000000	50.775358
943.000000	50.763696
942.000000	50.761597
941.000000	50.743521
940.000000	50.693259
939.000000	50.656175
938.000000	50.626787
937.000000	50.594484
936.000000	50.544339
935.000000	50.515185
934.000000	50.499208
933.000000	50.483465
932.000000	50.494893
931.000000	50.465156
930.000000	50.417226
929.000000	50.400550
928.000000	50.350987
927.000000	50.279734
926.000000	50.233437
925.000000	50.205099
924.000000	50.182358
923.000000	50.117286
922.000000	50.055129
921.000000	50.005566
920.000000	49.954371
919.000000	49.895946
918.000000	49.834605
917.000000	49.781544
916.000000	49.721603
915.000000	49.690932
914.000000	49.629475
913.000000	49.543528
912.000000	49.465627
911.000000	49.373266
910.000000	49.318923
909.000000	49.246620
908.000000	49.183413
907.000000	49.122189
906.000000	49.062248
905.000000	48.985630
904.000000	48.922073
903.000000	48.854435
902.000000	48.787963
901.000000	48.670646
900.000000	48.607323
899.000000	48.560793
898.000000	48.494554
897.000000	48.412455
896.000000	48.341085
895.000000	48.262602
894.000000	48.145168
893.000000	48.049075
892.000000	47.948667
891.000000	47.804645
890.000000	47.711817
889.000000	47.586804
888.000000	47.454093
887.000000	47.323598
886.000000	47.173161
885.000000	47.055261
884.000000	46.930131
883.000000	46.804067
882.000000	46.691648
881.000000	46.519171
880.000000	46.381445
879.000000	46.207685
878.000000	46.041272
877.000000	45.916025
876.000000	45.736318
875.000000	45.542150
874.000000	45.329556
873.000000	45.129557
872.000000	44.980170
871.000000	44.883844
870.000000	44.853174
869.000000	44.841395
868.000000	44.831716
867.000000	44.815156
866.000000	44.796381
865.000000	44.777372
864.000000	44.757781
863.000000	44.722445
862.000000	44.679530
861.000000	44.685361
860.000000	44.663554
859.000000	44.643146
858.000000	44.632767
857.000000	43.490500
856.000000	45.266300
855.000000	45.141500
854.000000	45.190300
853.000000	45.243200
852.000000	45.113900
851.000000	44.956200
850.000000	44.955900
849.000000	45.218800
848.000000	45.011500
847.000000	45.134700
846.000000	44.967100
845.000000	44.995100
844.000000	45.131100
843.000000	45.325900
842.000000	45.003200
841.000000	44.775600
840.000000	44.753000
839.000000	44.835900
838.000000	44.878900
837.000000	44.636400
836.000000	44.595800
835.000000	44.681300
834.000000	44.626700
833.000000	44.499400
832.000000	44.401300
831.000000	44.375800
830.000000	44.460100
829.000000	44.444200
828.000000	44.301000
827.000000	44.324200
826.000000	44.141300
825.000000	44.029000
824.000000	43.993100
823.000000	43.933100
822.000000	43.993400
821.000000	43.880400
820.000000	43.748000
819.000000	43.762000
818.000000	43.574700
817.000000	43.439300
816.000000	43.416400
815.000000	43.267900
814.000000	43.316300
813.000000	43.238200
812.000000	43.162900
811.000000	42.924800
810.000000	42.866300
809.000000	42.944400
808.000000	42.734800
807.000000	42.777100
806.000000	42.719100
805.000000	42.567900
804.000000	42.469700
803.000000	42.332200
802.000000	42.364200
801.000000	42.175200
800.000000	42.192600
799.000000	41.958600
798.000000	41.953200
797.000000	41.702100
796.000000	41.585700
795.000000	41.623900
794.000000	41.497800
793.000000	41.475800
792.000000	41.242300
791.000000	41.052300
790.000000	40.979000
789.000000	40.789400
788.000000	40.882300
787.000000	40.619300
786.000000	40.560800
785.000000	40.352200
784.000000	40.257100
783.000000	40.308700
782.000000	40.110800
781.000000	39.962200
780.000000	39.838800
779.000000	39.601600
778.000000	39.537700
777.000000	39.384500
776.000000	39.229200
775.000000	39.000000
774.000000	38.848800
773.000000	38.781400
772.000000	38.658200
771.000000	38.473600
770.000000	38.301000
769.000000	38.129300
768.000000	38.001400
767.000000	37.867100
766.000000	37.797500
765.000000	37.561400
764.000000	37.463300
763.000000	37.257200
762.000000	37.167400
761.000000	36.898900
760.000000	36.857100
759.000000	36.601000
758.000000	36.516200
757.000000	36.306600
756.000000	36.137900
755.000000	35.971300
754.000000	35.638300
753.000000	35.572300
752.000000	35.423400
751.000000	35.207100
750.000000	34.964600
749.000000	34.843600
748.000000	34.640100
747.000000	34.476400
746.000000	34.289800
745.000000	34.097800
744.000000	33.868800
743.000000	33.659900
742.000000	33.425000
741.000000	33.280100
740.000000	33.057800
739.000000	32.854500
738.000000	32.664200
737.000000	32.524400
736.000000	32.246900
735.000000	32.036700
734.000000	31.807900
733.000000	31.648900
732.000000	31.420000
731.000000	31.256900
730.000000	31.033400
729.000000	30.827000
728.000000	30.584800
727.000000	30.351700
726.000000	30.170300
725.000000	29.909700
724.000000	29.749900
723.000000	29.528200
722.000000	29.294400
721.000000	29.116100
720.000000	28.935400
719.000000	28.771000
718.000000	28.525400
717.000000	28.332600
716.000000	28.145500
715.000000	27.923900
714.000000	27.694600
713.000000	27.535500
712.000000	27.316200
711.000000	27.138900
710.000000	26.959300
709.000000	26.728500
708.000000	26.538800
707.000000	26.350300
706.000000	26.141300
705.000000	25.948500
704.000000	25.753400
703.000000	25.539900
702.000000	25.426200
701.000000	25.218800
700.000000	25.015200
699.000000	24.806500
698.000000	24.607400
697.000000	24.425800
696.000000	24.250300
695.000000	24.066900
694.000000	23.902400
693.000000	23.748800
692.000000	23.580600
691.000000	23.400200
690.000000	23.235600
689.000000	23.066600
688.000000	22.884200
687.000000	22.685500
686.000000	22.532100
685.000000	22.385600
684.000000	22.232100
683.000000	22.087500
682.000000	21.930900
681.000000	21.764600
680.000000	21.650500
679.000000	21.520000
678.000000	21.357900
677.000000	21.199800
676.000000	21.097400
675.000000	20.955600
674.000000	20.802800
673.000000	20.664400
672.000000	20.525900
671.000000	20.396900
670.000000	20.261500
669.000000	20.125000
668.000000	20.018200
667.000000	19.902600
666.000000	19.767300
665.000000	19.668900
664.000000	19.566600
663.000000	19.450300
662.000000	19.335600
661.000000	19.239500
660.000000	19.148900
659.000000	19.058300
658.000000	18.961700
657.000000	18.868800
656.000000	18.798900
655.000000	18.720900
654.000000	18.653800
653.000000	18.580000
652.000000	18.510000
651.000000	18.483500
650.000000	18.416700
649.000000	18.344100
648.000000	18.311800
647.000000	18.279800
646.000000	18.240300
645.000000	18.201900
644.000000	18.179100
643.000000	18.143900
642.000000	18.108800
641.000000	18.090000
640.000000	18.077100
639.000000	18.074400
638.000000	18.078300
637.000000	18.064800
636.000000	18.061600
635.000000	18.076500
634.000000	18.090000
633.000000	18.088900
632.000000	18.102100
631.000000	18.133300
630.000000	18.170200
629.000000	18.214800
628.000000	18.258500
627.000000	18.321300
626.000000	18.386400
625.000000	18.429900
624.000000	18.491300
623.000000	18.571400
622.000000	18.681900
621.000000	18.792900
620.000000	18.886400
619.000000	18.968500
618.000000	19.084500
617.000000	19.198800
616.000000	19.295900
615.000000	19.417200
614.000000	19.553400
613.000000	19.700100
612.000000	19.844200
611.000000	19.976700
610.000000	20.114200
609.000000	20.242600
608.000000	20.377500
607.000000	20.528300
606.000000	20.665700
605.000000	20.812400
604.000000	20.956200
603.000000	21.112000
602.000000	21.263300
601.000000	21.395500
600.000000	21.548500
599.000000	21.702200
598.000000	21.802600
597.000000	21.934300
596.000000	22.072800
595.000000	22.213400
594.000000	22.353200
593.000000	22.487400
592.000000	22.624200
591.000000	22.750900
590.000000	22.896200
589.000000	23.040200
588.000000	23.171100
587.000000	23.305400
586.000000	23.433300
585.000000	23.561000
584.000000	23.683200
583.000000	23.821600
582.000000	23.951900
581.000000	24.042700
580.000000	24.158900
579.000000	24.281200
578.000000	24.389500
577.000000	24.495200
576.000000	24.602300
575.000000	24.686100
574.000000	24.785700
573.000000	24.860900
572.000000	24.896900
571.000000	24.971800
570.000000	25.052600
569.000000	25.115200
568.000000	25.171300
567.000000	25.219100
566.000000	25.258900
565.000000	25.279200
564.000000	25.293000
563.000000	25.303600
562.000000	25.302900
561.000000	25.287900
560.000000	25.272600
559.000000	25.285400
558.000000	25.270000
557.000000	25.241700
556.000000	25.197700
555.000000	25.161300
554.000000	25.103200
553.000000	25.053600
552.000000	24.978600
551.000000	24.896600
550.000000	24.808200
549.000000	24.719000
548.000000	24.652800
547.000000	24.553400
546.000000	24.428600
545.000000	24.316000
544.000000	24.178500
543.000000	24.058400
542.000000	23.918600
541.000000	23.761700
540.000000	23.613800
539.000000	23.456000
538.000000	23.274000
537.000000	23.075900
536.000000	22.877200
535.000000	22.663900
534.000000	22.408000
533.000000	22.179200
532.000000	21.927000
531.000000	21.683600
530.000000	21.412700
529.000000	21.138200
528.000000	20.854200
527.000000	20.534300
526.000000	20.230500
525.000000	19.911600
524.000000	19.577800
523.000000	19.255200
522.000000	18.911600
521.000000	18.588000
520.000000	18.245000
519.000000	17.899100
518.000000	17.556700
517.000000	17.213900
516.000000	16.869500
515.000000	16.545700
514.000000	16.196100
513.000000	15.885300
512.000000	15.543500
511.000000	15.254700
510.000000	14.934200
509.000000	14.647800
508.000000	14.345100
507.000000	14.066500
506.000000	13.802800
505.000000	13.544900
504.000000	13.289800
503.000000	13.047000
502.000000	12.807000
501.000000	12.582800
500.000000	12.363100
499.000000	12.109100
498.000000	11.947200
497.000000	11.723200
496.000000	11.570800
495.000000	11.396300
494.000000	11.210200
493.000000	11.050400
492.000000	10.894100
491.000000	10.750200
490.000000	10.602400
489.000000	10.457600
488.000000	10.326700
487.000000	10.219800
486.000000	10.073400
485.000000	9.961300
484.000000	9.833700
483.000000	9.719100
482.000000	9.597700
481.000000	9.471300
480.000000	9.339600
479.000000	9.221700
478.000000	9.094700
477.000000	8.988000
476.000000	8.877600
475.000000	8.771800
474.000000	8.674700
473.000000	8.575500
472.000000	8.470900
471.000000	8.397900
470.000000	8.293400
469.000000	8.206700
468.000000	8.125200
467.000000	8.059400
466.000000	7.988700
465.000000	7.912000
464.000000	7.854900
463.000000	7.770600
462.000000	7.712400
461.000000	7.644100
460.000000	7.599800
459.000000	7.527700
458.000000	7.487000
457.000000	7.435200
456.000000	7.374600
455.000000	7.334100
454.000000	7.244100
453.000000	7.209400
452.000000	7.147400
451.000000	7.103800
450.000000	7.041100
449.000000	7.003200
448.000000	6.943800
447.000000	6.896800
446.000000	6.840900
445.000000	6.800500
444.000000	6.729800
443.000000	6.683500
442.000000	6.624100
441.000000	6.569600
440.000000	6.502700
439.000000	6.462600
438.000000	6.421300
437.000000	6.375300
436.000000	6.330000
435.000000	6.271100
434.000000	6.230800
433.000000	6.173100
432.000000	6.114300
431.000000	6.058800
430.000000	6.020500
429.000000	5.981900
428.000000	5.930900
427.000000	5.893400
426.000000	5.840800
425.000000	5.798900
424.000000	5.768300
423.000000	5.719800
422.000000	5.685200
421.000000	5.652200
420.000000	5.594800
419.000000	5.576800
418.000000	5.536100
417.000000	5.498300
416.000000	5.442600
415.000000	5.416800
414.000000	5.376000
413.000000	5.338900
412.000000	5.298200
411.000000	5.256700
410.000000	5.231200
409.000000	5.183200
408.000000	5.152900
407.000000	5.128900
406.000000	5.076400
405.000000	5.026900
404.000000	4.997800
403.000000	4.962500
402.000000	4.929000
401.000000	4.900200
400.000000	4.871800
399.000000	4.821700
398.000000	4.783900
397.000000	4.746800
396.000000	4.737600
395.000000	4.708000
394.000000	4.642600
393.000000	4.607000
392.000000	4.581200
391.000000	4.556700
390.000000	4.521900
389.000000	4.505000
388.000000	4.471600
387.000000	4.435900
386.000000	4.393800
385.000000	4.391200
384.000000	4.389300
383.000000	4.334300
382.000000	4.329300
381.000000	4.303000
380.000000	4.260000
379.000000	4.249900
378.000000	4.233300
377.000000	4.232300
376.000000	4.190100
375.000000	3.959300
374.000000	3.717800
373.000000	3.728200
372.000000	3.784400
371.000000	3.708600
370.000000	3.700600
369.000000	3.752500
368.000000	3.840500
367.000000	3.921000
366.000000	3.966700
365.000000	3.829500
364.000000	3.863500
363.000000	4.016600
362.000000	3.989200
361.000000	4.011400
360.000000	4.027000
359.000000	3.911400
358.000000	3.893000
357.000000	3.850600
356.000000	3.967300
355.000000	3.945300
354.000000	3.910500
353.000000	3.820000
352.000000	3.772000
351.000000	3.827000
350.000000	3.980100
349.000000	4.062400
348.000000	3.933500
347.000000	3.914800
346.000000	3.923100
345.000000	3.811900
344.000000	3.877000
343.000000	3.917100
342.000000	4.117200
341.000000	4.105600
340.000000	3.915000
339.000000	4.289500
338.000000	4.391900
337.000000	4.138300
336.000000	4.098300
335.000000	4.046200
334.000000	3.957000
333.000000	3.790100
332.000000	4.005000
331.000000	4.250000
330.000000	4.205700
329.000000	4.108300
328.000000	3.911200
327.000000	4.110200
326.000000	4.396900
325.000000	4.276200
324.000000	4.687400
323.000000	4.716800
322.000000	4.785600
321.000000	5.128300
320.000000	5.122900
319.000000	5.192500
318.000000	4.904100
317.000000	4.477000
316.000000	4.162200
315.000000	3.993800
314.000000	4.017300
313.000000	4.019800
312.000000	3.994900
311.000000	4.008600
310.000000	4.027200
309.000000	4.037000
308.000000	3.980300
307.000000	3.960400
306.000000	4.033100
305.000000	4.039800
304.000000	4.055500
303.000000	4.091700
302.000000	4.063600
301.000000	4.042800
300.000000	4.040400
299.000000	4.039700
298.000000	4.033800
297.000000	4.010100
296.000000	4.029300
295.000000	4.054500
294.000000	4.071500
293.000000	4.030900
292.000000	4.038700
291.000000	4.028100
290.000000	4.022000
289.000000	4.021900
288.000000	4.040000
287.000000	4.055600
286.000000	4.081600
285.000000	4.060000
284.000000	4.049600
283.000000	4.051100
282.000000	4.056000
281.000000	4.052300
280.000000	4.056500
279.000000	4.086900
278.000000	4.123000
277.000000	4.101400
276.000000	4.102300
275.000000	4.146200
274.000000	4.125100
273.000000	4.147700
272.000000	4.157500
271.000000	4.169000
270.000000	4.151500
269.000000	4.169500
268.000000	4.181400
267.000000	4.175300
266.000000	4.171900
265.000000	4.191900
264.000000	4.252200
263.000000	4.251000
262.000000	4.292800
261.000000	4.326400
260.000000	4.337400
259.000000	4.350300
258.000000	4.359200
257.000000	4.327500
256.000000	4.333300
255.000000	4.379700
254.000000	4.401300
253.000000	4.404200
252.000000	4.399200
251.000000	4.391100
250.000000	4.385900
