CICIMAUCR0178_M
Integration time [ms]:   8,000
Averaging Nr. [scans]: 10
Smoothing Nr. [pixels]: 0
Data measured with spectrometer [name]: 7314920SP
Wave   ;Sample   ;Dark     ;Reference;Reflectance
[nm]   ;[counts] ;[counts] ;[counts] ;[%]

 199,42;   76,842;   69,124;  212,912; 5,36780
 200,02;   91,347;   97,516;  201,017;-5,96038
 200,62;   71,171;   69,328;  116,337; 3,92134
 201,22;   97,282;   89,808;  191,196; 7,37170
 201,82;   71,747;   78,699;  227,849;-4,66157
 202,42;  109,136;  107,919;  211,990; 1,16906
 203,03;   56,678;   49,933;  144,859; 7,10553
 203,63;   77,131;   68,244;  153,253;10,45488
 204,23;   79,256;   79,167;  197,491; 0,07518
 204,83;   72,908;   74,949;  153,601;-2,59498
 205,43;   54,842;   62,524;  192,612;-5,90501
 206,03;   63,696;   65,952;  137,574;-3,14891
 206,63;   78,011;   73,695;  129,953; 7,67073
 207,24;   91,539;   74,278;  246,960; 9,99633
 207,84;   48,885;   58,255;  132,648;-12,59475
 208,44;   50,982;   55,408;  142,596;-5,07644
 209,04;   58,322;   54,593;  111,779; 6,52197
 209,64;   77,272;   74,340;  200,454; 2,32510
 210,24;   52,708;   59,249;  129,701;-9,28439
 210,84;   58,194;   60,406;  155,122;-2,33506
 211,44;   81,940;   82,595;  190,227;-0,60795
 212,05;   68,922;   77,893;  120,879;-20,86769
 212,65;   77,678;   82,933;  164,459;-6,44581
 213,25;   92,936;   88,219;  192,990; 4,50186
 213,85;   83,969;   87,282;  147,585;-5,49391
 214,45;   62,908;   57,349;  133,901; 7,26178
 215,05;   40,594;   41,406;  140,122;-0,82224
 215,65;   58,405;   58,803;  153,048;-0,42162
 216,25;   50,008;   55,649;  132,501;-7,34012
 216,85;   45,071;   29,911;  142,569;13,45629
 217,45;   53,878;   57,033;  133,359;-4,13360
 218,05;   61,075;   64,486;  160,906;-3,53802
 218,66;   27,259;   32,114;  123,343;-5,32140
 219,26;   43,731;   32,444;  110,553;14,45104
 219,86;   35,133;   33,573;  147,938; 1,36431
 220,46;   55,263;   55,689;  156,280;-0,42320
 221,06;   56,656;   59,567;  179,691;-2,42338
 221,66;   51,091;   48,459;  173,070; 2,11214
 222,26;   34,472;   37,740;  169,554;-2,47904
 222,86;   65,913;   70,125;  156,338;-4,88558
 223,46;   52,008;   49,349;  140,501; 2,91712
 224,06;   69,545;   53,770;  170,464;13,51790
 224,66;   58,898;   63,681;  184,759;-3,95010
 225,26;   51,929;   54,297;  152,501;-2,41202
 225,86;   47,207;   50,732;  174,133;-2,85631
 226,46;   55,924;   56,922;  154,264;-1,02492
 227,06;   29,798;   31,681;  136,259;-1,80028
 227,66;   41,057;   46,384;  122,058;-7,03984
 228,27;   34,563;   40,089;  152,380;-4,92087
 228,87;   91,687;   86,284;  181,333; 5,68440
 229,47;   37,284;   42,137;  179,680;-3,52863
 230,07;   18,229;   10,997;  120,401; 6,60975
 230,67;   51,471;   52,311;  147,769;-0,88033
 231,27;   28,963;   37,789;  150,380;-7,83873
 231,87;   51,471;   45,111;  153,169; 5,88538
 232,47;   59,716;   61,983;  211,507;-1,51597
 233,07;   59,699;   50,698;  111,627;14,77311
 233,67;   67,878;   47,333;  137,259;22,84657
 234,27;   12,896;   19,552;  106,574;-7,64783
 234,87;   46,733;   38,773;  173,938; 5,88930
 235,47;   25,929;   25,997;  134,501;-0,06331
 236,07;   39,115;   33,871;  104,390; 7,43678
 236,67;   48,162;   45,360;  136,795; 3,06410
 237,27;   44,265;   40,218;  177,065; 2,95728
 237,87;   45,998;   42,281;  161,659; 3,11389
 238,47;   17,147;   26,116;  114,617;-10,13445
 239,07;   35,061;   25,643;  171,528; 6,45574
 239,67;   63,767;   51,548;  217,050; 7,38333
 240,27;   50,607;   52,032;  182,133;-1,09509
 240,87;   47,577;   48,316;  206,091;-0,46822
 241,47;   46,318;   50,817;  107,142;-7,98810
 242,07;   30,901;   45,327;  127,711;-17,51109
 242,67;    4,054;    0,121;  128,039; 3,07433
 243,27;   21,808;   18,649;   93,101; 4,24303
 243,87;   54,145;   63,270;  167,664;-8,74125
 244,47;   45,156;   44,467;  161,591; 0,58824
 245,07;   18,994;   18,606;  116,922; 0,39496
 245,67;   30,878;   44,533;  125,259;-16,91526
 246,27;   38,911;   39,595;   96,053;-1,21266
 246,87;   29,113;   22,125;  117,738; 7,30861
 247,46;   16,271;   18,828;   63,537;-5,71839
 248,06;   27,875;   27,886;  124,906;-0,01171
 248,66;   31,672;   38,540;  161,754;-5,57381
 249,26;   36,315;   36,471;  101,190;-0,24050
 249,86;   34,407;   51,532;  172,833;-14,11753
 250,46;   21,228;   23,280;  176,234;-1,34186
 251,06;   27,678;   29,033;  111,359;-1,64591
 251,66;   17,822;   19,476;  139,512;-1,37795
 252,26;   40,738;   36,365;  104,343; 6,43306
 252,86;   41,294;   32,306;  140,922; 8,27527
 253,46;    3,608;    1,549;   78,501; 2,67571
 254,06;   31,604;   44,874;  100,464;-23,87116
 254,66;   34,142;   24,424;  155,112; 7,43622
 255,26;   52,719;   41,629;  185,460; 7,71020
 255,86;   39,118;   46,817;   99,342;-14,65833
 256,46;   24,340;   21,995;  127,027; 2,23325
 257,05;   32,210;   25,678;  125,685; 6,53116
 257,65;   49,933;   42,773;  167,138; 5,75747
 258,25;   44,584;   39,437;  160,880; 4,23788
 258,85;   29,294;   26,106;  127,022; 3,15936
 259,45;    3,771;    9,311;  107,069;-5,66739
 260,05;   44,508;   40,249;  112,801; 5,87031
 260,65;   48,238;   40,365;  108,043;11,63318
 261,25;   29,545;   41,070;  143,564;-11,24489
 261,85;    2,280;   -5,838;  119,043; 6,50026
 262,45;   54,294;   48,806;  144,522; 5,73392
 263,04;   48,130;   45,927;  178,986; 1,65636
 263,64;   48,043;   38,741;  115,980;12,04318
 264,24;   51,668;   43,265;  155,817; 7,46611
 264,84;   72,923;   66,305;  203,697; 4,81731
 265,44;   35,466;   28,435;  102,832; 9,45021
 266,04;   43,280;   54,079;  117,411;-17,05088
 266,64;   54,162;   54,560;  123,795;-0,57532
 267,24;   43,562;   44,260;  105,895;-1,13300
 267,84;   46,136;   32,519;  118,090;15,91265
 268,43;   56,789;   59,330;  133,785;-3,41237
 269,03;   47,359;   45,214;  136,843; 2,34130
 269,63;   65,127;   62,268;  128,816; 4,29566
 270,23;   21,457;   17,984;   65,758; 7,26903
 270,83;   56,438;   56,265;  128,243; 0,24036
 271,43;   32,155;   29,638;  107,206; 3,24404
 272,03;   54,566;   50,535;  136,332; 4,69791
 272,62;   23,105;   19,803;  122,348; 3,22066
 273,22;   19,587;   16,184;  111,433; 3,57271
 273,82;   26,739;   30,483;   40,710;-36,59982
 274,42;   25,229;   25,614;   68,869;-0,89001
 275,02;   31,088;   33,801;   87,500;-5,05276
 275,62;   55,784;   51,537;  170,781; 3,56131
 276,21;   30,552;   39,192;  122,554;-10,36449
 276,81;   54,185;   50,655;  118,848; 5,17695
 277,41;   32,103;   22,156;  132,796; 8,98980
 278,01;   21,788;   19,001;   72,600; 5,19912
 278,61;   59,682;   59,408;  151,996; 0,29592
 279,20;   59,307;   63,732;  183,233;-3,70266
 279,80;    6,144;    2,358;   11,347;42,11449
 280,40;   52,015;   34,171;   90,290;31,79730
 281,00;    6,482;    9,408;   86,096;-3,81551
 281,60;   19,212;   32,007;  150,670;-10,78328
 282,20;   38,340;   38,695;  129,627;-0,38969
 282,79;   34,989;   35,030;   99,785;-0,06281
 283,39;   18,927;   29,168;   73,516;-23,09301
 283,99;   31,199;   27,598;   55,627;12,84776
 284,59;   20,417;    9,100;  105,375;11,75489
 285,19;   23,396;   33,752;   96,274;-16,56256
 285,78;   30,940;   26,295;  122,227; 4,84260
 286,38;   39,511;   46,795;   84,853;-19,14113
 286,98;   37,989;   42,730;  109,785;-7,06983
 287,58;   13,456;    4,767;  110,991; 8,17989
 288,17;   23,019;   23,729;  140,560;-0,60806
 288,77;   29,486;   30,667;  176,065;-0,81208
 289,37;   18,694;   13,206;   99,322; 6,37312
 289,97;   45,799;   50,698;  100,827;-9,77284
 290,57;   62,326;   37,851;  142,149;23,46642
 291,16;   68,866;   72,635;  130,432;-6,52170
 291,76;   15,087;   13,884;  103,733; 1,33888
 292,36;   39,631;   36,344;  103,253; 4,91359
 292,96;    5,596;    1,335;  116,607; 3,69642
 293,55;   31,885;   35,255;  100,448;-5,16871
 294,15;   15,852;   28,492;  119,754;-13,85028
 294,75;   38,711;   42,295;   85,853;-8,22967
 295,35;   20,766;   22,535;   96,932;-2,37824
 295,94;   41,073;   40,557;   96,022; 0,93034
 296,54;   21,424;   31,722;  108,464;-13,41854
 297,14;   39,991;   33,859;  144,270; 5,55378
 297,73;   15,246;    9,887;   70,132; 8,89432
 298,33;   37,404;   40,174;   99,364;-4,67982
 298,93;   22,713;   30,325;  113,638;-9,13663
 299,53;   15,849;   21,246;  138,401;-4,60616
 300,12;   -7,609;    7,459;  114,770;-14,04153
 300,72;   51,743;   68,241;  124,580;-29,28359
 301,32;   38,433;   40,773;  145,238;-2,23970
 301,92;   20,041;   24,312;   62,295;-11,24349
 302,51;   27,520;   14,346;   96,927;15,95209
 303,11;   13,396;   20,952;   93,674;-10,38926
 303,71;   22,447;   30,616;  121,617;-8,97691
 304,30;    9,292;   18,176;   83,737;-13,55123
 304,90;   24,804;   22,074;   85,164; 4,32718
 305,50;   33,457;   35,584;   89,058;-3,97823
 306,09;   31,315;   23,571;   88,790;11,87436
 306,69;   37,168;   37,765;  140,017;-0,58357
 307,29;   31,128;   24,885;   43,884;32,85734
 307,88;   51,117;   48,300;  142,675; 2,98489
 308,48;   16,163;   11,989;  111,680; 4,18725
 309,08;    3,248;    8,834;   44,084;-15,84448
 309,68;   22,746;   26,887;   87,532;-6,82936
 310,27;   16,205;   17,703;  113,848;-1,55738
 310,87;   33,524;   29,822;  103,864; 5,00029
 311,47;   54,308;   52,349;  116,401; 3,05848
 312,06;   43,534;   46,190;   96,406;-5,28914
 312,66;   57,366;   52,235;  146,232; 5,45833
 313,26;   49,122;   45,676;  157,012; 3,09510
 313,85;   35,396;   33,452;  110,474; 2,52480
 314,45;   43,582;   49,208;  130,496;-6,92114
 315,04;   50,034;   63,290;  105,606;-31,32642
 315,64;   38,943;   27,641;  103,480;14,90268
 316,24;   35,263;   38,789;  125,980;-4,04365
 316,83;   36,415;   43,171;  121,990;-8,57109
 317,43;   30,255;   29,738;  114,606; 0,60839
 318,03;   44,695;   52,323;  100,590;-15,80370
 318,62;   75,121;   86,763;  121,994;-33,04744
 319,22;   11,636;   21,719;  124,690;-9,79239
 319,82;   41,866;   44,535;  123,932;-3,36202
 320,41;   59,747;   57,916;  170,917; 1,62034
 321,01;   89,457;   84,785;  169,258; 5,53152
 321,60;   75,329;   79,214;  137,469;-6,66900
 322,20;   59,742;   55,024;  210,912; 3,02670
 322,80;   55,543;   61,241;  161,180;-5,70149
 323,39;   54,976;   51,304;  108,574; 6,41233
 323,99;   69,038;   75,665;  148,943;-9,04373
 324,59;   68,395;   75,523;  121,990;-15,33986
 325,18;   48,820;   54,546;  141,027;-6,62191
 325,78;   72,646;   75,387;  154,332;-3,47287
 326,37;   70,078;   71,333;  171,659;-1,25093
 326,97;   61,843;   66,641;  181,780;-4,16715
 327,57;   43,871;   41,428;  117,237; 3,22308
 328,16;   67,018;   59,717;  137,042; 9,44158
 328,76;   61,173;   66,157;  165,422;-5,02093
 329,35;   63,833;   71,673;  215,438;-5,45313
 329,95;   35,440;   47,995;  188,127;-8,95890
 330,54;   56,608;   53,049;  176,901; 2,87360
 331,14;   35,685;   43,955;  145,248;-8,16407
 331,74;   65,457;   49,084;  157,158;15,14955
 332,33;   45,463;   37,489;  190,880; 5,19868
 332,93;   44,841;   51,512;  148,895;-6,84988
 333,52;   54,627;   52,668;  187,116; 1,45683
 334,12;   71,159;   68,714;  222,743; 1,58757
 334,71;   41,615;   43,171;  179,090;-1,14454
 335,31;   66,696;   68,952;  192,674;-1,82289
 335,90;   27,802;   29,144;  139,379;-1,21796
 336,50;   37,911;   31,295;  156,953; 5,26460
 337,10;   48,205;   56,203;  213,048;-5,09887
 337,69;   56,111;   58,595;  181,353;-2,02402
 338,29;   36,131;   41,044;  190,353;-3,29003
 338,88;   34,313;   26,425;  201,238; 4,51224
 339,48;   70,790;   72,747;  186,852;-1,71504
 340,07;   54,050;   52,063;  212,169; 1,24126
 340,67;   37,233;   40,273;  267,038;-1,34046
 341,26;   60,515;   58,271;  227,390; 1,32708
 341,86;   68,129;   67,997;  282,701; 0,06116
 342,45;   53,017;   54,300;  294,375;-0,53443
 343,05;   49,217;   48,700;  266,775; 0,23706
 343,64;   60,262;   55,660;  261,695; 2,23344
 344,24;   37,511;   43,595;  237,153;-3,14358
 344,83;   74,299;   63,198;  283,827; 5,03155
 345,43;   36,473;   33,657;  279,522; 1,14535
 346,02;   37,271;   42,211;  304,369;-1,88449
 346,62;   48,922;   53,076;  330,912;-1,49514
 347,21;   50,946;   54,787;  311,732;-1,49512
 347,81;   37,526;   43,951;  355,349;-2,06329
 348,40;   43,818;   37,717;  297,542; 2,34800
 349,00;   51,795;   52,723;  328,190;-0,33687
 349,59;   73,387;   76,784;  420,333;-0,98881
 350,19;   38,122;   48,176;  412,212;-2,76182
 350,78;   51,596;   52,652;  383,074;-0,31939
 351,38;   24,071;   22,311;  389,069; 0,47978
 351,97;   34,473;   34,957;  401,122;-0,13218
 352,57;   37,663;   31,789;  439,980; 1,43911
 353,16;   35,676;   36,404;  411,674;-0,19390
 353,76;   56,487;   42,384;  494,333; 3,12048
 354,35;   43,929;   30,497;  490,701; 2,91856
 354,95;   60,952;   50,292;  532,454; 2,21087
 355,54;   50,336;   43,119;  531,090; 1,47891
 356,14;   45,329;   44,397;  535,601; 0,18960
 356,73;   54,090;   46,047;  497,052; 1,78336
 357,32;   25,147;   25,916;  543,817;-0,14849
 357,92;   41,238;   29,248;  620,175; 2,02889
 358,51;   62,149;   53,846;  654,401; 1,38265
 359,11;   48,526;   45,951;  660,349; 0,41910
 359,70;   44,710;   30,078;  655,785; 2,33842
 360,30;   59,244;   56,558;  633,847; 0,46523
 360,89;   33,013;   20,725;  679,238; 1,86602
 361,48;   56,252;   53,792;  746,354; 0,35520
 362,08;   30,355;   26,038;  709,306; 0,63172
 362,67;   38,971;   34,028;  722,537; 0,71798
 363,27;   62,220;   50,946;  777,927; 1,55071
 363,86;   39,457;   24,184;  785,858; 2,00515
 364,46;   53,218;   53,717;  816,942;-0,06542
 365,05;   69,300;   63,815;  839,894; 0,70673
 365,64;   59,881;   52,496;  883,078; 0,88914
 366,24;   57,330;   33,732;  926,136; 2,64440
 366,83;   60,587;   52,089; 1030,183; 0,86881
 367,43;   69,081;   72,101; 1067,428;-0,30343
 368,02;   65,320;   47,769; 1189,245; 1,53765
 368,61;   76,670;   71,021; 1314,370; 0,45436
 369,21;   43,387;   37,616; 1309,751; 0,45366
 369,80;   64,884;   55,375; 1431,649; 0,69097
 370,39;   74,391;   60,796; 1667,838; 0,84596
 370,99;   62,817;   51,442; 1696,093; 0,69163
 371,58;   32,217;   31,647; 1771,243; 0,03275
 372,18;   38,244;   37,705; 1907,216; 0,02880
 372,77;   57,716;   52,340; 1905,576; 0,29007
 373,36;   58,872;   48,898; 1956,423; 0,52291
 373,96;   59,309;   51,724; 1859,937; 0,41948
 374,55;   44,652;   43,949; 1820,723; 0,03953
 375,14;   50,704;   46,343; 1722,950; 0,26012
 375,74;   79,378;   74,185; 1591,878; 0,34213
 376,33;   62,204;   44,338; 1488,500; 1,23715
 376,92;   44,877;   39,463; 1433,460; 0,38838
 377,52;  100,994;   93,543; 1607,390; 0,49221
 378,11;   70,524;   60,159; 1524,532; 0,70784
 378,71;   86,179;   72,082; 1607,944; 0,91785
 379,30;   80,378;   63,665; 1696,477; 1,02358
 379,89;   77,042;   65,044; 1708,013; 0,73024
 380,49;   43,348;   28,849; 1764,635; 0,83531
 381,08;   92,815;   84,991; 1727,991; 0,47618
 381,67;   69,489;   63,350; 1745,186; 0,36500
 382,26;   49,715;   46,191; 1718,491; 0,21071
 382,86;   65,171;   47,448; 1715,838; 1,06226
 383,45;   63,383;   48,558; 1836,281; 0,82932
 384,04;   61,460;   49,263; 1871,629; 0,66931
 384,64;   64,111;   51,628; 1928,071; 0,66528
 385,23;   85,138;   68,886; 1889,243; 0,89281
 385,82;   69,750;   57,095; 1958,887; 0,66545
 386,42;   80,982;   64,923; 2066,646; 0,80223
 387,01;   70,788;   60,033; 2023,818; 0,54766
 387,60;   88,858;   79,634; 2039,544; 0,47067
 388,20;   63,183;   48,158; 2070,681; 0,74293
 388,79;   97,683;   79,840; 2211,914; 0,83685
 389,38;   60,815;   45,191; 2114,591; 0,75498
 389,97;   71,527;   60,100; 2256,534; 0,52025
 390,57;   93,146;   70,519; 2282,250; 1,02303
 391,16;   98,146;   67,819; 2344,350; 1,33214
 391,75;   68,253;   62,141; 2361,739; 0,26578
 392,34;   77,503;   62,689; 2534,314; 0,59938
 392,94;   64,706;   57,435; 2531,866; 0,29384
 393,53;   64,897;   40,684; 2583,592; 0,95217
 394,12;   64,901;   55,742; 2671,462; 0,35012
 394,72;   77,765;   63,238; 2681,066; 0,55490
 395,31;   64,850;   37,495; 2721,087; 1,01936
 395,90;   60,393;   48,221; 2829,972; 0,43759
 396,49;   79,007;   54,447; 2959,684; 0,84536
 397,09;   75,390;   47,362; 2931,503; 0,97178
 397,68;   76,840;   54,610; 3083,778; 0,73387
 398,27;   76,502;   57,372; 3138,847; 0,62083
 398,86;   68,486;   36,699; 3190,583; 1,00788
 399,45;   95,951;   53,590; 3290,237; 1,30878
 400,05;   61,410;   43,410; 3227,204; 0,56536
 400,64;   83,629;   66,930; 3333,119; 0,51128
 401,23;   74,857;   58,900; 3394,109; 0,47845
 401,82;   90,357;   81,200; 3450,009; 0,27182
 402,42;   91,115;   63,386; 3526,141; 0,80077
 403,01;  112,540;   82,610; 3624,378; 0,84506
 403,60;   94,443;   63,468; 3703,948; 0,85086
 404,19;   90,617;   73,615; 3713,925; 0,46703
 404,78;   73,708;   73,264; 3693,351; 0,01225
 405,38;   99,702;   70,354; 3880,579; 0,77022
 405,97;   83,979;   60,077; 3843,494; 0,63176
 406,56;  109,342;   87,139; 3973,463; 0,57130
 407,15;   88,835;   70,417; 3987,473; 0,47018
 407,74;  111,016;   87,198; 4097,358; 0,59393
 408,34;   73,125;   55,849; 4144,632; 0,42251
 408,93;  101,209;   66,976; 4153,269; 0,83774
 409,52;   76,345;   60,697; 4245,132; 0,37396
 410,11;  114,632;   86,171; 4321,721; 0,67196
 410,70;   85,237;   66,763; 4271,226; 0,43938
 411,29;   96,918;   68,244; 4342,310; 0,67089
 411,89;   94,380;   69,889; 4445,711; 0,55969
 412,48;   88,130;   59,242; 4494,437; 0,65134
 413,07;   97,906;   72,530; 4563,316; 0,56507
 413,66;  109,857;   69,295; 4633,159; 0,88877
 414,25;  102,331;   62,054; 4719,854; 0,86473
 414,84;  109,909;   73,276; 4642,269; 0,80176
 415,44;  108,593;   92,604; 4746,905; 0,34353
 416,03;  105,185;   71,765; 4819,648; 0,70389
 416,62;  100,724;   72,432; 4873,064; 0,58934
 417,21;  101,064;   77,516; 4873,048; 0,49103
 417,80;  112,143;   75,351; 4894,480; 0,76345
 418,39;  112,563;   83,199; 4954,581; 0,60279
 418,98;   87,818;   60,327; 4924,443; 0,56517
 419,58;   98,471;   74,038; 4935,637; 0,50257
 420,17;   91,522;   66,603; 4989,979; 0,50614
 420,76;  110,585;   84,165; 5072,948; 0,52959
 421,35;   93,992;   61,586; 5004,337; 0,65561
 421,94;  121,563;   94,499; 5096,880; 0,54102
 422,53;  104,086;   65,494; 5058,333; 0,77296
 423,12;  104,459;   72,024; 5078,744; 0,64783
 423,71;   96,780;   66,689; 5068,211; 0,60164
 424,30;  129,850;   89,573; 5100,569; 0,80377
 424,90;   81,189;   43,340; 5114,485; 0,74636
 425,49;  116,152;   81,202; 5178,854; 0,68560
 426,08;  121,652;   92,902; 5202,554; 0,56265
 426,67;   94,103;   45,784; 5121,564; 0,95197
 427,26;   99,195;   68,045; 5250,607; 0,60107
 427,85;   92,001;   70,837; 5203,512; 0,41233
 428,44;  117,137;   77,458; 5282,875; 0,76226
 429,03;  129,591;   94,369; 5336,070; 0,67195
 429,62;  118,879;   78,572; 5320,344; 0,76896
 430,21;  128,177;   87,626; 5379,691; 0,76626
 430,80;  106,928;   68,390; 5384,834; 0,72487
 431,39;   93,000;   64,020; 5422,044; 0,54086
 431,99;  117,580;   78,389; 5404,911; 0,73577
 432,58;  124,559;   88,924; 5475,443; 0,66156
 433,17;  107,157;   61,295; 5473,958; 0,84732
 433,76;  127,290;   76,252; 5611,203; 0,92210
 434,35;  122,704;   87,396; 5644,881; 0,63533
 434,94;  122,141;   86,117; 5689,945; 0,64285
 435,53;  112,030;   85,037; 5702,586; 0,48052
 436,12;  105,088;   77,723; 5717,418; 0,48523
 436,71;  135,010;  100,188; 5794,986; 0,61146
 437,30;  114,956;   85,677; 5821,891; 0,51042
 437,89;  133,593;   90,098; 5954,555; 0,74166
 438,48;  106,784;   84,647; 5952,581; 0,37724
 439,07;  134,936;   82,929; 5962,491; 0,88453
 439,66;  135,748;   92,139; 6155,134; 0,71927
 440,25;  131,688;   88,523; 6180,618; 0,70855
 440,84;  139,699;   93,003; 6242,677; 0,75932
 441,43;  122,329;   82,602; 6365,051; 0,63234
 442,02;  120,745;   68,192; 6383,382; 0,83217
 442,61;  144,900;   96,420; 6402,044; 0,76883
 443,20;  129,087;   94,106; 6499,250; 0,54615
 443,79;  123,720;   78,469; 6561,544; 0,69800
 444,38;  130,183;   88,030; 6697,713; 0,63774
 444,97;  132,562;   88,182; 6713,613; 0,66985
 445,56;  139,697;   97,374; 6900,792; 0,62209
 446,15;  132,627;   90,373; 6925,066; 0,61822
 446,74;  110,811;   74,118; 6970,271; 0,53209
 447,33;  127,120;   85,569; 7177,945; 0,58587
 447,92;  129,103;   87,779; 7318,514; 0,57152
 448,51;  151,974;  101,279; 7302,839; 0,70394
 449,10;  145,739;  101,288; 7460,160; 0,60405
 449,69;  119,669;   81,787; 7609,035; 0,50326
 450,28;  128,136;   79,941; 7744,508; 0,62881
 450,87;  134,013;   85,947; 7863,655; 0,61800
 451,46;  146,906;   91,425; 8014,566; 0,70024
 452,05;  136,599;   84,103; 8123,077; 0,65302
 452,64;  132,757;   76,190; 8257,108; 0,69146
 453,23;  171,785;  117,160; 8452,598; 0,65534
 453,82;  137,692;   84,981; 8555,787; 0,62226
 454,40;  124,857;   65,490; 8714,309; 0,68642
 454,99;  170,212;  105,030; 8923,988; 0,73912
 455,58;  119,467;   77,058; 9016,950; 0,47438
 456,17;  136,643;   70,246; 9261,930; 0,72236
 456,76;  126,203;   71,479; 9410,114; 0,58600
 457,35;  150,583;   89,230; 9515,113; 0,65089
 457,94;  130,559;   70,219; 9743,293; 0,62379
 458,53;  135,480;   67,984; 9887,661; 0,68736
 459,12;  166,049;   91,751;10171,451; 0,73711
 459,71;  124,460;   64,036;10274,061; 0,59181
 460,30;  157,048;   84,539;10423,935; 0,70129
 460,89;  137,003;   71,479;10599,313; 0,62240
 461,48;  139,159;   81,219;10776,394; 0,54174
 462,06;  152,922;   83,598;10916,430; 0,63995
 462,65;  120,929;   46,919;11103,619; 0,66937
 463,24;  158,345;   79,275;11350,114; 0,70154
 463,83;  123,722;   60,398;11498,529; 0,55363
 464,42;  156,941;   85,317;11657,945; 0,61891
 465,01;  151,957;   87,290;11862,509; 0,54918
 465,60;  139,745;   73,592;12020,182; 0,55374
 466,19;  151,959;   84,019;12227,993; 0,55946
 466,77;  157,927;   78,373;12394,166; 0,64595
 467,36;  146,737;   67,653;12490,426; 0,63661
 467,95;  158,638;   79,570;12596,793; 0,63167
 468,54;  154,105;   83,208;12840,198; 0,55575
 469,13;  164,173;   78,262;12922,172; 0,66888
 469,72;  139,075;   63,791;13155,057; 0,57507
 470,31;  167,898;   84,786;13289,810; 0,62940
 470,90;  157,211;   85,300;13438,703; 0,53852
 471,48;  118,561;   41,648;13679,478; 0,56397
 472,07;  206,878;  115,055;13836,477; 0,66920
 472,66;  167,478;   82,738;14008,309; 0,60852
 473,25;  159,927;   74,173;14079,467; 0,61229
 473,84;  161,540;   77,000;14304,478; 0,59421
 474,43;  138,012;   63,613;14592,221; 0,51209
 475,01;  161,717;   77,105;14597,425; 0,58271
 475,60;  145,563;   52,594;14820,130; 0,62955
 476,19;  176,330;   91,032;15001,136; 0,57209
 476,78;  164,637;   76,553;15242,125; 0,58082
 477,37;  143,463;   62,594;15246,130; 0,53261
 477,95;  180,821;   82,681;15389,262; 0,64117
 478,54;  165,912;   77,430;15582,488; 0,57067
 479,13;  169,112;   67,430;15669,188; 0,65174
 479,72;  187,082;   91,113;15805,546; 0,61070
 480,31;  175,035;   76,707;15975,573; 0,61846
 480,89;  146,917;   62,705;16059,024; 0,52644
 481,48;  152,216;   52,588;16219,657; 0,61624
 482,07;  138,505;   54,108;16308,898; 0,51922
 482,66;  156,624;   48,927;16383,015; 0,65934
 483,25;  174,816;   83,288;16630,057; 0,55315
 483,83;  172,429;   63,202;16703,451; 0,65640
 484,42;  161,859;   60,119;16806,393; 0,60754
 485,01;  171,207;   70,837;16977,482; 0,59367
 485,60;  163,229;   76,114;17039,768; 0,51354
 486,18;  173,421;   64,381;17116,361; 0,63946
 486,77;  190,785;   86,760;17139,299; 0,61003
 487,36;  178,641;   64,012;17352,295; 0,66305
 487,95;  190,274;   59,474;17409,289; 0,75390
 488,53;  183,363;   75,477;17539,963; 0,61774
 489,12;  164,583;   56,625;17605,164; 0,61519
 489,71;  140,567;   30,953;17645,000; 0,62231
 490,30;  180,039;   71,683;17741,910; 0,61322
 490,88;  200,286;   92,672;17887,416; 0,60475
 491,47;  175,395;   64,623;17893,189; 0,62132
 492,06;  168,137;   61,236;17920,559; 0,59857
 492,65;  179,809;   73,466;17965,068; 0,59437
 493,23;  171,904;   61,491;18055,730; 0,61361
 493,82;  180,201;   81,132;18124,662; 0,54905
 494,41;  160,432;   54,061;18115,820; 0,58893
 494,99;  181,540;   79,100;18195,479; 0,56546
 495,58;  192,539;   86,883;18196,910; 0,58342
 496,17;  187,145;   64,075;18207,414; 0,67832
 496,76;  192,621;   76,081;18266,463; 0,64067
 497,34;  183,072;   59,145;18340,604; 0,67788
 497,93;  189,261;   58,248;18376,379; 0,71521
 498,52;  193,458;   78,402;18390,025; 0,62832
 499,10;  185,879;   80,950;18436,826; 0,57164
 499,69;  182,181;   65,096;18438,979; 0,63724
 500,28;  160,835;   49,807;18460,174; 0,60307
 500,86;  184,644;   69,258;18459,047; 0,62744
 501,45;  183,244;   55,558;18434,447; 0,69474
 502,04;  172,467;   64,653;18547,600; 0,58332
 502,62;  189,145;   84,875;18603,514; 0,56305
 503,21;  189,468;   62,370;18554,467; 0,68731
 503,80;  188,190;   68,447;18810,752; 0,63889
 504,38;  173,804;   56,591;18774,932; 0,62620
 504,97;  186,790;   51,647;18819,252; 0,72009
 505,56;  194,700;   65,115;18835,395; 0,69037
 506,14;  202,453;   77,809;18917,422; 0,66160
 506,73;  146,611;   39,495;18841,553; 0,56970
 507,32;  194,557;   68,584;18928,357; 0,66794
 507,90;  208,616;   79,788;18947,057; 0,68281
 508,49;  176,822;   56,893;18952,180; 0,63471
 509,08;  203,018;   68,117;19047,643; 0,71077
 509,66;  198,328;   72,885;19103,883; 0,65915
 510,25;  191,597;   63,469;19226,143; 0,66864
 510,83;  180,511;   56,595;19281,453; 0,64456
 511,42;  195,524;   69,122;19226,863; 0,65980
 512,01;  181,676;   53,304;19400,574; 0,66352
 512,59;  170,190;   55,547;19512,553; 0,58921
 513,18;  187,032;   58,661;19397,521; 0,66380
 513,77;  175,426;   53,456;19431,299; 0,62943
 514,35;  174,025;   53,139;19622,031; 0,61775
 514,94;  193,279;   72,350;19687,326; 0,61651
 515,52;  173,015;   46,271;19662,590; 0,64612
 516,11;  219,999;   78,298;19882,627; 0,71551
 516,69;  177,946;   52,504;19688,600; 0,63883
 517,28;  215,619;   85,734;19688,811; 0,66257
 517,87;  175,096;   59,940;19713,758; 0,58592
 518,45;  203,342;   79,329;19768,162; 0,62987
 519,04;  184,677;   54,421;19868,842; 0,65738
 519,62;  184,737;   54,136;19872,158; 0,65900
 520,21;  175,527;   35,768;19909,316; 0,70324
 520,79;  195,478;   54,433;20074,359; 0,70452
 521,38;  194,551;   56,080;20088,336; 0,69124
 521,97;  193,213;   61,825;20362,438; 0,64721
 522,55;  207,488;   68,018;20268,967; 0,69042
 523,14;  185,900;   41,615;20435,494; 0,70749
 523,72;  215,962;   72,577;20645,963; 0,69695
 524,31;  201,611;   80,995;20602,152; 0,58776
 524,89;  203,766;   52,835;20792,332; 0,72775
 525,48;  188,562;   38,060;20930,895; 0,72035
 526,06;  221,576;   61,004;20986,475; 0,76735
 526,65;  229,798;   70,081;21225,059; 0,75499
 527,23;  204,313;   60,842;21099,305; 0,68195
 527,82;  207,720;   51,846;21394,326; 0,73034
 528,41;  229,850;   70,963;21467,369; 0,74259
 528,99;  224,322;   76,793;21623,979; 0,68468
 529,58;  203,602;   54,944;21678,078; 0,68749
 530,16;  209,332;   52,161;21849,721; 0,72105
 530,75;  244,564;   91,906;22135,348; 0,69253
 531,33;  211,362;   46,160;22062,895; 0,75035
 531,92;  211,928;   55,185;22305,984; 0,70443
 532,50;  262,552;   95,992;22653,354; 0,73838
 533,09;  245,669;   75,582;22696,484; 0,75190
 533,67;  243,965;   78,923;22811,215; 0,72602
 534,26;  248,893;   69,593;23054,404; 0,78008
 534,84;  232,109;   71,366;23213,969; 0,69457
 535,42;  236,664;   55,806;23406,248; 0,77454
 536,01;  269,237;   85,136;23645,059; 0,78141
 536,59;  225,627;   39,368;23888,217; 0,78100
 537,18;  270,681;   88,196;24159,578; 0,75810
 537,76;  256,014;   74,254;24458,422; 0,74540
 538,35;  252,301;   70,127;24575,412; 0,74341
 538,93;  278,476;   81,404;24764,273; 0,79842
 539,52;  263,198;   64,781;24960,459; 0,79699
 540,10;  279,005;   70,803;25277,049; 0,82600
 540,69;  286,106;   79,720;25578,816; 0,80939
 541,27;  284,879;   74,050;25731,926; 0,82169
 541,85;  271,204;   61,374;26132,963; 0,80482
 542,44;  280,416;   53,688;26216,357; 0,86661
 543,02;  330,205;   89,603;26640,949; 0,90618
 543,61;  326,008;   90,849;26820,500; 0,87977
 544,19;  313,392;   63,676;26889,137; 0,93089
 544,78;  307,338;   69,165;27105,543; 0,88094
 545,36;  344,182;  102,308;27548,295; 0,88127
 545,94;  310,464;   69,206;27636,047; 0,87517
 546,53;  326,691;   78,959;27848,270; 0,89211
 547,11;  364,836;  100,319;28165,689; 0,94250
 547,70;  354,481;   70,196;28238,479; 1,00924
 548,28;  329,922;   48,793;28532,080; 0,98700
 548,86;  365,022;   89,193;28783,080; 0,96128
 549,45;  320,113;   42,825;28966,537; 0,95869
 550,03;  349,931;   81,444;29260,053; 0,92015
 550,62;  350,015;   68,671;29762,590; 0,94748
 551,20;  356,808;   76,749;30011,801; 0,93556
 551,78;  358,241;   67,712;29974,994; 0,97143
 552,37;  345,364;   49,706;30399,547; 0,97417
 552,95;  360,299;   71,098;30509,926; 0,95011
 553,54;  339,811;   57,095;30897,453; 0,91671
 554,12;  366,743;   84,641;31044,379; 0,91119
 554,70;  359,936;   68,419;31504,891; 0,92732
 555,29;  366,546;   62,687;31736,232; 0,95934
 555,87;  359,675;   60,586;31982,207; 0,93695
 556,45;  372,567;   67,753;32206,900; 0,94842
 557,04;  365,185;   57,255;32612,447; 0,94587
 557,62;  371,285;   75,455;32861,547; 0,90230
 558,20;  362,903;   42,756;33276,695; 0,96331
 558,79;  422,978;  106,633;33556,160; 0,94574
 559,37;  369,408;   57,649;33863,102; 0,92222
 559,95;  384,559;   54,914;34136,043; 0,96724
 560,54;  394,624;   72,222;34305,766; 0,94177
 561,12;  416,838;   59,665;34682,145; 1,03162
 561,70;  412,371;   46,911;34991,668; 1,04582
 562,29;  429,301;   80,127;35404,613; 0,98847
 562,87;  442,813;   77,425;35710,539; 1,02542
 563,45;  458,313;   78,425;36018,738; 1,05700
 564,04;  443,113;   59,142;36042,004; 1,06710
 564,62;  457,247;   47,716;36491,316; 1,12374
 565,20;  475,944;   66,858;36805,246; 1,11351
 565,78;  512,034;   68,890;37188,805; 1,19382
 566,37;  528,704;   71,774;37480,063; 1,22147
 566,95;  544,005;   51,503;37583,648; 1,31222
 567,53;  577,367;   74,253;38052,199; 1,32475
 568,12;  571,022;   59,193;38062,680; 1,34680
 568,70;  614,588;   87,801;38674,398; 1,36521
 569,28;  628,271;   66,111;38869,070; 1,44875
 569,86;  634,596;   68,352;39075,074; 1,45166
 570,45;  663,217;   78,500;39478,477; 1,48405
 571,03;  681,755;   59,855;39592,273; 1,57314
 571,61;  686,122;   73,276;40053,410; 1,53288
 572,19;  708,848;   64,434;40072,484; 1,61071
 572,78;  734,678;   67,633;40432,859; 1,65252
 573,36;  771,464;   97,006;40710,348; 1,66068
 573,94;  751,741;   60,012;40918,395; 1,69299
 574,52;  791,035;   71,507;41099,672; 1,75374
 575,11;  772,318;   37,317;41357,844; 1,77878
 575,69;  798,262;   53,360;41544,496; 1,79533
 576,27;  807,774;   59,374;41726,988; 1,79612
 576,85;  825,964;   41,506;42173,148; 1,86192
 577,44;  836,467;   44,753;42382,301; 1,87001
 578,02;  853,858;   28,402;42406,926; 1,94782
 578,60;  879,130;   61,614;42851,668; 1,91053
 579,18;  870,883;   49,025;43107,563; 1,90870
 579,76;  894,276;   34,004;43175,176; 1,99409
 580,35;  923,940;   68,795;43417,727; 1,97270
 580,93;  930,555;   57,138;43808,508; 1,99632
 581,51;  914,352;   41,292;44046,855; 1,98398
 582,09;  918,025;   64,239;44214,832; 1,93380
 582,67;  939,108;   54,349;44465,402; 1,99220
 583,26;  929,024;   36,522;44784,965; 1,99449
 583,84;  936,153;   32,609;45104,422; 2,00468
 584,42;  957,688;   61,001;45460,102; 1,97512
 585,00;  999,862;   91,760;45715,797; 1,99040
 585,58;  950,685;   39,255;45961,547; 1,98472
 586,17;  964,862;   62,477;45973,762; 1,96550
 586,75;  926,427;   11,568;46134,516; 1,98352
 587,33;  970,620;   45,046;46571,527; 1,98935
 587,91;  990,127;   82,468;46748,816; 1,94500
 588,49;  996,767;   78,053;46766,602; 1,96775
 589,07;  939,166;   48,635;46805,531; 1,90460
 589,65;  949,473;   40,957;46709,723; 1,94673
 590,24;  946,655;   48,755;46929,875; 1,91527
 590,82;  935,809;   38,666;47030,867; 1,90913
 591,40;  926,653;   45,309;47090,820; 1,87339
 591,98;  925,946;   57,604;46914,301; 1,85319
 592,56;  928,209;   59,566;47130,367; 1,84540
 593,14;  895,146;   52,004;47190,000; 1,78867
 593,72;  893,411;   45,195;47402,055; 1,79111
 594,30;  879,258;   49,302;47338,324; 1,75507
 594,89;  872,976;   48,504;47193,375; 1,74881
 595,47;  844,763;   34,677;47507,563; 1,70642
 596,05;  830,085;   26,755;47496,148; 1,69231
 596,63;  841,485;   39,555;47656,648; 1,68412
 597,21;  838,215;   36,371;47898,391; 1,67532
 597,79;  818,473;   44,357;47797,922; 1,62106
 598,37;  820,429;   46,797;47735,902; 1,62224
 598,95;  802,327;   60,568;47945,016; 1,54906
 599,53;  776,026;   41,756;47673,598; 1,54155
 600,11;  787,599;   56,998;48051,426; 1,52226
 600,70;  784,395;   56,123;47864,090; 1,52333
 601,28;  745,353;   44,809;48052,723; 1,45923
 601,86;  759,127;   59,768;47991,918; 1,45906
 602,44;  721,709;   25,766;48088,270; 1,44800
 603,02;  709,233;   40,278;48089,488; 1,39223
 603,60;  732,130;   70,032;48463,637; 1,36815
 604,18;  732,960;   63,931;48321,609; 1,38637
 604,76;  698,825;   52,839;48313,832; 1,33853
 605,34;  660,780;   39,079;48122,813; 1,29296
 605,92;  682,921;   62,863;47909,996; 1,29591
 606,50;  617,055;   19,555;47963,875; 1,24624
 607,08;  635,862;   44,460;47738,996; 1,23998
 607,66;  614,615;   61,171;47912,391; 1,15659
 608,24;  634,596;   50,152;47913,875; 1,22106
 608,82;  594,618;   33,417;47994,344; 1,17012
 609,40;  618,550;   58,063;47801,270; 1,17396
 609,98;  582,476;   38,604;47812,473; 1,13843
 610,56;  583,951;   55,680;47786,738; 1,10677
 611,14;  560,046;   55,687;47626,133; 1,06023
 611,72;  563,622;   61,793;47800,578; 1,05120
 612,30;  546,513;   42,242;47687,906; 1,05838
 612,88;  565,988;   69,218;47868,668; 1,03928
 613,46;  515,755;   24,355;47567,574; 1,03359
 614,04;  511,136;   44,319;47735,391; 0,97883
 614,62;  507,974;   56,074;47474,188; 0,95301
 615,20;  507,466;   53,335;47490,133; 0,95734
 615,78;  482,705;   34,003;47445,250; 0,94641
 616,36;  473,541;   33,512;47368,293; 0,92961
 616,94;  460,515;   13,571;47345,391; 0,94428
 617,52;  455,955;   20,638;47151,305; 0,92364
 618,10;  499,423;   73,110;47277,746; 0,90312
 618,68;  449,704;   32,074;47203,863; 0,88534
 619,26;  461,289;   42,230;47278,984; 0,88715
 619,84;  447,160;   39,031;46848,809; 0,87189
 620,42;  449,211;   46,995;46977,055; 0,85705
 621,00;  442,011;   29,095;46918,152; 0,88062
 621,58;  435,481;   40,796;46835,078; 0,84345
 622,16;  467,910;   52,978;46764,285; 0,88829
 622,74;  447,515;   44,971;47010,891; 0,85710
 623,32;  420,592;   36,376;46796,137; 0,82168
 623,90;  448,833;   69,073;46749,637; 0,81353
 624,48;  413,755;   43,455;46528,375; 0,79660
 625,05;  415,255;   26,455;46671,973; 0,83352
 625,63;  424,555;   50,655;46568,375; 0,80378
 626,21;  405,313;   36,342;46637,707; 0,79176
 626,79;  439,408;   61,549;46653,902; 0,81099
 627,37;  390,079;   44,150;46569,926; 0,74352
 627,95;  431,566;   78,235;46474,934; 0,76154
 628,53;  402,011;   43,895;46391,652; 0,77267
 629,11;  405,712;   45,613;46209,320; 0,78005
 629,69;  412,447;   52,716;46415,516; 0,77590
 630,27;  439,360;   79,831;46333,211; 0,77730
 630,84;  398,155;   44,355;46174,574; 0,76696
 631,42;  406,555;   59,238;46441,008; 0,74882
 632,00;  388,135;   47,107;46328,672; 0,73685
 632,58;  408,406;   62,620;46192,816; 0,74959
 633,16;  391,998;   57,181;46244,859; 0,72491
 633,74;  398,688;   69,401;46156,301; 0,71449
 634,32;  384,586;   42,172;46079,516; 0,74377
 634,90;  403,987;   70,784;46435,531; 0,71866
 635,47;  370,728;   42,385;46012,984; 0,71424
 636,05;  378,186;   45,572;45855,316; 0,72608
 636,63;  404,011;   59,695;46075,453; 0,74826
 637,21;  401,276;   49,204;46146,773; 0,76375
 637,79;  405,769;   69,182;46261,484; 0,72866
 638,37;  375,187;   55,589;45920,184; 0,69683
 638,94;  370,846;   42,087;45894,230; 0,71700
 639,52;  377,646;   49,987;46062,531; 0,71211
 640,10;  392,942;   61,312;46201,988; 0,71874
 640,68;  376,644;   54,011;46143,938; 0,70001
 641,26;  368,047;   29,510;46023,387; 0,73605
 641,84;  375,149;   58,610;46039,234; 0,68842
 642,41;  365,651;   29,109;46052,684; 0,73124
 642,99;  384,354;   55,709;46103,629; 0,71370
 643,57;  358,256;   30,008;46112,680; 0,71230
 644,15;  358,858;   26,308;46156,527; 0,72090
 644,73;  370,361;   44,607;46289,676; 0,70441
 645,30;  397,363;   79,507;46210,223; 0,68903
 645,88;  378,065;   66,206;46235,473; 0,67547
 646,46;  393,368;   62,005;46367,621; 0,71560
 647,04;  371,870;   52,105;46320,270; 0,69111
 647,61;  383,073;   44,804;46301,816; 0,73128
 648,19;  404,475;   69,504;46384,266; 0,72325
 648,77;  363,077;   29,603;46427,012; 0,71873
 649,35;  400,180;   54,803;46487,262; 0,74383
 649,92;  376,482;   50,502;46409,508; 0,70316
 650,50;  365,884;   31,102;46441,855; 0,72135
 651,08;  379,487;   52,101;46384,605; 0,70660
 651,66;  374,589;   29,100;46667,754; 0,74078
 652,23;  388,391;   41,600;46518,000; 0,74617
 652,81;  380,294;   39,699;46704,750; 0,72987
 653,39;  399,196;   80,299;46763,996; 0,68310
 653,97;  372,198;   24,898;46865,746; 0,74145
 654,54;  363,101;   26,698;46614,395; 0,72209
 655,12;  370,903;   35,897;46912,141; 0,71466
 655,70;  383,405;   51,597;47117,492; 0,70499
 656,28;  385,608;   39,996;47191,539; 0,73298
 656,85;  388,310;   47,396;47130,387; 0,72407
 657,43;  354,512;   16,295;47018,234; 0,71958
 658,01;  369,215;   21,494;47262,984; 0,73605
 658,58;  419,517;   65,494;47656,633; 0,74388
 659,16;  396,720;   59,593;47278,879; 0,71396
 659,74;  409,022;   68,593;47494,027; 0,71782
 660,32;  424,524;   74,792;47569,176; 0,73636
 660,89;  362,227;   43,092;47511,125; 0,67232
 661,47;  407,729;   58,091;47867,473; 0,73132
 662,05;  378,631;   46,191;47948,621; 0,69400
 662,62;  414,734;   64,390;48243,270; 0,72717
 663,20;  445,336;   87,089;48433,516; 0,74100
 663,78;  399,838;   61,489;48846,266; 0,69356
 664,35;  410,441;   54,988;48955,414; 0,72689
 664,93;  421,243;   68,088;48995,359; 0,72180
 665,51;  399,145;   51,587;48983,609; 0,71029
 666,08;  396,148;   44,587;49290,957; 0,71388
 666,66;  412,950;   46,686;49966,707; 0,73370
 667,23;  428,752;   59,186;49907,453; 0,74138
 667,81;  426,655;   65,185;50605,402; 0,71521
 668,39;  413,957;   51,285;50611,852; 0,71730
 668,96;  432,059;   62,684;50956,699; 0,72577
 669,54;  406,162;   38,083;51466,645; 0,71571
 670,12;  437,664;   53,483;51883,996; 0,74123
 670,69;  451,367;   69,682;52389,543; 0,72952
 671,27;  411,969;   34,282;52652,191; 0,71779
 671,84;  443,371;   49,681;52463,039; 0,75113
 672,42;  472,774;   84,481;52984,488; 0,73401
 673,00;  442,976;   62,280;53245,234; 0,71582
 673,57;  447,878;   69,680;52998,383; 0,71454
 674,15;  465,281;   68,479;53364,434; 0,74452
 674,72;  448,083;   57,978;53046,281; 0,73621
 675,30;  456,685;   81,878;53068,227; 0,70737
 675,88;  436,588;   59,777;53131,375; 0,71000
 676,45;  454,590;   66,277;53408,426; 0,72797
 677,03;  462,092;   73,976;53198,973; 0,73057
 677,60;  430,095;   33,776;53411,922; 0,74247
 678,18;  448,297;   53,275;53629,270; 0,73731
 678,76;  423,699;   39,975;53442,918; 0,71855
 679,33;  439,902;   65,974;53470,566; 0,70018
 679,91;  436,004;   45,573;53507,914; 0,73029
 680,48;  430,306;   41,173;53547,363; 0,72727
 681,06;  447,809;   59,372;53492,711; 0,72696
 681,63;  426,911;   37,072;53339,258; 0,73138
 682,21;  464,913;   63,671;53256,508; 0,75432
 682,78;  407,116;   21,171;52780,656; 0,73152
 683,36;  430,918;   52,370;53056,602; 0,71418
 683,93;  436,021;   42,570;52885,551; 0,74457
 684,51;  423,323;   43,969;52822,297; 0,71877
 685,08;  443,225;   48,169;53078,445; 0,74496
 685,66;  448,628;   58,168;53179,797; 0,73503
 686,24;  445,530;   52,967;53178,742; 0,73893
 686,81;  468,132;   60,367;53275,191; 0,76626
 687,39;  426,735;   49,866;53298,738; 0,70775
 687,96;  456,437;   56,166;53404,387; 0,75030
 688,54;  425,939;   35,465;53481,938; 0,73059
 689,11;  425,142;   27,465;53681,984; 0,74118
 689,69;  429,444;   31,064;53730,031; 0,74188
 690,26;  461,746;   73,564;54071,480; 0,71888
 690,84;  457,949;   55,563;53842,828; 0,74811
 691,41;  450,251;   43,962;54165,375; 0,75070
 691,98;  438,453;   37,562;54195,523; 0,74023
 692,56;  442,156;   41,261;54274,172; 0,73921
 693,13;  492,458;   58,961;54603,621; 0,79476
 693,71;  459,560;   43,360;54667,969; 0,76193
 694,28;  436,163;   39,860;54832,617; 0,72328
 694,86;  455,865;   50,659;55173,266; 0,73510
 695,43;  493,768;   61,159;55058,313; 0,78660
 696,01;  458,270;   48,858;55477,363; 0,73863
 696,58;  472,972;   49,858;55361,910; 0,76496
 697,16;  464,075;   42,557;55431,758; 0,76101
 697,73;  510,177;   76,356;55810,008; 0,77838
 698,30;  475,879;   55,156;55690,656; 0,75621
 698,88;  476,482;   34,555;55941,102; 0,79047
 699,45;  473,584;   40,755;56208,852; 0,77060
 700,03;  486,786;   59,254;56380,699; 0,75909
 700,60;  497,189;   66,154;56539,246; 0,76326
 701,18;  483,491;   56,053;56680,996; 0,75486
 701,75;  534,293;   75,953;57150,145; 0,80306
 702,32;  484,496;   51,852;56796,793; 0,76244
 702,90;  496,698;   53,051;57066,941; 0,77814
 703,47;  488,700;   51,051;57460,688; 0,76233
 704,05;  504,903;   74,050;57541,035; 0,74974
 704,62;  508,805;   40,550;57539,184; 0,81438
 705,19;  490,707;   43,849;57563,734; 0,77688
 705,77;  472,710;   39,749;57818,680; 0,74934
 706,34;  517,212;   74,148;57908,730; 0,76609
 706,91;  505,914;   54,948;57997,379; 0,77830
 707,49;  515,917;   64,047;58274,027; 0,77628
 708,06;  528,919;   83,146;58384,973; 0,76459
 708,64;  490,222;   35,346;58413,621; 0,77919
 709,21;  542,824;   65,945;58609,969; 0,81456
 709,78;  516,426;   61,545;58767,219; 0,77485
 710,36;  526,429;   69,044;59027,266; 0,77578
 710,93;  531,231;   65,444;59277,016; 0,78665
 711,50;  512,733;   53,143;59302,664; 0,77569
 712,08;  554,136;   60,943;59889,211; 0,82435
 712,65;  541,438;   64,042;59580,059; 0,80213
 713,22;  566,840;   81,542;59653,605; 0,81464
 713,80;  553,043;   81,041;59879,855; 0,78932
 714,37;  525,845;   57,440;59519,605; 0,78774
 714,94;  549,847;   66,040;59479,551; 0,81431
 715,52;  531,950;   62,339;59611,398; 0,78861
 716,09;  526,352;   48,839;59741,449; 0,79995
 716,66;  548,954;   76,138;59670,395; 0,79339
 717,23;  540,457;   76,238;59753,844; 0,77788
 717,81;  542,359;   59,937;59513,094; 0,81143
 718,38;  523,961;   56,437;59206,742; 0,79040
 718,95;  536,564;   77,336;59080,891; 0,77831
 719,53;  543,966;   58,635;59153,836; 0,82127
 720,10;  543,169;   67,635;59244,586; 0,80358
 720,67;  523,471;   39,134;58810,133; 0,82411
 721,24;  541,473;   69,934;58290,582; 0,80992
 721,82;  529,276;   52,633;58242,730; 0,81911
 722,39;  539,478;   70,733;58534,477; 0,80177
 722,96;  543,780;   69,632;58535,527; 0,81098
 723,53;  561,383;   92,032;58405,773; 0,80487
 724,11;  541,685;   81,531;58418,422; 0,78879
 724,68;  550,887;   76,031;58469,973; 0,81320
 725,25;  535,390;   70,130;58659,320; 0,79411
 725,82;  564,892;   93,129;59047,066; 0,80022
 726,40;  549,494;   76,629;59143,414; 0,80056
 726,97;  538,997;   62,928;59210,363; 0,80488
 727,54;  544,799;   59,028;59296,012; 0,82005
 728,11;  530,501;   53,427;59595,258; 0,80124
 728,69;  536,904;   40,727;59430,406; 0,83546
 729,26;  547,906;   61,226;59899,258; 0,81333
 729,83;  551,308;   49,426;60292,703; 0,83309
 730,40;  565,611;   67,025;60108,352; 0,83040
 730,97;  532,813;   54,424;60556,699; 0,79070
 731,55;  550,116;   45,024;60690,648; 0,83286
 732,12;  595,018;   91,223;60692,797; 0,83132
 732,69;  584,220;   74,323;60754,344; 0,84031
 733,26;  560,123;   60,522;60783,395; 0,82275
 733,83;  560,325;   40,622;60893,340; 0,85403
 734,41;  588,127;   72,321;61214,391; 0,84362
 734,98;  556,430;   55,921;61057,438; 0,82049
 735,55;  569,932;   54,020;61239,086; 0,84320
 736,12;  592,934;   80,319;61632,633; 0,83281
 736,69;  615,437;   80,919;61557,781; 0,86946
 737,26;  599,139;   62,718;61698,129; 0,87031
 737,84;  596,841;   64,818;61653,879; 0,86383
 738,41;  586,444;   64,117;61895,625; 0,84476
 738,98;  591,846;   67,917;61786,477; 0,84890
 739,55;  584,648;   52,516;61643,723; 0,86397
 740,12;  598,751;   57,816;62108,270; 0,87177
 740,69;  592,053;   74,115;61972,621; 0,83675
 741,26;  586,555;   77,315;61881,668; 0,82396
 741,83;  600,358;   68,514;61724,715; 0,86260
 742,41;  599,260;   65,313;61882,563; 0,86375
 742,98;  636,362;   94,613;62100,914; 0,87370
 743,55;  606,165;   77,912;62231,461; 0,84992
 744,12;  590,267;   55,512;62051,008; 0,86257
 744,69;  619,670;   67,111;62200,758; 0,88931
 745,26;  601,272;   49,811;61966,406; 0,89065
 745,83;  599,674;   72,810;62373,352; 0,84568
 746,40;  596,177;   67,110;62052,801; 0,85353
 746,97;  608,979;   50,109;61967,551; 0,90261
 747,55;  603,581;   63,908;61938,199; 0,87221
 748,12;  608,284;   68,708;61927,547; 0,87227
 748,69;  615,886;   73,107;61816,492; 0,87909
 749,26;  597,888;   61,907;62114,242; 0,86376
 749,83;  594,491;   50,406;62049,590; 0,87757
 750,40;  642,993;   93,406;61932,438; 0,88874
 750,97;  647,895;  105,505;62078,688; 0,87520
 751,54;  579,598;   44,505;61752,434; 0,86714
 752,11;  613,300;   60,404;61797,984; 0,89556
 752,68;  642,802;   93,003;61696,633; 0,89248
 753,25;  624,105;   64,303;61339,980; 0,91358
 753,82;  611,007;   72,902;61456,027; 0,87663
 754,39;  634,509;   77,402;61643,777; 0,90489
 754,96;  605,112;   67,501;61359,523; 0,87713
 755,53;  603,914;   45,801;61551,871; 0,90741
 756,10;  619,517;   72,100;61327,820; 0,89366
 756,67;  627,719;   72,500;61544,969; 0,90320
 757,24;  617,221;   79,399;61345,215; 0,87785
 757,81;  587,024;   22,199;61266,965; 0,92224
 758,38;  612,526;   63,598;61495,012; 0,89356
 758,95;  621,428;   83,497;61168,961; 0,88062
 759,52;  600,831;   53,797;60702,711; 0,90197
 760,09;  615,433;   80,196;60693,457; 0,88304
 760,66;  619,435;   66,096;60242,406; 0,91953
 761,23;  627,838;   88,695;60198,652; 0,89693
 761,80;  617,840;   67,295;60262,402; 0,91460
 762,37;  624,542;   79,794;60200,852; 0,90609
 762,94;  639,845;   81,194;60215,199; 0,92901
 763,51;  597,947;   49,293;60035,145; 0,91464
 764,08;  607,449;   69,392;60022,195; 0,89747
 764,65;  623,252;   80,492;59748,141; 0,90964
 765,22;  593,654;   60,191;59771,191; 0,89341
 765,79;  637,056;   83,491;59544,438; 0,93097
 766,36;  632,859;   73,990;59413,586; 0,94181
 766,93;  623,661;   58,690;59539,535; 0,94984
 767,50;  615,964;   77,689;59556,785; 0,90498
 768,07;  613,866;   67,389;59555,531; 0,91863
 768,64;  619,568;   90,388;59193,578; 0,89535
 769,21;  603,371;   61,288;58606,828; 0,92592
 769,78;  618,273;   81,087;58207,375; 0,92417
 770,34;  582,075;   36,986;58160,023; 0,93782
 770,91;  589,378;   60,186;58034,773; 0,91280
 771,48;  594,580;   70,585;57894,922; 0,90618
 772,05;  610,382;   58,285;57586,770; 0,95969
 772,62;  578,885;   51,284;57213,918; 0,92298
 773,19;  583,387;   57,684;57361,766; 0,91739
 773,76;  606,789;   78,183;57313,715; 0,92356
 774,33;  600,392;   70,983;57111,762; 0,92812
 774,90;  579,294;   54,582;56564,109; 0,92854
 775,47;  573,596;   73,181;56633,859; 0,88474
 776,03;  605,099;   66,481;56357,707; 0,95684
 776,60;  573,501;   64,480;56136,152; 0,90780
 777,17;  603,003;   69,780;55955,602; 0,95413
 777,74;  568,506;   40,979;55430,750; 0,95239
 778,31;  589,008;   64,779;55665,000; 0,94285
 778,88;  552,211;   25,178;55315,047; 0,95322
 779,45;  593,413;   76,978;55020,195; 0,93994
 780,01;  575,115;   63,277;55023,242; 0,93129
 780,58;  572,218;   70,076;54696,891; 0,91922
 781,15;  553,520;   46,576;54313,441; 0,93417
 781,72;  590,622;   85,875;54310,289; 0,93085
 782,29;  561,025;   65,975;54010,734; 0,91770
 782,86;  561,527;   74,074;53636,184; 0,91007
 783,42;  567,829;   64,974;53663,332; 0,93819
 783,99;  575,132;   68,373;53469,980; 0,94896
 784,56;  580,734;   69,573;53343,430; 0,95950
 785,13;  554,736;   42,572;52994,277; 0,96723
 785,70;  565,639;   69,172;52649,625; 0,94420
 786,26;  559,841;   62,371;52642,371; 0,94612
 786,83;  569,343;   81,570;52462,320; 0,93121
 787,40;  576,946;   74,970;52177,871; 0,96343
 787,97;  520,048;   45,669;52106,719; 0,91120
 788,54;  551,350;   76,969;51899,164; 0,91540
 789,10;  544,653;   61,568;51627,113; 0,93684
 789,67;  567,255;   73,868;51235,262; 0,96437
 790,24;  557,857;   63,567;51157,609; 0,96741
 790,81;  563,360;   85,767;50574,457; 0,94594
 791,37;  564,862;   79,866;50510,508; 0,96171
 791,94;  559,165;   80,665;50570,754; 0,94771
 792,51;  520,767;   56,165;50218,805; 0,92619
 793,08;  554,069;   66,364;49950,852; 0,97767
 793,64;  549,572;   65,464;49827,301; 0,97285
 794,21;  563,774;   77,863;49479,348; 0,98360
 794,78;  534,276;   55,163;49217,996; 0,97454
 795,35;  547,279;   76,762;49034,742; 0,96106
 795,91;  521,081;   51,162;48702,293; 0,96590
 796,48;  531,183;   65,461;48451,738; 0,96251
 797,05;  528,286;   75,961;48155,590; 0,94078
 797,62;  518,388;   62,260;48153,535; 0,94846
 798,18;  524,390;   57,059;47786,684; 0,97912
 798,75;  513,993;   65,659;47600,832; 0,94316
 799,32;  530,295;   73,458;47550,383; 0,96223
 799,88;  520,397;   55,658;47393,430; 0,98175
 800,45;  492,100;   41,357;46711,777; 0,96580
 801,02;  520,502;   66,457;46736,125; 0,97289
 801,58;  548,404;  103,656;46334,172; 0,96202
 802,15;  519,507;   71,656;46161,523; 0,97169
 802,72;  528,609;   77,255;45929,070; 0,98438
 803,28;  500,212;   59,654;45792,617; 0,96333
 803,85;  491,714;   45,254;45498,766; 0,98223
 804,42;  532,416;   80,753;45311,516; 0,99857
 804,98;  537,919;  101,253;45317,164; 0,96573
 805,55;  500,921;   67,352;44887,012; 0,96736
 806,12;  531,723;   87,852;44742,457; 0,99401
 806,68;  494,326;   72,951;44340,906; 0,95187
 807,25;  522,728;   88,851;44179,156; 0,98407
 807,82;  519,030;   84,150;44195,102; 0,98588
 808,38;  512,233;   73,549;43813,652; 1,00293
 808,95;  499,035;   63,749;43737,699; 0,99667
 809,52;  483,937;   59,648;43807,047; 0,96986
 810,08;  503,240;   70,748;43565,098; 0,99436
 810,65;  495,542;   76,847;43732,043; 0,95909
 811,21;  505,444;   74,347;43598,191; 0,99049
 811,78;  518,647;   85,446;43629,039; 0,99487
 812,35;  503,549;   69,846;43379,188; 1,00141
 812,91;  519,851;   92,745;43541,438; 0,98301
 813,48;  508,554;   70,045;43341,285; 1,01340
 814,04;  510,156;   74,244;43530,332; 1,00311
 814,61;  507,758;   78,943;43190,980; 0,99465
 815,18;  497,661;   76,443;43015,629; 0,98096
 815,74;  501,363;   81,642;42867,379; 0,98098
 816,31;  512,166;   93,042;42608,227; 0,98582
 816,87;  476,968;   43,141;42052,676; 1,03269
 817,44;  511,670;   96,041;41998,824; 0,99189
 818,00;  489,973;   56,140;41704,570; 1,04165
 818,57;  496,675;   77,340;41640,117; 1,00892
 819,14;  497,377;   94,739;41450,367; 0,97360
 819,70;  503,980;   90,138;41083,016; 1,00954
 820,27;  488,082;   65,338;40847,563; 1,03659
 820,83;  499,684;   76,437;40615,113; 1,04406
 821,40;  512,687;  108,537;40237,160; 1,00714
 821,96;  491,089;   78,536;40230,809; 1,02747
 822,53;  496,991;   86,236;39938,355; 1,03070
 823,09;  477,294;   97,135;39618,305; 0,96191
 823,66;  476,296;   82,735;39519,152; 0,99796
 824,22;  471,198;   81,934;39276,801; 0,99315
 824,79;  463,201;   77,233;38978,047; 0,99218
 825,35;  466,403;   88,233;38961,195; 0,97284
 825,92;  457,505;   79,632;38659,246; 0,97946
 826,48;  490,008;   91,832;38252,191; 1,04343
 827,05;  490,310;  100,231;38092,641; 1,02673
 827,61;  460,713;   69,431;38141,289; 1,02775
 828,18;  457,615;   74,030;37948,039; 1,01279
 828,74;  467,217;  102,130;37810,285; 0,96819
 829,31;  469,320;  112,729;37720,332; 0,94819
 829,87;  459,922;   73,029;37591,383; 1,03121
 830,44;  459,024;   83,128;37188,332; 1,01306
 831,00;  475,727;   94,627;37026,078; 1,03191
 831,57;  488,529;  111,327;37133,625; 1,01885
 832,13;  454,031;   83,826;36566,773; 1,01473
 832,69;  435,234;   77,626;36531,824; 0,98098
 833,26;  465,136;  101,325;36464,973; 1,00048
 833,82;  463,738;  116,625;36341,219; 0,95823
 834,39;  444,641;   87,224;36149,969; 0,99110
 834,95;  440,543;   76,024;36031,016; 1,01382
 835,52;  447,045;  105,023;35825,164; 0,95751
 836,08;  471,048;  109,022;35731,211; 1,01629
 836,64;  447,050;   91,122;35587,961; 1,00270
 837,21;  450,752;   90,721;35487,109; 1,01714
 837,77;  459,755;   95,721;35148,656; 1,03853
 838,34;  440,757;   79,720;35189,105; 1,02832
 838,90;  429,460;   67,820;34846,453; 1,03983
 839,46;  451,562;   92,219;34863,402; 1,03345
 840,03;  438,864;   87,619;34824,848; 1,01115
 840,59;  442,667;   96,418;34530,496; 1,00554
 841,16;  470,169;  108,518;34448,344; 1,05315
 841,72;  411,271;   61,717;34317,793; 1,02042
 842,28;  429,174;   81,216;34208,543; 1,01959
 842,85;  461,276;  102,216;34333,289; 1,04893
 843,41;  461,078;  101,715;34174,238; 1,05470
 843,97;  453,681;   93,515;33927,188; 1,06452
 844,54;  444,483;  106,314;33683,836; 1,00713
 845,10;  428,385;   99,614;33447,383; 0,98589
 845,67;  411,088;   77,213;33269,629; 1,00588
 846,23;  439,790;  103,213;33224,379; 1,01620
 846,79;  436,892;  108,812;32973,328; 0,99828
 847,36;  400,095;   67,111;32864,273; 1,01528
 847,92;  419,997;   88,411;32868,023; 1,01156
 848,48;  395,099;   56,410;32851,570; 1,03274
 849,04;  402,202;   70,710;32682,721; 1,01647
 849,61;  402,404;   59,109;32504,168; 1,05808
 850,17;  417,406;   70,509;32576,316; 1,06719
 850,73;  413,809;   70,408;32366,064; 1,06330
 851,30;  391,411;   54,308;32162,713; 1,04989
 851,86;  401,114;   67,507;31977,561; 1,04546
 852,42;  399,016;   62,306;32107,209; 1,05074
 852,99;  429,118;   96,006;32017,758; 1,04353
 853,55;  435,121;   83,305;31799,506; 1,10926
 854,11;  407,323;   70,705;31699,553; 1,06428
 854,67;  421,425;   96,004;31494,301; 1,03643
 855,24;  388,428;   55,304;31331,250; 1,06511
 855,80;  415,530;   79,803;31543,799; 1,06702
 856,36;  403,432;   70,703;31319,646; 1,06477
 856,92;  381,335;   55,102;31022,594; 1,05347
 857,49;  399,237;   85,102;31039,643; 1,01483
 858,05;  408,739;   72,701;30859,191; 1,09151
 858,61;  390,042;   72,500;30936,939; 1,02883
 859,17;  405,044;   83,000;30820,986; 1,04771
 859,74;  402,346;   85,299;30645,336; 1,03746
 860,30;  425,749;  105,199;30506,584; 1,05439
 860,86;  393,951;   69,998;30433,432; 1,06692
 861,42;  399,653;   85,998;30371,080; 1,03568
 861,99;  366,556;   63,297;30177,027; 1,00704
 862,55;  393,458;   73,097;29970,076; 1,07155
 863,11;  397,761;   91,896;30127,523; 1,01834
 863,67;  379,763;   66,795;30045,172; 1,04398
 864,23;  408,665;   83,795;29931,920; 1,08841
 864,80;  392,368;   69,294;29597,270; 1,09413
 865,36;  395,870;   84,494;29668,217; 1,05253
 865,92;  398,772;  101,993;29589,766; 1,00645
 866,48;  398,475;   69,793;29520,813; 1,11603
 867,04;  361,677;   54,992;29244,861; 1,05065
 867,60;  389,879;   87,792;29071,910; 1,04225
 868,17;  407,182;  102,091;28909,059; 1,05909
 868,73;  383,784;   85,891;28762,406; 1,03881
 869,29;  364,486;   60,390;28711,254; 1,06139
 869,85;  406,089;  110,289;28446,201; 1,04390
 870,41;  386,091;   85,589;28238,350; 1,06740
 870,97;  405,693;  107,188;28291,998; 1,05910
 871,54;  382,196;   73,088;28003,646; 1,10670
 872,10;  390,198;   84,987;27703,895; 1,10508
 872,66;  374,500;   76,487;27456,043; 1,08845
 873,22;  376,503;   90,186;27453,092; 1,04637
 873,78;  357,705;   78,886;27139,439; 1,03035
 874,34;  382,008;   99,085;26999,787; 1,05173
 874,90;  398,508;  114,485;26774,588; 1,06535
 875,46;  375,707;  109,085;26704,387; 1,00252
 876,03;  367,807;   87,285;26403,287; 1,06598
 876,59;  352,008;   69,285;26175,588; 1,08297
 877,15;  391,408;  107,185;26130,887; 1,09217
 877,71;  382,707;   88,485;26141,188; 1,12934
 878,27;  371,908;   99,585;25897,588; 1,05560
 878,83;  380,508;  113,885;25881,088; 1,03474
 879,39;  375,608;  100,485;25804,988; 1,07033
 879,95;  361,508;   99,785;25691,088; 1,02270
 880,51;  352,707;   75,685;25879,387; 1,07358
 881,07;  365,908;   83,685;26030,488; 1,08770
 881,63;  374,008;   92,985;26092,887; 1,08086
 882,19;  367,908;   84,985;25970,688; 1,09297
 882,75;  364,508;   94,885;26024,287; 1,03983
 883,31;  367,008;   92,385;26209,488; 1,05150
 883,88;  380,307;   95,985;26315,588; 1,08439
 884,44;  373,108;   88,385;26391,287; 1,08248
 885,00;  386,807;  106,285;26737,588; 1,05336
 885,56;  395,307;  104,285;26828,387; 1,08899
 886,12;  407,908;  114,885;27066,688; 1,08721
 886,68;  379,908;   96,185;26972,688; 1,05565
 887,24;  401,008;  119,085;27399,287; 1,03343
 887,80;  382,608;   95,385;27358,188; 1,05353
 888,36;  404,608;  111,585;27635,787; 1,06460
 888,92;  409,508;  107,985;27724,287; 1,09183
 889,48;  402,307;  108,485;28080,588; 1,05041
 890,04;  404,108;  110,585;28084,387; 1,04928
 890,60;  413,307;  120,085;28245,287; 1,04256
 891,16;  391,707;   96,885;28391,088; 1,04199
 891,72;  413,307;  117,785;28391,287; 1,04523
 892,28;  421,807;  125,385;28413,787; 1,04786
 892,84;  402,008;  108,185;28199,188; 1,04597
 893,39;  427,307;  127,585;28371,988; 1,06117
 893,95;  422,508;  123,785;28291,088; 1,06053
 894,51;  362,807;   63,885;28130,188; 1,06506
 895,07;  434,807;  146,385;28192,488; 1,02839
 895,63;  373,408;   77,785;27759,688; 1,06793
 896,19;  389,008;   99,385;27677,188; 1,05020
 896,75;  408,608;  116,885;27502,488; 1,06524
 897,31;  374,608;   95,285;27397,387; 1,02308
 897,87;  381,807;  102,485;27202,887; 1,03070
 898,43;  380,608;  104,485;26834,088; 1,03302
 898,99;  395,108;  108,285;26505,588; 1,08656
 899,55;  384,707;  113,785;26408,387; 1,03034
 900,11;  388,707;  105,885;26277,787; 1,08063
 900,67;  371,307;  100,985;26103,387; 1,03961
 901,22;  379,707;  120,085;25789,688; 1,01140
 901,78;  345,307;   86,285;25623,688; 1,01429
 902,34;  393,508;  120,785;25449,887; 1,07672
 902,90;  351,408;   77,285;25260,887; 1,08850
 903,46;  368,408;  108,985;25158,188; 1,03565
 904,02;  351,807;   91,185;24856,787; 1,05236
 904,58;  328,108;   85,885;24697,387; 0,98418
 905,14;  333,508;   72,885;24593,387; 1,06288
 905,70;  337,807;   81,785;24409,387; 1,05240
 906,25;  335,707;   82,585;24460,588; 1,03832
 906,81;  346,408;   93,685;24376,488; 1,04075
 907,37;  344,307;   73,585;24145,588; 1,12464
 907,93;  333,707;   77,585;24015,488; 1,06995
 908,49;  347,408;  110,285;23841,088; 0,99922
 909,05;  340,008;   94,485;23967,088; 1,02847
 909,60;  348,207;   92,285;23775,387; 1,08061
 910,16;  321,408;   73,485;23571,188; 1,05509
 910,72;  355,408;  105,985;23524,887; 1,06505
 911,28;  355,508;   99,785;23299,488; 1,10227
 911,84;  330,108;   84,885;23241,387; 1,05898
 912,39;  316,307;   72,785;23037,787; 1,06041
 912,95;  345,408;  101,885;23158,287; 1,05620
 913,51;  334,608;  107,485;23089,387; 0,98827
 914,07;  334,207;   87,585;22717,988; 1,08978
 914,63;  320,008;   80,385;22709,787; 1,05890
 915,18;  313,707;   82,985;22633,488; 1,02314
 915,74;  320,307;   73,885;22387,787; 1,10435
 916,30;  287,707;   60,985;22193,588; 1,02438
 916,86;  336,508;   92,785;22035,387; 1,11073
 917,42;  328,908;   97,885;22132,688; 1,04844
 917,97;  312,608;   96,985;21890,688; 0,98938
 918,53;  301,608;   69,485;21738,688; 1,07121
 919,09;  326,908;  106,785;21703,188; 1,01926
 919,65;  308,707;   90,785;21453,088; 1,02013
 920,20;  300,008;   76,985;21260,387; 1,05282
 920,76;  299,608;   74,585;21079,287; 1,07130
 921,32;  305,707;   90,285;20984,188; 1,03103
 921,87;  313,307;   89,885;20647,588; 1,08681
 922,43;  279,207;   68,785;20533,387; 1,02823
 922,99;  282,207;   64,885;20137,088; 1,08270
 923,55;  285,108;   65,485;20009,188; 1,10121
 924,10;  290,307;   70,385;20001,088; 1,10344
 924,66;  303,707;   79,185;19796,787; 1,13869
 925,22;  261,908;   55,485;19602,688; 1,05602
 925,77;  281,508;   76,385;19254,688; 1,06956
 926,33;  294,508;   91,385;19173,488; 1,06447
 926,89;  291,008;   80,085;18934,988; 1,11866
 927,44;  261,108;   56,085;18646,787; 1,10282
 928,00;  269,908;   73,685;18425,088; 1,06925
 928,56;  281,908;   93,785;18165,887; 1,04096
 929,12;  275,608;   94,185;18029,588; 1,01153
 929,67;  250,607;   53,185;17690,188; 1,11937
 930,23;  235,708;   56,585;17430,188; 1,03100
 930,78;  289,508;  110,285;17292,988; 1,04304
 931,34;  261,008;   69,485;16895,588; 1,13825
 931,90;  259,307;   71,985;16495,488; 1,14058
 932,45;  245,208;   83,085;16088,188; 1,01294
 933,01;  235,307;   77,385;15695,188; 1,01117
 933,57;  242,408;   73,485;15207,987; 1,11614
 934,12;  234,107;   79,485;14578,888; 1,06641
 934,68;  230,008;   63,185;13806,987; 1,21380
 935,24;  220,508;   81,385;13091,787; 1,06932
 935,79;  212,408;   80,585;12266,487; 1,08176
 936,35;  208,908;   86,985;11501,388; 1,06815
 936,90;  209,708;  100,485;10583,787; 1,04187
 937,46;  188,208;   82,385; 9839,987; 1,08451
 938,02;  175,807;   72,385; 8967,287; 1,16272
 938,57;  173,607;   83,185; 8376,188; 1,09035
 939,13;  173,307;   81,585; 7777,987; 1,19176
 939,68;  140,008;   62,285; 7204,788; 1,08817
 940,24;  152,607;   78,885; 6876,288; 1,08457
 940,79;  172,107;  106,085; 6589,788; 1,01828
 941,35;  169,508;   95,285; 6296,888; 1,19683
 941,91;  132,307;   71,885; 6126,587; 0,99794
 942,46;  145,208;   74,985; 5977,188; 1,18977
 943,02;  152,508;   78,885; 5912,487; 1,26204
 943,57;  124,607;   63,085; 5846,688; 1,06374
 944,13;  135,807;   75,785; 5912,587; 1,02835
 944,68;  143,708;   68,585; 5973,688; 1,27216
 945,24;  147,508;   88,485; 6052,888; 0,98958
 945,79;  134,107;   68,085; 6070,188; 1,09999
 946,35;  133,908;   61,185; 6182,788; 1,18797
 946,90;  182,908;  112,785; 6334,087; 1,12714
 947,46;  128,708;   56,285; 6539,087; 1,11715
 948,01;  123,908;   55,485; 6671,288; 1,03423
 948,57;  175,508;   92,985; 6915,087; 1,20963
 949,12;  166,607;   83,285; 7090,087; 1,18917
 949,68;  177,607;   90,585; 7317,388; 1,20416
 950,23;  160,307;   77,385; 7512,788; 1,11524
 950,79;  164,508;   82,885; 7745,688; 1,06518
 951,34;  181,307;   85,985; 7985,288; 1,20672
 951,90;  159,408;   64,685; 8279,987; 1,15300
 952,45;  192,208;   97,685; 8464,188; 1,12977
 953,01;  166,607;   69,085; 8675,088; 1,13319
 953,56;  182,307;   86,985; 8965,188; 1,07367
 954,12;  154,107;   57,385; 9127,388; 1,06640
 954,67;  175,307;   73,485; 9305,487; 1,10293
 955,23;  183,208;   75,385; 9487,487; 1,14557
 955,78;  179,908;   77,585; 9767,987; 1,05592
 956,33;  160,807;   58,785; 9861,487; 1,04076
 956,89;  174,607;   62,885;10079,088; 1,11542
 957,44;  187,508;   61,185;10322,088; 1,23111
 958,00;  173,908;   66,285;10490,688; 1,03241
 958,55;  186,208;   70,585;10689,188; 1,08887
 959,10;  183,807;   61,685;10798,487; 1,13742
 959,66;  199,208;   77,585;11005,388; 1,11296
 960,21;  195,607;   71,285;11144,987; 1,12268
 960,77;  177,408;   59,185;11196,487; 1,06150
 961,32;  187,908;   66,385;11442,688; 1,06821
 961,87;  213,708;   91,885;11490,588; 1,06874
 962,43;  188,408;   68,985;11614,987; 1,03432
 962,98;  212,307;   85,785;11731,088; 1,08647
 963,54;  163,508;   43,585;11798,787; 1,02017
 964,09;  189,908;   71,085;11852,487; 1,00856
 964,64;  209,708;   83,385;11906,987; 1,06839
 965,20;  189,708;   61,285;11952,688; 1,07996
 965,75;  213,708;   73,685;12053,487; 1,16882
 966,30;  215,508;   88,485;12085,688; 1,05877
 966,86;  203,908;   80,985;12260,888; 1,00922
 967,41;  214,708;   89,985;12288,388; 1,02245
 967,96;  210,008;   72,785;12324,688; 1,12001
 968,52;  216,708;   91,285;12494,487; 1,01121
 969,07;  218,607;   77,885;12456,888; 1,13678
 969,62;  205,408;   92,985;12395,388; 0,91383
 970,18;  194,107;   67,485;12430,888; 1,02417
 970,73;  211,807;   76,685;12440,588; 1,09288
 971,28;  226,107;   97,685;12509,088; 1,03471
 971,84;  202,708;   72,485;12497,588; 1,04806
 972,39;  237,208;  103,885;12516,287; 1,07411
 972,94;  191,607;   62,285;12606,888; 1,03090
 973,49;  201,508;   71,785;12486,388; 1,04492
 974,05;  212,908;   85,185;12512,287; 1,02777
 974,60;  215,008;   77,585;12438,588; 1,11174
 975,15;  218,408;   86,785;12506,287; 1,05980
 975,71;  189,208;   74,085;12471,088; 0,92863
 976,26;  217,307;   89,485;12460,787; 1,03322
 976,81;  221,208;   91,385;12477,987; 1,04809
 977,36;  218,807;   90,885;12515,787; 1,02957
 977,92;  226,208;  106,785;12414,287; 0,97032
 978,47;  207,408;   82,685;12367,787; 1,01523
 979,02;  225,607;   84,685;12372,888; 1,14681
 979,57;  212,008;   87,685;12184,588; 1,02772
 980,13;  205,107;   73,085;12274,688; 1,08201
 980,68;  198,807;   82,085;12299,088; 0,95541
 981,23;  228,307;   98,285;12232,588; 1,07153
 981,78;  207,807;   87,585;12193,987; 0,99305
 982,33;  216,008;   93,585;12131,088; 1,01701
 982,89;  212,807;   86,385;12112,987; 1,05119
 983,44;  194,107;   77,485;11963,388; 0,98118
 983,99;  242,008;  102,185;12085,188; 1,16684
 984,54;  221,208;   88,185;12037,188; 1,11325
 985,09;  233,508;  104,185;11970,688; 1,08981
 985,65;  205,408;   87,085;11900,888; 1,00156
 986,20;  230,307;  108,485;11873,088; 1,03550
 986,75;  234,408;  109,085;11844,987; 1,06786
 987,30;  223,107;  104,785;11731,588; 1,01767
 987,85;  215,708;   93,485;11707,287; 1,05239
 988,40;  227,107;  102,085;11630,287; 1,08449
 988,96;  235,408;  110,985;11597,987; 1,08316
 989,51;  244,607;  109,185;11503,188; 1,18854
 990,06;  247,307;  139,085;11439,987; 0,95764
 990,61;  214,607;   96,285;11312,888; 1,05489
 991,16;  225,208;  126,785;11284,987; 0,88206
 991,71;  201,607;   95,285;11178,987; 0,95927
 992,26;  211,508;   96,185;11124,787; 1,04567
 992,81;  211,408;   90,585;11117,088; 1,09575
 993,37;  236,307;  112,785;11091,088; 1,12515
 993,92;  221,908;  111,485;10895,787; 1,02392
 994,47;  242,208;  127,285;10881,688; 1,06861
 995,02;  232,107;  120,885;10830,487; 1,03853
 995,57;  212,307;  105,885;10676,287; 1,00680
 996,12;  248,208;  146,185;10671,787; 0,96928
 996,67;  244,008;  120,585;10625,487; 1,17490
 997,22;  223,807;  110,885;10516,388; 1,08522
 997,77;  246,008;  123,885;10509,188; 1,17592
 998,32;  227,508;  113,285;10354,388; 1,11533
 998,87;  230,508;  118,685;10322,987; 1,09584
 999,42;  224,508;  114,485;10232,588; 1,08738
 999,97;  216,408;  106,385;10221,888; 1,08766
1000,53;  251,708;  131,385;10169,188; 1,19869
1001,08;  215,508;  116,785;10035,088; 0,99536
1001,63;  258,307;  142,485; 9961,388; 1,17959
1002,18;  183,807;   80,985; 9795,388; 1,05845
1002,73;  238,607;  138,285; 9811,987; 1,03706
1003,28;  212,408;  112,585; 9773,088; 1,03331
1003,83;  231,508;  131,985; 9598,088; 1,05136
1004,38;  241,508;  133,285; 9567,388; 1,14714
1004,93;  233,607;  121,585; 9472,787; 1,19795
1005,48;  215,708;  125,485; 9456,987; 0,96686
1006,03;  201,008;  110,685; 9367,487; 0,97574
1006,58;  209,208;  108,485; 9267,688; 1,09969
1007,13;  198,008;   87,285; 9216,688; 1,21281
1007,68;  213,807;  104,185; 9176,987; 1,20825
1008,23;  214,208;  115,485; 9089,388; 1,10011
1008,78;  208,708;  112,885; 9076,688; 1,06899
1009,33;  220,307;  130,185; 8977,388; 1,01866
1009,88;  179,607;   91,085; 8917,888; 1,00288
1010,43;  206,508;  106,485; 8847,987; 1,14423
1010,98;  190,708;  107,585; 8784,088; 0,95802
1011,52;  187,107;   98,385; 8757,888; 1,02457
1012,07;  245,307;  151,085; 8797,588; 1,08972
1012,62;  197,408;  102,885; 8672,287; 1,10302
1013,17;  199,408;  107,085; 8654,987; 1,08006
1013,72;  192,508;   96,285; 8549,787; 1,13826
1014,27;  196,908;  115,785; 8482,088; 0,96963
1014,82;  171,508;  100,085; 8280,987; 0,87304
1015,37;  169,908;   90,685; 8148,587; 0,98317
1015,92;  195,708;  113,385; 8078,388; 1,03355
1016,47;  160,908;   89,585; 8002,087; 0,90139
1017,02;  164,008;   83,585; 7781,587; 1,04472
1017,57;  190,408;  110,885; 7677,987; 1,05090
1018,11;  166,107;   93,585; 7625,788; 0,96283
1018,66;  194,208;  120,285; 7544,188; 0,99574
1019,21;  183,508;   97,185; 7441,587; 1,17535
1019,76;  167,008;   91,485; 7241,388; 1,05627
1020,31;  150,008;   87,385; 7140,987; 0,88781
1020,86;  169,908;   99,585; 7136,087; 0,99940
1021,41;  161,708;   85,585; 7046,288; 1,09360
1021,96;  157,208;   91,785; 6968,587; 0,95135
1022,50;  186,008;  114,785; 6908,788; 1,04831
1023,05;  173,208;   96,185; 6774,188; 1,15338
1023,60;  162,307;  109,285; 6668,487; 0,80837
1024,15;  150,607;   82,585; 6582,487; 1,04652
1024,70;  166,307;  118,285; 6556,688; 0,74588
1025,25;  160,508;  105,085; 6444,587; 0,87424
1025,79;  176,008;  111,185; 6416,087; 1,02813
1026,34;  161,307;  103,685; 6359,487; 0,92110
1026,89;  176,708;  101,985; 6282,688; 1,20896
1027,44;  161,008;   91,385; 6238,288; 1,13264
1027,99;  162,008;  102,585; 6140,788; 0,98411
1028,53;  157,607;   99,685; 6068,188; 0,97047
1029,08;  176,107;  105,085; 5984,888; 1,20791
1029,63;  169,307;  117,485; 5934,888; 0,89082
1030,18;  163,607;  106,385; 5824,587; 1,00071
1030,73;  156,008;   87,885; 5655,688; 1,22351
1031,27;  146,307;   88,685; 5663,688; 1,03359
1031,82;  145,107;   90,885; 5572,688; 0,98914
1032,37;  159,208;  103,485; 5566,888; 1,01992
1032,92;  160,607;  107,585; 5490,587; 0,98500
1033,46;  158,307;  106,885; 5381,188; 0,97496
1034,01;  146,008;   85,985; 5319,487; 1,14689
1034,56;  160,908;  109,785; 5296,987; 0,98555
1035,11;  158,107;  104,585; 5234,587; 1,04332
1035,65;  143,307;   96,685; 5100,587; 0,93172
1036,20;  151,607;  106,585; 5087,188; 0,90396
1036,75;  179,508;  121,685; 5047,788; 1,17380
1037,29;  156,008;  100,385; 4975,388; 1,14097
1037,84;  137,208;   83,185; 4881,288; 1,12591
1038,39;  146,807;   98,385; 4838,288; 1,02159
1038,94;  120,607;   83,685; 4734,788; 0,79384
1039,48;  156,807;  100,385; 4724,288; 1,22024
1040,03;  163,107;  106,285; 4702,788; 1,23621
1040,58;  136,508;  100,685; 4594,388; 0,79717
1041,12;  141,508;  110,285; 4521,288; 0,70783
1041,67;  151,107;  103,485; 4461,188; 1,09283
1042,22;  162,807;  121,285; 4432,688; 0,96309
1042,76;  150,307;   98,385; 4327,688; 1,22768
1043,31;  145,208;   93,985; 4289,487; 1,22089
1043,86;  140,908;  118,285; 4202,987; 0,55383
1044,40;  148,008;  106,585; 4136,288; 1,02793
1044,95;  140,307;   99,685; 4102,788; 1,01478
1045,50;  125,808;   84,385; 4030,988; 1,04957
1046,04;  167,408;  121,885; 4008,288; 1,17133
1046,59;  129,508;   96,585; 3927,087; 0,85948
1047,13;  155,408;  118,885; 3891,887; 0,96800
1047,68;  149,708;  114,085; 3865,988; 0,94945
1048,23;  155,107;  121,185; 3817,087; 0,91784
1048,77;  128,408;  104,285; 3716,887; 0,66773
1049,32;  139,908;  109,485; 3669,288; 0,85461
1049,86;  152,807;  106,585; 3625,587; 1,31351
1050,41;  123,707;   93,085; 3587,587; 0,87630
1050,96;  154,408;  110,485; 3541,688; 1,28009
1051,50;  133,008;   98,185; 3486,488; 1,02773
1052,05;  141,307;  104,285; 3428,387; 1,11376
1052,59;  129,708;   97,785; 3377,488; 0,97334
1053,14;  114,908;   89,085; 3312,087; 0,80119
1053,69;  129,008;   99,185; 3261,087; 0,94318
1054,23;  147,908;  114,385; 3244,387; 1,07101
1054,78;  136,807;  109,485; 3203,087; 0,88319
1055,32;  155,908;  131,285; 3124,587; 0,82259
1055,87;  110,507;   86,785; 3086,387; 0,79085
1056,41;  124,107;   91,985; 3038,288; 1,09026
1056,96;  134,307;   92,085; 2979,988; 1,46205
1057,50;  156,508;  122,285; 2963,887; 1,20434
1058,05;   99,408;   84,685; 2903,087; 0,52237
1058,59;  137,208;   95,885; 2856,587; 1,49681
1059,14;  133,607;  113,685; 2828,988; 0,73371
1059,68;  123,908;   86,585; 2787,188; 1,38201
1060,23;  156,607;  135,385; 2801,688; 0,79595
1060,77;  134,408;  114,585; 2694,087; 0,76846
1061,32;  151,807;  113,585; 2690,387; 1,48333
1061,86;  135,107;  100,585; 2638,988; 1,36001
1062,41;  138,908;  112,985; 2588,988; 1,04695
1062,95;  125,908;  103,385; 2532,488; 0,92719
1063,50;  135,408;  121,385; 2531,587; 0,58180
1064,04;  116,607;   87,585; 2470,887; 1,21774
1064,59;  145,908;  118,685; 2420,688; 1,18256
1065,13;  122,707;  114,485; 2390,688; 0,36124
1065,68;  128,908;  111,085; 2340,587; 0,79939
1066,22;  145,807;  120,185; 2342,988; 1,15271
1066,76;  152,908;  126,585; 2324,887; 1,19740
1067,31;  134,708;  103,485; 2240,387; 1,46111
1067,85;  135,807;   98,785; 2227,688; 1,73904
1068,40;  135,508;  112,885; 2216,288; 1,07552
1068,94;  128,607;  103,985; 2163,288; 1,19567
1069,49;  121,408;   97,485; 2154,188; 1,16315
1070,03;  127,707;  104,485; 2089,887; 1,16966
1070,57;  104,908;   95,985; 2073,887; 0,45111
1071,12;   94,507;   83,785; 2044,988; 0,54673
1071,66;  168,107;  134,085; 2075,788; 1,75220
1072,21;  129,208;  116,685; 2020,387; 0,65780
1072,75;  127,007;  102,685; 1991,188; 1,28793
1073,29;   98,107;   88,185; 1929,287; 0,53894
1073,84;  134,708;  105,985; 1934,188; 1,57108
1074,38;  121,908;   99,785; 1900,988; 1,22821
1074,92;  129,908;  107,985; 1903,188; 1,22117
1075,47;  137,708;  116,785; 1900,088; 1,17324
1076,01;  159,107;  135,585; 1865,787; 1,35952
1076,56;  119,408;  103,485; 1816,887; 0,92929
1077,10;  110,308;   90,485; 1785,588; 1,16940
1077,64;  123,107;   97,685; 1777,787; 1,51315
1078,19;  141,908;  131,885; 1776,588; 0,60938
1078,73;  122,408;  108,685; 1757,688; 0,83217
1079,27;  140,008;  127,585; 1725,887; 0,77723
1079,81;  134,408;  128,585; 1709,188; 0,36837
1080,36;  130,008;  108,085; 1672,688; 1,40116
1080,90;  126,908;  107,885; 1631,188; 1,24877
1081,44;  104,408;   95,485; 1628,188; 0,58214
1081,99;  106,207;   71,785; 1579,287; 2,28341
1082,53;  138,708;  120,785; 1598,887; 1,21253
1083,07;  129,307;  114,685; 1569,887; 1,00484
1083,62;  127,808;  113,585; 1553,988; 0,98740
1084,16;  117,507;  112,485; 1541,988; 0,35135
1084,70;  125,707;  119,085; 1527,688; 0,47015
1085,24;  133,807;  116,085; 1504,188; 1,27674
1085,79;  114,707;  106,485; 1481,287; 0,59809
1086,33;  107,308;  104,485; 1424,887; 0,21376
1086,87;  119,808;  115,785; 1426,588; 0,30687
1087,41;  111,207;   91,185; 1424,588; 1,50161
1087,96;  143,807;  132,185; 1431,287; 0,89466
1088,50;  116,908;  106,685; 1378,988; 0,80346
1089,04;  142,807;  123,885; 1413,787; 1,46697
1089,58;  107,607;   87,285; 1345,488; 1,61520
1090,13;  119,507;  108,585; 1338,588; 0,88801
1090,67;  123,507;  120,585; 1335,188; 0,24061
1091,21;  106,308;   97,685; 1289,988; 0,72318
1091,75;  112,308;   94,485; 1295,287; 1,48422
1092,29;  123,007;  121,385; 1309,887; 0,13652
1092,84;  118,908;  108,285; 1255,188; 0,92619
1093,38;  142,208;  138,685; 1289,088; 0,30620
1093,92;  135,807;  126,485; 1245,688; 0,83296
1094,46;  132,008;  125,885; 1241,387; 0,54886
1095,00;  110,308;  102,185; 1207,188; 0,73507
1095,54;  106,808;   91,585; 1185,588; 1,39145
1096,09;  126,607;  117,085; 1174,988; 0,90013
1096,63;  141,807;  129,785; 1177,887; 1,14707
1097,17;  116,808;  104,485; 1142,287; 1,18736
1097,71;  145,008;  128,785; 1148,988; 1,59013
1098,25;  108,408;  106,185; 1074,488; 0,22953
1098,79;  134,607;  113,285; 1111,287; 2,13652
1099,33;  130,107;  125,085; 1078,988; 0,52652
1099,88;  130,307;  117,685; 1058,287; 1,34196
1100,42;   95,908;   84,285; 1020,888; 1,24092

