PE UV       SUBTECH     SPECTRUM    ASCII       PEDS        4.00        
   -1
CICIMAUCR0204-1.ASC
24/06/06
12:22:36.00
24/06/06
12:22:36.00
Vinicio Soto Monge
C. cupreomarginata. Sex M. Ventral
250,000000
1
Lambda 1050
1050L1511233
PerkinElmer UV WinLab 6.3.2.0749 / 2.02.05 Lambda 900 UV/VIS/NIR, Aug  7 2015 09:38:08

0
0
3350/servo 860,8/2
0
0
UV/VIS
1
1
1
DoubleDePol,CommonBeamDepol,RBeamAtt,SBeamAtt,60mm sphere, WB InGaAs Detector
0
0
0
0
Program
Program
3350/servo 860,8/2
3350/0,2 860,8/0,2
3350/0,2 860,8/0,2
0
15.00
 
 
 
0
 
860,8
319,2
860,8
Front
100
on
S:100 R:100
0
0
0
0
 
0
 
 
 
0
 
 
0
0
0
0
0
 
 
 
 
0
0


0
0
#HDR
-1
-1
#GR
nm
%R
1.0
0.0
2500,000000
-1,000000
2251
8
54,018700
3,363200
#DATA
2482.000000	7.823856
2481.000000	7.838973
2480.000000	7.928093
2479.000000	7.894701
2478.000000	7.916925
2477.000000	7.893573
2476.000000	7.880713
2475.000000	7.957988
2474.000000	7.889061
2473.000000	7.919632
2472.000000	7.949076
2471.000000	7.974910
2470.000000	7.995667
2469.000000	7.942420
2468.000000	7.951107
2467.000000	8.002210
2466.000000	8.015183
2465.000000	8.034586
2464.000000	8.024208
2463.000000	8.095278
2462.000000	8.141869
2461.000000	8.163867
2460.000000	8.162965
2459.000000	8.209443
2458.000000	8.207412
2457.000000	8.249941
2456.000000	8.297435
2455.000000	8.341431
2454.000000	8.345153
2453.000000	8.432018
2452.000000	8.484474
2451.000000	8.509518
2450.000000	8.542459
2449.000000	8.602587
2448.000000	8.659895
2447.000000	8.704906
2446.000000	8.765034
2445.000000	8.796959
2444.000000	8.868481
2443.000000	8.936957
2442.000000	8.973508
2441.000000	9.011638
2440.000000	9.071314
2439.000000	9.136970
2438.000000	9.187848
2437.000000	9.232972
2436.000000	9.270763
2435.000000	9.295920
2434.000000	9.368006
2433.000000	9.408843
2432.000000	9.459382
2431.000000	9.501686
2430.000000	9.576141
2429.000000	9.606826
2428.000000	9.642587
2427.000000	9.675527
2426.000000	9.720313
2425.000000	9.763068
2424.000000	9.786758
2423.000000	9.830529
2422.000000	9.863018
2421.000000	9.913444
2420.000000	9.957102
2419.000000	9.962855
2418.000000	10.006400
2417.000000	10.034941
2416.000000	10.063482
2415.000000	10.107027
2414.000000	10.117180
2413.000000	10.154859
2412.000000	10.183964
2411.000000	10.218258
2410.000000	10.243866
2409.000000	10.266992
2408.000000	10.287185
2407.000000	10.316629
2406.000000	10.336484
2405.000000	10.354533
2404.000000	10.383074
2403.000000	10.405411
2402.000000	10.433275
2401.000000	10.469374
2400.000000	10.520026
2399.000000	10.537738
2398.000000	10.531871
2397.000000	10.536835
2396.000000	10.568760
2395.000000	10.592112
2394.000000	10.617833
2393.000000	10.642313
2392.000000	10.649307
2391.000000	10.667808
2390.000000	10.680443
2389.000000	10.702328
2388.000000	10.718911
2387.000000	10.718121
2386.000000	10.718121
2385.000000	10.716091
2384.000000	10.721506
2383.000000	10.737186
2382.000000	10.745422
2381.000000	10.744519
2380.000000	10.739668
2379.000000	10.747452
2378.000000	10.728726
2377.000000	10.724439
2376.000000	10.735381
2375.000000	10.742263
2374.000000	10.746775
2373.000000	10.732674
2372.000000	10.719250
2371.000000	10.716993
2370.000000	10.718460
2369.000000	10.719475
2368.000000	10.698154
2367.000000	10.673448
2366.000000	10.656640
2365.000000	10.659911
2364.000000	10.648856
2363.000000	10.621781
2362.000000	10.611516
2361.000000	10.588953
2360.000000	10.565376
2359.000000	10.562669
2358.000000	10.551613
2357.000000	10.537738
2356.000000	10.528713
2355.000000	10.514386
2354.000000	10.491372
2353.000000	10.490470
2352.000000	10.491824
2351.000000	10.486973
2350.000000	10.496787
2349.000000	10.493177
2348.000000	10.486973
2347.000000	10.503894
2346.000000	10.511678
2345.000000	10.511791
2344.000000	10.528825
2343.000000	10.552854
2342.000000	10.557479
2341.000000	10.592563
2340.000000	10.609711
2339.000000	10.598655
2338.000000	10.622909
2337.000000	10.643667
2336.000000	10.649533
2335.000000	10.636108
2334.000000	10.647389
2333.000000	10.651676
2332.000000	10.649871
2331.000000	10.659798
2330.000000	10.652579
2329.000000	10.638590
2328.000000	10.643215
2327.000000	10.625617
2326.000000	10.615577
2325.000000	10.608695
2324.000000	10.587036
2323.000000	10.538866
2322.000000	10.515852
2321.000000	10.485958
2320.000000	10.451663
2319.000000	10.411615
2318.000000	10.370440
2317.000000	10.338401
2316.000000	10.295308
2315.000000	10.251989
2314.000000	10.197840
2313.000000	10.142788
2312.000000	10.098002
2311.000000	10.050396
2310.000000	10.002903
2309.000000	9.969286
2308.000000	9.938037
2307.000000	9.928899
2306.000000	9.913557
2305.000000	9.900133
2304.000000	9.897087
2303.000000	9.898441
2302.000000	9.902502
2301.000000	9.926869
2300.000000	9.953718
2299.000000	9.982259
2298.000000	10.005272
2297.000000	10.040807
2296.000000	10.075891
2295.000000	10.106238
2294.000000	10.138501
2293.000000	10.180467
2292.000000	10.218822
2291.000000	10.253342
2290.000000	10.297000
2289.000000	10.307491
2288.000000	10.323398
2287.000000	10.355097
2286.000000	10.343139
2285.000000	10.362092
2284.000000	10.379013
2283.000000	10.374726
2282.000000	10.371793
2281.000000	10.352728
2280.000000	10.341222
2279.000000	10.325428
2278.000000	10.323510
2277.000000	10.309973
2276.000000	10.308055
2275.000000	10.304220
2274.000000	10.279289
2273.000000	10.271956
2272.000000	10.286734
2271.000000	10.279966
2270.000000	10.269925
2269.000000	10.296436
2268.000000	10.319788
2267.000000	10.360287
2266.000000	10.406765
2265.000000	10.470615
2264.000000	10.547214
2263.000000	10.621781
2262.000000	10.700861
2261.000000	10.810288
2260.000000	10.929415
2259.000000	11.039970
2258.000000	11.171958
2257.000000	11.308007
2256.000000	11.422171
2255.000000	11.577624
2254.000000	11.718637
2253.000000	11.870706
2252.000000	11.989382
2251.000000	12.137728
2250.000000	12.272537
2249.000000	12.398997
2248.000000	12.523878
2247.000000	12.643796
2246.000000	12.715656
2245.000000	12.832302
2244.000000	12.941841
2243.000000	13.025434
2242.000000	13.094135
2241.000000	13.170734
2240.000000	13.234810
2239.000000	13.275309
2238.000000	13.332165
2237.000000	13.370972
2236.000000	13.417901
2235.000000	13.456144
2234.000000	13.452308
2233.000000	13.493710
2232.000000	13.516723
2231.000000	13.539398
2230.000000	13.520897
2229.000000	13.520446
2228.000000	13.517739
2227.000000	13.494725
2226.000000	13.467425
2225.000000	13.455806
2224.000000	13.444637
2223.000000	13.393760
2222.000000	13.379094
2221.000000	13.336114
2220.000000	13.294374
2219.000000	13.253988
2218.000000	13.232554
2217.000000	13.188558
2216.000000	13.147156
2215.000000	13.103950
2214.000000	13.077214
2213.000000	13.033330
2212.000000	13.001179
2211.000000	12.963726
2210.000000	12.937667
2209.000000	12.916572
2208.000000	12.866822
2207.000000	12.868063
2206.000000	12.824293
2205.000000	12.791803
2204.000000	12.793044
2203.000000	12.757396
2202.000000	12.723440
2201.000000	12.698396
2200.000000	12.686664
2199.000000	12.671096
2198.000000	12.662410
2197.000000	12.628002
2196.000000	12.618526
2195.000000	12.622475
2194.000000	12.596980
2193.000000	12.583330
2192.000000	12.589308
2191.000000	12.564603
2190.000000	12.552758
2189.000000	12.515079
2188.000000	12.523878
2187.000000	12.510003
2186.000000	12.507408
2185.000000	12.480672
2184.000000	12.470406
2183.000000	12.462171
2182.000000	12.444911
2181.000000	12.425846
2180.000000	12.413211
2179.000000	12.423364
2178.000000	12.394936
2177.000000	12.378240
2176.000000	12.369779
2175.000000	12.353986
2174.000000	12.369892
2173.000000	12.363688
2172.000000	12.373276
2171.000000	12.369554
2170.000000	12.383091
2169.000000	12.393808
2168.000000	12.376322
2167.000000	12.396290
2166.000000	12.420544
2165.000000	12.430359
2164.000000	12.455290
2163.000000	12.483154
2162.000000	12.495450
2161.000000	12.524668
2160.000000	12.549148
2159.000000	12.584683
2158.000000	12.612660
2157.000000	12.639848
2156.000000	12.696930
2155.000000	12.740249
2154.000000	12.769580
2153.000000	12.817411
2152.000000	12.870883
2151.000000	12.920520
2150.000000	12.949738
2149.000000	13.006820
2148.000000	13.060405
2147.000000	13.099325
2146.000000	13.150315
2145.000000	13.209315
2144.000000	13.251731
2143.000000	13.294035
2142.000000	13.342544
2141.000000	13.396580
2140.000000	13.424106
2139.000000	13.466410
2138.000000	13.519092
2137.000000	13.534322
2136.000000	13.590163
2135.000000	13.627954
2134.000000	13.653111
2133.000000	13.676012
2132.000000	13.701507
2131.000000	13.737042
2130.000000	13.764681
2129.000000	13.787356
2128.000000	13.805405
2127.000000	13.825598
2126.000000	13.840715
2125.000000	13.849852
2124.000000	13.862600
2123.000000	13.868692
2122.000000	13.867000
2121.000000	13.876025
2120.000000	13.873768
2119.000000	13.867338
2118.000000	13.867789
2117.000000	13.856170
2116.000000	13.851093
2115.000000	13.866210
2114.000000	13.864969
2113.000000	13.848160
2112.000000	13.826275
2111.000000	13.815784
2110.000000	13.798298
2109.000000	13.769306
2108.000000	13.762650
2107.000000	13.751031
2106.000000	13.721023
2105.000000	13.713916
2104.000000	13.707937
2103.000000	13.693272
2102.000000	13.671950
2101.000000	13.639235
2100.000000	13.622201
2099.000000	13.613627
2098.000000	13.597608
2097.000000	13.574257
2096.000000	13.562411
2095.000000	13.544136
2094.000000	13.533758
2093.000000	13.521800
2092.000000	13.499576
2091.000000	13.481752
2090.000000	13.483783
2089.000000	13.471373
2088.000000	13.448924
2087.000000	13.427716
2086.000000	13.408651
2085.000000	13.375033
2084.000000	13.343446
2083.000000	13.318966
2082.000000	13.291892
2081.000000	13.269894
2080.000000	13.235712
2079.000000	13.186640
2078.000000	13.133393
2077.000000	13.090977
2076.000000	13.056795
2075.000000	13.017763
2074.000000	12.965193
2073.000000	12.899537
2072.000000	12.848773
2071.000000	12.787742
2070.000000	12.706293
2069.000000	12.643796
2068.000000	12.585134
2067.000000	12.529970
2066.000000	12.487666
2065.000000	12.425959
2064.000000	12.348458
2063.000000	12.301303
2062.000000	12.250764
2061.000000	12.192893
2060.000000	12.145738
2059.000000	12.092378
2058.000000	12.050751
2057.000000	12.029205
2056.000000	12.007319
2055.000000	11.979568
2054.000000	11.968400
2053.000000	11.986788
2052.000000	11.989608
2051.000000	12.002581
2050.000000	12.024918
2049.000000	12.054361
2048.000000	12.094635
2047.000000	12.133441
2046.000000	12.165818
2045.000000	12.216583
2044.000000	12.276823
2043.000000	12.327363
2042.000000	12.375533
2041.000000	12.444685
2040.000000	12.477400
2039.000000	12.533016
2038.000000	12.582991
2037.000000	12.627664
2036.000000	12.686100
2035.000000	12.717461
2034.000000	12.748258
2033.000000	12.766534
2032.000000	12.779056
2031.000000	12.830272
2030.000000	12.860054
2029.000000	12.861971
2028.000000	12.892205
2027.000000	12.921084
2026.000000	12.928191
2025.000000	12.929658
2024.000000	12.936765
2023.000000	12.942067
2022.000000	12.933944
2021.000000	12.950640
2020.000000	12.963839
2019.000000	12.965531
2018.000000	12.939811
2017.000000	12.936990
2016.000000	12.940487
2015.000000	12.931801
2014.000000	12.912736
2013.000000	12.886000
2012.000000	12.868402
2011.000000	12.857572
2010.000000	12.840312
2009.000000	12.808838
2008.000000	12.782778
2007.000000	12.752658
2006.000000	12.705390
2005.000000	12.682716
2004.000000	12.644586
2003.000000	12.617060
2002.000000	12.577238
2001.000000	12.520494
2000.000000	12.459238
1999.000000	12.430810
1998.000000	12.380722
1997.000000	12.354324
1996.000000	12.282464
1995.000000	12.247493
1994.000000	12.188606
1993.000000	12.117986
1992.000000	12.058310
1991.000000	12.021759
1990.000000	11.955088
1989.000000	11.888756
1988.000000	11.840585
1987.000000	11.790949
1986.000000	11.720555
1985.000000	11.651966
1984.000000	11.584506
1983.000000	11.525731
1982.000000	11.463009
1981.000000	11.411793
1980.000000	11.360577
1979.000000	11.296726
1978.000000	11.247767
1977.000000	11.167107
1976.000000	11.126834
1975.000000	11.078664
1974.000000	10.995184
1973.000000	10.934830
1972.000000	10.896700
1971.000000	10.830368
1970.000000	10.785921
1969.000000	10.743955
1968.000000	10.686873
1967.000000	10.655512
1966.000000	10.582974
1965.000000	10.536948
1964.000000	10.497690
1963.000000	10.445346
1962.000000	10.386120
1961.000000	10.356225
1960.000000	10.323059
1959.000000	10.266090
1958.000000	10.234052
1957.000000	10.179677
1956.000000	10.115488
1955.000000	10.097325
1954.000000	10.034264
1953.000000	9.982259
1952.000000	9.974588
1951.000000	9.932058
1950.000000	9.885016
1949.000000	9.808531
1948.000000	9.817104
1947.000000	9.773221
1946.000000	9.756412
1945.000000	9.711852
1944.000000	9.689516
1943.000000	9.681845
1942.000000	9.677107
1941.000000	9.666728
1940.000000	9.661990
1939.000000	9.618445
1938.000000	9.645858
1937.000000	9.614497
1936.000000	9.628824
1935.000000	9.628598
1934.000000	9.624424
1933.000000	9.634690
1932.000000	9.666277
1931.000000	9.682634
1930.000000	9.713544
1929.000000	9.738701
1928.000000	9.798152
1927.000000	9.820940
1926.000000	9.888175
1925.000000	9.937924
1924.000000	9.971429
1923.000000	10.033588
1922.000000	10.120339
1921.000000	10.197727
1920.000000	10.281207
1919.000000	10.359271
1918.000000	10.436998
1917.000000	10.511227
1916.000000	10.623812
1915.000000	10.731997
1914.000000	10.862519
1913.000000	10.982775
1912.000000	11.111266
1911.000000	11.248443
1910.000000	11.374453
1909.000000	11.537915
1908.000000	11.686374
1907.000000	11.839232
1906.000000	12.023226
1905.000000	12.235196
1904.000000	12.463412
1903.000000	12.681813
1902.000000	12.890512
1901.000000	13.157760
1900.000000	13.410907
1899.000000	13.666084
1898.000000	13.964129
1897.000000	14.235326
1896.000000	14.521300
1895.000000	14.827468
1894.000000	15.129010
1893.000000	15.448038
1892.000000	15.843326
1891.000000	16.249895
1890.000000	16.674175
1889.000000	17.081195
1888.000000	17.483590
1887.000000	17.895687
1886.000000	18.306768
1885.000000	18.762973
1884.000000	19.243772
1883.000000	19.734159
1882.000000	20.189800
1881.000000	20.637770
1880.000000	21.068819
1879.000000	21.467379
1878.000000	21.880378
1877.000000	22.318985
1876.000000	22.744731
1875.000000	23.180857
1874.000000	23.579303
1873.000000	23.980006
1872.000000	24.403609
1871.000000	24.790436
1870.000000	25.133267
1869.000000	25.448798
1868.000000	25.730824
1867.000000	25.962086
1866.000000	26.133445
1865.000000	26.304917
1864.000000	26.458677
1863.000000	26.621124
1862.000000	26.793386
1861.000000	26.984148
1860.000000	27.164419
1859.000000	27.344126
1858.000000	27.514245
1857.000000	27.625589
1856.000000	27.725764
1855.000000	27.826053
1854.000000	27.924649
1853.000000	27.981731
1852.000000	28.035090
1851.000000	28.080102
1850.000000	28.128610
1849.000000	28.178247
1848.000000	28.243451
1847.000000	28.322644
1846.000000	28.343740
1845.000000	28.309558
1844.000000	28.276054
1843.000000	28.240518
1842.000000	28.260147
1841.000000	28.308656
1840.000000	28.316553
1839.000000	28.308881
1838.000000	28.310686
1837.000000	28.310574
1836.000000	28.281694
1835.000000	28.239954
1834.000000	28.189641
1833.000000	28.123872
1832.000000	28.069836
1831.000000	28.039603
1830.000000	28.010611
1829.000000	27.977444
1828.000000	27.929951
1827.000000	27.883135
1826.000000	27.838236
1825.000000	27.808003
1824.000000	27.762202
1823.000000	27.706135
1822.000000	27.693839
1821.000000	27.716852
1820.000000	27.718996
1819.000000	27.699592
1818.000000	27.650294
1817.000000	27.617805
1816.000000	27.592648
1815.000000	27.555533
1814.000000	27.535679
1813.000000	27.517065
1812.000000	27.495067
1811.000000	27.474310
1810.000000	27.441256
1809.000000	27.392296
1808.000000	27.350557
1807.000000	27.317052
1806.000000	27.275199
1805.000000	27.232670
1804.000000	27.208754
1803.000000	27.183372
1802.000000	27.145918
1801.000000	27.113316
1800.000000	27.073720
1799.000000	27.018781
1798.000000	26.978395
1797.000000	26.934060
1796.000000	26.890516
1795.000000	26.867277
1794.000000	26.828921
1793.000000	26.790227
1792.000000	26.766086
1791.000000	26.729648
1790.000000	26.698287
1789.000000	26.674371
1788.000000	26.642558
1787.000000	26.612663
1786.000000	26.587507
1785.000000	26.568329
1784.000000	26.530537
1783.000000	26.493423
1782.000000	26.463415
1781.000000	26.434197
1780.000000	26.390991
1779.000000	26.355004
1778.000000	26.319356
1777.000000	26.273781
1776.000000	26.235087
1775.000000	26.184097
1774.000000	26.113364
1773.000000	26.052560
1772.000000	26.008563
1771.000000	25.942795
1770.000000	25.878155
1769.000000	25.822990
1768.000000	25.771436
1767.000000	25.714918
1766.000000	25.661333
1765.000000	25.621624
1764.000000	25.572551
1763.000000	25.544687
1762.000000	25.538144
1761.000000	25.543107
1760.000000	25.550779
1759.000000	25.572551
1758.000000	25.598949
1757.000000	25.647119
1756.000000	25.674080
1755.000000	25.707698
1754.000000	25.729245
1753.000000	25.755642
1752.000000	25.778430
1751.000000	25.793885
1750.000000	25.793772
1749.000000	25.795464
1748.000000	25.771097
1747.000000	25.746505
1746.000000	25.729809
1745.000000	25.659189
1744.000000	25.585975
1743.000000	25.518402
1742.000000	25.433907
1741.000000	25.354601
1740.000000	25.252169
1739.000000	25.138344
1738.000000	25.041214
1737.000000	24.936977
1736.000000	24.838606
1735.000000	24.764603
1734.000000	24.699398
1733.000000	24.657094
1732.000000	24.628553
1731.000000	24.613775
1730.000000	24.612308
1729.000000	24.633178
1728.000000	24.657997
1727.000000	24.698044
1726.000000	24.718801
1725.000000	24.767310
1724.000000	24.824731
1723.000000	24.859363
1722.000000	24.919378
1721.000000	24.978830
1720.000000	25.091978
1719.000000	25.160116
1718.000000	25.269317
1717.000000	25.376938
1716.000000	25.491440
1715.000000	25.613614
1714.000000	25.728568
1713.000000	25.840025
1712.000000	25.938170
1711.000000	26.035074
1710.000000	26.118892
1709.000000	26.181615
1708.000000	26.233846
1707.000000	26.265658
1706.000000	26.290138
1705.000000	26.289010
1704.000000	26.278744
1703.000000	26.255506
1702.000000	26.196731
1701.000000	26.128594
1700.000000	26.073091
1699.000000	26.017363
1698.000000	25.956896
1697.000000	25.889887
1696.000000	25.819944
1695.000000	25.773918
1694.000000	25.756432
1693.000000	25.751920
1692.000000	25.753386
1691.000000	25.785199
1690.000000	25.826713
1689.000000	25.879508
1688.000000	25.968967
1687.000000	26.028869
1686.000000	26.124871
1685.000000	26.235425
1684.000000	26.342708
1683.000000	26.503124
1682.000000	26.688810
1681.000000	26.897735
1680.000000	27.163630
1679.000000	27.456260
1678.000000	27.731518
1677.000000	28.040618
1676.000000	28.314522
1675.000000	28.573084
1674.000000	28.829840
1673.000000	29.066855
1672.000000	29.279728
1671.000000	29.462932
1670.000000	29.653808
1669.000000	29.826521
1668.000000	29.988629
1667.000000	30.131786
1666.000000	30.241325
1665.000000	30.368575
1664.000000	30.462997
1663.000000	30.542980
1662.000000	30.618676
1661.000000	30.712083
1660.000000	30.779994
1659.000000	30.850614
1658.000000	30.901604
1657.000000	30.937929
1656.000000	30.989258
1655.000000	30.996139
1654.000000	31.026260
1653.000000	31.020845
1652.000000	31.020845
1651.000000	31.023778
1650.000000	30.988581
1649.000000	30.963311
1648.000000	30.956204
1647.000000	30.915593
1646.000000	30.903409
1645.000000	30.832226
1644.000000	30.805377
1643.000000	30.782138
1642.000000	30.739496
1641.000000	30.704637
1640.000000	30.658949
1639.000000	30.631987
1638.000000	30.576823
1637.000000	30.514777
1636.000000	30.487477
1635.000000	30.445173
1634.000000	30.386624
1633.000000	30.324127
1632.000000	30.260954
1631.000000	30.196990
1630.000000	30.129868
1629.000000	30.069740
1628.000000	30.003407
1627.000000	29.936398
1626.000000	29.882136
1625.000000	29.804522
1624.000000	29.732098
1623.000000	29.657869
1622.000000	29.594808
1621.000000	29.525655
1620.000000	29.481546
1619.000000	29.417470
1618.000000	29.345045
1617.000000	29.282887
1616.000000	29.235394
1615.000000	29.187111
1614.000000	29.106451
1613.000000	29.043954
1612.000000	28.982924
1611.000000	28.929790
1610.000000	28.836270
1609.000000	28.772645
1608.000000	28.701123
1607.000000	28.645846
1606.000000	28.584590
1605.000000	28.486445
1604.000000	28.397889
1603.000000	28.331782
1602.000000	28.240180
1601.000000	28.151624
1600.000000	28.078748
1599.000000	28.005647
1598.000000	27.934464
1597.000000	27.845230
1596.000000	27.782959
1595.000000	27.712227
1594.000000	27.630214
1593.000000	27.579675
1592.000000	27.496308
1591.000000	27.418356
1590.000000	27.358115
1589.000000	27.293700
1588.000000	27.219358
1587.000000	27.164419
1586.000000	27.098087
1585.000000	27.035364
1584.000000	26.954479
1583.000000	26.898864
1582.000000	26.848324
1581.000000	26.788422
1580.000000	26.726715
1579.000000	26.680914
1578.000000	26.641317
1577.000000	26.595065
1576.000000	26.544752
1575.000000	26.511472
1574.000000	26.471650
1573.000000	26.435325
1572.000000	26.414568
1571.000000	26.374521
1570.000000	26.349364
1569.000000	26.335375
1568.000000	26.309767
1567.000000	26.290702
1566.000000	26.273668
1565.000000	26.249414
1564.000000	26.240163
1563.000000	26.208464
1562.000000	26.186466
1561.000000	26.156909
1560.000000	26.110318
1559.000000	26.067563
1558.000000	26.030223
1557.000000	25.981602
1556.000000	25.944261
1555.000000	25.892256
1554.000000	25.827841
1553.000000	25.760042
1552.000000	25.700365
1551.000000	25.645878
1550.000000	25.563977
1549.000000	25.499788
1548.000000	25.423867
1547.000000	25.359226
1546.000000	25.293571
1545.000000	25.226900
1544.000000	25.171735
1543.000000	25.128980
1542.000000	25.077990
1541.000000	25.020569
1540.000000	24.979394
1539.000000	24.926486
1538.000000	24.880797
1537.000000	24.832740
1536.000000	24.784344
1535.000000	24.744071
1534.000000	24.682364
1533.000000	24.604412
1532.000000	24.559852
1531.000000	24.513035
1530.000000	24.461481
1529.000000	24.385221
1528.000000	24.320017
1527.000000	24.258084
1526.000000	24.186900
1525.000000	24.118537
1524.000000	24.066531
1523.000000	24.005163
1522.000000	23.940297
1521.000000	23.872610
1520.000000	23.795674
1519.000000	23.723926
1518.000000	23.661993
1517.000000	23.605249
1516.000000	23.525605
1515.000000	23.437162
1514.000000	23.364963
1513.000000	23.291975
1512.000000	23.226319
1511.000000	23.151300
1510.000000	23.063985
1509.000000	22.989079
1508.000000	22.908532
1507.000000	22.839943
1506.000000	22.777221
1505.000000	22.693967
1504.000000	22.618722
1503.000000	22.552389
1502.000000	22.476242
1501.000000	22.414535
1500.000000	22.345157
1499.000000	22.272620
1498.000000	22.217230
1497.000000	22.159358
1496.000000	22.090995
1495.000000	22.042148
1494.000000	21.998829
1493.000000	21.955509
1492.000000	21.909144
1491.000000	21.861877
1490.000000	21.830177
1489.000000	21.788211
1488.000000	21.747487
1487.000000	21.718269
1486.000000	21.680929
1485.000000	21.656674
1484.000000	21.610422
1483.000000	21.577369
1482.000000	21.556950
1481.000000	21.530214
1480.000000	21.492422
1479.000000	21.480126
1478.000000	21.459031
1477.000000	21.443011
1476.000000	21.429023
1475.000000	21.411086
1474.000000	21.412101
1473.000000	21.408717
1472.000000	21.406687
1471.000000	21.413794
1470.000000	21.410071
1469.000000	21.401159
1468.000000	21.399692
1467.000000	21.405333
1466.000000	21.435002
1465.000000	21.451924
1464.000000	21.452375
1463.000000	21.474260
1462.000000	21.487910
1461.000000	21.510585
1460.000000	21.553904
1459.000000	21.592598
1458.000000	21.625764
1457.000000	21.687585
1456.000000	21.731242
1455.000000	21.786519
1454.000000	21.824988
1453.000000	21.879250
1452.000000	21.966226
1451.000000	22.026693
1450.000000	22.078360
1449.000000	22.129802
1448.000000	22.180115
1447.000000	22.256262
1446.000000	22.331619
1445.000000	22.412956
1444.000000	22.485380
1443.000000	22.547313
1442.000000	22.636772
1441.000000	22.726682
1440.000000	22.800347
1439.000000	22.899846
1438.000000	22.999796
1437.000000	23.101889
1436.000000	23.207141
1435.000000	23.317808
1434.000000	23.441336
1433.000000	23.556741
1432.000000	23.696626
1431.000000	23.828050
1430.000000	23.951014
1429.000000	24.088078
1428.000000	24.246577
1427.000000	24.408234
1426.000000	24.562221
1425.000000	24.732564
1424.000000	24.915430
1423.000000	25.146240
1422.000000	25.338808
1421.000000	25.546153
1420.000000	25.770195
1419.000000	26.007774
1418.000000	26.242984
1417.000000	26.471425
1416.000000	26.738334
1415.000000	27.056685
1414.000000	27.344578
1413.000000	27.670374
1412.000000	27.947437
1411.000000	28.240406
1410.000000	28.611101
1409.000000	28.990144
1408.000000	29.351024
1407.000000	29.746651
1406.000000	30.136749
1405.000000	30.552230
1404.000000	30.992417
1403.000000	31.407333
1402.000000	31.777803
1401.000000	32.280599
1400.000000	32.795015
1399.000000	33.254830
1398.000000	33.567202
1397.000000	33.988888
1396.000000	34.458405
1395.000000	35.034415
1394.000000	35.489380
1393.000000	35.905312
1392.000000	36.392427
1391.000000	36.891727
1390.000000	37.375232
1389.000000	37.824669
1388.000000	38.443660
1387.000000	38.984812
1386.000000	39.517390
1385.000000	40.009808
1384.000000	40.570927
1383.000000	41.092788
1382.000000	41.604609
1381.000000	42.094206
1380.000000	42.436248
1379.000000	42.757419
1378.000000	43.060315
1377.000000	43.291125
1376.000000	43.525433
1375.000000	43.742593
1374.000000	44.002621
1373.000000	44.235123
1372.000000	44.499325
1371.000000	44.770747
1370.000000	45.010131
1369.000000	45.243536
1368.000000	45.506610
1367.000000	45.706510
1366.000000	45.908328
1365.000000	46.089840
1364.000000	46.298088
1363.000000	46.407401
1362.000000	46.599518
1361.000000	46.754519
1360.000000	46.905347
1359.000000	46.993452
1358.000000	47.077157
1357.000000	47.181845
1356.000000	47.304019
1355.000000	47.517118
1354.000000	47.705850
1353.000000	47.942188
1352.000000	48.163070
1351.000000	48.433703
1350.000000	48.726333
1349.000000	48.999447
1348.000000	49.256768
1347.000000	49.519503
1346.000000	49.778065
1345.000000	50.007747
1344.000000	50.296542
1343.000000	50.545402
1342.000000	50.768654
1341.000000	51.017288
1340.000000	51.252723
1339.000000	51.501357
1338.000000	51.763191
1337.000000	51.960947
1336.000000	52.209920
1335.000000	52.410271
1334.000000	52.644240
1333.000000	52.868169
1332.000000	53.071453
1331.000000	53.282860
1330.000000	53.491560
1329.000000	53.679051
1328.000000	53.870377
1327.000000	54.064975
1326.000000	54.262845
1325.000000	54.418410
1324.000000	54.608157
1323.000000	54.746463
1322.000000	54.906315
1321.000000	55.065265
1320.000000	55.200074
1319.000000	55.351127
1318.000000	55.502180
1317.000000	55.650752
1316.000000	55.775858
1315.000000	55.894873
1314.000000	56.010279
1313.000000	56.134370
1312.000000	56.239058
1311.000000	56.364955
1310.000000	56.474606
1309.000000	56.553799
1308.000000	56.648786
1307.000000	56.728994
1306.000000	56.804577
1305.000000	56.872150
1304.000000	56.945477
1303.000000	57.006733
1302.000000	57.065959
1301.000000	57.116272
1300.000000	57.149326
1299.000000	57.188245
1298.000000	57.229308
1297.000000	57.285939
1296.000000	57.310081
1295.000000	57.351933
1294.000000	57.352385
1293.000000	57.381151
1292.000000	57.399765
1291.000000	57.405970
1290.000000	57.410820
1289.000000	57.432367
1288.000000	57.427291
1287.000000	57.425147
1286.000000	57.411497
1285.000000	57.393899
1284.000000	57.380474
1283.000000	57.354415
1282.000000	57.333884
1281.000000	57.300943
1280.000000	57.282104
1279.000000	57.248148
1278.000000	57.211823
1277.000000	57.189825
1276.000000	57.166135
1275.000000	57.156884
1274.000000	57.146844
1273.000000	57.125748
1272.000000	57.119431
1271.000000	57.103976
1270.000000	57.091228
1269.000000	57.074871
1268.000000	57.065959
1267.000000	57.064267
1266.000000	57.039674
1265.000000	57.019707
1264.000000	56.995339
1263.000000	56.964091
1262.000000	56.951907
1261.000000	56.928894
1260.000000	56.896743
1259.000000	56.885236
1258.000000	56.854778
1257.000000	56.809653
1256.000000	56.764078
1255.000000	56.729671
1254.000000	56.677778
1253.000000	56.631751
1252.000000	56.580423
1251.000000	56.520407
1250.000000	56.460618
1249.000000	56.390224
1248.000000	56.316897
1247.000000	56.254175
1246.000000	56.175997
1245.000000	56.086990
1244.000000	56.004074
1243.000000	55.932552
1242.000000	55.853134
1241.000000	55.771684
1240.000000	55.696553
1239.000000	55.609350
1238.000000	55.539746
1237.000000	55.467096
1236.000000	55.387226
1235.000000	55.307808
1234.000000	55.223764
1233.000000	55.146827
1232.000000	55.055451
1231.000000	54.952004
1230.000000	54.858484
1229.000000	54.768010
1228.000000	54.665014
1227.000000	54.554008
1226.000000	54.465791
1225.000000	54.366179
1224.000000	54.247502
1223.000000	54.133451
1222.000000	54.015790
1221.000000	53.900159
1220.000000	53.778098
1219.000000	53.652766
1218.000000	53.542888
1217.000000	53.434365
1216.000000	53.324600
1215.000000	53.222055
1214.000000	53.119849
1213.000000	53.012454
1212.000000	52.900320
1211.000000	52.784802
1210.000000	52.662290
1209.000000	52.561889
1208.000000	52.468256
1207.000000	52.376090
1206.000000	52.278057
1205.000000	52.172692
1204.000000	52.089100
1203.000000	51.995806
1202.000000	51.917628
1201.000000	51.848250
1200.000000	51.779548
1199.000000	51.719420
1198.000000	51.634248
1197.000000	51.538923
1196.000000	51.436491
1195.000000	51.316236
1194.000000	51.197559
1193.000000	51.046280
1192.000000	50.879659
1191.000000	50.696229
1190.000000	50.503775
1189.000000	50.322827
1188.000000	50.172450
1187.000000	50.052420
1186.000000	49.976386
1185.000000	49.947845
1184.000000	49.964766
1183.000000	50.033806
1182.000000	50.149211
1181.000000	50.323391
1180.000000	50.529270
1179.000000	50.738759
1178.000000	50.961108
1177.000000	51.164844
1176.000000	51.349966
1175.000000	51.526401
1174.000000	51.697422
1173.000000	51.862464
1172.000000	52.019722
1171.000000	52.178220
1170.000000	52.336832
1169.000000	52.496910
1168.000000	52.670412
1167.000000	52.876630
1166.000000	53.075966
1165.000000	53.280604
1164.000000	53.475315
1163.000000	53.672056
1162.000000	53.888314
1161.000000	54.089906
1160.000000	54.311015
1159.000000	54.529641
1158.000000	54.725480
1157.000000	54.948168
1156.000000	55.137013
1155.000000	55.324617
1154.000000	55.489433
1153.000000	55.653008
1152.000000	55.810830
1151.000000	55.931424
1150.000000	56.052921
1149.000000	56.175320
1148.000000	56.308324
1147.000000	56.446404
1146.000000	56.593057
1145.000000	56.752007
1144.000000	56.930248
1143.000000	57.114016
1142.000000	57.307486
1141.000000	57.550705
1140.000000	57.794263
1139.000000	58.024284
1138.000000	58.288599
1137.000000	58.546370
1136.000000	58.819485
1135.000000	59.112341
1134.000000	59.406776
1133.000000	59.638150
1132.000000	59.835681
1131.000000	60.032197
1130.000000	60.223749
1129.000000	60.381458
1128.000000	60.521230
1127.000000	60.606853
1126.000000	60.696425
1125.000000	60.797616
1124.000000	60.849734
1123.000000	60.879291
1122.000000	60.909750
1121.000000	60.938742
1120.000000	60.932763
1119.000000	60.930507
1118.000000	60.938065
1117.000000	60.927235
1116.000000	60.915277
1115.000000	60.884480
1114.000000	60.838792
1113.000000	60.833377
1112.000000	60.778438
1111.000000	60.767383
1110.000000	60.739519
1109.000000	60.728576
1108.000000	60.697327
1107.000000	60.677698
1106.000000	60.627272
1105.000000	60.596813
1104.000000	60.577071
1103.000000	60.535896
1102.000000	60.521907
1101.000000	60.481859
1100.000000	60.444181
1099.000000	60.403569
1098.000000	60.378863
1097.000000	60.331483
1096.000000	60.303732
1095.000000	60.259510
1094.000000	60.214273
1093.000000	60.156514
1092.000000	60.111954
1091.000000	60.049231
1090.000000	60.017983
1089.000000	59.935067
1088.000000	59.888815
1087.000000	59.830492
1086.000000	59.771492
1085.000000	59.715312
1084.000000	59.629915
1083.000000	59.591898
1082.000000	59.522745
1081.000000	59.465663
1080.000000	59.400910
1079.000000	59.326680
1078.000000	59.261814
1077.000000	59.184990
1076.000000	59.109520
1075.000000	59.059432
1074.000000	58.974148
1073.000000	58.914133
1072.000000	58.838211
1071.000000	58.751460
1070.000000	58.690993
1069.000000	58.599053
1068.000000	58.541745
1067.000000	58.483535
1066.000000	58.380765
1065.000000	58.288035
1064.000000	58.212564
1063.000000	58.135853
1062.000000	58.044702
1061.000000	57.953890
1060.000000	57.915647
1059.000000	57.833972
1058.000000	57.742596
1057.000000	57.660244
1056.000000	57.571011
1055.000000	57.480763
1054.000000	57.398750
1053.000000	57.316060
1052.000000	57.218479
1051.000000	57.152597
1050.000000	57.057724
1049.000000	56.983269
1048.000000	56.909604
1047.000000	56.812135
1046.000000	56.729445
1045.000000	56.658600
1044.000000	56.590124
1043.000000	56.498973
1042.000000	56.433995
1041.000000	56.335398
1040.000000	56.245263
1039.000000	56.160768
1038.000000	56.092292
1037.000000	56.009602
1036.000000	55.929958
1035.000000	55.841063
1034.000000	55.753409
1033.000000	55.668576
1032.000000	55.595023
1031.000000	55.511205
1030.000000	55.422649
1029.000000	55.332513
1028.000000	55.239896
1027.000000	55.146602
1026.000000	55.077900
1025.000000	54.993744
1024.000000	54.896050
1023.000000	54.801063
1022.000000	54.705400
1021.000000	54.641549
1020.000000	54.549158
1019.000000	54.463196
1018.000000	54.381860
1017.000000	54.306051
1016.000000	54.216818
1015.000000	54.160187
1014.000000	54.085619
1013.000000	54.015451
1012.000000	53.957805
1011.000000	53.898354
1010.000000	53.832473
1009.000000	53.796599
1008.000000	53.744932
1007.000000	53.681758
1006.000000	53.646448
1005.000000	53.594443
1004.000000	53.548416
1003.000000	53.495395
1002.000000	53.437072
1001.000000	53.394655
1000.000000	53.354044
999.000000	53.315575
998.000000	53.256463
997.000000	53.207390
996.000000	53.163958
995.000000	53.136771
994.000000	53.115337
993.000000	53.075176
992.000000	53.025878
991.000000	52.994291
990.000000	52.977257
989.000000	52.954469
988.000000	52.906750
987.000000	52.884301
986.000000	52.878322
985.000000	52.852714
984.000000	52.844704
983.000000	52.818081
982.000000	52.786833
981.000000	52.780064
980.000000	52.767768
979.000000	52.757728
978.000000	52.743513
977.000000	52.746108
976.000000	52.743852
975.000000	52.734150
974.000000	52.721177
973.000000	52.721967
972.000000	52.728171
971.000000	52.734940
970.000000	52.737986
969.000000	52.737760
968.000000	52.749267
967.000000	52.749605
966.000000	52.763706
965.000000	52.773295
964.000000	52.783900
963.000000	52.793714
962.000000	52.798903
961.000000	52.829362
960.000000	52.839628
959.000000	52.863544
958.000000	52.897161
957.000000	52.892762
956.000000	52.900884
955.000000	52.933712
954.000000	52.988538
953.000000	53.019561
952.000000	53.027345
951.000000	53.044266
950.000000	53.073033
949.000000	53.124813
948.000000	53.145570
947.000000	53.157528
946.000000	53.193402
945.000000	53.204006
944.000000	53.200621
943.000000	53.206939
942.000000	53.237623
941.000000	53.243715
940.000000	53.224312
939.000000	53.226568
938.000000	53.242023
937.000000	53.248340
936.000000	53.237623
935.000000	53.229162
934.000000	53.233562
933.000000	53.261426
932.000000	53.256575
931.000000	53.229275
930.000000	53.207164
929.000000	53.212128
928.000000	53.200396
927.000000	53.168470
926.000000	53.150646
925.000000	53.124474
924.000000	53.132597
923.000000	53.117367
922.000000	53.083637
921.000000	53.050696
920.000000	53.016289
919.000000	52.984928
918.000000	52.932471
917.000000	52.894454
916.000000	52.845832
915.000000	52.807477
914.000000	52.770475
913.000000	52.720951
912.000000	52.672104
911.000000	52.638036
910.000000	52.606223
909.000000	52.539326
908.000000	52.482244
907.000000	52.417604
906.000000	52.367967
905.000000	52.328935
904.000000	52.284826
903.000000	52.198639
902.000000	52.117528
901.000000	52.055370
900.000000	52.004154
899.000000	51.956209
898.000000	51.892133
897.000000	51.793424
896.000000	51.682644
895.000000	51.618116
894.000000	51.545241
893.000000	51.413253
892.000000	51.317251
891.000000	51.251257
890.000000	51.139349
889.000000	51.027102
888.000000	50.919256
887.000000	50.831940
886.000000	50.730524
885.000000	50.606094
884.000000	50.480084
883.000000	50.343922
882.000000	50.231676
881.000000	50.094385
880.000000	49.981349
879.000000	49.807960
878.000000	49.607270
877.000000	49.394397
876.000000	49.195061
875.000000	48.948231
874.000000	48.707381
873.000000	48.526095
872.000000	48.474315
871.000000	48.463485
870.000000	48.471720
869.000000	48.472622
868.000000	48.477135
867.000000	48.449609
866.000000	48.454911
865.000000	48.467884
864.000000	48.464613
863.000000	48.451640
862.000000	48.426144
861.000000	48.432123
860.000000	48.402454
859.000000	48.398393
858.000000	48.378200
857.000000	47.877600
856.000000	48.823100
855.000000	48.433900
854.000000	48.659300
853.000000	48.589100
852.000000	48.634900
851.000000	48.429800
850.000000	48.586500
849.000000	48.219700
848.000000	48.413800
847.000000	48.415500
846.000000	48.298000
845.000000	48.004900
844.000000	48.307700
843.000000	48.115000
842.000000	48.367800
841.000000	48.184000
840.000000	48.283500
839.000000	48.129000
838.000000	47.896200
837.000000	47.892300
836.000000	47.787100
835.000000	47.695000
834.000000	47.421700
833.000000	47.439300
832.000000	47.600600
831.000000	47.377000
830.000000	47.339800
829.000000	47.258600
828.000000	46.942600
827.000000	47.029200
826.000000	46.952000
825.000000	47.017200
824.000000	46.896300
823.000000	46.631100
822.000000	46.614300
821.000000	46.483600
820.000000	46.477200
819.000000	46.370000
818.000000	46.067200
817.000000	45.900900
816.000000	45.843500
815.000000	45.658000
814.000000	45.765700
813.000000	45.598700
812.000000	45.472200
811.000000	45.429600
810.000000	45.329500
809.000000	45.065000
808.000000	44.987700
807.000000	44.879700
806.000000	44.822900
805.000000	44.621100
804.000000	44.577300
803.000000	44.377800
802.000000	44.336100
801.000000	44.121700
800.000000	43.940400
799.000000	43.789000
798.000000	43.703500
797.000000	43.502800
796.000000	43.367800
795.000000	43.288400
794.000000	43.061700
793.000000	42.919400
792.000000	42.885200
791.000000	42.748800
790.000000	42.473500
789.000000	42.328700
788.000000	42.201500
787.000000	42.043400
786.000000	41.891600
785.000000	41.728200
784.000000	41.425400
783.000000	41.264400
782.000000	41.156100
781.000000	41.019800
780.000000	40.717500
779.000000	40.573200
778.000000	40.367800
777.000000	40.209100
776.000000	39.951900
775.000000	39.734800
774.000000	39.660400
773.000000	39.421900
772.000000	39.119200
771.000000	39.069200
770.000000	38.829900
769.000000	38.627800
768.000000	38.356600
767.000000	38.190400
766.000000	37.980600
765.000000	37.742400
764.000000	37.568300
763.000000	37.398100
762.000000	37.271900
761.000000	36.891400
760.000000	36.672000
759.000000	36.419600
758.000000	36.273800
757.000000	36.084700
756.000000	35.838900
755.000000	35.624100
754.000000	35.331200
753.000000	35.149100
752.000000	34.944300
751.000000	34.652400
750.000000	34.461700
749.000000	34.161000
748.000000	33.937400
747.000000	33.663300
746.000000	33.418500
745.000000	33.166100
744.000000	32.894200
743.000000	32.650600
742.000000	32.418900
741.000000	32.116000
740.000000	31.910000
739.000000	31.715600
738.000000	31.454300
737.000000	31.150000
736.000000	30.828700
735.000000	30.620000
734.000000	30.455300
733.000000	30.188500
732.000000	30.001700
731.000000	29.790600
730.000000	29.511000
729.000000	29.324600
728.000000	29.057000
727.000000	28.823100
726.000000	28.646600
725.000000	28.374900
724.000000	28.139300
723.000000	27.897000
722.000000	27.667800
721.000000	27.465000
720.000000	27.213200
719.000000	26.947100
718.000000	26.761000
717.000000	26.549900
716.000000	26.333300
715.000000	26.086600
714.000000	25.922400
713.000000	25.714400
712.000000	25.504800
711.000000	25.269200
710.000000	25.094000
709.000000	24.888000
708.000000	24.712800
707.000000	24.543700
706.000000	24.309000
705.000000	24.119300
704.000000	23.919200
703.000000	23.717400
702.000000	23.556000
701.000000	23.378900
700.000000	23.166200
699.000000	23.031400
698.000000	22.865700
697.000000	22.668100
696.000000	22.508000
695.000000	22.352500
694.000000	22.208500
693.000000	22.057700
692.000000	21.913700
691.000000	21.771800
690.000000	21.630200
689.000000	21.466100
688.000000	21.301400
687.000000	21.173200
686.000000	21.053400
685.000000	20.918800
684.000000	20.776800
683.000000	20.644700
682.000000	20.497100
681.000000	20.367500
680.000000	20.251800
679.000000	20.134400
678.000000	20.000500
677.000000	19.867200
676.000000	19.775900
675.000000	19.680400
674.000000	19.560600
673.000000	19.461600
672.000000	19.344000
671.000000	19.245500
670.000000	19.137600
669.000000	19.056300
668.000000	18.987400
667.000000	18.912100
666.000000	18.843400
665.000000	18.757900
664.000000	18.669900
663.000000	18.608300
662.000000	18.550800
661.000000	18.477600
660.000000	18.414800
659.000000	18.382700
658.000000	18.349300
657.000000	18.284200
656.000000	18.222900
655.000000	18.178700
654.000000	18.159500
653.000000	18.146600
652.000000	18.123500
651.000000	18.107000
650.000000	18.095000
649.000000	18.087500
648.000000	18.067100
647.000000	18.060800
646.000000	18.066000
645.000000	18.064700
644.000000	18.091500
643.000000	18.081300
642.000000	18.077000
641.000000	18.112600
640.000000	18.136800
639.000000	18.163400
638.000000	18.172000
637.000000	18.194700
636.000000	18.256300
635.000000	18.327400
634.000000	18.398700
633.000000	18.467600
632.000000	18.535200
631.000000	18.633500
630.000000	18.741800
629.000000	18.845200
628.000000	18.966400
627.000000	19.090500
626.000000	19.239700
625.000000	19.405500
624.000000	19.566100
623.000000	19.732200
622.000000	19.898900
621.000000	20.075000
620.000000	20.259800
619.000000	20.440600
618.000000	20.601800
617.000000	20.762500
616.000000	20.960000
615.000000	21.169500
614.000000	21.367800
613.000000	21.564500
612.000000	21.756000
611.000000	21.969100
610.000000	22.159800
609.000000	22.302100
608.000000	22.468400
607.000000	22.647600
606.000000	22.812100
605.000000	22.976300
604.000000	23.135100
603.000000	23.280800
602.000000	23.443600
601.000000	23.594000
600.000000	23.737500
599.000000	23.881300
598.000000	23.998200
597.000000	24.118700
596.000000	24.264900
595.000000	24.403800
594.000000	24.515500
593.000000	24.623400
592.000000	24.768000
591.000000	24.892900
590.000000	24.997600
589.000000	25.111300
588.000000	25.209600
587.000000	25.316700
586.000000	25.407900
585.000000	25.504300
584.000000	25.605300
583.000000	25.682200
582.000000	25.762000
581.000000	25.848700
580.000000	25.926600
579.000000	25.994400
578.000000	26.041100
577.000000	26.103500
576.000000	26.164000
575.000000	26.208000
574.000000	26.248800
573.000000	26.294600
572.000000	26.302200
571.000000	26.311900
570.000000	26.327400
569.000000	26.344300
568.000000	26.337200
567.000000	26.328600
566.000000	26.323100
565.000000	26.301800
564.000000	26.281400
563.000000	26.240900
562.000000	26.176600
561.000000	26.131700
560.000000	26.088100
559.000000	26.025400
558.000000	25.958100
557.000000	25.856700
556.000000	25.766200
555.000000	25.662900
554.000000	25.558700
553.000000	25.451700
552.000000	25.324100
551.000000	25.186100
550.000000	25.066600
549.000000	24.934000
548.000000	24.814800
547.000000	24.651700
546.000000	24.473400
545.000000	24.296600
544.000000	24.088500
543.000000	23.889000
542.000000	23.672400
541.000000	23.452200
540.000000	23.202000
539.000000	22.972200
538.000000	22.707700
537.000000	22.423100
536.000000	22.153800
535.000000	21.857300
534.000000	21.533700
533.000000	21.207900
532.000000	20.895000
531.000000	20.541500
530.000000	20.185600
529.000000	19.824700
528.000000	19.468700
527.000000	19.103400
526.000000	18.698600
525.000000	18.312900
524.000000	17.918400
523.000000	17.519100
522.000000	17.141100
521.000000	16.747700
520.000000	16.358800
519.000000	15.998900
518.000000	15.610600
517.000000	15.250900
516.000000	14.889800
515.000000	14.546600
514.000000	14.217000
513.000000	13.898500
512.000000	13.601100
511.000000	13.310600
510.000000	13.035300
509.000000	12.747200
508.000000	12.500000
507.000000	12.261200
506.000000	12.029500
505.000000	11.832200
504.000000	11.620400
503.000000	11.421500
502.000000	11.220800
501.000000	11.033600
500.000000	10.873000
499.000000	10.724000
498.000000	10.570400
497.000000	10.441400
496.000000	10.307900
495.000000	10.168800
494.000000	10.069400
493.000000	9.933600
492.000000	9.820600
491.000000	9.723600
490.000000	9.622000
489.000000	9.533200
488.000000	9.447500
487.000000	9.347900
486.000000	9.290100
485.000000	9.192600
484.000000	9.126100
483.000000	9.068000
482.000000	8.985200
481.000000	8.912900
480.000000	8.843300
479.000000	8.741000
478.000000	8.678500
477.000000	8.593300
476.000000	8.534300
475.000000	8.468200
474.000000	8.385100
473.000000	8.314600
472.000000	8.249600
471.000000	8.192300
470.000000	8.130600
469.000000	8.073300
468.000000	8.005500
467.000000	7.965800
466.000000	7.893100
465.000000	7.848400
464.000000	7.787800
463.000000	7.736200
462.000000	7.688400
461.000000	7.633900
460.000000	7.582800
459.000000	7.520000
458.000000	7.469800
457.000000	7.435000
456.000000	7.383600
455.000000	7.321300
454.000000	7.264700
453.000000	7.227600
452.000000	7.174400
451.000000	7.119800
450.000000	7.059800
449.000000	6.989500
448.000000	6.940800
447.000000	6.885600
446.000000	6.829300
445.000000	6.784600
444.000000	6.729100
443.000000	6.672800
442.000000	6.618100
441.000000	6.562900
440.000000	6.486300
439.000000	6.422500
438.000000	6.378000
437.000000	6.307900
436.000000	6.255400
435.000000	6.181100
434.000000	6.128100
433.000000	6.088100
432.000000	6.021000
431.000000	5.959400
430.000000	5.910100
429.000000	5.862400
428.000000	5.822300
427.000000	5.757200
426.000000	5.720500
425.000000	5.661800
424.000000	5.619400
423.000000	5.555900
422.000000	5.517800
421.000000	5.490200
420.000000	5.442300
419.000000	5.378900
418.000000	5.330100
417.000000	5.299100
416.000000	5.265700
415.000000	5.229000
414.000000	5.172000
413.000000	5.137500
412.000000	5.109200
411.000000	5.045500
410.000000	5.002400
409.000000	4.969500
408.000000	4.941800
407.000000	4.904400
406.000000	4.862300
405.000000	4.811500
404.000000	4.801300
403.000000	4.787800
402.000000	4.726200
401.000000	4.684800
400.000000	4.651500
399.000000	4.613000
398.000000	4.588200
397.000000	4.576400
396.000000	4.558000
395.000000	4.527800
394.000000	4.479800
393.000000	4.433100
392.000000	4.422800
391.000000	4.398500
390.000000	4.387400
389.000000	4.362100
388.000000	4.352000
387.000000	4.328500
386.000000	4.325100
385.000000	4.301600
384.000000	4.277300
383.000000	4.238000
382.000000	4.221100
381.000000	4.223000
380.000000	4.223700
379.000000	4.177300
378.000000	4.173000
377.000000	4.204400
376.000000	4.172500
375.000000	3.800500
374.000000	3.363200
373.000000	3.672800
372.000000	3.844400
371.000000	3.961500
370.000000	3.938200
369.000000	4.003500
368.000000	4.064300
367.000000	3.919200
366.000000	3.979600
365.000000	4.144000
364.000000	4.024500
363.000000	3.964300
362.000000	4.028900
361.000000	4.111500
360.000000	4.123600
359.000000	4.152100
358.000000	4.026200
357.000000	3.976300
356.000000	4.124000
355.000000	4.118100
354.000000	4.090500
353.000000	4.037900
352.000000	3.971100
351.000000	4.135400
350.000000	4.107000
349.000000	4.204700
348.000000	4.371100
347.000000	4.255900
346.000000	4.123900
345.000000	4.127700
344.000000	4.242000
343.000000	4.222800
342.000000	4.234500
341.000000	4.452800
340.000000	4.352100
339.000000	4.271400
338.000000	4.172200
337.000000	4.024700
336.000000	4.227100
335.000000	4.302700
334.000000	4.375300
333.000000	4.321600
332.000000	4.337300
331.000000	4.616100
330.000000	4.364900
329.000000	4.196200
328.000000	4.445500
327.000000	4.571800
326.000000	4.606300
325.000000	4.413900
324.000000	4.564400
323.000000	4.960500
322.000000	5.041800
321.000000	5.455500
320.000000	4.859600
319.000000	4.693400
318.000000	5.341100
317.000000	5.430100
316.000000	4.589500
315.000000	4.024000
314.000000	4.060500
313.000000	4.046700
312.000000	4.014700
311.000000	3.986100
310.000000	4.035000
309.000000	4.072700
308.000000	4.055300
307.000000	4.056900
306.000000	4.050500
305.000000	4.053400
304.000000	4.042300
303.000000	4.029100
302.000000	4.029900
301.000000	4.043500
300.000000	4.039300
299.000000	4.020600
298.000000	4.038600
297.000000	4.069700
296.000000	4.052000
295.000000	4.071500
294.000000	4.075000
293.000000	4.058700
292.000000	4.081400
291.000000	4.088800
290.000000	4.106800
289.000000	4.081300
288.000000	4.053200
287.000000	4.062000
286.000000	4.066800
285.000000	4.054000
284.000000	4.094100
283.000000	4.085700
282.000000	4.103200
281.000000	4.127300
280.000000	4.131700
279.000000	4.164500
278.000000	4.125200
277.000000	4.124500
276.000000	4.143700
275.000000	4.165400
274.000000	4.151900
273.000000	4.123200
272.000000	4.174100
271.000000	4.178700
270.000000	4.193700
269.000000	4.227000
268.000000	4.201400
267.000000	4.227800
266.000000	4.260900
265.000000	4.261700
264.000000	4.320300
263.000000	4.333900
262.000000	4.354300
261.000000	4.348000
260.000000	4.367200
259.000000	4.370800
258.000000	4.383500
257.000000	4.336600
256.000000	4.366800
255.000000	4.406700
254.000000	4.401300
253.000000	4.427100
252.000000	4.434000
251.000000	4.412700
250.000000	4.411100
