PE UV       SUBTECH     SPECTRUM    ASCII       PEDS        4.00        
   -1
CICIMAUCR0015-1.Sample.ASC
24/03/08
11:15:04.00
24/03/08
11:15:04.00
Vinicio Soto Monge
C. resplendens
250,000000
1
Lambda 1050
1050L1511233
PerkinElmer UV WinLab 6.3.2.0749 / 2.02.05 Lambda 900 UV/VIS/NIR, Aug  7 2015 09:38:08

0
0
3350/servo 860,8/2
0
0
UV/VIS
1
1
1
DoubleDePol,CommonBeamDepol,RBeamAtt,SBeamAtt,60mm sphere, WB InGaAs Detector
0
0
0
0
Program
Program
3350/servo 860,8/2
3350/0,2 860,8/0,2
3350/0,2 860,8/0,2
0
15.00
 
 
 
0
 
860,8
319,2
860,8
Front
100
on
S:100 R:100
0
0
0
0
 
0
 
 
 
0
 
 
0
0
0
0
0
 
 
 
 
0
0


0
0
#HDR
-1
-1
#GR
nm
%R
1.0
0.0
2500,000000
-1,000000
2251
8
23,608200
1,584400
#DATA

250.000000	nan
251.000000	nan
252.000000	nan
253.000000	nan
254.000000	nan
255.000000	nan
256.000000	nan
257.000000	nan
258.000000	nan
259.000000	2.081459
260.000000	2.079510
261.000000	2.076079
262.000000	2.079302
263.000000	2.076642
264.000000	2.072316
265.000000	2.071054
266.000000	2.065956
267.000000	2.063958
268.000000	2.060318
269.000000	2.053247
270.000000	2.045783
271.000000	2.042560
272.000000	2.043823
273.000000	2.038038
274.000000	2.039141
275.000000	2.030624
276.000000	2.025783
277.000000	2.020256
278.000000	2.011603
279.000000	2.015488
280.000000	2.010954
281.000000	2.009115
282.000000	1.999287
283.000000	1.995255
284.000000	1.987264
285.000000	1.988956
286.000000	1.987938
287.000000	1.985218
288.000000	1.984789
289.000000	1.985156
290.000000	1.982215
291.000000	1.976320
292.000000	1.970536
293.000000	1.972938
294.000000	1.973281
295.000000	1.969469
296.000000	1.972411
297.000000	1.978122
298.000000	1.977668
299.000000	1.971553
300.000000	1.978967
301.000000	1.983600
302.000000	1.984114
303.000000	1.981296
304.000000	1.980401
305.000000	1.983869
306.000000	1.983244
307.000000	1.981235
308.000000	1.985365
309.000000	1.990733
310.000000	1.990389
311.000000	1.988747
312.000000	1.991162
313.000000	1.990855
314.000000	1.990242
315.000000	1.992154
316.000000	2.001015
317.000000	2.053725
318.000000	2.097035
319.000000	2.136559
320.000000	2.164770
321.000000	2.202198
322.000000	2.245080
323.000000	2.297177
324.000000	2.339740
325.000000	2.377511
326.000000	2.399620
327.000000	2.374913
328.000000	2.342375
329.000000	2.323563
330.000000	2.327950
331.000000	2.329482
332.000000	2.306871
333.000000	2.288746
334.000000	2.266257
335.000000	2.244075
336.000000	2.219809
337.000000	2.204809
338.000000	2.213718
339.000000	2.211574
340.000000	2.203485
341.000000	2.186597
342.000000	2.197149
343.000000	2.197615
344.000000	2.204882
345.000000	2.208841
346.000000	2.217726
347.000000	2.223645
348.000000	2.226439
349.000000	2.229209
350.000000	2.218436
351.000000	2.214196
352.000000	2.202419
353.000000	2.195115
354.000000	2.188460
355.000000	2.191107
356.000000	2.199992
357.000000	2.203939
358.000000	2.202676
359.000000	2.195997
360.000000	2.201953
361.000000	2.206806
362.000000	2.212775
363.000000	2.209037
364.000000	2.219883
365.000000	2.221096
366.000000	2.224491
367.000000	2.229160
368.000000	2.232567
369.000000	2.239013
370.000000	2.239026
371.000000	2.241170
372.000000	2.236746
373.000000	2.233045
374.000000	2.225618
375.000000	2.224479
376.000000	2.222444
377.000000	2.202039
378.000000	2.186377
379.000000	2.172271
380.000000	2.165861
381.000000	2.160248
382.000000	2.159881
383.000000	2.167271
384.000000	2.173582
385.000000	2.179342
386.000000	2.185225
387.000000	2.213743
388.000000	2.242886
389.000000	2.274909
390.000000	2.307594
391.000000	2.340108
392.000000	2.374129
393.000000	2.411336
394.000000	2.449572
395.000000	2.490628
396.000000	2.533411
397.000000	2.578315
398.000000	2.625767
399.000000	2.674960
400.000000	2.725121
401.000000	2.776643
402.000000	2.830333
403.000000	2.883681
404.000000	2.937984
405.000000	2.993672
406.000000	3.050476
407.000000	3.108787
408.000000	3.166755
409.000000	3.223043
410.000000	3.280876
411.000000	3.340229
412.000000	3.400047
413.000000	3.460748
414.000000	3.521412
415.000000	3.580470
416.000000	3.637985
417.000000	3.692888
418.000000	3.748136
419.000000	3.805662
420.000000	3.861792
421.000000	3.916095
422.000000	3.969467
423.000000	4.021736
424.000000	4.072694
425.000000	4.123382
426.000000	4.172918
427.000000	4.222000
428.000000	4.269355
429.000000	4.312690
430.000000	4.352949
431.000000	4.391749
432.000000	4.429496
433.000000	4.464546
434.000000	4.497549
435.000000	4.527808
436.000000	4.555566
437.000000	4.581621
438.000000	4.605286
439.000000	4.626635
440.000000	4.645091
441.000000	4.660889
442.000000	4.673352
443.000000	4.681894
444.000000	4.687127
445.000000	4.691294
446.000000	4.694725
447.000000	4.695154
448.000000	4.693708
449.000000	4.690117
450.000000	4.684578
451.000000	4.677887
452.000000	4.670203
453.000000	4.663229
454.000000	4.655876
455.000000	4.646856
456.000000	4.637665
457.000000	4.629478
458.000000	4.623044
459.000000	4.620654
460.000000	4.621537
461.000000	4.625397
462.000000	4.633853
463.000000	4.647003
464.000000	4.665313
465.000000	4.688610
466.000000	4.715682
467.000000	4.747803
468.000000	4.783650
469.000000	4.821740
470.000000	4.865491
471.000000	4.913557
472.000000	4.962750
473.000000	5.012151
474.000000	5.062851
475.000000	5.114569
476.000000	5.166960
477.000000	5.218850
478.000000	5.270212
479.000000	5.321157
480.000000	5.366097
481.000000	5.403243
482.000000	5.434360
483.000000	5.463160
484.000000	5.490906
485.000000	5.518247
486.000000	5.545932
487.000000	5.572061
488.000000	5.597037
489.000000	5.620396
490.000000	5.645053
491.000000	5.673890
492.000000	5.706109
493.000000	5.738942
494.000000	5.768930
495.000000	5.796358
496.000000	5.822082
497.000000	5.847352
498.000000	5.871201
499.000000	5.895013
500.000000	5.920014
501.000000	5.945934
502.000000	5.972614
503.000000	6.000875
504.000000	6.030827
505.000000	6.062629
506.000000	6.097214
507.000000	6.135230
508.000000	6.177585
509.000000	6.223873
510.000000	6.272551
511.000000	6.324833
512.000000	6.381648
513.000000	6.443415
514.000000	6.511886
515.000000	6.586521
516.000000	6.666769
517.000000	6.752348
518.000000	6.844863
519.000000	6.945296
520.000000	7.056684
521.000000	7.177730
522.000000	7.309132
523.000000	7.448806
524.000000	7.597512
525.000000	7.755974
526.000000	7.924975
527.000000	8.104062
528.000000	8.293199
529.000000	8.489137
530.000000	8.689524
531.000000	8.896149
532.000000	9.108118
533.000000	9.325233
534.000000	9.548194
535.000000	9.776009
536.000000	10.007537
537.000000	10.242128
538.000000	10.478730
539.000000	10.717354
540.000000	10.957007
541.000000	11.196537
542.000000	11.435112
543.000000	11.670084
544.000000	11.899025
545.000000	12.122122
546.000000	12.337791
547.000000	12.543828
548.000000	12.740673
549.000000	12.929320
550.000000	13.110858
551.000000	13.282077
552.000000	13.444791
553.000000	13.599687
554.000000	13.750194
555.000000	13.893545
556.000000	14.027900
557.000000	14.156716
558.000000	14.277688
559.000000	14.390254
560.000000	14.484987
561.000000	14.569427
562.000000	14.644442
563.000000	14.713170
564.000000	14.771235
565.000000	14.821764
566.000000	14.867697
567.000000	14.906436
568.000000	14.944391
569.000000	14.977211
570.000000	15.015227
571.000000	15.053182
572.000000	15.092509
573.000000	15.133417
574.000000	15.176458
575.000000	15.218935
576.000000	15.259145
577.000000	15.301230
578.000000	15.338155
579.000000	15.376551
580.000000	15.413979
581.000000	15.449605
582.000000	15.481592
583.000000	15.514093
584.000000	15.541802
585.000000	15.566717
586.000000	15.589218
587.000000	15.610873
588.000000	15.632761
589.000000	15.649612
590.000000	15.662407
591.000000	15.676709
592.000000	15.692518
593.000000	15.701783
594.000000	15.710962
595.000000	15.718696
596.000000	15.723696
597.000000	15.727017
598.000000	15.725558
599.000000	15.724982
600.000000	15.723463
601.000000	15.719774
602.000000	15.711146
603.000000	15.696293
604.000000	15.680974
605.000000	15.661708
606.000000	15.639269
607.000000	15.611020
608.000000	15.579561
609.000000	15.540135
610.000000	15.499693
611.000000	15.454997
612.000000	15.405339
613.000000	15.354259
614.000000	15.293153
615.000000	15.227820
616.000000	15.162610
617.000000	15.093612
618.000000	15.019565
619.000000	14.942945
620.000000	14.862354
621.000000	14.773515
622.000000	14.676134
623.000000	14.569427
624.000000	14.457266
625.000000	14.336391
626.000000	14.207330
627.000000	14.069458
628.000000	13.923313
629.000000	13.769889
630.000000	13.607493
631.000000	13.438639
632.000000	13.265042
633.000000	13.090416
634.000000	12.915643
635.000000	12.742646
636.000000	12.569331
637.000000	12.400343
638.000000	12.237567
639.000000	12.085258
640.000000	11.942373
641.000000	11.812037
642.000000	11.697389
643.000000	11.597017
644.000000	11.511034
645.000000	11.442784
646.000000	11.392978
647.000000	11.361592
648.000000	11.349656
649.000000	11.355121
650.000000	11.378554
651.000000	11.420393
652.000000	11.479881
653.000000	11.559994
654.000000	11.654752
655.000000	11.760553
656.000000	11.875263
657.000000	11.999863
658.000000	12.133323
659.000000	12.269958
660.000000	12.409509
661.000000	12.549306
662.000000	12.686039
663.000000	12.818838
664.000000	12.950080
665.000000	13.076678
666.000000	13.199917
667.000000	13.315448
668.000000	13.422438
669.000000	13.525382
670.000000	13.623033
671.000000	13.714654
672.000000	13.802831
673.000000	13.885444
674.000000	13.961868
675.000000	14.037864
676.000000	14.112585
677.000000	14.184217
678.000000	14.254477
679.000000	14.321759
680.000000	14.390009
681.000000	14.457425
682.000000	14.523531
683.000000	14.585224
684.000000	14.642665
685.000000	14.696221
686.000000	14.742644
687.000000	14.788405
688.000000	14.832831
689.000000	14.872685
690.000000	14.907061
691.000000	14.938778
692.000000	14.964000
693.000000	14.985103
694.000000	15.003168
695.000000	15.016244
696.000000	15.026220
697.000000	15.034321
698.000000	15.040877
699.000000	15.048047
700.000000	15.054003
701.000000	15.060560
702.000000	15.068244
703.000000	15.077337
704.000000	15.088367
705.000000	15.102522
706.000000	15.125795
707.000000	15.150759
708.000000	15.176066
709.000000	15.206398
710.000000	15.238556
711.000000	15.273569
712.000000	15.315961
713.000000	15.363989
714.000000	15.420143
715.000000	15.484472
716.000000	15.548849
717.000000	15.619182
718.000000	15.698119
719.000000	15.783980
720.000000	15.876900
721.000000	15.973325
722.000000	16.072507
723.000000	16.174606
724.000000	16.277772
725.000000	16.378192
726.000000	16.479201
727.000000	16.578947
728.000000	16.674514
729.000000	16.764934
730.000000	16.851322
731.000000	16.934915
732.000000	17.015420
733.000000	17.097311
734.000000	17.175684
735.000000	17.250539
736.000000	17.323434
737.000000	17.392358
738.000000	17.462336
739.000000	17.529385
740.000000	17.593640
741.000000	17.659696
742.000000	17.724159
743.000000	17.778879
744.000000	17.832153
745.000000	17.887645
746.000000	17.941508
747.000000	17.996338
748.000000	18.048521
749.000000	18.101685
750.000000	18.157949
751.000000	18.212645
752.000000	18.267941
753.000000	18.329095
754.000000	18.391903
755.000000	18.453646
756.000000	18.515731
757.000000	18.576665
758.000000	18.633615
759.000000	18.688115
760.000000	18.740604
761.000000	18.790557
762.000000	18.836135
763.000000	18.877337
764.000000	18.917228
765.000000	18.954962
766.000000	18.989241
767.000000	19.020761
768.000000	19.051265
769.000000	19.077651
770.000000	19.097688
771.000000	19.121145
772.000000	19.148315
773.000000	19.173904
774.000000	19.196062
775.000000	19.218060
776.000000	19.246443
777.000000	19.276628
778.000000	19.312561
779.000000	19.354511
780.000000	19.401902
781.000000	19.447235
782.000000	19.493376
783.000000	19.549775
784.000000	19.617253
785.000000	19.690760
786.000000	19.760714
787.000000	19.830655
788.000000	19.905204
789.000000	19.986053
790.000000	20.068519
791.000000	20.146733
792.000000	20.220056
793.000000	20.289385
794.000000	20.349387
795.000000	20.408507
796.000000	20.468668
797.000000	20.526391
798.000000	20.580694
799.000000	20.624789
800.000000	20.663700
801.000000	20.698517
802.000000	20.728947
803.000000	20.748788
804.000000	20.768372
805.000000	20.779402
806.000000	20.789562
807.000000	20.804869
808.000000	20.815310
809.000000	20.827002
810.000000	20.844172
811.000000	20.865668
812.000000	20.886465
813.000000	20.913476
814.000000	20.943060
815.000000	20.973625
816.000000	21.000746
817.000000	21.027254
818.000000	21.055392
819.000000	21.080577
820.000000	21.102796
821.000000	21.122735
822.000000	21.144501
823.000000	21.159698
824.000000	21.177345
825.000000	21.189405
826.000000	21.207677
827.000000	21.223707
828.000000	21.240693
829.000000	21.255669
830.000000	21.255461
831.000000	21.249223
832.000000	21.257728
833.000000	21.265633
834.000000	21.262814
835.000000	21.259039
836.000000	21.247764
837.000000	21.231195
838.000000	21.220153
839.000000	21.208020
840.000000	21.201476
841.000000	21.200839
842.000000	21.187713
843.000000	21.171205
844.000000	21.166389
845.000000	21.171377
846.000000	21.173411
847.000000	21.180593
848.000000	21.196611
849.000000	21.207800
850.000000	21.227371
851.000000	21.243916
852.000000	21.239958
853.000000	21.249002
854.000000	21.276074
855.000000	21.286798
856.000000	21.311811
857.000000	21.334949
858.000000	21.811644
859.000000	21.880988
860.000000	21.946520
861.000000	22.011552
862.000000	22.095328
863.000000	22.170531
864.000000	22.214895
865.000000	22.267698
866.000000	22.303452
867.000000	22.330650
868.000000	21.878020
869.000000	21.836890
870.000000	21.793370
871.000000	21.747510
872.000000	21.696590
873.000000	21.645400
874.000000	21.593190
875.000000	21.539210
876.000000	21.487390
877.000000	21.439780
878.000000	21.396210
879.000000	21.353570
880.000000	21.313560
881.000000	21.274520
882.000000	21.239020
883.000000	21.205550
884.000000	21.175500
885.000000	21.146960
886.000000	21.118530
887.000000	21.089150
888.000000	21.060380
889.000000	21.030630
890.000000	20.996600
891.000000	20.967180
892.000000	20.935180
893.000000	20.901320
894.000000	20.863870
895.000000	20.826060
896.000000	20.788830
897.000000	20.749030
898.000000	20.706300
899.000000	20.663930
900.000000	20.624870
901.000000	20.578510
902.000000	20.534970
903.000000	20.492450
904.000000	20.452120
905.000000	20.412990
906.000000	20.376600
907.000000	20.342910
908.000000	20.312990
909.000000	20.284700
910.000000	20.258580
911.000000	20.243340
912.000000	20.230970
913.000000	20.221900
914.000000	20.215310
915.000000	20.213730
916.000000	20.214270
917.000000	20.220260
918.000000	20.228780
919.000000	20.237910
920.000000	20.248820
921.000000	20.257670
922.000000	20.266890
923.000000	20.275910
924.000000	20.284180
925.000000	20.290160
926.000000	20.295670
927.000000	20.300180
928.000000	20.303480
929.000000	20.307930
930.000000	20.311740
931.000000	20.318150
932.000000	20.327800
933.000000	20.337490
934.000000	20.347580
935.000000	20.361450
936.000000	20.378780
937.000000	20.394060
938.000000	20.411210
939.000000	20.430220
940.000000	20.450890
941.000000	20.469730
942.000000	20.483500
943.000000	20.500220
944.000000	20.520740
945.000000	20.541510
946.000000	20.561100
947.000000	20.583600
948.000000	20.606410
949.000000	20.631910
950.000000	20.657390
951.000000	20.683610
952.000000	20.714520
953.000000	20.745450
954.000000	20.774780
955.000000	20.801620
956.000000	20.828920
957.000000	20.853450
958.000000	20.874950
959.000000	20.893190
960.000000	20.909800
961.000000	20.923630
962.000000	20.933310
963.000000	20.939420
964.000000	20.944650
965.000000	20.950910
966.000000	20.953720
967.000000	20.957920
968.000000	20.963340
969.000000	20.968350
970.000000	20.974120
971.000000	20.981460
972.000000	20.989840
973.000000	20.998490
974.000000	21.006060
975.000000	21.012110
976.000000	21.017510
977.000000	21.023530
978.000000	21.029410
979.000000	21.032770
980.000000	21.035940
981.000000	21.038190
982.000000	21.039480
983.000000	21.039850
984.000000	21.041370
985.000000	21.041540
986.000000	21.041250
987.000000	21.041170
988.000000	21.039610
989.000000	21.038730
990.000000	21.035600
991.000000	21.033290
992.000000	21.031550
993.000000	21.030540
994.000000	21.028130
995.000000	21.027740
996.000000	21.027520
997.000000	21.024710
998.000000	21.023950
999.000000	21.024670
1000.000000	21.023710
1001.000000	21.023130
1002.000000	21.021760
1003.000000	21.020360
1004.000000	21.019930
1005.000000	21.018330
1006.000000	21.015820
1007.000000	21.012660
1008.000000	21.007600
1009.000000	21.002010
1010.000000	20.999510
1011.000000	20.995930
1012.000000	20.992850
1013.000000	20.990720
1014.000000	20.989430
1015.000000	20.989120
1016.000000	20.994290
1017.000000	21.003780
1018.000000	21.016950
1019.000000	21.033580
1020.000000	21.052930
1021.000000	21.076790
1022.000000	21.104140
1023.000000	21.134560
1024.000000	21.167610
1025.000000	21.204070
1026.000000	21.241510
1027.000000	21.281120
1028.000000	21.322180
1029.000000	21.363890
1030.000000	21.405790
1031.000000	21.447240
1032.000000	21.488210
1033.000000	21.528860
1034.000000	21.568150
1035.000000	21.606080
1036.000000	21.641800
1037.000000	21.675040
1038.000000	21.706190
1039.000000	21.737460
1040.000000	21.767690
1041.000000	21.794160
1042.000000	21.820340
1043.000000	21.844630
1044.000000	21.867070
1045.000000	21.887970
1046.000000	21.908000
1047.000000	21.928760
1048.000000	21.949210
1049.000000	21.969070
1050.000000	21.988970
1051.000000	22.010860
1052.000000	22.032880
1053.000000	22.055050
1054.000000	22.078460
1055.000000	22.103970
1056.000000	22.131550
1057.000000	22.161200
1058.000000	22.192200
1059.000000	22.222790
1060.000000	22.254310
1061.000000	22.285950
1062.000000	22.318150
1063.000000	22.352430
1064.000000	22.389210
1065.000000	22.424270
1066.000000	22.458330
1067.000000	22.491150
1068.000000	22.522320
1069.000000	22.552690
1070.000000	22.582530
1071.000000	22.612730
1072.000000	22.643670
1073.000000	22.674860
1074.000000	22.702490
1075.000000	22.731700
1076.000000	22.760890
1077.000000	22.788550
1078.000000	22.817280
1079.000000	22.846340
1080.000000	22.875740
1081.000000	22.906740
1082.000000	22.936250
1083.000000	22.964460
1084.000000	22.993640
1085.000000	23.021750
1086.000000	23.051350
1087.000000	23.082750
1088.000000	23.114760
1089.000000	23.146250
1090.000000	23.177830
1091.000000	23.207590
1092.000000	23.236030
1093.000000	23.262790
1094.000000	23.291510
1095.000000	23.319190
1096.000000	23.345060
1097.000000	23.368570
1098.000000	23.391520
1099.000000	23.412940
1100.000000	23.432670
1101.000000	23.451600
1102.000000	23.471280
1103.000000	23.488580
1104.000000	23.503510
1105.000000	23.519230
1106.000000	23.533410
1107.000000	23.546620
1108.000000	23.556640
1109.000000	23.566620
1110.000000	23.574660
1111.000000	23.580560
1112.000000	23.584860
1113.000000	23.590880
1114.000000	23.594590
1115.000000	23.596790
1116.000000	23.597190
1117.000000	23.598290
1118.000000	23.597830
1119.000000	23.598760
1120.000000	23.598660
1121.000000	23.595700
1122.000000	23.587310
1123.000000	23.576830
1124.000000	23.561470
1125.000000	23.541030
1126.000000	23.514600
1127.000000	23.482180
1128.000000	23.443470
1129.000000	23.393450
1130.000000	23.332950
1131.000000	23.261580
1132.000000	23.178830
1133.000000	23.077550
1134.000000	22.961950
1135.000000	22.836040
1136.000000	22.694970
1137.000000	22.534360
1138.000000	22.356640
1139.000000	22.165040
1140.000000	21.963900
1141.000000	21.757780
1142.000000	21.545160
1143.000000	21.332070
1144.000000	21.119980
1145.000000	20.908100
1146.000000	20.706190
1147.000000	20.522950
1148.000000	20.361500
1149.000000	20.222430
1150.000000	20.105370
1151.000000	20.012160
1152.000000	19.943050
1153.000000	19.895300
1154.000000	19.864460
1155.000000	19.843340
1156.000000	19.826540
1157.000000	19.803270
1158.000000	19.769420
1159.000000	19.721830
1160.000000	19.655930
1161.000000	19.564110
1162.000000	19.446580
1163.000000	19.308830
1164.000000	19.150090
1165.000000	18.972730
1166.000000	18.781700
1167.000000	18.582580
1168.000000	18.377780
1169.000000	18.164820
1170.000000	17.951110
1171.000000	17.736400
1172.000000	17.527970
1173.000000	17.321720
1174.000000	17.118310
1175.000000	16.922510
1176.000000	16.731150
1177.000000	16.543820
1178.000000	16.355400
1179.000000	16.168810
1180.000000	15.977130
1181.000000	15.779480
1182.000000	15.571530
1183.000000	15.354570
1184.000000	15.138830
1185.000000	14.924030
1186.000000	14.718100
1187.000000	14.529370
1188.000000	14.364670
1189.000000	14.233180
1190.000000	14.143650
1191.000000	14.103390
1192.000000	14.116010
1193.000000	14.179820
1194.000000	14.283010
1195.000000	14.418160
1196.000000	14.574500
1197.000000	14.740580
1198.000000	14.913450
1199.000000	15.079340
1200.000000	15.229920
1201.000000	15.360360
1202.000000	15.468660
1203.000000	15.551610
1204.000000	15.615990
1205.000000	15.662190
1206.000000	15.695840
1207.000000	15.721100
1208.000000	15.739760
1209.000000	15.756080
1210.000000	15.774540
1211.000000	15.795350
1212.000000	15.818690
1213.000000	15.847550
1214.000000	15.881100
1215.000000	15.924730
1216.000000	15.973940
1217.000000	16.027760
1218.000000	16.086310
1219.000000	16.150760
1220.000000	16.218370
1221.000000	16.291040
1222.000000	16.368520
1223.000000	16.448690
1224.000000	16.534350
1225.000000	16.620870
1226.000000	16.709340
1227.000000	16.803180
1228.000000	16.897990
1229.000000	16.994640
1230.000000	17.093600
1231.000000	17.190990
1232.000000	17.289930
1233.000000	17.391950
1234.000000	17.488280
1235.000000	17.583780
1236.000000	17.680890
1237.000000	17.773800
1238.000000	17.866490
1239.000000	17.957190
1240.000000	18.046040
1241.000000	18.136270
1242.000000	18.222770
1243.000000	18.305400
1244.000000	18.388960
1245.000000	18.472430
1246.000000	18.551900
1247.000000	18.631050
1248.000000	18.706880
1249.000000	18.780680
1250.000000	18.851240
1251.000000	18.918320
1252.000000	18.983040
1253.000000	19.044610
1254.000000	19.103150
1255.000000	19.156050
1256.000000	19.207520
1257.000000	19.257160
1258.000000	19.305280
1259.000000	19.349640
1260.000000	19.392460
1261.000000	19.435050
1262.000000	19.476240
1263.000000	19.516680
1264.000000	19.556840
1265.000000	19.597750
1266.000000	19.636870
1267.000000	19.673990
1268.000000	19.709610
1269.000000	19.744610
1270.000000	19.778450
1271.000000	19.811430
1272.000000	19.844030
1273.000000	19.875080
1274.000000	19.904600
1275.000000	19.933170
1276.000000	19.962470
1277.000000	19.991300
1278.000000	20.021580
1279.000000	20.052780
1280.000000	20.084430
1281.000000	20.117190
1282.000000	20.150580
1283.000000	20.185830
1284.000000	20.222770
1285.000000	20.260510
1286.000000	20.299740
1287.000000	20.340110
1288.000000	20.378730
1289.000000	20.418160
1290.000000	20.457400
1291.000000	20.495050
1292.000000	20.530630
1293.000000	20.563270
1294.000000	20.594100
1295.000000	20.622350
1296.000000	20.646730
1297.000000	20.667880
1298.000000	20.686660
1299.000000	20.701900
1300.000000	20.715170
1301.000000	20.727240
1302.000000	20.738050
1303.000000	20.747750
1304.000000	20.756340
1305.000000	20.763100
1306.000000	20.767350
1307.000000	20.768480
1308.000000	20.767310
1309.000000	20.764530
1310.000000	20.758990
1311.000000	20.749560
1312.000000	20.737190
1313.000000	20.719730
1314.000000	20.696060
1315.000000	20.670110
1316.000000	20.642240
1317.000000	20.611620
1318.000000	20.579560
1319.000000	20.544030
1320.000000	20.503230
1321.000000	20.458070
1322.000000	20.409800
1323.000000	20.361450
1324.000000	20.311340
1325.000000	20.257660
1326.000000	20.200070
1327.000000	20.139260
1328.000000	20.074020
1329.000000	20.005310
1330.000000	19.935010
1331.000000	19.861920
1332.000000	19.784550
1333.000000	19.701070
1334.000000	19.612890
1335.000000	19.519750
1336.000000	19.423160
1337.000000	19.321950
1338.000000	19.216090
1339.000000	19.104590
1340.000000	18.986460
1341.000000	18.864130
1342.000000	18.736430
1343.000000	18.604090
1344.000000	18.469050
1345.000000	18.328590
1346.000000	18.176980
1347.000000	18.016790
1348.000000	17.849610
1349.000000	17.674110
1350.000000	17.490030
1351.000000	17.293760
1352.000000	17.084400
1353.000000	16.860880
1354.000000	16.621400
1355.000000	16.372080
1356.000000	16.122870
1357.000000	15.879830
1358.000000	15.644260
1359.000000	15.421650
1360.000000	15.216670
1361.000000	15.033620
1362.000000	14.880710
1363.000000	14.754540
1364.000000	14.646900
1365.000000	14.556690
1366.000000	14.478550
1367.000000	14.400820
1368.000000	14.320690
1369.000000	14.237110
1370.000000	14.140840
1371.000000	14.026920
1372.000000	13.889760
1373.000000	13.731510
1374.000000	13.558330
1375.000000	13.368540
1376.000000	13.168730
1377.000000	12.965750
1378.000000	12.762400
1379.000000	12.558360
1380.000000	12.362680
1381.000000	12.175530
1382.000000	11.999640
1383.000000	11.841230
1384.000000	11.695160
1385.000000	11.559590
1386.000000	11.428220
1387.000000	11.301380
1388.000000	11.183000
1389.000000	11.072710
1390.000000	10.967740
1391.000000	10.867020
1392.000000	10.773010
1393.000000	10.684430
1394.000000	10.603680
1395.000000	10.532300
1396.000000	10.485650
1397.000000	10.460080
1398.000000	10.434670
1399.000000	10.404600
1400.000000	10.372750
1401.000000	10.348040
1402.000000	10.318950
1403.000000	10.275550
1404.000000	10.222980
1405.000000	10.167040
1406.000000	10.091420
1407.000000	9.994780
1408.000000	9.894680
1409.000000	9.791800
1410.000000	9.687780
1411.000000	9.575180
1412.000000	9.461820
1413.000000	9.354780
1414.000000	9.260000
1415.000000	9.170680
1416.000000	9.086700
1417.000000	9.005310
1418.000000	8.925510
1419.000000	8.855150
1420.000000	8.786840
1421.000000	8.719450
1422.000000	8.649940
1423.000000	8.586360
1424.000000	8.518630
1425.000000	8.450490
1426.000000	8.377960
1427.000000	8.307290
1428.000000	8.239140
1429.000000	8.168880
1430.000000	8.097690
1431.000000	8.030200
1432.000000	7.967490
1433.000000	7.908910
1434.000000	7.852410
1435.000000	7.795760
1436.000000	7.742710
1437.000000	7.693020
1438.000000	7.648490
1439.000000	7.605510
1440.000000	7.562720
1441.000000	7.521230
1442.000000	7.482350
1443.000000	7.438130
1444.000000	7.396480
1445.000000	7.354900
1446.000000	7.315120
1447.000000	7.277900
1448.000000	7.238450
1449.000000	7.195140
1450.000000	7.154000
1451.000000	7.114880
1452.000000	7.076110
1453.000000	7.038230
1454.000000	6.998800
1455.000000	6.962680
1456.000000	6.926970
1457.000000	6.890200
1458.000000	6.853860
1459.000000	6.822320
1460.000000	6.792600
1461.000000	6.762670
1462.000000	6.732710
1463.000000	6.704820
1464.000000	6.679910
1465.000000	6.652620
1466.000000	6.629140
1467.000000	6.608120
1468.000000	6.587710
1469.000000	6.569040
1470.000000	6.552290
1471.000000	6.535280
1472.000000	6.521420
1473.000000	6.506000
1474.000000	6.491800
1475.000000	6.479610
1476.000000	6.465490
1477.000000	6.451850
1478.000000	6.439230
1479.000000	6.425380
1480.000000	6.411910
1481.000000	6.400500
1482.000000	6.386770
1483.000000	6.375850
1484.000000	6.364730
1485.000000	6.352920
1486.000000	6.342540
1487.000000	6.333570
1488.000000	6.325570
1489.000000	6.318400
1490.000000	6.311690
1491.000000	6.306300
1492.000000	6.301600
1493.000000	6.298870
1494.000000	6.294790
1495.000000	6.293090
1496.000000	6.291060
1497.000000	6.288700
1498.000000	6.287030
1499.000000	6.286360
1500.000000	6.287050
1501.000000	6.285260
1502.000000	6.284490
1503.000000	6.285910
1504.000000	6.289780
1505.000000	6.293770
1506.000000	6.300240
1507.000000	6.304820
1508.000000	6.308220
1509.000000	6.314470
1510.000000	6.321430
1511.000000	6.329820
1512.000000	6.339020
1513.000000	6.346770
1514.000000	6.354300
1515.000000	6.362090
1516.000000	6.367910
1517.000000	6.376490
1518.000000	6.386620
1519.000000	6.393820
1520.000000	6.399920
1521.000000	6.406900
1522.000000	6.414490
1523.000000	6.420850
1524.000000	6.426120
1525.000000	6.431150
1526.000000	6.437790
1527.000000	6.444230
1528.000000	6.450710
1529.000000	6.457910
1530.000000	6.463700
1531.000000	6.469190
1532.000000	6.474700
1533.000000	6.479990
1534.000000	6.485810
1535.000000	6.491640
1536.000000	6.496250
1537.000000	6.500680
1538.000000	6.503910
1539.000000	6.506900
1540.000000	6.510140
1541.000000	6.513640
1542.000000	6.515940
1543.000000	6.517770
1544.000000	6.520510
1545.000000	6.523500
1546.000000	6.526570
1547.000000	6.528260
1548.000000	6.530460
1549.000000	6.533850
1550.000000	6.536570
1551.000000	6.537660
1552.000000	6.539700
1553.000000	6.542800
1554.000000	6.545450
1555.000000	6.547840
1556.000000	6.548450
1557.000000	6.547760
1558.000000	6.546510
1559.000000	6.544650
1560.000000	6.543410
1561.000000	6.541420
1562.000000	6.537380
1563.000000	6.532100
1564.000000	6.524890
1565.000000	6.514980
1566.000000	6.505520
1567.000000	6.497830
1568.000000	6.488500
1569.000000	6.478370
1570.000000	6.469660
1571.000000	6.460910
1572.000000	6.451160
1573.000000	6.441520
1574.000000	6.433500
1575.000000	6.427060
1576.000000	6.420670
1577.000000	6.414100
1578.000000	6.409310
1579.000000	6.404390
1580.000000	6.399110
1581.000000	6.397410
1582.000000	6.398170
1583.000000	6.400180
1584.000000	6.403750
1585.000000	6.408600
1586.000000	6.414340
1587.000000	6.421590
1588.000000	6.430360
1589.000000	6.441210
1590.000000	6.453050
1591.000000	6.463200
1592.000000	6.474310
1593.000000	6.486670
1594.000000	6.497380
1595.000000	6.509830
1596.000000	6.525200
1597.000000	6.541510
1598.000000	6.558430
1599.000000	6.575940
1600.000000	6.593450
1601.000000	6.613790
1602.000000	6.634830
1603.000000	6.655360
1604.000000	6.678050
1605.000000	6.700190
1606.000000	6.723380
1607.000000	6.748860
1608.000000	6.772840
1609.000000	6.796540
1610.000000	6.821450
1611.000000	6.846990
1612.000000	6.873460
1613.000000	6.899920
1614.000000	6.926080
1615.000000	6.952300
1616.000000	6.976820
1617.000000	7.000240
1618.000000	7.028630
1619.000000	7.057060
1620.000000	7.086290
1621.000000	7.113410
1622.000000	7.141000
1623.000000	7.169050
1624.000000	7.199360
1625.000000	7.231150
1626.000000	7.262830
1627.000000	7.295270
1628.000000	7.324580
1629.000000	7.354300
1630.000000	7.384370
1631.000000	7.417510
1632.000000	7.448370
1633.000000	7.480740
1634.000000	7.511740
1635.000000	7.542210
1636.000000	7.572890
1637.000000	7.601750
1638.000000	7.630190
1639.000000	7.658820
1640.000000	7.685040
1641.000000	7.711600
1642.000000	7.737760
1643.000000	7.762770
1644.000000	7.788180
1645.000000	7.813820
1646.000000	7.839080
1647.000000	7.863190
1648.000000	7.888100
1649.000000	7.912310
1650.000000	7.934080
1651.000000	7.952410
1652.000000	7.970930
1653.000000	7.987610
1654.000000	8.002360
1655.000000	8.014200
1656.000000	8.022720
1657.000000	8.031470
1658.000000	8.036540
1659.000000	8.040270
1660.000000	8.041980
1661.000000	8.040360
1662.000000	8.035450
1663.000000	8.028010
1664.000000	8.015530
1665.000000	8.001810
1666.000000	7.985420
1667.000000	7.964650
1668.000000	7.938390
1669.000000	7.905040
1670.000000	7.867800
1671.000000	7.827230
1672.000000	7.780070
1673.000000	7.724940
1674.000000	7.662200
1675.000000	7.587530
1676.000000	7.505280
1677.000000	7.407890
1678.000000	7.300990
1679.000000	7.181090
1680.000000	7.050730
1681.000000	6.905670
1682.000000	6.752520
1683.000000	6.599480
1684.000000	6.448110
1685.000000	6.307340
1686.000000	6.175880
1687.000000	6.064280
1688.000000	5.966480
1689.000000	5.888380
1690.000000	5.823310
1691.000000	5.772030
1692.000000	5.736930
1693.000000	5.705510
1694.000000	5.678310
1695.000000	5.650840
1696.000000	5.624810
1697.000000	5.597830
1698.000000	5.576050
1699.000000	5.556840
1700.000000	5.547370
1701.000000	5.544510
1702.000000	5.549080
1703.000000	5.559390
1704.000000	5.579360
1705.000000	5.603100
1706.000000	5.628120
1707.000000	5.653850
1708.000000	5.675910
1709.000000	5.696990
1710.000000	5.709150
1711.000000	5.722220
1712.000000	5.725020
1713.000000	5.727920
1714.000000	5.722160
1715.000000	5.715020
1716.000000	5.704880
1717.000000	5.690910
1718.000000	5.674570
1719.000000	5.654840
1720.000000	5.639420
1721.000000	5.618690
1722.000000	5.602710
1723.000000	5.585410
1724.000000	5.571090
1725.000000	5.556760
1726.000000	5.540970
1727.000000	5.526390
1728.000000	5.510900
1729.000000	5.495750
1730.000000	5.474500
1731.000000	5.452720
1732.000000	5.428310
1733.000000	5.403680
1734.000000	5.383500
1735.000000	5.363480
1736.000000	5.351030
1737.000000	5.346350
1738.000000	5.349930
1739.000000	5.363390
1740.000000	5.390680
1741.000000	5.427800
1742.000000	5.474920
1743.000000	5.530220
1744.000000	5.590250
1745.000000	5.656510
1746.000000	5.725560
1747.000000	5.792820
1748.000000	5.858860
1749.000000	5.920560
1750.000000	5.976740
1751.000000	6.029290
1752.000000	6.072270
1753.000000	6.110790
1754.000000	6.143960
1755.000000	6.168750
1756.000000	6.185440
1757.000000	6.197150
1758.000000	6.204410
1759.000000	6.203580
1760.000000	6.195920
1761.000000	6.186040
1762.000000	6.173330
1763.000000	6.159730
1764.000000	6.143320
1765.000000	6.130170
1766.000000	6.122990
1767.000000	6.119270
1768.000000	6.121500
1769.000000	6.132770
1770.000000	6.151700
1771.000000	6.176840
1772.000000	6.210560
1773.000000	6.247880
1774.000000	6.292120
1775.000000	6.340910
1776.000000	6.389540
1777.000000	6.440640
1778.000000	6.489870
1779.000000	6.539140
1780.000000	6.586840
1781.000000	6.632400
1782.000000	6.676850
1783.000000	6.719230
1784.000000	6.758050
1785.000000	6.795270
1786.000000	6.830670
1787.000000	6.863670
1788.000000	6.896830
1789.000000	6.925960
1790.000000	6.955500
1791.000000	6.984310
1792.000000	7.013420
1793.000000	7.041510
1794.000000	7.067750
1795.000000	7.092660
1796.000000	7.116970
1797.000000	7.138760
1798.000000	7.157800
1799.000000	7.178410
1800.000000	7.197310
1801.000000	7.214560
1802.000000	7.231160
1803.000000	7.249370
1804.000000	7.267390
1805.000000	7.284690
1806.000000	7.302560
1807.000000	7.321960
1808.000000	7.343410
1809.000000	7.362080
1810.000000	7.378620
1811.000000	7.396740
1812.000000	7.414270
1813.000000	7.430710
1814.000000	7.445910
1815.000000	7.458630
1816.000000	7.470060
1817.000000	7.479210
1818.000000	7.484270
1819.000000	7.488530
1820.000000	7.495310
1821.000000	7.503230
1822.000000	7.515030
1823.000000	7.527830
1824.000000	7.537490
1825.000000	7.544830
1826.000000	7.552650
1827.000000	7.563660
1828.000000	7.580940
1829.000000	7.603600
1830.000000	7.628550
1831.000000	7.654370
1832.000000	7.677560
1833.000000	7.698660
1834.000000	7.723310
1835.000000	7.751870
1836.000000	7.782920
1837.000000	7.817240
1838.000000	7.853370
1839.000000	7.886380
1840.000000	7.915350
1841.000000	7.942170
1842.000000	7.970840
1843.000000	8.003230
1844.000000	8.034760
1845.000000	8.061260
1846.000000	8.081950
1847.000000	8.099540
1848.000000	8.119650
1849.000000	8.148610
1850.000000	8.182960
1851.000000	8.213430
1852.000000	8.235040
1853.000000	8.253330
1854.000000	8.277350
1855.000000	8.308490
1856.000000	8.345050
1857.000000	8.378270
1858.000000	8.403260
1859.000000	8.421420
1860.000000	8.436970
1861.000000	8.454960
1862.000000	8.475300
1863.000000	8.491140
1864.000000	8.497630
1865.000000	8.495980
1866.000000	8.486890
1867.000000	8.474130
1868.000000	8.458980
1869.000000	8.437570
1870.000000	8.411230
1871.000000	8.379950
1872.000000	8.345010
1873.000000	8.306320
1874.000000	8.263060
1875.000000	8.214520
1876.000000	8.157220
1877.000000	8.090870
1878.000000	8.010120
1879.000000	7.917130
1880.000000	7.811400
1881.000000	7.689990
1882.000000	7.556580
1883.000000	7.416040
1884.000000	7.270630
1885.000000	7.122780
1886.000000	6.977220
1887.000000	6.830890
1888.000000	6.690500
1889.000000	6.556640
1890.000000	6.429580
1891.000000	6.313960
1892.000000	6.210210
1893.000000	6.113670
1894.000000	6.022630
1895.000000	5.936490
1896.000000	5.852310
1897.000000	5.772110
1898.000000	5.696120
1899.000000	5.622110
1900.000000	5.552370
1901.000000	5.484580
1902.000000	5.414850
1903.000000	5.344210
1904.000000	5.275140
1905.000000	5.208170
1906.000000	5.146600
1907.000000	5.088450
1908.000000	5.030540
1909.000000	4.971710
1910.000000	4.907950
1911.000000	4.846240
1912.000000	4.787740
1913.000000	4.732860
1914.000000	4.681400
1915.000000	4.631810
1916.000000	4.580450
1917.000000	4.528750
1918.000000	4.479150
1919.000000	4.432810
1920.000000	4.392500
1921.000000	4.353730
1922.000000	4.316790
1923.000000	4.281740
1924.000000	4.245820
1925.000000	4.208910
1926.000000	4.175530
1927.000000	4.145600
1928.000000	4.118090
1929.000000	4.092120
1930.000000	4.067290
1931.000000	4.042850
1932.000000	4.017150
1933.000000	3.992140
1934.000000	3.971830
1935.000000	3.956350
1936.000000	3.939720
1937.000000	3.926580
1938.000000	3.914370
1939.000000	3.904690
1940.000000	3.898220
1941.000000	3.891870
1942.000000	3.888010
1943.000000	3.885870
1944.000000	3.885570
1945.000000	3.884530
1946.000000	3.885250
1947.000000	3.886510
1948.000000	3.888840
1949.000000	3.890810
1950.000000	3.894740
1951.000000	3.901200
1952.000000	3.907680
1953.000000	3.914120
1954.000000	3.920800
1955.000000	3.928070
1956.000000	3.940270
1957.000000	3.951840
1958.000000	3.963060
1959.000000	3.976240
1960.000000	3.988370
1961.000000	4.001700
1962.000000	4.015680
1963.000000	4.029530
1964.000000	4.040490
1965.000000	4.054560
1966.000000	4.067260
1967.000000	4.081770
1968.000000	4.094210
1969.000000	4.107990
1970.000000	4.120790
1971.000000	4.130630
1972.000000	4.143340
1973.000000	4.156880
1974.000000	4.172600
1975.000000	4.186060
1976.000000	4.200190
1977.000000	4.213240
1978.000000	4.226590
1979.000000	4.239960
1980.000000	4.253210
1981.000000	4.270770
1982.000000	4.286260
1983.000000	4.302400
1984.000000	4.318140
1985.000000	4.334530
1986.000000	4.349930
1987.000000	4.365220
1988.000000	4.384210
1989.000000	4.399740
1990.000000	4.414870
1991.000000	4.429420
1992.000000	4.444460
1993.000000	4.458840
1994.000000	4.474660
1995.000000	4.488750
1996.000000	4.500620
1997.000000	4.512080
1998.000000	4.522440
1999.000000	4.534310
2000.000000	4.545460
2001.000000	4.554040
2002.000000	4.560820
2003.000000	4.566210
2004.000000	4.569320
2005.000000	4.573970
2006.000000	4.578410
2007.000000	4.580590
2008.000000	4.579750
2009.000000	4.577870
2010.000000	4.575080
2011.000000	4.569650
2012.000000	4.564070
2013.000000	4.559120
2014.000000	4.550840
2015.000000	4.542530
2016.000000	4.532270
2017.000000	4.521420
2018.000000	4.510580
2019.000000	4.497770
2020.000000	4.484310
2021.000000	4.471610
2022.000000	4.458090
2023.000000	4.442830
2024.000000	4.429300
2025.000000	4.411360
2026.000000	4.394500
2027.000000	4.376520
2028.000000	4.360540
2029.000000	4.342810
2030.000000	4.323460
2031.000000	4.303570
2032.000000	4.283500
2033.000000	4.261380
2034.000000	4.238970
2035.000000	4.216720
2036.000000	4.193270
2037.000000	4.170220
2038.000000	4.142520
2039.000000	4.115180
2040.000000	4.088010
2041.000000	4.059060
2042.000000	4.027590
2043.000000	3.996500
2044.000000	3.963530
2045.000000	3.931380
2046.000000	3.898370
2047.000000	3.865210
2048.000000	3.833090
2049.000000	3.803010
2050.000000	3.773560
2051.000000	3.747420
2052.000000	3.726880
2053.000000	3.707580
2054.000000	3.689480
2055.000000	3.674860
2056.000000	3.664120
2057.000000	3.656750
2058.000000	3.652980
2059.000000	3.651110
2060.000000	3.652130
2061.000000	3.654860
2062.000000	3.658290
2063.000000	3.664470
2064.000000	3.674260
2065.000000	3.685420
2066.000000	3.695970
2067.000000	3.705830
2068.000000	3.717100
2069.000000	3.729410
2070.000000	3.741670
2071.000000	3.753840
2072.000000	3.764650
2073.000000	3.774930
2074.000000	3.784290
2075.000000	3.792510
2076.000000	3.801830
2077.000000	3.811860
2078.000000	3.821010
2079.000000	3.827700
2080.000000	3.834460
2081.000000	3.842050
2082.000000	3.847050
2083.000000	3.851940
2084.000000	3.856900
2085.000000	3.860620
2086.000000	3.863560
2087.000000	3.866690
2088.000000	3.869760
2089.000000	3.873290
2090.000000	3.875800
2091.000000	3.875810
2092.000000	3.877430
2093.000000	3.881220
2094.000000	3.884960
2095.000000	3.887370
2096.000000	3.887960
2097.000000	3.888510
2098.000000	3.889550
2099.000000	3.892270
2100.000000	3.895130
2101.000000	3.898500
2102.000000	3.901930
2103.000000	3.903940
2104.000000	3.906740
2105.000000	3.909530
2106.000000	3.912550
2107.000000	3.915410
2108.000000	3.918280
2109.000000	3.921820
2110.000000	3.924800
2111.000000	3.927990
2112.000000	3.931600
2113.000000	3.935210
2114.000000	3.936740
2115.000000	3.940430
2116.000000	3.945230
2117.000000	3.951370
2118.000000	3.956400
2119.000000	3.957750
2120.000000	3.958790
2121.000000	3.960300
2122.000000	3.961770
2123.000000	3.961770
2124.000000	3.962280
2125.000000	3.961800
2126.000000	3.960890
2127.000000	3.958970
2128.000000	3.957110
2129.000000	3.956030
2130.000000	3.955470
2131.000000	3.954580
2132.000000	3.952700
2133.000000	3.948280
2134.000000	3.944260
2135.000000	3.940880
2136.000000	3.936440
2137.000000	3.929910
2138.000000	3.921430
2139.000000	3.911750
2140.000000	3.902210
2141.000000	3.892520
2142.000000	3.880710
2143.000000	3.871410
2144.000000	3.861210
2145.000000	3.848690
2146.000000	3.834740
2147.000000	3.821340
2148.000000	3.807300
2149.000000	3.796490
2150.000000	3.783560
2151.000000	3.769730
2152.000000	3.755040
2153.000000	3.740470
2154.000000	3.724580
2155.000000	3.710330
2156.000000	3.698020
2157.000000	3.683740
2158.000000	3.670830
2159.000000	3.655450
2160.000000	3.641320
2161.000000	3.627610
2162.000000	3.615350
2163.000000	3.603090
2164.000000	3.591470
2165.000000	3.579010
2166.000000	3.565950
2167.000000	3.553160
2168.000000	3.541190
2169.000000	3.530220
2170.000000	3.519110
2171.000000	3.507800
2172.000000	3.498370
2173.000000	3.486990
2174.000000	3.475990
2175.000000	3.464760
2176.000000	3.453760
2177.000000	3.444920
2178.000000	3.437090
2179.000000	3.428520
2180.000000	3.420060
2181.000000	3.411560
2182.000000	3.401830
2183.000000	3.391870
2184.000000	3.380850
2185.000000	3.371150
2186.000000	3.360000
2187.000000	3.349090
2188.000000	3.334100
2189.000000	3.317760
2190.000000	3.301500
2191.000000	3.283510
2192.000000	3.264200
2193.000000	3.243540
2194.000000	3.221440
2195.000000	3.195330
2196.000000	3.168620
2197.000000	3.137750
2198.000000	3.105810
2199.000000	3.073890
2200.000000	3.036340
2201.000000	2.996720
2202.000000	2.958120
2203.000000	2.921150
2204.000000	2.882350
2205.000000	2.844670
2206.000000	2.810400
2207.000000	2.777300
2208.000000	2.746350
2209.000000	2.717160
2210.000000	2.694790
2211.000000	2.675980
2212.000000	2.657530
2213.000000	2.642200
2214.000000	2.633780
2215.000000	2.630380
2216.000000	2.625170
2217.000000	2.627040
2218.000000	2.632090
2219.000000	2.638080
2220.000000	2.648150
2221.000000	2.660320
2222.000000	2.673680
2223.000000	2.688130
2224.000000	2.702840
2225.000000	2.717520
2226.000000	2.736020
2227.000000	2.750570
2228.000000	2.766590
2229.000000	2.782150
2230.000000	2.794800
2231.000000	2.807100
2232.000000	2.817390
2233.000000	2.826390
2234.000000	2.834510
2235.000000	2.836820
2236.000000	2.837700
2237.000000	2.837620
2238.000000	2.833920
2239.000000	2.829630
2240.000000	2.823570
2241.000000	2.811560
2242.000000	2.802810
2243.000000	2.792240
2244.000000	2.778810
2245.000000	2.766870
2246.000000	2.752250
2247.000000	2.736660
2248.000000	2.720630
2249.000000	2.702260
2250.000000	2.682380
2251.000000	2.665310
2252.000000	2.644510
2253.000000	2.623600
2254.000000	2.599940
2255.000000	2.578080
2256.000000	2.553730
2257.000000	2.531870
2258.000000	2.509410
2259.000000	2.487670
2260.000000	2.464580
2261.000000	2.443050
2262.000000	2.421510
2263.000000	2.403220
2264.000000	2.388040
2265.000000	2.371430
2266.000000	2.358110
2267.000000	2.346090
2268.000000	2.335330
2269.000000	2.326590
2270.000000	2.320870
2271.000000	2.316910
2272.000000	2.316530
2273.000000	2.314720
2274.000000	2.315540
2275.000000	2.317260
2276.000000	2.319080
2277.000000	2.321850
2278.000000	2.325810
2279.000000	2.331440
2280.000000	2.339390
2281.000000	2.344980
2282.000000	2.350240
2283.000000	2.356720
2284.000000	2.360870
2285.000000	2.367700
2286.000000	2.376970
2287.000000	2.381790
2288.000000	2.386300
2289.000000	2.389940
2290.000000	2.393520
2291.000000	2.397690
2292.000000	2.401150
2293.000000	2.401040
2294.000000	2.400890
2295.000000	2.398970
2296.000000	2.393600
2297.000000	2.389030
2298.000000	2.385890
2299.000000	2.379890
2300.000000	2.372170
2301.000000	2.364450
2302.000000	2.356120
2303.000000	2.350360
2304.000000	2.345550
2305.000000	2.340410
2306.000000	2.337090
2307.000000	2.335160
2308.000000	2.332090
2309.000000	2.331850
2310.000000	2.332070
2311.000000	2.334490
2312.000000	2.340000
2313.000000	2.346790
2314.000000	2.355720
2315.000000	2.366300
2316.000000	2.376430
2317.000000	2.388510
2318.000000	2.403660
2319.000000	2.420670
2320.000000	2.437990
2321.000000	2.455730
2322.000000	2.470430
2323.000000	2.483740
2324.000000	2.498600
2325.000000	2.513290
2326.000000	2.530400
2327.000000	2.547020
2328.000000	2.559810
2329.000000	2.572330
2330.000000	2.584920
2331.000000	2.595440
2332.000000	2.608090
2333.000000	2.619230
2334.000000	2.626490
2335.000000	2.632850
2336.000000	2.637410
2337.000000	2.640720
2338.000000	2.642880
2339.000000	2.642290
2340.000000	2.640450
2341.000000	2.637900
2342.000000	2.632990
2343.000000	2.627400
2344.000000	2.621570
2345.000000	2.614440
2346.000000	2.607220
2347.000000	2.598110
2348.000000	2.589240
2349.000000	2.580680
2350.000000	2.572100
2351.000000	2.564110
2352.000000	2.557840
2353.000000	2.553530
2354.000000	2.549370
2355.000000	2.547310
2356.000000	2.546390
2357.000000	2.548100
2358.000000	2.552330
2359.000000	2.557680
2360.000000	2.564240
2361.000000	2.572340
2362.000000	2.579220
2363.000000	2.587730
2364.000000	2.598680
2365.000000	2.608250
2366.000000	2.616580
2367.000000	2.623630
2368.000000	2.629990
2369.000000	2.635330
2370.000000	2.639660
2371.000000	2.643880
2372.000000	2.648830
2373.000000	2.652660
2374.000000	2.655360
2375.000000	2.657830
2376.000000	2.660500
2377.000000	2.662360
2378.000000	2.664540
2379.000000	2.668570
2380.000000	2.670920
2381.000000	2.670970
2382.000000	2.671270
2383.000000	2.670570
2384.000000	2.668530
2385.000000	2.668210
2386.000000	2.668170
2387.000000	2.667070
2388.000000	2.663870
2389.000000	2.659170
2390.000000	2.655720
2391.000000	2.652610
2392.000000	2.648610
2393.000000	2.643840
2394.000000	2.639450
2395.000000	2.634200
2396.000000	2.629230
2397.000000	2.624350
2398.000000	2.618030
2399.000000	2.610950
2400.000000	2.603960
2401.000000	2.598540
2402.000000	2.593110
2403.000000	2.586650
2404.000000	2.580070
2405.000000	2.572290
2406.000000	2.563490
2407.000000	2.555710
2408.000000	2.549240
2409.000000	2.543450
2410.000000	2.538290
2411.000000	2.531770
2412.000000	2.523440
2413.000000	2.515600
2414.000000	2.507990
2415.000000	2.500020
2416.000000	2.491830
2417.000000	2.484150
2418.000000	2.477350
2419.000000	2.470390
2420.000000	2.461620
2421.000000	2.451320
2422.000000	2.442670
2423.000000	2.435880
2424.000000	2.426010
2425.000000	2.415030
2426.000000	2.403370
2427.000000	2.391920
2428.000000	2.378030
2429.000000	2.364100
2430.000000	2.349560
2431.000000	2.336370
2432.000000	2.323200
2433.000000	2.307310
2434.000000	2.293320
2435.000000	2.281180
2436.000000	2.269050
2437.000000	2.255680
2438.000000	2.246380
2439.000000	2.236190
2440.000000	2.226100
2441.000000	2.214460
2442.000000	2.202930
2443.000000	2.193320
2444.000000	2.184640
2445.000000	2.174120
2446.000000	2.165200
2447.000000	2.154490
2448.000000	2.140790
2449.000000	2.126620
2450.000000	2.112220
2451.000000	2.102000
2452.000000	2.090880
2453.000000	2.080280
2454.000000	2.067540
2455.000000	2.056890
2456.000000	2.044680
2457.000000	2.036060
2458.000000	2.025310
2459.000000	2.018950
2460.000000	2.013050
2461.000000	2.006270
2462.000000	2.000700
2463.000000	1.995360
2464.000000	1.991090
2465.000000	1.985950
2466.000000	1.982200
2467.000000	1.974530
2468.000000	1.978610
2469.000000	1.976910
2470.000000	1.975150
2471.000000	1.973100
2472.000000	1.969870
2473.000000	1.968720
2474.000000	1.969860
2475.000000	1.967000
2476.000000	1.968830
2477.000000	1.971460
2478.000000	1.967820
2479.000000	1.965280
2480.000000	1.970320
2481.000000	1.971970
2482.000000	1.973140
2483.000000	1.972500
2484.000000	1.975140
2485.000000	1.979970
2486.000000	1.984680
2487.000000	1.994360
2488.000000	1.999610
2489.000000	2.003020
2490.000000	1.994420
2491.000000	2.004290
2492.000000	2.010460
2493.000000	2.016570
2494.000000	2.019570
2495.000000	2.028010
2496.000000	2.041120
2497.000000	2.045430
2498.000000	2.054200
2499.000000	2.068790
2500.000000	2.101780
