PE UV       SUBTECH     SPECTRUM    ASCII       PEDS        4.00        
   -1
CICIMAUCR0044-1.ASC
24/04/03
11:33:37.00
24/04/03
11:33:37.00
Vinicio Soto Monge
C optima #8 17
250,000000
1
Lambda 1050
1050L1511233
PerkinElmer UV WinLab 6.3.2.0749 / 2.02.05 Lambda 900 UV/VIS/NIR, Aug  7 2015 09:38:08

0
0
3350/servo 860,8/2
0
0
UV/VIS
1
1
1
DoubleDePol,CommonBeamDepol,RBeamAtt,SBeamAtt,60mm sphere, WB InGaAs Detector
0
0
0
0
Program
Program
3350/servo 860,8/2
3350/0,2 860,8/0,2
3350/0,2 860,8/0,2
0
15.00
 
 
 
0
 
860,8
319,2
860,8
Front
100
on
S:100 R:100
0
0
0
0
 
0
 
 
 
0
 
 
0
0
0
0
0
 
 
 
 
0
0


0
0
#HDR
-1
-1
#GR
nm
%R
1.0
0.0
2000,000000
-1,000000
1751
8
60,646000
5,166000
#DATA

250.000000	nan
251.000000	nan
252.000000	nan
253.000000	nan
254.000000	nan
255.000000	nan
256.000000	nan
257.000000	nan
258.000000	nan
259.000000	5.215999
260.000000	5.210225
261.000000	5.202112
262.000000	5.193912
263.000000	5.183012
264.000000	5.172368
265.000000	5.157187
266.000000	5.143414
267.000000	5.127919
268.000000	5.112938
269.000000	5.095475
270.000000	5.077716
271.000000	5.062174
272.000000	5.049333
273.000000	5.033610
274.000000	5.022804
275.000000	5.013749
276.000000	5.005302
277.000000	4.996789
278.000000	4.990036
279.000000	4.983302
280.000000	4.973837
281.000000	4.966180
282.000000	4.956621
283.000000	4.957696
284.000000	4.953844
285.000000	4.952560
286.000000	4.949297
287.000000	4.944379
288.000000	4.944446
289.000000	4.945397
290.000000	4.948898
291.000000	4.949887
292.000000	4.950400
293.000000	4.947766
294.000000	4.948422
295.000000	4.948736
296.000000	4.953359
297.000000	4.953634
298.000000	4.953311
299.000000	4.951313
300.000000	4.954452
301.000000	4.960397
302.000000	4.963317
303.000000	4.961520
304.000000	4.959969
305.000000	4.961348
306.000000	4.958638
307.000000	4.962566
308.000000	4.968007
309.000000	4.973428
310.000000	4.977300
311.000000	4.977509
312.000000	4.983539
313.000000	4.993812
314.000000	4.997569
315.000000	5.004218
316.000000	5.009820
317.000000	5.028273
318.000000	5.043226
319.000000	5.052899
320.000000	5.068385
321.000000	5.085202
322.000000	5.111882
323.000000	5.132171
324.000000	5.155856
325.000000	5.171436
326.000000	5.190298
327.000000	5.197118
328.000000	5.205203
329.000000	5.217359
330.000000	5.226053
331.000000	5.239626
332.000000	5.246941
333.000000	5.259278
334.000000	5.274734
335.000000	5.292113
336.000000	5.322265
337.000000	5.334878
338.000000	5.344142
339.000000	5.363194
340.000000	5.382170
341.000000	5.410478
342.000000	5.433239
343.000000	5.465037
344.000000	5.491176
345.000000	5.529499
346.000000	5.561858
347.000000	5.612594
348.000000	5.680223
349.000000	5.743467
350.000000	5.813265
351.000000	5.883015
352.000000	5.962268
353.000000	6.050471
354.000000	6.159847
355.000000	6.263602
356.000000	6.385601
357.000000	6.533015
358.000000	6.675331
359.000000	6.837070
360.000000	7.009225
361.000000	7.202857
362.000000	7.414333
363.000000	7.638622
364.000000	7.881583
365.000000	8.159671
366.000000	8.438976
367.000000	8.724521
368.000000	9.048170
369.000000	9.389683
370.000000	9.748649
371.000000	10.113742
372.000000	10.496184
373.000000	10.902253
374.000000	11.321829
375.000000	11.730485
376.000000	12.174221
377.000000	12.658716
378.000000	13.145084
379.000000	13.641953
380.000000	14.154307
381.000000	14.678152
382.000000	15.209939
383.000000	15.735657
384.000000	16.259968
385.000000	16.807240
386.000000	17.338733
387.000000	17.839882
388.000000	18.334059
389.000000	18.823091
390.000000	19.297141
391.000000	19.760909
392.000000	20.209620
393.000000	20.644624
394.000000	21.067643
395.000000	21.470488
396.000000	21.860368
397.000000	22.232994
398.000000	22.585968
399.000000	22.912947
400.000000	23.222652
401.000000	23.512667
402.000000	23.784877
403.000000	24.038300
404.000000	24.271207
405.000000	24.481256
406.000000	24.672206
407.000000	24.847176
408.000000	25.004064
409.000000	25.145952
410.000000	25.270899
411.000000	25.378354
412.000000	25.468041
413.000000	25.542100
414.000000	25.600817
415.000000	25.649717
416.000000	25.680222
417.000000	25.696278
418.000000	25.700758
419.000000	25.689648
420.000000	25.666781
421.000000	25.630018
422.000000	25.582088
423.000000	25.521117
424.000000	25.450350
425.000000	25.361338
426.000000	25.261112
427.000000	25.149795
428.000000	25.026065
429.000000	24.889181
430.000000	24.741424
431.000000	24.581340
432.000000	24.414826
433.000000	24.242881
434.000000	24.061966
435.000000	23.882306
436.000000	23.709267
437.000000	23.543847
438.000000	23.391382
439.000000	23.261451
440.000000	23.153006
441.000000	23.071519
442.000000	23.016398
443.000000	22.995291
444.000000	23.014172
445.000000	23.073516
446.000000	23.167445
447.000000	23.298936
448.000000	23.464233
449.000000	23.656201
450.000000	23.872928
451.000000	24.109839
452.000000	24.361597
453.000000	24.618455
454.000000	24.872573
455.000000	25.116741
456.000000	25.348440
457.000000	25.562570
458.000000	25.754366
459.000000	25.920566
460.000000	26.059458
461.000000	26.171327
462.000000	26.256629
463.000000	26.314965
464.000000	26.346268
465.000000	26.353041
466.000000	26.337223
467.000000	26.299746
468.000000	26.245462
469.000000	26.176977
470.000000	26.095403
471.000000	26.005203
472.000000	25.907535
473.000000	25.807794
474.000000	25.713180
475.000000	25.624758
476.000000	25.543565
477.000000	25.470562
478.000000	25.408393
479.000000	25.360453
480.000000	25.326163
481.000000	25.302793
482.000000	25.290732
483.000000	25.291692
484.000000	25.304324
485.000000	25.329074
486.000000	25.367949
487.000000	25.420340
488.000000	25.484735
489.000000	25.558879
490.000000	25.642289
491.000000	25.735676
492.000000	25.836073
493.000000	25.940827
494.000000	26.049338
495.000000	26.158238
496.000000	26.262564
497.000000	26.358282
498.000000	26.444896
499.000000	26.522912
500.000000	26.590418
501.000000	26.645529
502.000000	26.689417
503.000000	26.720111
504.000000	26.735559
505.000000	26.736900
506.000000	26.726361
507.000000	26.706310
508.000000	26.676918
509.000000	26.641810
510.000000	26.604781
511.000000	26.571023
512.000000	26.544171
513.000000	26.530208
514.000000	26.534127
515.000000	26.560550
516.000000	26.611943
517.000000	26.694600
518.000000	26.811463
519.000000	26.961617
520.000000	27.146935
521.000000	27.365688
522.000000	27.618246
523.000000	27.899245
524.000000	28.206933
525.000000	28.536936
526.000000	28.887114
527.000000	29.252996
528.000000	29.630425
529.000000	30.015521
530.000000	30.406428
531.000000	30.798220
532.000000	31.184914
533.000000	31.565064
534.000000	31.933542
535.000000	32.291586
536.000000	32.632794
537.000000	32.954009
538.000000	33.253203
539.000000	33.530939
540.000000	33.784172
541.000000	34.011685
542.000000	34.214316
543.000000	34.393918
544.000000	34.553070
545.000000	34.690554
546.000000	34.808538
547.000000	34.912911
548.000000	35.007231
549.000000	35.090298
550.000000	35.166135
551.000000	35.239291
552.000000	35.312332
553.000000	35.386686
554.000000	35.462686
555.000000	35.541529
556.000000	35.627135
557.000000	35.713931
558.000000	35.801192
559.000000	35.890879
560.000000	35.990896
561.000000	36.091598
562.000000	36.187058
563.000000	36.278068
564.000000	36.362732
565.000000	36.438266
566.000000	36.505410
567.000000	36.561187
568.000000	36.609754
569.000000	36.649742
570.000000	36.669926
571.000000	36.681997
572.000000	36.692127
573.000000	36.697672
574.000000	36.701543
575.000000	36.704987
576.000000	36.709771
577.000000	36.719835
578.000000	36.732761
579.000000	36.747647
580.000000	36.771294
581.000000	36.796814
582.000000	36.826957
583.000000	36.861932
584.000000	36.899589
585.000000	36.940813
586.000000	36.980345
587.000000	37.018725
588.000000	37.050951
589.000000	37.080618
590.000000	37.101535
591.000000	37.116982
592.000000	37.122327
593.000000	37.118837
594.000000	37.103770
595.000000	37.078021
596.000000	37.044844
597.000000	37.001860
598.000000	36.955138
599.000000	36.900312
600.000000	36.837116
601.000000	36.769667
602.000000	36.694961
603.000000	36.611191
604.000000	36.524367
605.000000	36.427679
606.000000	36.321499
607.000000	36.207176
608.000000	36.078015
609.000000	35.935471
610.000000	35.775891
611.000000	35.594186
612.000000	35.395237
613.000000	35.182353
614.000000	34.945290
615.000000	34.697849
616.000000	34.439974
617.000000	34.173006
618.000000	33.907264
619.000000	33.643235
620.000000	33.386406
621.000000	33.144055
622.000000	32.916817
623.000000	32.702554
624.000000	32.512688
625.000000	32.339136
626.000000	32.185520
627.000000	32.055303
628.000000	31.943491
629.000000	31.850114
630.000000	31.778547
631.000000	31.723102
632.000000	31.680508
633.000000	31.654113
634.000000	31.638732
635.000000	31.635289
636.000000	31.639703
637.000000	31.644497
638.000000	31.652763
639.000000	31.663758
640.000000	31.670388
641.000000	31.675134
642.000000	31.676514
643.000000	31.672500
644.000000	31.661238
645.000000	31.642119
646.000000	31.612623
647.000000	31.578314
648.000000	31.536528
649.000000	31.492431
650.000000	31.447069
651.000000	31.402639
652.000000	31.368311
653.000000	31.339529
654.000000	31.323492
655.000000	31.321038
656.000000	31.336047
657.000000	31.373010
658.000000	31.428635
659.000000	31.500878
660.000000	31.588948
661.000000	31.691114
662.000000	31.796962
663.000000	31.917933
664.000000	32.046980
665.000000	32.176940
666.000000	32.309240
667.000000	32.439238
668.000000	32.563786
669.000000	32.688286
670.000000	32.817143
671.000000	32.942747
672.000000	33.076302
673.000000	33.208906
674.000000	33.349263
675.000000	33.506798
676.000000	33.679380
677.000000	33.867743
678.000000	34.076337
679.000000	34.301492
680.000000	34.538802
681.000000	34.795945
682.000000	35.067754
683.000000	35.350598
684.000000	35.641603
685.000000	35.931903
686.000000	36.218609
687.000000	36.507550
688.000000	36.796918
689.000000	37.080076
690.000000	37.358981
691.000000	37.630278
692.000000	37.890103
693.000000	38.146960
694.000000	38.396056
695.000000	38.643173
696.000000	38.884707
697.000000	39.111136
698.000000	39.337831
699.000000	39.559808
700.000000	39.779398
701.000000	39.992863
702.000000	40.207725
703.000000	40.418688
704.000000	40.621975
705.000000	40.818261
706.000000	41.014433
707.000000	41.211717
708.000000	41.394306
709.000000	41.569096
710.000000	41.739119
711.000000	41.907250
712.000000	42.067877
713.000000	42.223947
714.000000	42.379541
715.000000	42.532995
716.000000	42.686640
717.000000	42.832722
718.000000	42.981183
719.000000	43.132421
720.000000	43.277324
721.000000	43.424957
722.000000	43.571354
723.000000	43.713679
724.000000	43.854540
725.000000	43.995733
726.000000	44.128927
727.000000	44.265878
728.000000	44.397360
729.000000	44.521433
730.000000	44.647008
731.000000	44.762643
732.000000	44.871820
733.000000	44.978828
734.000000	45.085665
735.000000	45.184921
736.000000	45.279792
737.000000	45.366920
738.000000	45.452735
739.000000	45.543878
740.000000	45.631995
741.000000	45.727132
742.000000	45.828452
743.000000	45.927718
744.000000	46.021295
745.000000	46.120170
746.000000	46.222118
747.000000	46.328356
748.000000	46.438265
749.000000	46.543951
750.000000	46.647706
751.000000	46.746153
752.000000	46.846198
753.000000	46.945150
754.000000	47.040725
755.000000	47.136747
756.000000	47.234966
757.000000	47.331939
758.000000	47.424926
759.000000	47.517895
760.000000	47.606621
761.000000	47.694815
762.000000	47.780193
763.000000	47.865267
764.000000	47.965721
765.000000	48.065652
766.000000	48.163215
767.000000	48.260093
768.000000	48.354070
769.000000	48.451176
770.000000	48.556034
771.000000	48.663366
772.000000	48.768548
773.000000	48.875613
774.000000	48.980633
775.000000	49.090799
776.000000	49.203885
777.000000	49.314174
778.000000	49.424426
779.000000	49.539386
780.000000	49.655487
781.000000	49.760459
782.000000	49.863901
783.000000	49.965344
784.000000	50.058065
785.000000	50.152841
786.000000	50.242319
787.000000	50.327516
788.000000	50.415054
789.000000	50.501935
790.000000	50.592611
791.000000	50.693065
792.000000	50.798057
793.000000	50.908432
794.000000	51.009476
795.000000	51.099410
796.000000	51.204373
797.000000	51.328284
798.000000	51.446164
799.000000	51.551060
800.000000	51.654854
801.000000	51.760178
802.000000	51.864142
803.000000	51.968401
804.000000	52.091170
805.000000	52.211609
806.000000	52.310988
807.000000	52.396709
808.000000	52.496317
809.000000	52.613702
810.000000	52.728015
811.000000	52.843774
812.000000	52.950716
813.000000	53.055232
814.000000	53.160328
815.000000	53.277875
816.000000	53.409433
817.000000	53.537158
818.000000	53.658158
819.000000	53.775305
820.000000	53.885500
821.000000	53.990529
822.000000	54.111311
823.000000	54.241841
824.000000	54.364173
825.000000	54.470296
826.000000	54.574194
827.000000	54.692474
828.000000	54.814111
829.000000	54.936870
830.000000	55.072195
831.000000	55.213522
832.000000	55.332457
833.000000	55.426358
834.000000	55.523417
835.000000	55.632945
836.000000	55.751501
837.000000	55.857234
838.000000	55.967381
839.000000	56.056840
840.000000	56.136948
841.000000	56.213053
842.000000	56.287083
843.000000	56.377398
844.000000	56.489590
845.000000	56.595000
846.000000	56.665130
847.000000	56.758508
848.000000	56.822732
849.000000	56.901071
850.000000	56.973180
851.000000	57.071790
852.000000	57.175602
853.000000	57.263053
854.000000	57.300225
855.000000	57.339119
856.000000	57.383416
857.000000	57.429434
858.000000	57.356345
859.000000	57.507460
860.000000	57.660650
861.000000	57.783087
862.000000	57.917087
863.000000	58.069286
864.000000	58.248718
865.000000	58.429140
866.000000	58.624072
867.000000	58.794401
868.000000	59.097290
869.000000	59.165230
870.000000	59.228320
871.000000	59.284650
872.000000	59.329770
873.000000	59.359980
874.000000	59.376510
875.000000	59.380720
876.000000	59.375650
877.000000	59.365990
878.000000	59.352140
879.000000	59.336360
880.000000	59.317880
881.000000	59.299680
882.000000	59.279850
883.000000	59.259170
884.000000	59.237910
885.000000	59.215710
886.000000	59.194330
887.000000	59.171060
888.000000	59.148350
889.000000	59.124790
890.000000	59.101110
891.000000	59.075930
892.000000	59.049700
893.000000	59.023830
894.000000	58.997140
895.000000	58.968210
896.000000	58.939980
897.000000	58.911530
898.000000	58.880160
899.000000	58.847450
900.000000	58.815670
901.000000	58.781600
902.000000	58.744470
903.000000	58.708690
904.000000	58.670660
905.000000	58.632810
906.000000	58.594710
907.000000	58.554940
908.000000	58.514390
909.000000	58.475270
910.000000	58.434650
911.000000	58.393720
912.000000	58.355450
913.000000	58.311980
914.000000	58.269090
915.000000	58.226170
916.000000	58.179740
917.000000	58.133500
918.000000	58.089530
919.000000	58.038940
920.000000	57.986460
921.000000	57.932490
922.000000	57.875410
923.000000	57.818410
924.000000	57.758700
925.000000	57.697740
926.000000	57.633060
927.000000	57.563360
928.000000	57.491340
929.000000	57.420620
930.000000	57.346310
931.000000	57.272310
932.000000	57.196750
933.000000	57.122500
934.000000	57.046830
935.000000	56.969570
936.000000	56.894160
937.000000	56.821630
938.000000	56.746460
939.000000	56.669470
940.000000	56.595400
941.000000	56.519250
942.000000	56.442520
943.000000	56.363920
944.000000	56.286900
945.000000	56.210570
946.000000	56.136960
947.000000	56.064000
948.000000	55.992470
949.000000	55.923130
950.000000	55.856500
951.000000	55.792770
952.000000	55.732920
953.000000	55.677030
954.000000	55.621640
955.000000	55.567920
956.000000	55.515470
957.000000	55.464940
958.000000	55.416540
959.000000	55.371270
960.000000	55.322680
961.000000	55.275250
962.000000	55.230010
963.000000	55.185570
964.000000	55.142930
965.000000	55.099740
966.000000	55.057300
967.000000	55.017930
968.000000	54.977950
969.000000	54.938470
970.000000	54.905280
971.000000	54.872210
972.000000	54.837660
973.000000	54.804400
974.000000	54.775550
975.000000	54.751270
976.000000	54.728820
977.000000	54.705530
978.000000	54.688030
979.000000	54.672830
980.000000	54.657490
981.000000	54.642530
982.000000	54.632230
983.000000	54.622070
984.000000	54.612270
985.000000	54.603370
986.000000	54.594060
987.000000	54.583590
988.000000	54.574500
989.000000	54.565570
990.000000	54.558870
991.000000	54.553340
992.000000	54.550320
993.000000	54.546540
994.000000	54.543700
995.000000	54.542470
996.000000	54.543070
997.000000	54.547380
998.000000	54.550730
999.000000	54.557190
1000.000000	54.561610
1001.000000	54.566970
1002.000000	54.571270
1003.000000	54.575310
1004.000000	54.578670
1005.000000	54.581310
1006.000000	54.584220
1007.000000	54.586700
1008.000000	54.587890
1009.000000	54.587170
1010.000000	54.587310
1011.000000	54.589070
1012.000000	54.588910
1013.000000	54.591530
1014.000000	54.594910
1015.000000	54.598800
1016.000000	54.604670
1017.000000	54.610670
1018.000000	54.616890
1019.000000	54.626740
1020.000000	54.638370
1021.000000	54.651360
1022.000000	54.667700
1023.000000	54.683790
1024.000000	54.700300
1025.000000	54.719690
1026.000000	54.737380
1027.000000	54.756130
1028.000000	54.777980
1029.000000	54.798260
1030.000000	54.819430
1031.000000	54.841470
1032.000000	54.861020
1033.000000	54.880730
1034.000000	54.902350
1035.000000	54.922650
1036.000000	54.943220
1037.000000	54.964440
1038.000000	54.986220
1039.000000	55.008390
1040.000000	55.030900
1041.000000	55.052510
1042.000000	55.076030
1043.000000	55.101620
1044.000000	55.125380
1045.000000	55.149390
1046.000000	55.176100
1047.000000	55.202450
1048.000000	55.226940
1049.000000	55.252550
1050.000000	55.277440
1051.000000	55.301970
1052.000000	55.325600
1053.000000	55.348620
1054.000000	55.373840
1055.000000	55.399310
1056.000000	55.423720
1057.000000	55.448810
1058.000000	55.474190
1059.000000	55.498540
1060.000000	55.523930
1061.000000	55.550690
1062.000000	55.579380
1063.000000	55.607900
1064.000000	55.633540
1065.000000	55.658120
1066.000000	55.682900
1067.000000	55.707350
1068.000000	55.731840
1069.000000	55.756420
1070.000000	55.780520
1071.000000	55.803070
1072.000000	55.824340
1073.000000	55.845850
1074.000000	55.868490
1075.000000	55.891090
1076.000000	55.913170
1077.000000	55.935640
1078.000000	55.958910
1079.000000	55.982480
1080.000000	56.005480
1081.000000	56.028430
1082.000000	56.052020
1083.000000	56.074670
1084.000000	56.096750
1085.000000	56.119260
1086.000000	56.142140
1087.000000	56.164280
1088.000000	56.184900
1089.000000	56.204320
1090.000000	56.224840
1091.000000	56.246390
1092.000000	56.265690
1093.000000	56.285310
1094.000000	56.305640
1095.000000	56.324340
1096.000000	56.343320
1097.000000	56.361840
1098.000000	56.380440
1099.000000	56.397930
1100.000000	56.413350
1101.000000	56.428660
1102.000000	56.443790
1103.000000	56.456710
1104.000000	56.469670
1105.000000	56.483850
1106.000000	56.496290
1107.000000	56.507850
1108.000000	56.519310
1109.000000	56.529040
1110.000000	56.538970
1111.000000	56.549130
1112.000000	56.558020
1113.000000	56.567520
1114.000000	56.575820
1115.000000	56.583360
1116.000000	56.590110
1117.000000	56.597680
1118.000000	56.604690
1119.000000	56.611890
1120.000000	56.617550
1121.000000	56.619680
1122.000000	56.623880
1123.000000	56.629450
1124.000000	56.634350
1125.000000	56.636510
1126.000000	56.636430
1127.000000	56.633340
1128.000000	56.626010
1129.000000	56.617620
1130.000000	56.607730
1131.000000	56.594630
1132.000000	56.574000
1133.000000	56.543760
1134.000000	56.509400
1135.000000	56.477210
1136.000000	56.443460
1137.000000	56.405400
1138.000000	56.362060
1139.000000	56.314330
1140.000000	56.262640
1141.000000	56.210910
1142.000000	56.159730
1143.000000	56.111150
1144.000000	56.061480
1145.000000	56.007340
1146.000000	55.952130
1147.000000	55.903830
1148.000000	55.857570
1149.000000	55.812760
1150.000000	55.768660
1151.000000	55.725150
1152.000000	55.683000
1153.000000	55.640630
1154.000000	55.599780
1155.000000	55.555600
1156.000000	55.509720
1157.000000	55.455430
1158.000000	55.400940
1159.000000	55.344830
1160.000000	55.286300
1161.000000	55.225120
1162.000000	55.160080
1163.000000	55.088810
1164.000000	55.012760
1165.000000	54.933640
1166.000000	54.852350
1167.000000	54.767400
1168.000000	54.682340
1169.000000	54.595150
1170.000000	54.511450
1171.000000	54.428880
1172.000000	54.351140
1173.000000	54.279130
1174.000000	54.211150
1175.000000	54.147680
1176.000000	54.086420
1177.000000	54.029200
1178.000000	53.973930
1179.000000	53.918290
1180.000000	53.858590
1181.000000	53.796030
1182.000000	53.730180
1183.000000	53.660870
1184.000000	53.589670
1185.000000	53.516120
1186.000000	53.442050
1187.000000	53.369690
1188.000000	53.308060
1189.000000	53.257020
1190.000000	53.215180
1191.000000	53.182030
1192.000000	53.154920
1193.000000	53.139700
1194.000000	53.129590
1195.000000	53.125500
1196.000000	53.128400
1197.000000	53.135360
1198.000000	53.134740
1199.000000	53.132280
1200.000000	53.125780
1201.000000	53.117250
1202.000000	53.107130
1203.000000	53.092830
1204.000000	53.075650
1205.000000	53.059290
1206.000000	53.039240
1207.000000	53.017240
1208.000000	52.993920
1209.000000	52.969430
1210.000000	52.945360
1211.000000	52.918970
1212.000000	52.894610
1213.000000	52.869460
1214.000000	52.850220
1215.000000	52.834150
1216.000000	52.824980
1217.000000	52.822800
1218.000000	52.829020
1219.000000	52.844770
1220.000000	52.873560
1221.000000	52.916290
1222.000000	52.971750
1223.000000	53.043950
1224.000000	53.127270
1225.000000	53.222750
1226.000000	53.329030
1227.000000	53.443290
1228.000000	53.562530
1229.000000	53.684880
1230.000000	53.806380
1231.000000	53.927360
1232.000000	54.042470
1233.000000	54.152310
1234.000000	54.256260
1235.000000	54.351350
1236.000000	54.437630
1237.000000	54.517620
1238.000000	54.591180
1239.000000	54.658610
1240.000000	54.721270
1241.000000	54.777310
1242.000000	54.829620
1243.000000	54.878310
1244.000000	54.925160
1245.000000	54.970900
1246.000000	55.017080
1247.000000	55.061730
1248.000000	55.107020
1249.000000	55.148830
1250.000000	55.188720
1251.000000	55.230230
1252.000000	55.273310
1253.000000	55.312630
1254.000000	55.349840
1255.000000	55.384710
1256.000000	55.417290
1257.000000	55.450110
1258.000000	55.479740
1259.000000	55.511740
1260.000000	55.542590
1261.000000	55.570950
1262.000000	55.599440
1263.000000	55.628150
1264.000000	55.655410
1265.000000	55.684410
1266.000000	55.713250
1267.000000	55.740990
1268.000000	55.770670
1269.000000	55.798670
1270.000000	55.826540
1271.000000	55.854450
1272.000000	55.880150
1273.000000	55.906340
1274.000000	55.932540
1275.000000	55.956790
1276.000000	55.978390
1277.000000	55.999150
1278.000000	56.018380
1279.000000	56.038780
1280.000000	56.060510
1281.000000	56.081150
1282.000000	56.100890
1283.000000	56.120580
1284.000000	56.140120
1285.000000	56.159410
1286.000000	56.180120
1287.000000	56.198380
1288.000000	56.216590
1289.000000	56.233080
1290.000000	56.247640
1291.000000	56.261600
1292.000000	56.273830
1293.000000	56.284410
1294.000000	56.293930
1295.000000	56.302690
1296.000000	56.309070
1297.000000	56.314510
1298.000000	56.318190
1299.000000	56.320920
1300.000000	56.322650
1301.000000	56.324380
1302.000000	56.326190
1303.000000	56.326530
1304.000000	56.325900
1305.000000	56.326010
1306.000000	56.326650
1307.000000	56.327290
1308.000000	56.326140
1309.000000	56.324250
1310.000000	56.322650
1311.000000	56.319380
1312.000000	56.315150
1313.000000	56.310020
1314.000000	56.305190
1315.000000	56.298500
1316.000000	56.289700
1317.000000	56.280840
1318.000000	56.272160
1319.000000	56.261180
1320.000000	56.247800
1321.000000	56.233770
1322.000000	56.218850
1323.000000	56.203110
1324.000000	56.184090
1325.000000	56.162940
1326.000000	56.140290
1327.000000	56.115040
1328.000000	56.087620
1329.000000	56.058480
1330.000000	56.026780
1331.000000	55.991120
1332.000000	55.951540
1333.000000	55.908050
1334.000000	55.861620
1335.000000	55.809990
1336.000000	55.754170
1337.000000	55.695550
1338.000000	55.633490
1339.000000	55.567560
1340.000000	55.497640
1341.000000	55.424170
1342.000000	55.347010
1343.000000	55.264350
1344.000000	55.177590
1345.000000	55.089400
1346.000000	54.995040
1347.000000	54.895170
1348.000000	54.793730
1349.000000	54.690580
1350.000000	54.581150
1351.000000	54.467220
1352.000000	54.351660
1353.000000	54.233130
1354.000000	54.115430
1355.000000	54.004410
1356.000000	53.904140
1357.000000	53.807080
1358.000000	53.708720
1359.000000	53.611510
1360.000000	53.517080
1361.000000	53.434230
1362.000000	53.368540
1363.000000	53.318720
1364.000000	53.262290
1365.000000	53.196520
1366.000000	53.123980
1367.000000	53.042650
1368.000000	52.956320
1369.000000	52.865530
1370.000000	52.761800
1371.000000	52.632380
1372.000000	52.468760
1373.000000	52.264750
1374.000000	52.027870
1375.000000	51.747660
1376.000000	51.425750
1377.000000	51.067530
1378.000000	50.671180
1379.000000	50.238380
1380.000000	49.783550
1381.000000	49.321800
1382.000000	48.860460
1383.000000	48.419780
1384.000000	48.010300
1385.000000	47.641830
1386.000000	47.305360
1387.000000	47.008460
1388.000000	46.755450
1389.000000	46.549890
1390.000000	46.360830
1391.000000	46.147370
1392.000000	45.919520
1393.000000	45.729920
1394.000000	45.598190
1395.000000	45.511110
1396.000000	45.475290
1397.000000	45.471420
1398.000000	45.471950
1399.000000	45.463090
1400.000000	45.484610
1401.000000	45.575920
1402.000000	45.707950
1403.000000	45.795010
1404.000000	45.815070
1405.000000	45.793780
1406.000000	45.727670
1407.000000	45.623530
1408.000000	45.503050
1409.000000	45.373150
1410.000000	45.225910
1411.000000	45.045850
1412.000000	44.838050
1413.000000	44.631890
1414.000000	44.432450
1415.000000	44.233400
1416.000000	44.026070
1417.000000	43.815690
1418.000000	43.612910
1419.000000	43.424210
1420.000000	43.246020
1421.000000	43.075560
1422.000000	42.913140
1423.000000	42.763330
1424.000000	42.624220
1425.000000	42.484250
1426.000000	42.353150
1427.000000	42.232400
1428.000000	42.115980
1429.000000	41.997600
1430.000000	41.876410
1431.000000	41.760900
1432.000000	41.660070
1433.000000	41.562640
1434.000000	41.465990
1435.000000	41.372660
1436.000000	41.280230
1437.000000	41.193290
1438.000000	41.110210
1439.000000	41.031000
1440.000000	40.954970
1441.000000	40.881640
1442.000000	40.811500
1443.000000	40.744830
1444.000000	40.681660
1445.000000	40.622630
1446.000000	40.574770
1447.000000	40.529850
1448.000000	40.482430
1449.000000	40.430200
1450.000000	40.381930
1451.000000	40.339820
1452.000000	40.298290
1453.000000	40.254470
1454.000000	40.208750
1455.000000	40.160570
1456.000000	40.108740
1457.000000	40.057540
1458.000000	40.006520
1459.000000	39.957680
1460.000000	39.905820
1461.000000	39.849450
1462.000000	39.789900
1463.000000	39.728670
1464.000000	39.671810
1465.000000	39.616700
1466.000000	39.558510
1467.000000	39.502760
1468.000000	39.447470
1469.000000	39.392140
1470.000000	39.338930
1471.000000	39.289300
1472.000000	39.242360
1473.000000	39.199910
1474.000000	39.154960
1475.000000	39.110320
1476.000000	39.068570
1477.000000	39.025920
1478.000000	38.991390
1479.000000	38.964170
1480.000000	38.940370
1481.000000	38.916740
1482.000000	38.898880
1483.000000	38.886790
1484.000000	38.878300
1485.000000	38.876490
1486.000000	38.882930
1487.000000	38.894020
1488.000000	38.908210
1489.000000	38.924970
1490.000000	38.943140
1491.000000	38.965010
1492.000000	38.987810
1493.000000	39.009860
1494.000000	39.037000
1495.000000	39.066400
1496.000000	39.095990
1497.000000	39.127290
1498.000000	39.160300
1499.000000	39.195830
1500.000000	39.236130
1501.000000	39.280590
1502.000000	39.328600
1503.000000	39.381950
1504.000000	39.441100
1505.000000	39.503210
1506.000000	39.569820
1507.000000	39.642260
1508.000000	39.719210
1509.000000	39.799060
1510.000000	39.882730
1511.000000	39.967200
1512.000000	40.055270
1513.000000	40.145520
1514.000000	40.235370
1515.000000	40.325920
1516.000000	40.416290
1517.000000	40.505360
1518.000000	40.591390
1519.000000	40.676000
1520.000000	40.758980
1521.000000	40.842500
1522.000000	40.920370
1523.000000	40.996890
1524.000000	41.071680
1525.000000	41.146610
1526.000000	41.218590
1527.000000	41.288470
1528.000000	41.357950
1529.000000	41.425960
1530.000000	41.492250
1531.000000	41.555340
1532.000000	41.619980
1533.000000	41.682590
1534.000000	41.742490
1535.000000	41.800540
1536.000000	41.857420
1537.000000	41.911100
1538.000000	41.962500
1539.000000	42.013150
1540.000000	42.059920
1541.000000	42.102960
1542.000000	42.145830
1543.000000	42.186750
1544.000000	42.227900
1545.000000	42.268200
1546.000000	42.310490
1547.000000	42.357580
1548.000000	42.407450
1549.000000	42.461860
1550.000000	42.521380
1551.000000	42.587630
1552.000000	42.654230
1553.000000	42.722030
1554.000000	42.791220
1555.000000	42.860750
1556.000000	42.929070
1557.000000	42.992880
1558.000000	43.052810
1559.000000	43.106730
1560.000000	43.157330
1561.000000	43.202390
1562.000000	43.241530
1563.000000	43.276150
1564.000000	43.304790
1565.000000	43.327220
1566.000000	43.344340
1567.000000	43.357460
1568.000000	43.365750
1569.000000	43.369410
1570.000000	43.367810
1571.000000	43.363500
1572.000000	43.359510
1573.000000	43.355150
1574.000000	43.349750
1575.000000	43.345500
1576.000000	43.342680
1577.000000	43.342310
1578.000000	43.345960
1579.000000	43.353330
1580.000000	43.363250
1581.000000	43.376220
1582.000000	43.391550
1583.000000	43.410140
1584.000000	43.433390
1585.000000	43.460160
1586.000000	43.488110
1587.000000	43.518920
1588.000000	43.551690
1589.000000	43.585820
1590.000000	43.623410
1591.000000	43.662850
1592.000000	43.703390
1593.000000	43.744410
1594.000000	43.785870
1595.000000	43.828280
1596.000000	43.872490
1597.000000	43.916510
1598.000000	43.962660
1599.000000	44.011450
1600.000000	44.061160
1601.000000	44.111640
1602.000000	44.162560
1603.000000	44.216350
1604.000000	44.271780
1605.000000	44.328530
1606.000000	44.388070
1607.000000	44.449640
1608.000000	44.510300
1609.000000	44.570490
1610.000000	44.629200
1611.000000	44.686920
1612.000000	44.745040
1613.000000	44.799970
1614.000000	44.852880
1615.000000	44.903080
1616.000000	44.949620
1617.000000	44.992850
1618.000000	45.033610
1619.000000	45.072690
1620.000000	45.109480
1621.000000	45.144040
1622.000000	45.175300
1623.000000	45.205590
1624.000000	45.232680
1625.000000	45.257170
1626.000000	45.279780
1627.000000	45.301170
1628.000000	45.320060
1629.000000	45.334740
1630.000000	45.346810
1631.000000	45.356120
1632.000000	45.361750
1633.000000	45.364140
1634.000000	45.364720
1635.000000	45.361250
1636.000000	45.354560
1637.000000	45.345830
1638.000000	45.336330
1639.000000	45.328780
1640.000000	45.324070
1641.000000	45.321480
1642.000000	45.323620
1643.000000	45.330390
1644.000000	45.343000
1645.000000	45.358950
1646.000000	45.376650
1647.000000	45.395680
1648.000000	45.415640
1649.000000	45.434610
1650.000000	45.450340
1651.000000	45.463610
1652.000000	45.471490
1653.000000	45.472660
1654.000000	45.464390
1655.000000	45.450680
1656.000000	45.430880
1657.000000	45.400520
1658.000000	45.359630
1659.000000	45.306790
1660.000000	45.242430
1661.000000	45.166060
1662.000000	45.076870
1663.000000	44.975990
1664.000000	44.860990
1665.000000	44.731900
1666.000000	44.589820
1667.000000	44.439520
1668.000000	44.284120
1669.000000	44.118700
1670.000000	43.944210
1671.000000	43.762760
1672.000000	43.576130
1673.000000	43.384890
1674.000000	43.194400
1675.000000	43.005770
1676.000000	42.820450
1677.000000	42.637400
1678.000000	42.451360
1679.000000	42.265560
1680.000000	42.081150
1681.000000	41.890900
1682.000000	41.697330
1683.000000	41.498540
1684.000000	41.289850
1685.000000	41.073520
1686.000000	40.852750
1687.000000	40.624390
1688.000000	40.396800
1689.000000	40.176270
1690.000000	39.963560
1691.000000	39.766680
1692.000000	39.587760
1693.000000	39.425150
1694.000000	39.284480
1695.000000	39.162780
1696.000000	39.053030
1697.000000	38.956460
1698.000000	38.865490
1699.000000	38.780160
1700.000000	38.696210
1701.000000	38.610260
1702.000000	38.518660
1703.000000	38.420860
1704.000000	38.312860
1705.000000	38.191920
1706.000000	38.058220
1707.000000	37.912150
1708.000000	37.754820
1709.000000	37.581860
1710.000000	37.396740
1711.000000	37.197470
1712.000000	36.987370
1713.000000	36.766240
1714.000000	36.536640
1715.000000	36.302330
1716.000000	36.062980
1717.000000	35.819430
1718.000000	35.572610
1719.000000	35.325070
1720.000000	35.075850
1721.000000	34.834010
1722.000000	34.593190
1723.000000	34.366070
1724.000000	34.154680
1725.000000	33.961590
1726.000000	33.791370
1727.000000	33.645090
1728.000000	33.519890
1729.000000	33.413000
1730.000000	33.324380
1731.000000	33.252490
1732.000000	33.208860
1733.000000	33.194880
1734.000000	33.219480
1735.000000	33.279750
1736.000000	33.375070
1737.000000	33.503340
1738.000000	33.664570
1739.000000	33.855280
1740.000000	34.075460
1741.000000	34.316660
1742.000000	34.566050
1743.000000	34.813580
1744.000000	35.045740
1745.000000	35.259970
1746.000000	35.454750
1747.000000	35.631020
1748.000000	35.790720
1749.000000	35.937200
1750.000000	36.064830
1751.000000	36.172410
1752.000000	36.264270
1753.000000	36.336560
1754.000000	36.389510
1755.000000	36.423990
1756.000000	36.439540
1757.000000	36.434330
1758.000000	36.413330
1759.000000	36.377590
1760.000000	36.329990
1761.000000	36.275070
1762.000000	36.213080
1763.000000	36.146690
1764.000000	36.080120
1765.000000	36.016540
1766.000000	35.965070
1767.000000	35.935330
1768.000000	35.930550
1769.000000	35.954120
1770.000000	36.007180
1771.000000	36.087700
1772.000000	36.193450
1773.000000	36.321070
1774.000000	36.465530
1775.000000	36.623360
1776.000000	36.784040
1777.000000	36.941470
1778.000000	37.087290
1779.000000	37.218310
1780.000000	37.334010
1781.000000	37.438840
1782.000000	37.530930
1783.000000	37.618010
1784.000000	37.702330
1785.000000	37.784000
1786.000000	37.865180
1787.000000	37.943650
1788.000000	38.016930
1789.000000	38.084300
1790.000000	38.148710
1791.000000	38.207910
1792.000000	38.265200
1793.000000	38.316520
1794.000000	38.361340
1795.000000	38.401540
1796.000000	38.436990
1797.000000	38.466580
1798.000000	38.492220
1799.000000	38.517200
1800.000000	38.541650
1801.000000	38.568850
1802.000000	38.599170
1803.000000	38.627880
1804.000000	38.655350
1805.000000	38.683170
1806.000000	38.712130
1807.000000	38.744530
1808.000000	38.779900
1809.000000	38.814500
1810.000000	38.847520
1811.000000	38.878650
1812.000000	38.908160
1813.000000	38.938050
1814.000000	38.967840
1815.000000	38.994200
1816.000000	39.018240
1817.000000	39.039510
1818.000000	39.054470
1819.000000	39.066000
1820.000000	39.079860
1821.000000	39.095920
1822.000000	39.113180
1823.000000	39.130040
1824.000000	39.137130
1825.000000	39.139530
1826.000000	39.141350
1827.000000	39.147140
1828.000000	39.160780
1829.000000	39.181050
1830.000000	39.201960
1831.000000	39.220630
1832.000000	39.237880
1833.000000	39.253710
1834.000000	39.279260
1835.000000	39.313080
1836.000000	39.351150
1837.000000	39.391610
1838.000000	39.436060
1839.000000	39.480920
1840.000000	39.524950
1841.000000	39.569680
1842.000000	39.616590
1843.000000	39.670930
1844.000000	39.721810
1845.000000	39.762790
1846.000000	39.795650
1847.000000	39.826250
1848.000000	39.862710
1849.000000	39.910370
1850.000000	39.959740
1851.000000	39.995800
1852.000000	40.017380
1853.000000	40.028660
1854.000000	40.046510
1855.000000	40.074960
1856.000000	40.104510
1857.000000	40.125030
1858.000000	40.128390
1859.000000	40.112830
1860.000000	40.091920
1861.000000	40.077490
1862.000000	40.064260
1863.000000	40.044900
1864.000000	40.010970
1865.000000	39.962580
1866.000000	39.907740
1867.000000	39.848930
1868.000000	39.786780
1869.000000	39.722180
1870.000000	39.648640
1871.000000	39.569600
1872.000000	39.488230
1873.000000	39.401290
1874.000000	39.307950
1875.000000	39.204030
1876.000000	39.083740
1877.000000	38.945870
1878.000000	38.788380
1879.000000	38.607500
1880.000000	38.403040
1881.000000	38.175070
1882.000000	37.923620
1883.000000	37.651640
1884.000000	37.362710
1885.000000	37.057900
1886.000000	36.736360
1887.000000	36.398820
1888.000000	36.044920
1889.000000	35.675350
1890.000000	35.289520
1891.000000	34.886340
1892.000000	34.465490
1893.000000	34.024750
1894.000000	33.564040
1895.000000	33.086630
1896.000000	32.597230
1897.000000	32.099200
1898.000000	31.589720
1899.000000	31.070180
1900.000000	30.547890
1901.000000	30.020950
1902.000000	29.492870
1903.000000	28.971830
1904.000000	28.458340
1905.000000	27.955370
1906.000000	27.459630
1907.000000	26.966360
1908.000000	26.487260
1909.000000	26.026490
1910.000000	25.583700
1911.000000	25.161810
1912.000000	24.761880
1913.000000	24.382780
1914.000000	24.021450
1915.000000	23.674680
1916.000000	23.348450
1917.000000	23.047280
1918.000000	22.764990
1919.000000	22.498040
1920.000000	22.247370
1921.000000	22.012700
1922.000000	21.792390
1923.000000	21.583760
1924.000000	21.391470
1925.000000	21.217440
1926.000000	21.055280
1927.000000	20.903750
1928.000000	20.766550
1929.000000	20.643060
1930.000000	20.530600
1931.000000	20.430160
1932.000000	20.340380
1933.000000	20.261680
1934.000000	20.193450
1935.000000	20.133300
1936.000000	20.088010
1937.000000	20.054740
1938.000000	20.030530
1939.000000	20.016530
1940.000000	20.014910
1941.000000	20.021630
1942.000000	20.036510
1943.000000	20.062200
1944.000000	20.096420
1945.000000	20.139360
1946.000000	20.186780
1947.000000	20.242560
1948.000000	20.305820
1949.000000	20.375100
1950.000000	20.446420
1951.000000	20.521000
1952.000000	20.601710
1953.000000	20.686130
1954.000000	20.776350
1955.000000	20.869140
1956.000000	20.965170
1957.000000	21.062680
1958.000000	21.160330
1959.000000	21.258470
1960.000000	21.360320
1961.000000	21.467080
1962.000000	21.573350
1963.000000	21.682070
1964.000000	21.789440
1965.000000	21.899610
1966.000000	22.011120
1967.000000	22.121760
1968.000000	22.233740
1969.000000	22.347690
1970.000000	22.460780
1971.000000	22.569630
1972.000000	22.680960
1973.000000	22.791430
1974.000000	22.901600
1975.000000	23.011850
1976.000000	23.123600
1977.000000	23.236320
1978.000000	23.350860
1979.000000	23.463570
1980.000000	23.578440
1981.000000	23.697550
1982.000000	23.816200
1983.000000	23.934450
1984.000000	24.052230
1985.000000	24.168900
1986.000000	24.286270
1987.000000	24.403660
1988.000000	24.518220
1989.000000	24.633070
1990.000000	24.747010
1991.000000	24.857850
1992.000000	24.968020
1993.000000	25.076980
1994.000000	25.184570
1995.000000	25.291110
1996.000000	25.393250
1997.000000	25.492310
1998.000000	25.587140
1999.000000	25.680200
2000.000000	25.769320
