PE UV       SUBTECH     SPECTRUM    ASCII       PEDS        4.00        
   -1
CICIMAUCR0012-1.Sample.ASC
24/03/08
11:02:51.00
24/03/08
11:02:51.00
Vinicio Soto Monge
C. cupreomarginata
250,000000
1
Lambda 1050
1050L1511233
PerkinElmer UV WinLab 6.3.2.0749 / 2.02.05 Lambda 900 UV/VIS/NIR, Aug  7 2015 09:38:08

0
0
3350/servo 860,8/2
0
0
UV/VIS
1
1
1
DoubleDePol,CommonBeamDepol,RBeamAtt,SBeamAtt,60mm sphere, WB InGaAs Detector
0
0
0
0
Program
Program
3350/servo 860,8/2
3350/0,2 860,8/0,2
3350/0,2 860,8/0,2
0
15.00
 
 
 
0
 
860,8
319,2
860,8
Front
100
on
S:100 R:100
0
0
0
0
 
0
 
 
 
0
 
 
0
0
0
0
0
 
 
 
 
0
0


0
0
#HDR
-1
-1
#GR
nm
%R
1.0
0.0
2500,000000
-1,000000
2251
8
25,165700
2,391800
#DATA

250.000000	nan
251.000000	nan
252.000000	nan
253.000000	nan
254.000000	nan
255.000000	nan
256.000000	nan
257.000000	nan
258.000000	nan
259.000000	2.724652
260.000000	2.716777
261.000000	2.710491
262.000000	2.704344
263.000000	2.690898
264.000000	2.680451
265.000000	2.672149
266.000000	2.662486
267.000000	2.656845
268.000000	2.648950
269.000000	2.640062
270.000000	2.631830
271.000000	2.626517
272.000000	2.616189
273.000000	2.614044
274.000000	2.604739
275.000000	2.598304
276.000000	2.588770
277.000000	2.577956
278.000000	2.570557
279.000000	2.564470
280.000000	2.558223
281.000000	2.551391
282.000000	2.548799
283.000000	2.539454
284.000000	2.541510
285.000000	2.533834
286.000000	2.532850
287.000000	2.532811
288.000000	2.531579
289.000000	2.524300
290.000000	2.522056
291.000000	2.519742
292.000000	2.513992
293.000000	2.513416
294.000000	2.502879
295.000000	2.499444
296.000000	2.496931
297.000000	2.494061
298.000000	2.484210
299.000000	2.485769
300.000000	2.484269
301.000000	2.480426
302.000000	2.478073
303.000000	2.470356
304.000000	2.467576
305.000000	2.466851
306.000000	2.464746
307.000000	2.462471
308.000000	2.463733
309.000000	2.464686
310.000000	2.466066
311.000000	2.461955
312.000000	2.457367
313.000000	2.459164
314.000000	2.458569
315.000000	2.460406
316.000000	2.460892
317.000000	2.495670
318.000000	2.547280
319.000000	2.546952
320.000000	2.570975
321.000000	2.573527
322.000000	2.611462
323.000000	2.626835
324.000000	2.652307
325.000000	2.690550
326.000000	2.725526
327.000000	2.717582
328.000000	2.685784
329.000000	2.690252
330.000000	2.683499
331.000000	2.712795
332.000000	2.695645
333.000000	2.699339
334.000000	2.697462
335.000000	2.670997
336.000000	2.643210
337.000000	2.616159
338.000000	2.618602
339.000000	2.624143
340.000000	2.620251
341.000000	2.613835
342.000000	2.618294
343.000000	2.615801
344.000000	2.611134
345.000000	2.612058
346.000000	2.612644
347.000000	2.625792
348.000000	2.613071
349.000000	2.615474
350.000000	2.611432
351.000000	2.597112
352.000000	2.589962
353.000000	2.585642
354.000000	2.580419
355.000000	2.573904
356.000000	2.578055
357.000000	2.580965
358.000000	2.591084
359.000000	2.595344
360.000000	2.600181
361.000000	2.607877
362.000000	2.608979
363.000000	2.616437
364.000000	2.615871
365.000000	2.617718
366.000000	2.621323
367.000000	2.622068
368.000000	2.624988
369.000000	2.626825
370.000000	2.625137
371.000000	2.619000
372.000000	2.614302
373.000000	2.607043
374.000000	2.604679
375.000000	2.610082
376.000000	2.611085
377.000000	2.584798
378.000000	2.555979
379.000000	2.529732
380.000000	2.510844
381.000000	2.499950
382.000000	2.489413
383.000000	2.481379
384.000000	2.477675
385.000000	2.469542
386.000000	2.460316
387.000000	2.482869
388.000000	2.505581
389.000000	2.531281
390.000000	2.558859
391.000000	2.588363
392.000000	2.621124
393.000000	2.658047
394.000000	2.699349
395.000000	2.745209
396.000000	2.793502
397.000000	2.845738
398.000000	2.905531
399.000000	2.969435
400.000000	3.037996
401.000000	3.112805
402.000000	3.193730
403.000000	3.280207
404.000000	3.371132
405.000000	3.466001
406.000000	3.568009
407.000000	3.674635
408.000000	3.784350
409.000000	3.899198
410.000000	4.018526
411.000000	4.141260
412.000000	4.267350
413.000000	4.395307
414.000000	4.524903
415.000000	4.656873
416.000000	4.789160
417.000000	4.921527
418.000000	5.054062
419.000000	5.184909
420.000000	5.314128
421.000000	5.440983
422.000000	5.563766
423.000000	5.682825
424.000000	5.799790
425.000000	5.914430
426.000000	6.025078
427.000000	6.132280
428.000000	6.235540
429.000000	6.335761
430.000000	6.432138
431.000000	6.524961
432.000000	6.616532
433.000000	6.705303
434.000000	6.789614
435.000000	6.868325
436.000000	6.944315
437.000000	7.016760
438.000000	7.085510
439.000000	7.149732
440.000000	7.209406
441.000000	7.266081
442.000000	7.318247
443.000000	7.365666
444.000000	7.408626
445.000000	7.446978
446.000000	7.479601
447.000000	7.506384
448.000000	7.525660
449.000000	7.538609
450.000000	7.545998
451.000000	7.544578
452.000000	7.534727
453.000000	7.517527
454.000000	7.493733
455.000000	7.463692
456.000000	7.426849
457.000000	7.386222
458.000000	7.344345
459.000000	7.300491
460.000000	7.256031
461.000000	7.214471
462.000000	7.176754
463.000000	7.144975
464.000000	7.121181
465.000000	7.107288
466.000000	7.105729
467.000000	7.116226
468.000000	7.139652
469.000000	7.177051
470.000000	7.228860
471.000000	7.294999
472.000000	7.375160
473.000000	7.468141
474.000000	7.572523
475.000000	7.686468
476.000000	7.807692
477.000000	7.935729
478.000000	8.069426
479.000000	8.206947
480.000000	8.345500
481.000000	8.483358
482.000000	8.619797
483.000000	8.756394
484.000000	8.893031
485.000000	9.029012
486.000000	9.163613
487.000000	9.294669
488.000000	9.421583
489.000000	9.544814
490.000000	9.666832
491.000000	9.786984
492.000000	9.904038
493.000000	10.017456
494.000000	10.125840
495.000000	10.231831
496.000000	10.338179
497.000000	10.445977
498.000000	10.556417
499.000000	10.670243
500.000000	10.787256
501.000000	10.909225
502.000000	11.037510
503.000000	11.174723
504.000000	11.323177
505.000000	11.480699
506.000000	11.647624
507.000000	11.822097
508.000000	12.002161
509.000000	12.188322
510.000000	12.380015
511.000000	12.575124
512.000000	12.772735
513.000000	12.969900
514.000000	13.163976
515.000000	13.354437
516.000000	13.537808
517.000000	13.715041
518.000000	13.887627
519.000000	14.057095
520.000000	14.224219
521.000000	14.392763
522.000000	14.564992
523.000000	14.743517
524.000000	14.931694
525.000000	15.131480
526.000000	15.348079
527.000000	15.584430
528.000000	15.840851
529.000000	16.119885
530.000000	16.421401
531.000000	16.746116
532.000000	17.091566
533.000000	17.454177
534.000000	17.832328
535.000000	18.220471
536.000000	18.615207
537.000000	19.012505
538.000000	19.408811
539.000000	19.799525
540.000000	20.182205
541.000000	20.550446
542.000000	20.907297
543.000000	21.251476
544.000000	21.582189
545.000000	21.903110
546.000000	22.208728
547.000000	22.498040
548.000000	22.772485
549.000000	23.026980
550.000000	23.258544
551.000000	23.468986
552.000000	23.652685
553.000000	23.807803
554.000000	23.934687
555.000000	24.034084
556.000000	24.112100
557.000000	24.172012
558.000000	24.218150
559.000000	24.258489
560.000000	24.238240
561.000000	24.214982
562.000000	24.201208
563.000000	24.202221
564.000000	24.218776
565.000000	24.250047
566.000000	24.294448
567.000000	24.347607
568.000000	24.405761
569.000000	24.462217
570.000000	24.571127
571.000000	24.673503
572.000000	24.756047
573.000000	24.815642
574.000000	24.848363
575.000000	24.854252
576.000000	24.832137
577.000000	24.789891
578.000000	24.727099
579.000000	24.648299
580.000000	24.562825
581.000000	24.472794
582.000000	24.387806
583.000000	24.308172
584.000000	24.240176
585.000000	24.185001
586.000000	24.146490
587.000000	24.122338
588.000000	24.110014
589.000000	24.109438
590.000000	24.112676
591.000000	24.120521
592.000000	24.122557
593.000000	24.115069
594.000000	24.097234
595.000000	24.065753
596.000000	24.015702
597.000000	23.945939
598.000000	23.862958
599.000000	23.761029
600.000000	23.645306
601.000000	23.515353
602.000000	23.375697
603.000000	23.232565
604.000000	23.081519
605.000000	22.926123
606.000000	22.770608
607.000000	22.615878
608.000000	22.455924
609.000000	22.298154
610.000000	22.135449
611.000000	21.969715
612.000000	21.799026
613.000000	21.625159
614.000000	21.444767
615.000000	21.257653
616.000000	21.060270
617.000000	20.851536
618.000000	20.635096
619.000000	20.407275
620.000000	20.174310
621.000000	19.936410
622.000000	19.695173
623.000000	19.449129
624.000000	19.203275
625.000000	18.957499
626.000000	18.717166
627.000000	18.481808
628.000000	18.247989
629.000000	18.019612
630.000000	17.799637
631.000000	17.585669
632.000000	17.382387
633.000000	17.188709
634.000000	17.010144
635.000000	16.850806
636.000000	16.708032
637.000000	16.589697
638.000000	16.498801
639.000000	16.436536
640.000000	16.400855
641.000000	16.393377
642.000000	16.413010
643.000000	16.459664
644.000000	16.528623
645.000000	16.619122
646.000000	16.725510
647.000000	16.839842
648.000000	16.962884
649.000000	17.089898
650.000000	17.220904
651.000000	17.353062
652.000000	17.484564
653.000000	17.615402
654.000000	17.746100
655.000000	17.872786
656.000000	17.999790
657.000000	18.130578
658.000000	18.261375
659.000000	18.391925
660.000000	18.522672
661.000000	18.653093
662.000000	18.777614
663.000000	18.899295
664.000000	19.012545
665.000000	19.114007
666.000000	19.208438
667.000000	19.291708
668.000000	19.364539
669.000000	19.427451
670.000000	19.477919
671.000000	19.517929
672.000000	19.552180
673.000000	19.580245
674.000000	19.602569
675.000000	19.621507
676.000000	19.635479
677.000000	19.647813
678.000000	19.662183
679.000000	19.678281
680.000000	19.695481
681.000000	19.713495
682.000000	19.732175
683.000000	19.747200
684.000000	19.762156
685.000000	19.778710
686.000000	19.799495
687.000000	19.816139
688.000000	19.826189
689.000000	19.834719
690.000000	19.842644
691.000000	19.850400
692.000000	19.859636
693.000000	19.872595
694.000000	19.890441
695.000000	19.914165
696.000000	19.937731
697.000000	19.967265
698.000000	20.006620
699.000000	20.050246
700.000000	20.100327
701.000000	20.156932
702.000000	20.215185
703.000000	20.274799
704.000000	20.335277
705.000000	20.392955
706.000000	20.453443
707.000000	20.513147
708.000000	20.569811
709.000000	20.625026
710.000000	20.676427
711.000000	20.725366
712.000000	20.775804
713.000000	20.822439
714.000000	20.868587
715.000000	20.916244
716.000000	20.960059
717.000000	21.004251
718.000000	21.048730
719.000000	21.088691
720.000000	21.126001
721.000000	21.159905
722.000000	21.188863
723.000000	21.216838
724.000000	21.241337
725.000000	21.257603
726.000000	21.269093
727.000000	21.274833
728.000000	21.273860
729.000000	21.274684
730.000000	21.274883
731.000000	21.272599
732.000000	21.269838
733.000000	21.268030
734.000000	21.265816
735.000000	21.270305
736.000000	21.279570
737.000000	21.295737
738.000000	21.320941
739.000000	21.345251
740.000000	21.367457
741.000000	21.394041
742.000000	21.426257
743.000000	21.459405
744.000000	21.491313
745.000000	21.521581
746.000000	21.546259
747.000000	21.562685
748.000000	21.575386
749.000000	21.591325
750.000000	21.612299
751.000000	21.632399
752.000000	21.649291
753.000000	21.668447
754.000000	21.690434
755.000000	21.713642
756.000000	21.746493
757.000000	21.785441
758.000000	21.821003
759.000000	21.852831
760.000000	21.881262
761.000000	21.906675
762.000000	21.928880
763.000000	21.949774
764.000000	21.968782
765.000000	21.981324
766.000000	21.987581
767.000000	21.992884
768.000000	21.996916
769.000000	22.004423
770.000000	22.018018
771.000000	22.036599
772.000000	22.054683
773.000000	22.077920
774.000000	22.105736
775.000000	22.141507
776.000000	22.182342
777.000000	22.224319
778.000000	22.272781
779.000000	22.325751
780.000000	22.378176
781.000000	22.424433
782.000000	22.471763
783.000000	22.516918
784.000000	22.565549
785.000000	22.615858
786.000000	22.659354
787.000000	22.706446
788.000000	22.754838
789.000000	22.803767
790.000000	22.849220
791.000000	22.901892
792.000000	22.968805
793.000000	23.032729
794.000000	23.093277
795.000000	23.151749
796.000000	23.215634
797.000000	23.271464
798.000000	23.327404
799.000000	23.379729
800.000000	23.433096
801.000000	23.484230
802.000000	23.523684
803.000000	23.563328
804.000000	23.603399
805.000000	23.641413
806.000000	23.678415
807.000000	23.715089
808.000000	23.759082
809.000000	23.814466
810.000000	23.866950
811.000000	23.915501
812.000000	23.956247
813.000000	24.003775
814.000000	24.047898
815.000000	24.095307
816.000000	24.142935
817.000000	24.188010
818.000000	24.227544
819.000000	24.249700
820.000000	24.273941
821.000000	24.299383
822.000000	24.336643
823.000000	24.368610
824.000000	24.389574
825.000000	24.409435
826.000000	24.423964
827.000000	24.446696
828.000000	24.457351
829.000000	24.470589
830.000000	24.480241
831.000000	24.484700
832.000000	24.489328
833.000000	24.484502
834.000000	24.480738
835.000000	24.473916
836.000000	24.466795
837.000000	24.457163
838.000000	24.439635
839.000000	24.419495
840.000000	24.406645
841.000000	24.396625
842.000000	24.382295
843.000000	24.372533
844.000000	24.374549
845.000000	24.351529
846.000000	24.318669
847.000000	24.289999
848.000000	24.257227
849.000000	24.215230
850.000000	24.156053
851.000000	24.104751
852.000000	24.045177
853.000000	23.992484
854.000000	23.947756
855.000000	23.907547
856.000000	23.865758
857.000000	23.818677
858.000000	23.818945
859.000000	23.848382
860.000000	23.885094
861.000000	23.915184
862.000000	23.955537
863.000000	23.994930
864.000000	24.024149
865.000000	24.076251
866.000000	24.146654
867.000000	24.220011
868.000000	24.262880
869.000000	24.289670
870.000000	24.320160
871.000000	24.354730
872.000000	24.383400
873.000000	24.410520
874.000000	24.435540
875.000000	24.461460
876.000000	24.484490
877.000000	24.504230
878.000000	24.526720
879.000000	24.543470
880.000000	24.557780
881.000000	24.569420
882.000000	24.580440
883.000000	24.589880
884.000000	24.598120
885.000000	24.598640
886.000000	24.591040
887.000000	24.580430
888.000000	24.562470
889.000000	24.542880
890.000000	24.519810
891.000000	24.489490
892.000000	24.454870
893.000000	24.414230
894.000000	24.368430
895.000000	24.321910
896.000000	24.273910
897.000000	24.221120
898.000000	24.164850
899.000000	24.107970
900.000000	24.049870
901.000000	23.989830
902.000000	23.928060
903.000000	23.861370
904.000000	23.795930
905.000000	23.729650
906.000000	23.665470
907.000000	23.598920
908.000000	23.535450
909.000000	23.472630
910.000000	23.415360
911.000000	23.362370
912.000000	23.312940
913.000000	23.268990
914.000000	23.226140
915.000000	23.189930
916.000000	23.158360
917.000000	23.131400
918.000000	23.106280
919.000000	23.083340
920.000000	23.061340
921.000000	23.040570
922.000000	23.022390
923.000000	23.003270
924.000000	22.988330
925.000000	22.967790
926.000000	22.946170
927.000000	22.927840
928.000000	22.909420
929.000000	22.891150
930.000000	22.871080
931.000000	22.850830
932.000000	22.832640
933.000000	22.815900
934.000000	22.798960
935.000000	22.783630
936.000000	22.770540
937.000000	22.757210
938.000000	22.745320
939.000000	22.732780
940.000000	22.720410
941.000000	22.708590
942.000000	22.696190
943.000000	22.684230
944.000000	22.671630
945.000000	22.658720
946.000000	22.644460
947.000000	22.632370
948.000000	22.619220
949.000000	22.608440
950.000000	22.599630
951.000000	22.591250
952.000000	22.582590
953.000000	22.575590
954.000000	22.567730
955.000000	22.561470
956.000000	22.555910
957.000000	22.549110
958.000000	22.542120
959.000000	22.533760
960.000000	22.524130
961.000000	22.514450
962.000000	22.505460
963.000000	22.493300
964.000000	22.483410
965.000000	22.471870
966.000000	22.459190
967.000000	22.448070
968.000000	22.438980
969.000000	22.432620
970.000000	22.426760
971.000000	22.423490
972.000000	22.418720
973.000000	22.418000
974.000000	22.416320
975.000000	22.418130
976.000000	22.421280
977.000000	22.425950
978.000000	22.429440
979.000000	22.432640
980.000000	22.437170
981.000000	22.441540
982.000000	22.450480
983.000000	22.458820
984.000000	22.468080
985.000000	22.478190
986.000000	22.489690
987.000000	22.500030
988.000000	22.511880
989.000000	22.525110
990.000000	22.540340
991.000000	22.556140
992.000000	22.569350
993.000000	22.584160
994.000000	22.600920
995.000000	22.616640
996.000000	22.633120
997.000000	22.651540
998.000000	22.671760
999.000000	22.691540
1000.000000	22.710440
1001.000000	22.729210
1002.000000	22.748500
1003.000000	22.767120
1004.000000	22.786790
1005.000000	22.809770
1006.000000	22.831010
1007.000000	22.849810
1008.000000	22.867550
1009.000000	22.885650
1010.000000	22.904530
1011.000000	22.923210
1012.000000	22.940910
1013.000000	22.959600
1014.000000	22.976280
1015.000000	22.990190
1016.000000	23.005390
1017.000000	23.021780
1018.000000	23.038620
1019.000000	23.057590
1020.000000	23.076800
1021.000000	23.095880
1022.000000	23.117950
1023.000000	23.141000
1024.000000	23.163530
1025.000000	23.186960
1026.000000	23.210280
1027.000000	23.234320
1028.000000	23.258990
1029.000000	23.280470
1030.000000	23.301690
1031.000000	23.323860
1032.000000	23.343980
1033.000000	23.362630
1034.000000	23.380640
1035.000000	23.397470
1036.000000	23.412110
1037.000000	23.425750
1038.000000	23.439800
1039.000000	23.453570
1040.000000	23.464740
1041.000000	23.475790
1042.000000	23.487140
1043.000000	23.495700
1044.000000	23.504650
1045.000000	23.513550
1046.000000	23.523360
1047.000000	23.532370
1048.000000	23.540110
1049.000000	23.548080
1050.000000	23.557540
1051.000000	23.566440
1052.000000	23.572940
1053.000000	23.581590
1054.000000	23.591920
1055.000000	23.602160
1056.000000	23.613230
1057.000000	23.626700
1058.000000	23.640640
1059.000000	23.657290
1060.000000	23.672520
1061.000000	23.687560
1062.000000	23.707430
1063.000000	23.728720
1064.000000	23.750420
1065.000000	23.771280
1066.000000	23.791010
1067.000000	23.811750
1068.000000	23.832780
1069.000000	23.850980
1070.000000	23.872330
1071.000000	23.896330
1072.000000	23.918010
1073.000000	23.938700
1074.000000	23.959150
1075.000000	23.981690
1076.000000	24.006420
1077.000000	24.029460
1078.000000	24.052200
1079.000000	24.076530
1080.000000	24.099620
1081.000000	24.121430
1082.000000	24.144270
1083.000000	24.166700
1084.000000	24.189290
1085.000000	24.213450
1086.000000	24.236250
1087.000000	24.258800
1088.000000	24.282120
1089.000000	24.305180
1090.000000	24.327030
1091.000000	24.348260
1092.000000	24.368860
1093.000000	24.387770
1094.000000	24.407090
1095.000000	24.427520
1096.000000	24.446910
1097.000000	24.464650
1098.000000	24.482800
1099.000000	24.500290
1100.000000	24.516980
1101.000000	24.531860
1102.000000	24.545660
1103.000000	24.560080
1104.000000	24.572340
1105.000000	24.579400
1106.000000	24.585790
1107.000000	24.595150
1108.000000	24.600660
1109.000000	24.603050
1110.000000	24.606280
1111.000000	24.609370
1112.000000	24.609970
1113.000000	24.609980
1114.000000	24.609630
1115.000000	24.610370
1116.000000	24.611150
1117.000000	24.609500
1118.000000	24.608150
1119.000000	24.607430
1120.000000	24.604700
1121.000000	24.599350
1122.000000	24.594090
1123.000000	24.588560
1124.000000	24.580680
1125.000000	24.571090
1126.000000	24.557880
1127.000000	24.538360
1128.000000	24.515000
1129.000000	24.486140
1130.000000	24.454010
1131.000000	24.414400
1132.000000	24.365670
1133.000000	24.306660
1134.000000	24.239600
1135.000000	24.163930
1136.000000	24.081450
1137.000000	23.992500
1138.000000	23.893720
1139.000000	23.786440
1140.000000	23.672910
1141.000000	23.558950
1142.000000	23.443310
1143.000000	23.326530
1144.000000	23.209780
1145.000000	23.093690
1146.000000	22.983060
1147.000000	22.881960
1148.000000	22.791510
1149.000000	22.714170
1150.000000	22.646090
1151.000000	22.588870
1152.000000	22.542280
1153.000000	22.509290
1154.000000	22.484360
1155.000000	22.464600
1156.000000	22.444380
1157.000000	22.420410
1158.000000	22.390970
1159.000000	22.350810
1160.000000	22.301070
1161.000000	22.238960
1162.000000	22.167250
1163.000000	22.082410
1164.000000	21.984680
1165.000000	21.878340
1166.000000	21.766440
1167.000000	21.647050
1168.000000	21.524200
1169.000000	21.403090
1170.000000	21.280960
1171.000000	21.159860
1172.000000	21.038280
1173.000000	20.916740
1174.000000	20.798910
1175.000000	20.685950
1176.000000	20.574500
1177.000000	20.465260
1178.000000	20.355410
1179.000000	20.244190
1180.000000	20.128940
1181.000000	20.006580
1182.000000	19.883900
1183.000000	19.755950
1184.000000	19.625530
1185.000000	19.495520
1186.000000	19.370390
1187.000000	19.254900
1188.000000	19.155060
1189.000000	19.076810
1190.000000	19.027880
1191.000000	19.008230
1192.000000	19.016650
1193.000000	19.055020
1194.000000	19.120630
1195.000000	19.204870
1196.000000	19.302340
1197.000000	19.408100
1198.000000	19.514350
1199.000000	19.614980
1200.000000	19.707330
1201.000000	19.788130
1202.000000	19.852990
1203.000000	19.904590
1204.000000	19.943100
1205.000000	19.970880
1206.000000	19.990750
1207.000000	20.007210
1208.000000	20.023010
1209.000000	20.035610
1210.000000	20.046790
1211.000000	20.062040
1212.000000	20.081250
1213.000000	20.104100
1214.000000	20.127910
1215.000000	20.154420
1216.000000	20.186690
1217.000000	20.220100
1218.000000	20.254640
1219.000000	20.295240
1220.000000	20.335970
1221.000000	20.378730
1222.000000	20.421540
1223.000000	20.465970
1224.000000	20.513680
1225.000000	20.564550
1226.000000	20.614480
1227.000000	20.666000
1228.000000	20.720530
1229.000000	20.772430
1230.000000	20.824570
1231.000000	20.875910
1232.000000	20.927590
1233.000000	20.979040
1234.000000	21.029760
1235.000000	21.079570
1236.000000	21.127560
1237.000000	21.173770
1238.000000	21.216440
1239.000000	21.257650
1240.000000	21.299210
1241.000000	21.342190
1242.000000	21.384370
1243.000000	21.426660
1244.000000	21.467350
1245.000000	21.504370
1246.000000	21.542530
1247.000000	21.580750
1248.000000	21.619930
1249.000000	21.661410
1250.000000	21.701710
1251.000000	21.739150
1252.000000	21.772880
1253.000000	21.805110
1254.000000	21.838320
1255.000000	21.872600
1256.000000	21.907460
1257.000000	21.940710
1258.000000	21.972100
1259.000000	22.000390
1260.000000	22.029180
1261.000000	22.058750
1262.000000	22.090400
1263.000000	22.120750
1264.000000	22.149440
1265.000000	22.178220
1266.000000	22.205260
1267.000000	22.231670
1268.000000	22.257090
1269.000000	22.281830
1270.000000	22.304400
1271.000000	22.324590
1272.000000	22.345390
1273.000000	22.365520
1274.000000	22.383510
1275.000000	22.399290
1276.000000	22.414190
1277.000000	22.429290
1278.000000	22.444250
1279.000000	22.460440
1280.000000	22.479480
1281.000000	22.498580
1282.000000	22.515680
1283.000000	22.533210
1284.000000	22.552720
1285.000000	22.574080
1286.000000	22.595620
1287.000000	22.618010
1288.000000	22.642250
1289.000000	22.665350
1290.000000	22.685840
1291.000000	22.706260
1292.000000	22.727330
1293.000000	22.746760
1294.000000	22.765430
1295.000000	22.782690
1296.000000	22.797750
1297.000000	22.811710
1298.000000	22.823680
1299.000000	22.834450
1300.000000	22.844600
1301.000000	22.853020
1302.000000	22.859730
1303.000000	22.866630
1304.000000	22.872350
1305.000000	22.875460
1306.000000	22.878290
1307.000000	22.879080
1308.000000	22.875850
1309.000000	22.870820
1310.000000	22.863300
1311.000000	22.853940
1312.000000	22.844260
1313.000000	22.831640
1314.000000	22.815640
1315.000000	22.799400
1316.000000	22.779890
1317.000000	22.758040
1318.000000	22.735880
1319.000000	22.710320
1320.000000	22.682350
1321.000000	22.652850
1322.000000	22.618650
1323.000000	22.583080
1324.000000	22.547320
1325.000000	22.507700
1326.000000	22.465580
1327.000000	22.420940
1328.000000	22.374270
1329.000000	22.326740
1330.000000	22.277110
1331.000000	22.223880
1332.000000	22.169750
1333.000000	22.112580
1334.000000	22.052700
1335.000000	21.990510
1336.000000	21.923920
1337.000000	21.853470
1338.000000	21.780270
1339.000000	21.704890
1340.000000	21.626420
1341.000000	21.545530
1342.000000	21.460910
1343.000000	21.371990
1344.000000	21.280260
1345.000000	21.183940
1346.000000	21.085450
1347.000000	20.985340
1348.000000	20.880670
1349.000000	20.769380
1350.000000	20.653770
1351.000000	20.531390
1352.000000	20.399470
1353.000000	20.257980
1354.000000	20.108310
1355.000000	19.956810
1356.000000	19.802740
1357.000000	19.647310
1358.000000	19.496920
1359.000000	19.355820
1360.000000	19.223040
1361.000000	19.104350
1362.000000	19.005600
1363.000000	18.926290
1364.000000	18.855020
1365.000000	18.789250
1366.000000	18.731040
1367.000000	18.673450
1368.000000	18.613780
1369.000000	18.549670
1370.000000	18.473730
1371.000000	18.384290
1372.000000	18.274790
1373.000000	18.144710
1374.000000	18.000070
1375.000000	17.842650
1376.000000	17.667950
1377.000000	17.484050
1378.000000	17.293020
1379.000000	17.093440
1380.000000	16.896400
1381.000000	16.702240
1382.000000	16.516110
1383.000000	16.343650
1384.000000	16.182210
1385.000000	16.029080
1386.000000	15.890550
1387.000000	15.763190
1388.000000	15.648180
1389.000000	15.551750
1390.000000	15.464660
1391.000000	15.389170
1392.000000	15.326680
1393.000000	15.274430
1394.000000	15.233870
1395.000000	15.208100
1396.000000	15.198750
1397.000000	15.200030
1398.000000	15.203210
1399.000000	15.200480
1400.000000	15.200470
1401.000000	15.199780
1402.000000	15.194030
1403.000000	15.175210
1404.000000	15.147230
1405.000000	15.112010
1406.000000	15.060930
1407.000000	15.000020
1408.000000	14.932640
1409.000000	14.864490
1410.000000	14.790510
1411.000000	14.709550
1412.000000	14.622970
1413.000000	14.542030
1414.000000	14.469370
1415.000000	14.397250
1416.000000	14.325510
1417.000000	14.254600
1418.000000	14.188070
1419.000000	14.122150
1420.000000	14.059460
1421.000000	13.998160
1422.000000	13.937080
1423.000000	13.875020
1424.000000	13.808240
1425.000000	13.737630
1426.000000	13.671480
1427.000000	13.606880
1428.000000	13.539780
1429.000000	13.471840
1430.000000	13.406080
1431.000000	13.340480
1432.000000	13.279330
1433.000000	13.220140
1434.000000	13.165170
1435.000000	13.114470
1436.000000	13.061870
1437.000000	13.011800
1438.000000	12.965840
1439.000000	12.922580
1440.000000	12.876190
1441.000000	12.832900
1442.000000	12.789250
1443.000000	12.745580
1444.000000	12.698390
1445.000000	12.653670
1446.000000	12.611800
1447.000000	12.569320
1448.000000	12.524590
1449.000000	12.478910
1450.000000	12.435990
1451.000000	12.392900
1452.000000	12.353320
1453.000000	12.314600
1454.000000	12.277180
1455.000000	12.238950
1456.000000	12.201070
1457.000000	12.165870
1458.000000	12.131920
1459.000000	12.098670
1460.000000	12.064700
1461.000000	12.032690
1462.000000	11.998890
1463.000000	11.965390
1464.000000	11.934130
1465.000000	11.904580
1466.000000	11.877430
1467.000000	11.848790
1468.000000	11.822680
1469.000000	11.799660
1470.000000	11.777570
1471.000000	11.756730
1472.000000	11.739160
1473.000000	11.724570
1474.000000	11.708670
1475.000000	11.690580
1476.000000	11.671350
1477.000000	11.654990
1478.000000	11.638390
1479.000000	11.621220
1480.000000	11.604520
1481.000000	11.588080
1482.000000	11.571050
1483.000000	11.552530
1484.000000	11.535850
1485.000000	11.521300
1486.000000	11.508300
1487.000000	11.495210
1488.000000	11.485090
1489.000000	11.475540
1490.000000	11.467700
1491.000000	11.460500
1492.000000	11.454640
1493.000000	11.449340
1494.000000	11.446010
1495.000000	11.442290
1496.000000	11.437440
1497.000000	11.435300
1498.000000	11.432480
1499.000000	11.431120
1500.000000	11.430440
1501.000000	11.430090
1502.000000	11.429540
1503.000000	11.430260
1504.000000	11.433170
1505.000000	11.439500
1506.000000	11.448010
1507.000000	11.455840
1508.000000	11.465220
1509.000000	11.474890
1510.000000	11.485570
1511.000000	11.497310
1512.000000	11.510370
1513.000000	11.523410
1514.000000	11.534660
1515.000000	11.546930
1516.000000	11.559630
1517.000000	11.570820
1518.000000	11.582050
1519.000000	11.595010
1520.000000	11.607890
1521.000000	11.620020
1522.000000	11.632480
1523.000000	11.645610
1524.000000	11.660010
1525.000000	11.671560
1526.000000	11.682490
1527.000000	11.694720
1528.000000	11.707060
1529.000000	11.718110
1530.000000	11.727960
1531.000000	11.738740
1532.000000	11.747680
1533.000000	11.756740
1534.000000	11.764600
1535.000000	11.772040
1536.000000	11.780100
1537.000000	11.787630
1538.000000	11.794090
1539.000000	11.800910
1540.000000	11.806800
1541.000000	11.810920
1542.000000	11.814330
1543.000000	11.817460
1544.000000	11.820950
1545.000000	11.824460
1546.000000	11.826930
1547.000000	11.829350
1548.000000	11.831960
1549.000000	11.833370
1550.000000	11.835850
1551.000000	11.839710
1552.000000	11.844980
1553.000000	11.848830
1554.000000	11.851420
1555.000000	11.855920
1556.000000	11.860570
1557.000000	11.863810
1558.000000	11.864360
1559.000000	11.865760
1560.000000	11.868610
1561.000000	11.868820
1562.000000	11.866610
1563.000000	11.864890
1564.000000	11.863570
1565.000000	11.860780
1566.000000	11.857750
1567.000000	11.852700
1568.000000	11.847870
1569.000000	11.841990
1570.000000	11.833250
1571.000000	11.825730
1572.000000	11.818870
1573.000000	11.813130
1574.000000	11.808220
1575.000000	11.802700
1576.000000	11.797580
1577.000000	11.795360
1578.000000	11.793820
1579.000000	11.793030
1580.000000	11.794770
1581.000000	11.797520
1582.000000	11.801660
1583.000000	11.804650
1584.000000	11.808560
1585.000000	11.815950
1586.000000	11.824500
1587.000000	11.832100
1588.000000	11.842160
1589.000000	11.854140
1590.000000	11.866640
1591.000000	11.879670
1592.000000	11.893950
1593.000000	11.910580
1594.000000	11.926530
1595.000000	11.941960
1596.000000	11.957540
1597.000000	11.976010
1598.000000	11.995620
1599.000000	12.014560
1600.000000	12.034920
1601.000000	12.057530
1602.000000	12.079170
1603.000000	12.100170
1604.000000	12.121600
1605.000000	12.143610
1606.000000	12.165840
1607.000000	12.188310
1608.000000	12.211300
1609.000000	12.234310
1610.000000	12.257140
1611.000000	12.280020
1612.000000	12.303620
1613.000000	12.327700
1614.000000	12.352400
1615.000000	12.376620
1616.000000	12.401090
1617.000000	12.426650
1618.000000	12.452000
1619.000000	12.476990
1620.000000	12.501720
1621.000000	12.525500
1622.000000	12.549630
1623.000000	12.575020
1624.000000	12.600220
1625.000000	12.625780
1626.000000	12.652470
1627.000000	12.677360
1628.000000	12.702470
1629.000000	12.726650
1630.000000	12.751140
1631.000000	12.776450
1632.000000	12.803190
1633.000000	12.828600
1634.000000	12.855510
1635.000000	12.882450
1636.000000	12.906710
1637.000000	12.932930
1638.000000	12.959360
1639.000000	12.988320
1640.000000	13.016490
1641.000000	13.040520
1642.000000	13.062490
1643.000000	13.085360
1644.000000	13.107580
1645.000000	13.128080
1646.000000	13.149540
1647.000000	13.169210
1648.000000	13.187430
1649.000000	13.203450
1650.000000	13.217940
1651.000000	13.233190
1652.000000	13.250150
1653.000000	13.263860
1654.000000	13.275140
1655.000000	13.285450
1656.000000	13.294790
1657.000000	13.301960
1658.000000	13.305670
1659.000000	13.309290
1660.000000	13.310010
1661.000000	13.308600
1662.000000	13.302410
1663.000000	13.294040
1664.000000	13.283450
1665.000000	13.268550
1666.000000	13.249340
1667.000000	13.227570
1668.000000	13.198600
1669.000000	13.161990
1670.000000	13.121500
1671.000000	13.075270
1672.000000	13.023250
1673.000000	12.965370
1674.000000	12.899960
1675.000000	12.826990
1676.000000	12.742400
1677.000000	12.643260
1678.000000	12.534560
1679.000000	12.414810
1680.000000	12.280950
1681.000000	12.134600
1682.000000	11.977320
1683.000000	11.815500
1684.000000	11.652200
1685.000000	11.497530
1686.000000	11.355160
1687.000000	11.230130
1688.000000	11.121860
1689.000000	11.031150
1690.000000	10.956960
1691.000000	10.897750
1692.000000	10.852460
1693.000000	10.811730
1694.000000	10.778460
1695.000000	10.746130
1696.000000	10.715570
1697.000000	10.689550
1698.000000	10.667700
1699.000000	10.650090
1700.000000	10.643810
1701.000000	10.647760
1702.000000	10.661440
1703.000000	10.687790
1704.000000	10.722140
1705.000000	10.760980
1706.000000	10.801990
1707.000000	10.840700
1708.000000	10.876680
1709.000000	10.910750
1710.000000	10.937980
1711.000000	10.958580
1712.000000	10.974290
1713.000000	10.981200
1714.000000	10.984780
1715.000000	10.980610
1716.000000	10.975030
1717.000000	10.964030
1718.000000	10.951460
1719.000000	10.935130
1720.000000	10.919550
1721.000000	10.902090
1722.000000	10.884430
1723.000000	10.868570
1724.000000	10.850620
1725.000000	10.837870
1726.000000	10.826470
1727.000000	10.814720
1728.000000	10.800420
1729.000000	10.783720
1730.000000	10.762090
1731.000000	10.740370
1732.000000	10.714980
1733.000000	10.690840
1734.000000	10.666210
1735.000000	10.643540
1736.000000	10.622120
1737.000000	10.609290
1738.000000	10.606360
1739.000000	10.616520
1740.000000	10.637780
1741.000000	10.671220
1742.000000	10.717880
1743.000000	10.774070
1744.000000	10.839240
1745.000000	10.910510
1746.000000	10.985940
1747.000000	11.060390
1748.000000	11.134220
1749.000000	11.202770
1750.000000	11.266210
1751.000000	11.322590
1752.000000	11.372400
1753.000000	11.413660
1754.000000	11.447580
1755.000000	11.474370
1756.000000	11.494340
1757.000000	11.508210
1758.000000	11.516320
1759.000000	11.517950
1760.000000	11.517430
1761.000000	11.510540
1762.000000	11.498350
1763.000000	11.485630
1764.000000	11.474970
1765.000000	11.464090
1766.000000	11.455170
1767.000000	11.451660
1768.000000	11.454630
1769.000000	11.465090
1770.000000	11.478940
1771.000000	11.503450
1772.000000	11.537650
1773.000000	11.575600
1774.000000	11.615840
1775.000000	11.659130
1776.000000	11.706980
1777.000000	11.756410
1778.000000	11.804030
1779.000000	11.849840
1780.000000	11.895650
1781.000000	11.939490
1782.000000	11.979870
1783.000000	12.020870
1784.000000	12.059940
1785.000000	12.099460
1786.000000	12.135630
1787.000000	12.168900
1788.000000	12.201360
1789.000000	12.233940
1790.000000	12.264500
1791.000000	12.293350
1792.000000	12.320200
1793.000000	12.346870
1794.000000	12.373580
1795.000000	12.398060
1796.000000	12.420920
1797.000000	12.442950
1798.000000	12.462500
1799.000000	12.480840
1800.000000	12.499600
1801.000000	12.517990
1802.000000	12.536660
1803.000000	12.554890
1804.000000	12.571610
1805.000000	12.586910
1806.000000	12.603170
1807.000000	12.621130
1808.000000	12.639520
1809.000000	12.656860
1810.000000	12.671840
1811.000000	12.687730
1812.000000	12.702910
1813.000000	12.716910
1814.000000	12.730420
1815.000000	12.743860
1816.000000	12.756310
1817.000000	12.765750
1818.000000	12.771030
1819.000000	12.773370
1820.000000	12.778410
1821.000000	12.786300
1822.000000	12.797400
1823.000000	12.807870
1824.000000	12.814280
1825.000000	12.816820
1826.000000	12.818390
1827.000000	12.824200
1828.000000	12.837390
1829.000000	12.856490
1830.000000	12.877560
1831.000000	12.896650
1832.000000	12.913030
1833.000000	12.930040
1834.000000	12.951260
1835.000000	12.975090
1836.000000	13.000280
1837.000000	13.026860
1838.000000	13.051920
1839.000000	13.074470
1840.000000	13.095260
1841.000000	13.115820
1842.000000	13.140650
1843.000000	13.167140
1844.000000	13.188590
1845.000000	13.206360
1846.000000	13.218050
1847.000000	13.226430
1848.000000	13.240320
1849.000000	13.263580
1850.000000	13.287570
1851.000000	13.305480
1852.000000	13.313380
1853.000000	13.317630
1854.000000	13.328960
1855.000000	13.347710
1856.000000	13.373280
1857.000000	13.395220
1858.000000	13.406590
1859.000000	13.408610
1860.000000	13.410030
1861.000000	13.414530
1862.000000	13.420340
1863.000000	13.423180
1864.000000	13.417800
1865.000000	13.404500
1866.000000	13.383250
1867.000000	13.356960
1868.000000	13.326470
1869.000000	13.289410
1870.000000	13.243800
1871.000000	13.195890
1872.000000	13.145480
1873.000000	13.090910
1874.000000	13.034480
1875.000000	12.972660
1876.000000	12.902910
1877.000000	12.826330
1878.000000	12.741920
1879.000000	12.647880
1880.000000	12.542140
1881.000000	12.419730
1882.000000	12.283820
1883.000000	12.136540
1884.000000	11.979980
1885.000000	11.818620
1886.000000	11.658460
1887.000000	11.496610
1888.000000	11.332970
1889.000000	11.170970
1890.000000	11.014520
1891.000000	10.866520
1892.000000	10.726010
1893.000000	10.595260
1894.000000	10.470170
1895.000000	10.347890
1896.000000	10.224590
1897.000000	10.104630
1898.000000	9.988310
1899.000000	9.874020
1900.000000	9.762570
1901.000000	9.651350
1902.000000	9.538880
1903.000000	9.424440
1904.000000	9.310270
1905.000000	9.199300
1906.000000	9.092940
1907.000000	8.990400
1908.000000	8.890800
1909.000000	8.792280
1910.000000	8.690400
1911.000000	8.588390
1912.000000	8.488410
1913.000000	8.392870
1914.000000	8.303260
1915.000000	8.215900
1916.000000	8.130280
1917.000000	8.043460
1918.000000	7.954050
1919.000000	7.866130
1920.000000	7.784850
1921.000000	7.709180
1922.000000	7.637350
1923.000000	7.568550
1924.000000	7.498570
1925.000000	7.430280
1926.000000	7.363110
1927.000000	7.301110
1928.000000	7.246250
1929.000000	7.198280
1930.000000	7.153660
1931.000000	7.112770
1932.000000	7.074400
1933.000000	7.036730
1934.000000	7.002180
1935.000000	6.969130
1936.000000	6.943650
1937.000000	6.921180
1938.000000	6.902530
1939.000000	6.886230
1940.000000	6.873450
1941.000000	6.861830
1942.000000	6.855220
1943.000000	6.853660
1944.000000	6.852740
1945.000000	6.859680
1946.000000	6.865550
1947.000000	6.875750
1948.000000	6.886820
1949.000000	6.902260
1950.000000	6.917010
1951.000000	6.932370
1952.000000	6.948600
1953.000000	6.966980
1954.000000	6.988920
1955.000000	7.011810
1956.000000	7.038020
1957.000000	7.062440
1958.000000	7.088980
1959.000000	7.113750
1960.000000	7.141870
1961.000000	7.171620
1962.000000	7.201950
1963.000000	7.231100
1964.000000	7.261410
1965.000000	7.287830
1966.000000	7.315660
1967.000000	7.343510
1968.000000	7.371450
1969.000000	7.399470
1970.000000	7.429050
1971.000000	7.457540
1972.000000	7.484550
1973.000000	7.512880
1974.000000	7.542920
1975.000000	7.574770
1976.000000	7.604380
1977.000000	7.634300
1978.000000	7.664810
1979.000000	7.694990
1980.000000	7.724100
1981.000000	7.756830
1982.000000	7.790400
1983.000000	7.820630
1984.000000	7.850520
1985.000000	7.882450
1986.000000	7.912460
1987.000000	7.942240
1988.000000	7.974380
1989.000000	8.006530
1990.000000	8.036400
1991.000000	8.062900
1992.000000	8.090810
1993.000000	8.118000
1994.000000	8.144550
1995.000000	8.166580
1996.000000	8.191110
1997.000000	8.217750
1998.000000	8.241990
1999.000000	8.263340
2000.000000	8.283710
2001.000000	8.303350
2002.000000	8.322140
2003.000000	8.340290
2004.000000	8.354920
2005.000000	8.372130
2006.000000	8.385870
2007.000000	8.395290
2008.000000	8.403000
2009.000000	8.409660
2010.000000	8.414360
2011.000000	8.418300
2012.000000	8.419010
2013.000000	8.419640
2014.000000	8.420750
2015.000000	8.416650
2016.000000	8.410460
2017.000000	8.403320
2018.000000	8.393390
2019.000000	8.383820
2020.000000	8.372160
2021.000000	8.359060
2022.000000	8.343500
2023.000000	8.326840
2024.000000	8.307950
2025.000000	8.286880
2026.000000	8.266460
2027.000000	8.241350
2028.000000	8.215620
2029.000000	8.187770
2030.000000	8.161540
2031.000000	8.132130
2032.000000	8.102720
2033.000000	8.071850
2034.000000	8.038170
2035.000000	8.004420
2036.000000	7.969480
2037.000000	7.935680
2038.000000	7.898780
2039.000000	7.859590
2040.000000	7.816280
2041.000000	7.773640
2042.000000	7.729840
2043.000000	7.683060
2044.000000	7.637290
2045.000000	7.590270
2046.000000	7.538850
2047.000000	7.486090
2048.000000	7.435680
2049.000000	7.387380
2050.000000	7.341650
2051.000000	7.294840
2052.000000	7.250520
2053.000000	7.209560
2054.000000	7.169090
2055.000000	7.133880
2056.000000	7.104800
2057.000000	7.080260
2058.000000	7.058960
2059.000000	7.040190
2060.000000	7.025650
2061.000000	7.016780
2062.000000	7.010160
2063.000000	7.006290
2064.000000	7.005880
2065.000000	7.008920
2066.000000	7.015370
2067.000000	7.023740
2068.000000	7.032850
2069.000000	7.043040
2070.000000	7.054590
2071.000000	7.066930
2072.000000	7.079740
2073.000000	7.093850
2074.000000	7.108850
2075.000000	7.121410
2076.000000	7.132830
2077.000000	7.146400
2078.000000	7.160980
2079.000000	7.174230
2080.000000	7.185700
2081.000000	7.197870
2082.000000	7.208780
2083.000000	7.218830
2084.000000	7.229290
2085.000000	7.242350
2086.000000	7.253940
2087.000000	7.261830
2088.000000	7.268490
2089.000000	7.277100
2090.000000	7.285170
2091.000000	7.289520
2092.000000	7.294580
2093.000000	7.300760
2094.000000	7.305030
2095.000000	7.306670
2096.000000	7.309020
2097.000000	7.313370
2098.000000	7.317300
2099.000000	7.320190
2100.000000	7.324790
2101.000000	7.331870
2102.000000	7.338140
2103.000000	7.343480
2104.000000	7.349270
2105.000000	7.354920
2106.000000	7.361930
2107.000000	7.369540
2108.000000	7.376540
2109.000000	7.382930
2110.000000	7.388630
2111.000000	7.394960
2112.000000	7.402780
2113.000000	7.410250
2114.000000	7.417920
2115.000000	7.424330
2116.000000	7.429420
2117.000000	7.434550
2118.000000	7.439790
2119.000000	7.445370
2120.000000	7.449710
2121.000000	7.452600
2122.000000	7.454770
2123.000000	7.456610
2124.000000	7.457080
2125.000000	7.457990
2126.000000	7.458660
2127.000000	7.457550
2128.000000	7.455830
2129.000000	7.452940
2130.000000	7.448570
2131.000000	7.443160
2132.000000	7.435510
2133.000000	7.427130
2134.000000	7.419510
2135.000000	7.410820
2136.000000	7.400660
2137.000000	7.388030
2138.000000	7.374080
2139.000000	7.359830
2140.000000	7.346600
2141.000000	7.333690
2142.000000	7.318230
2143.000000	7.300150
2144.000000	7.280050
2145.000000	7.259500
2146.000000	7.238280
2147.000000	7.215730
2148.000000	7.192430
2149.000000	7.169610
2150.000000	7.145130
2151.000000	7.117230
2152.000000	7.091030
2153.000000	7.066950
2154.000000	7.042150
2155.000000	7.015540
2156.000000	6.989780
2157.000000	6.965920
2158.000000	6.942960
2159.000000	6.917940
2160.000000	6.895490
2161.000000	6.874470
2162.000000	6.854420
2163.000000	6.834010
2164.000000	6.815730
2165.000000	6.800320
2166.000000	6.782700
2167.000000	6.765440
2168.000000	6.748850
2169.000000	6.733490
2170.000000	6.716260
2171.000000	6.699400
2172.000000	6.681580
2173.000000	6.664310
2174.000000	6.645770
2175.000000	6.627910
2176.000000	6.613270
2177.000000	6.598430
2178.000000	6.582550
2179.000000	6.566910
2180.000000	6.551930
2181.000000	6.537440
2182.000000	6.521490
2183.000000	6.503870
2184.000000	6.488170
2185.000000	6.468870
2186.000000	6.446400
2187.000000	6.423050
2188.000000	6.395870
2189.000000	6.367190
2190.000000	6.334640
2191.000000	6.297930
2192.000000	6.258220
2193.000000	6.214800
2194.000000	6.166220
2195.000000	6.113460
2196.000000	6.055160
2197.000000	5.991470
2198.000000	5.923370
2199.000000	5.851380
2200.000000	5.777640
2201.000000	5.703250
2202.000000	5.627250
2203.000000	5.550390
2204.000000	5.472080
2205.000000	5.395630
2206.000000	5.322920
2207.000000	5.256680
2208.000000	5.196940
2209.000000	5.142230
2210.000000	5.093770
2211.000000	5.052930
2212.000000	5.019140
2213.000000	4.994130
2214.000000	4.979090
2215.000000	4.972290
2216.000000	4.972390
2217.000000	4.976340
2218.000000	4.986470
2219.000000	5.003940
2220.000000	5.025410
2221.000000	5.049990
2222.000000	5.074280
2223.000000	5.101590
2224.000000	5.129130
2225.000000	5.156880
2226.000000	5.187800
2227.000000	5.216400
2228.000000	5.246950
2229.000000	5.272800
2230.000000	5.296660
2231.000000	5.316420
2232.000000	5.337230
2233.000000	5.353000
2234.000000	5.365630
2235.000000	5.375230
2236.000000	5.378260
2237.000000	5.379990
2238.000000	5.376340
2239.000000	5.369300
2240.000000	5.356220
2241.000000	5.341060
2242.000000	5.324080
2243.000000	5.303640
2244.000000	5.280470
2245.000000	5.253480
2246.000000	5.223910
2247.000000	5.190250
2248.000000	5.154010
2249.000000	5.115230
2250.000000	5.076930
2251.000000	5.033890
2252.000000	4.986980
2253.000000	4.938490
2254.000000	4.885200
2255.000000	4.832140
2256.000000	4.774950
2257.000000	4.715180
2258.000000	4.654410
2259.000000	4.592080
2260.000000	4.526570
2261.000000	4.459540
2262.000000	4.394180
2263.000000	4.330320
2264.000000	4.269540
2265.000000	4.211580
2266.000000	4.156700
2267.000000	4.109380
2268.000000	4.066240
2269.000000	4.028890
2270.000000	3.998550
2271.000000	3.975930
2272.000000	3.961290
2273.000000	3.952710
2274.000000	3.947820
2275.000000	3.948590
2276.000000	3.955700
2277.000000	3.967120
2278.000000	3.983060
2279.000000	4.001470
2280.000000	4.022820
2281.000000	4.046810
2282.000000	4.071200
2283.000000	4.096660
2284.000000	4.125400
2285.000000	4.152770
2286.000000	4.182060
2287.000000	4.209830
2288.000000	4.235550
2289.000000	4.260500
2290.000000	4.280350
2291.000000	4.300050
2292.000000	4.315090
2293.000000	4.326730
2294.000000	4.332270
2295.000000	4.334670
2296.000000	4.329400
2297.000000	4.319450
2298.000000	4.305990
2299.000000	4.289650
2300.000000	4.273410
2301.000000	4.251290
2302.000000	4.229540
2303.000000	4.205880
2304.000000	4.184780
2305.000000	4.164920
2306.000000	4.147350
2307.000000	4.134750
2308.000000	4.126830
2309.000000	4.123550
2310.000000	4.125680
2311.000000	4.135360
2312.000000	4.151100
2313.000000	4.172250
2314.000000	4.198590
2315.000000	4.230750
2316.000000	4.268890
2317.000000	4.309290
2318.000000	4.351990
2319.000000	4.397020
2320.000000	4.444240
2321.000000	4.491090
2322.000000	4.535100
2323.000000	4.578480
2324.000000	4.622500
2325.000000	4.663960
2326.000000	4.702110
2327.000000	4.737900
2328.000000	4.772990
2329.000000	4.804660
2330.000000	4.833760
2331.000000	4.860460
2332.000000	4.884360
2333.000000	4.908620
2334.000000	4.930120
2335.000000	4.946820
2336.000000	4.963930
2337.000000	4.979750
2338.000000	4.989650
2339.000000	4.996520
2340.000000	5.000300
2341.000000	5.002780
2342.000000	5.003100
2343.000000	4.998870
2344.000000	4.991090
2345.000000	4.981250
2346.000000	4.968400
2347.000000	4.952420
2348.000000	4.935020
2349.000000	4.919360
2350.000000	4.903950
2351.000000	4.889000
2352.000000	4.875400
2353.000000	4.862970
2354.000000	4.851770
2355.000000	4.843300
2356.000000	4.839520
2357.000000	4.842300
2358.000000	4.850610
2359.000000	4.859830
2360.000000	4.870400
2361.000000	4.884440
2362.000000	4.901910
2363.000000	4.921640
2364.000000	4.943180
2365.000000	4.967910
2366.000000	4.990470
2367.000000	5.008900
2368.000000	5.027410
2369.000000	5.046040
2370.000000	5.063870
2371.000000	5.077500
2372.000000	5.090240
2373.000000	5.103750
2374.000000	5.114590
2375.000000	5.120450
2376.000000	5.126330
2377.000000	5.133150
2378.000000	5.136520
2379.000000	5.140340
2380.000000	5.144500
2381.000000	5.147110
2382.000000	5.148020
2383.000000	5.147700
2384.000000	5.148720
2385.000000	5.149150
2386.000000	5.147910
2387.000000	5.145020
2388.000000	5.142490
2389.000000	5.136340
2390.000000	5.126330
2391.000000	5.116350
2392.000000	5.105080
2393.000000	5.091080
2394.000000	5.076650
2395.000000	5.061600
2396.000000	5.045940
2397.000000	5.029650
2398.000000	5.009900
2399.000000	4.989710
2400.000000	4.972380
2401.000000	4.955820
2402.000000	4.938580
2403.000000	4.920130
2404.000000	4.900440
2405.000000	4.881780
2406.000000	4.862260
2407.000000	4.840830
2408.000000	4.821310
2409.000000	4.801190
2410.000000	4.779220
2411.000000	4.756190
2412.000000	4.734480
2413.000000	4.715260
2414.000000	4.694910
2415.000000	4.672540
2416.000000	4.652790
2417.000000	4.634560
2418.000000	4.613700
2419.000000	4.592750
2420.000000	4.571520
2421.000000	4.549240
2422.000000	4.526040
2423.000000	4.500670
2424.000000	4.473560
2425.000000	4.445860
2426.000000	4.411910
2427.000000	4.373140
2428.000000	4.335900
2429.000000	4.300580
2430.000000	4.266210
2431.000000	4.230810
2432.000000	4.191640
2433.000000	4.153190
2434.000000	4.116540
2435.000000	4.081940
2436.000000	4.050460
2437.000000	4.021360
2438.000000	3.992160
2439.000000	3.960460
2440.000000	3.928000
2441.000000	3.896790
2442.000000	3.864970
2443.000000	3.832880
2444.000000	3.800120
2445.000000	3.765790
2446.000000	3.732160
2447.000000	3.699790
2448.000000	3.666100
2449.000000	3.631300
2450.000000	3.597750
2451.000000	3.563220
2452.000000	3.531540
2453.000000	3.500050
2454.000000	3.468080
2455.000000	3.436900
2456.000000	3.406880
2457.000000	3.374840
2458.000000	3.347610
2459.000000	3.321470
2460.000000	3.294340
2461.000000	3.270740
2462.000000	3.248070
2463.000000	3.224600
2464.000000	3.202420
2465.000000	3.183690
2466.000000	3.164530
2467.000000	3.152010
2468.000000	3.134310
2469.000000	3.122710
2470.000000	3.110320
2471.000000	3.099520
2472.000000	3.090470
2473.000000	3.084980
2474.000000	3.079670
2475.000000	3.077590
2476.000000	3.074810
2477.000000	3.062420
2478.000000	3.056330
2479.000000	3.046840
2480.000000	3.042870
2481.000000	3.037230
2482.000000	3.033790
2483.000000	3.023600
2484.000000	3.019760
2485.000000	3.016140
2486.000000	3.007230
2487.000000	3.010770
2488.000000	3.013980
2489.000000	3.023880
2490.000000	3.022330
2491.000000	3.022570
2492.000000	3.024220
2493.000000	3.028880
2494.000000	3.031130
2495.000000	3.034870
2496.000000	3.044860
2497.000000	3.053230
2498.000000	3.058410
2499.000000	3.064170
2500.000000	3.081520
