PE UV       SUBTECH     SPECTRUM    ASCII       PEDS        4.00        
   -1
CICIMAUCR0141-1.ASC
24/04/03
17:28:52.00
24/04/03
17:28:52.00
Vinicio Soto Monge
C. kalinini
250,000000
1
Lambda 1050
1050L1511233
PerkinElmer UV WinLab 6.3.2.0749 / 2.02.05 Lambda 900 UV/VIS/NIR, Aug  7 2015 09:38:08

0
0
3350/servo 860,8/2
0
0
UV/VIS
1
1
1
DoubleDePol,CommonBeamDepol,RBeamAtt,SBeamAtt,60mm sphere, WB InGaAs Detector
0
0
0
0
Program
Program
3350/servo 860,8/2
3350/0,2 860,8/0,2
3350/0,2 860,8/0,2
0
15.00
 
 
 
0
 
860,8
319,2
860,8
Front
100
on
S:100 R:100
0
0
0
0
 
0
 
 
 
0
 
 
0
0
0
0
0
 
 
 
 
0
0


0
0
#HDR
-1
-1
#GR
nm
%R
1.0
0.0
2500,000000
-1,000000
2251
8
70,071300
5,462100
#DATA

250.000000	nan
251.000000	nan
252.000000	nan
253.000000	nan
254.000000	nan
255.000000	nan
256.000000	nan
257.000000	nan
258.000000	nan
259.000000	6.067798
260.000000	6.054229
261.000000	6.042446
262.000000	6.031008
263.000000	6.012892
264.000000	6.000510
265.000000	5.982689
266.000000	5.961397
267.000000	5.946082
268.000000	5.925621
269.000000	5.909180
270.000000	5.888131
271.000000	5.871416
272.000000	5.851565
273.000000	5.839264
274.000000	5.823899
275.000000	5.808908
276.000000	5.797592
277.000000	5.780826
278.000000	5.771347
279.000000	5.758742
280.000000	5.750887
281.000000	5.736263
282.000000	5.726976
283.000000	5.717873
284.000000	5.705664
285.000000	5.705603
286.000000	5.698986
287.000000	5.692642
288.000000	5.688552
289.000000	5.685122
290.000000	5.681367
291.000000	5.685406
292.000000	5.682524
293.000000	5.676617
294.000000	5.676587
295.000000	5.669797
296.000000	5.668508
297.000000	5.668386
298.000000	5.664449
299.000000	5.654969
300.000000	5.651813
301.000000	5.645379
302.000000	5.641004
303.000000	5.644059
304.000000	5.638934
305.000000	5.637635
306.000000	5.627365
307.000000	5.628095
308.000000	5.621864
309.000000	5.616637
310.000000	5.607493
311.000000	5.599262
312.000000	5.592990
313.000000	5.582222
314.000000	5.584861
315.000000	5.580750
316.000000	5.584038
317.000000	5.619042
318.000000	5.669005
319.000000	5.703360
320.000000	5.755008
321.000000	5.801480
322.000000	5.835966
323.000000	5.864606
324.000000	5.878368
325.000000	5.907678
326.000000	5.929387
327.000000	5.918477
328.000000	5.899356
329.000000	5.874826
330.000000	5.833571
331.000000	5.794893
332.000000	5.777883
333.000000	5.762914
334.000000	5.759504
335.000000	5.744554
336.000000	5.738506
337.000000	5.725870
338.000000	5.704060
339.000000	5.710342
340.000000	5.718056
341.000000	5.726256
342.000000	5.726530
343.000000	5.717721
344.000000	5.713641
345.000000	5.698600
346.000000	5.688796
347.000000	5.676069
348.000000	5.691526
349.000000	5.694763
350.000000	5.695849
351.000000	5.693718
352.000000	5.684351
353.000000	5.695362
354.000000	5.683955
355.000000	5.688989
356.000000	5.691506
357.000000	5.701340
358.000000	5.690369
359.000000	5.690125
360.000000	5.681965
361.000000	5.679855
362.000000	5.686878
363.000000	5.679510
364.000000	5.693343
365.000000	5.693992
366.000000	5.696042
367.000000	5.699686
368.000000	5.705308
369.000000	5.702751
370.000000	5.705308
371.000000	5.716340
372.000000	5.728428
373.000000	5.732000
374.000000	5.723181
375.000000	5.735522
376.000000	5.747650
377.000000	5.740901
378.000000	5.735633
379.000000	5.737399
380.000000	5.745468
381.000000	5.744879
382.000000	5.740038
383.000000	5.750735
384.000000	5.771063
385.000000	5.777934
386.000000	5.780319
387.000000	5.797237
388.000000	5.814998
389.000000	5.834677
390.000000	5.853310
391.000000	5.874532
392.000000	5.900341
393.000000	5.924566
394.000000	5.948244
395.000000	5.975737
396.000000	6.005321
397.000000	6.039574
398.000000	6.075359
399.000000	6.111103
400.000000	6.150157
401.000000	6.190884
402.000000	6.234251
403.000000	6.282235
404.000000	6.336725
405.000000	6.395203
406.000000	6.458309
407.000000	6.526266
408.000000	6.599247
409.000000	6.680287
410.000000	6.768258
411.000000	6.864145
412.000000	6.968648
413.000000	7.082814
414.000000	7.205525
415.000000	7.337471
416.000000	7.480734
417.000000	7.635089
418.000000	7.802211
419.000000	7.979899
420.000000	8.170405
421.000000	8.374530
422.000000	8.591028
423.000000	8.820536
424.000000	9.062720
425.000000	9.318291
426.000000	9.588060
427.000000	9.869378
428.000000	10.160338
429.000000	10.463325
430.000000	10.775709
431.000000	11.097410
432.000000	11.428519
433.000000	11.766733
434.000000	12.109848
435.000000	12.457804
436.000000	12.809303
437.000000	13.164130
438.000000	13.520378
439.000000	13.876565
440.000000	14.233554
441.000000	14.588311
442.000000	14.937779
443.000000	15.284152
444.000000	15.625999
445.000000	15.960711
446.000000	16.289963
447.000000	16.611614
448.000000	16.926211
449.000000	17.230557
450.000000	17.524420
451.000000	17.810823
452.000000	18.090152
453.000000	18.360165
454.000000	18.622291
455.000000	18.876837
456.000000	19.120229
457.000000	19.354801
458.000000	19.581904
459.000000	19.801203
460.000000	20.011935
461.000000	20.212154
462.000000	20.403532
463.000000	20.585452
464.000000	20.755690
465.000000	20.916145
466.000000	21.067334
467.000000	21.208455
468.000000	21.337184
469.000000	21.455500
470.000000	21.563414
471.000000	21.659879
472.000000	21.743304
473.000000	21.812560
474.000000	21.870074
475.000000	21.913410
476.000000	21.940731
477.000000	21.953519
478.000000	21.955325
479.000000	21.944598
480.000000	21.918880
481.000000	21.879594
482.000000	21.827459
483.000000	21.763368
484.000000	21.687941
485.000000	21.603147
486.000000	21.510802
487.000000	21.412671
488.000000	21.307681
489.000000	21.200680
490.000000	21.094238
491.000000	20.990942
492.000000	20.893228
493.000000	20.805450
494.000000	20.731759
495.000000	20.671048
496.000000	20.626768
497.000000	20.602076
498.000000	20.599945
499.000000	20.620293
500.000000	20.665172
501.000000	20.732946
502.000000	20.826976
503.000000	20.947921
504.000000	21.090727
505.000000	21.259230
506.000000	21.452455
507.000000	21.667928
508.000000	21.903789
509.000000	22.158426
510.000000	22.429636
511.000000	22.718475
512.000000	23.020233
513.000000	23.331055
514.000000	23.654522
515.000000	23.985580
516.000000	24.323926
517.000000	24.666118
518.000000	25.015089
519.000000	25.371347
520.000000	25.734030
521.000000	26.104476
522.000000	26.484402
523.000000	26.874365
524.000000	27.274365
525.000000	27.688300
526.000000	28.118797
527.000000	28.569126
528.000000	29.038748
529.000000	29.527328
530.000000	30.038307
531.000000	30.571736
532.000000	31.128547
533.000000	31.709077
534.000000	32.316247
535.000000	32.945309
536.000000	33.594933
537.000000	34.262966
538.000000	34.948629
539.000000	35.648083
540.000000	36.358083
541.000000	37.077095
542.000000	37.804713
543.000000	38.534919
544.000000	39.266029
545.000000	39.997757
546.000000	40.723508
547.000000	41.444600
548.000000	42.153108
549.000000	42.853324
550.000000	43.545289
551.000000	44.229287
552.000000	44.899391
553.000000	45.559437
554.000000	46.203144
555.000000	46.830420
556.000000	47.447607
557.000000	48.048384
558.000000	48.636535
559.000000	49.210580
560.000000	49.773065
561.000000	50.315921
562.000000	50.840459
563.000000	51.345460
564.000000	51.832863
565.000000	52.303104
566.000000	52.748703
567.000000	53.175334
568.000000	53.586001
569.000000	53.976472
570.000000	54.342940
571.000000	54.691546
572.000000	55.016220
573.000000	55.323216
574.000000	55.609933
575.000000	55.875501
576.000000	56.130442
577.000000	56.366912
578.000000	56.583775
579.000000	56.786531
580.000000	56.973505
581.000000	57.148269
582.000000	57.308957
583.000000	57.452342
584.000000	57.585161
585.000000	57.705446
586.000000	57.813887
587.000000	57.909003
588.000000	57.988683
589.000000	58.053352
590.000000	58.103670
591.000000	58.139049
592.000000	58.158515
593.000000	58.164736
594.000000	58.149513
595.000000	58.120182
596.000000	58.064546
597.000000	57.988987
598.000000	57.895657
599.000000	57.785663
600.000000	57.649028
601.000000	57.492217
602.000000	57.319198
603.000000	57.127088
604.000000	56.920151
605.000000	56.691536
606.000000	56.440929
607.000000	56.181836
608.000000	55.902801
609.000000	55.599571
610.000000	55.289684
611.000000	54.957387
612.000000	54.615794
613.000000	54.258632
614.000000	53.888450
615.000000	53.504637
616.000000	53.116146
617.000000	52.709265
618.000000	52.296720
619.000000	51.878929
620.000000	51.444219
621.000000	51.006404
622.000000	50.552463
623.000000	50.090331
624.000000	49.624301
625.000000	49.160505
626.000000	48.698251
627.000000	48.239357
628.000000	47.783202
629.000000	47.335989
630.000000	46.906019
631.000000	46.489395
632.000000	46.097646
633.000000	45.727758
634.000000	45.382156
635.000000	45.060394
636.000000	44.765486
637.000000	44.493362
638.000000	44.250732
639.000000	44.033311
640.000000	43.840988
641.000000	43.670354
642.000000	43.520140
643.000000	43.393917
644.000000	43.285780
645.000000	43.200986
646.000000	43.136550
647.000000	43.098137
648.000000	43.079280
649.000000	43.088536
650.000000	43.129568
651.000000	43.193729
652.000000	43.286663
653.000000	43.411120
654.000000	43.556940
655.000000	43.719993
656.000000	43.896320
657.000000	44.084025
658.000000	44.274247
659.000000	44.453995
660.000000	44.616855
661.000000	44.766836
662.000000	44.890704
663.000000	44.982704
664.000000	45.050559
665.000000	45.089064
666.000000	45.098564
667.000000	45.082447
668.000000	45.049707
669.000000	45.001296
670.000000	44.941651
671.000000	44.875084
672.000000	44.812851
673.000000	44.753368
674.000000	44.703455
675.000000	44.663956
676.000000	44.644257
677.000000	44.638137
678.000000	44.644135
679.000000	44.672735
680.000000	44.721927
681.000000	44.795060
682.000000	44.887638
683.000000	44.999794
684.000000	45.131954
685.000000	45.288329
686.000000	45.463195
687.000000	45.663748
688.000000	45.888162
689.000000	46.135938
690.000000	46.411979
691.000000	46.706217
692.000000	47.021118
693.000000	47.357495
694.000000	47.709288
695.000000	48.076994
696.000000	48.458604
697.000000	48.851480
698.000000	49.256565
699.000000	49.668815
700.000000	50.079207
701.000000	50.493528
702.000000	50.907909
703.000000	51.316049
704.000000	51.714516
705.000000	52.101516
706.000000	52.473647
707.000000	52.830352
708.000000	53.167814
709.000000	53.486247
710.000000	53.781003
711.000000	54.053766
712.000000	54.306129
713.000000	54.537880
714.000000	54.751313
715.000000	54.949298
716.000000	55.130528
717.000000	55.296433
718.000000	55.454228
719.000000	55.596273
720.000000	55.735608
721.000000	55.870954
722.000000	55.997816
723.000000	56.134167
724.000000	56.279997
725.000000	56.433896
726.000000	56.596076
727.000000	56.769095
728.000000	56.957530
729.000000	57.166365
730.000000	57.389977
731.000000	57.631298
732.000000	57.898144
733.000000	58.178529
734.000000	58.472138
735.000000	58.781721
736.000000	59.109238
737.000000	59.449694
738.000000	59.799061
739.000000	60.161226
740.000000	60.531815
741.000000	60.912451
742.000000	61.293990
743.000000	61.679173
744.000000	62.070303
745.000000	62.460032
746.000000	62.849751
747.000000	63.238344
748.000000	63.624948
749.000000	64.004579
750.000000	64.380080
751.000000	64.749806
752.000000	65.111291
753.000000	65.460252
754.000000	65.802291
755.000000	66.133949
756.000000	66.462947
757.000000	66.788444
758.000000	67.099549
759.000000	67.399501
760.000000	67.683651
761.000000	67.950924
762.000000	68.215364
763.000000	68.473726
764.000000	68.711161
765.000000	68.934265
766.000000	69.140785
767.000000	69.331931
768.000000	69.519453
769.000000	69.701443
770.000000	69.866567
771.000000	70.022840
772.000000	70.164621
773.000000	70.288773
774.000000	70.408500
775.000000	70.514059
776.000000	70.609246
777.000000	70.701693
778.000000	70.782864
779.000000	70.842123
780.000000	70.890595
781.000000	70.933880
782.000000	70.970660
783.000000	70.997362
784.000000	71.020856
785.000000	71.037440
786.000000	71.046391
787.000000	71.043184
788.000000	71.035004
789.000000	71.021912
790.000000	70.999229
791.000000	70.974191
792.000000	70.933149
793.000000	70.892015
794.000000	70.835364
795.000000	70.788009
796.000000	70.749169
797.000000	70.700211
798.000000	70.636019
799.000000	70.577896
800.000000	70.527892
801.000000	70.469140
802.000000	70.422201
803.000000	70.395123
804.000000	70.367366
805.000000	70.327653
806.000000	70.279233
807.000000	70.238546
808.000000	70.205825
809.000000	70.175236
810.000000	70.140375
811.000000	70.106447
812.000000	70.065638
813.000000	70.015787
814.000000	69.973902
815.000000	69.933276
816.000000	69.892345
817.000000	69.841681
818.000000	69.803735
819.000000	69.763129
820.000000	69.721883
821.000000	69.683439
822.000000	69.648405
823.000000	69.584649
824.000000	69.530383
825.000000	69.469906
826.000000	69.406262
827.000000	69.327973
828.000000	69.220516
829.000000	69.121878
830.000000	69.024946
831.000000	68.900976
832.000000	68.764960
833.000000	68.647577
834.000000	68.489609
835.000000	68.326993
836.000000	68.154735
837.000000	67.994737
838.000000	67.827979
839.000000	67.614973
840.000000	67.395908
841.000000	67.180223
842.000000	66.966811
843.000000	66.697215
844.000000	66.461292
845.000000	66.209852
846.000000	65.923185
847.000000	65.619874
848.000000	65.336780
849.000000	65.064484
850.000000	64.788290
851.000000	64.485416
852.000000	64.192801
853.000000	63.901669
854.000000	63.578364
855.000000	63.227586
856.000000	62.917668
857.000000	62.639009
858.000000	62.596637
859.000000	62.500297
860.000000	62.398034
861.000000	62.314320
862.000000	62.199409
863.000000	62.112218
864.000000	62.025259
865.000000	61.965131
866.000000	61.883345
867.000000	61.766965
868.000000	61.389350
869.000000	61.062540
870.000000	60.736960
871.000000	60.416080
872.000000	60.097630
873.000000	59.785930
874.000000	59.480840
875.000000	59.184620
876.000000	58.893870
877.000000	58.613430
878.000000	58.341510
879.000000	58.079380
880.000000	57.822860
881.000000	57.576230
882.000000	57.339690
883.000000	57.109710
884.000000	56.884550
885.000000	56.668410
886.000000	56.458830
887.000000	56.254780
888.000000	56.059920
889.000000	55.870850
890.000000	55.690020
891.000000	55.515010
892.000000	55.344880
893.000000	55.180520
894.000000	55.024000
895.000000	54.868890
896.000000	54.718800
897.000000	54.572740
898.000000	54.429040
899.000000	54.287260
900.000000	54.145020
901.000000	54.006120
902.000000	53.867610
903.000000	53.727790
904.000000	53.585320
905.000000	53.446380
906.000000	53.309080
907.000000	53.171090
908.000000	53.034240
909.000000	52.899480
910.000000	52.769430
911.000000	52.637670
912.000000	52.507690
913.000000	52.380960
914.000000	52.258840
915.000000	52.135730
916.000000	52.011940
917.000000	51.891000
918.000000	51.768940
919.000000	51.649010
920.000000	51.526500
921.000000	51.403350
922.000000	51.282680
923.000000	51.162150
924.000000	51.041360
925.000000	50.923200
926.000000	50.807830
927.000000	50.691440
928.000000	50.578120
929.000000	50.465800
930.000000	50.355880
931.000000	50.251170
932.000000	50.147760
933.000000	50.047210
934.000000	49.949390
935.000000	49.853420
936.000000	49.754650
937.000000	49.658960
938.000000	49.563340
939.000000	49.466950
940.000000	49.371950
941.000000	49.275380
942.000000	49.176360
943.000000	49.077800
944.000000	48.976660
945.000000	48.874570
946.000000	48.775700
947.000000	48.674730
948.000000	48.573290
949.000000	48.472500
950.000000	48.370920
951.000000	48.268970
952.000000	48.169420
953.000000	48.072860
954.000000	47.977790
955.000000	47.883710
956.000000	47.789040
957.000000	47.699990
958.000000	47.610600
959.000000	47.521250
960.000000	47.433710
961.000000	47.348430
962.000000	47.261860
963.000000	47.170420
964.000000	47.079730
965.000000	46.988660
966.000000	46.897800
967.000000	46.805340
968.000000	46.713860
969.000000	46.623800
970.000000	46.534550
971.000000	46.443730
972.000000	46.355490
973.000000	46.270930
974.000000	46.186970
975.000000	46.105600
976.000000	46.028620
977.000000	45.954540
978.000000	45.883590
979.000000	45.814780
980.000000	45.750150
981.000000	45.688150
982.000000	45.628490
983.000000	45.571690
984.000000	45.517760
985.000000	45.466230
986.000000	45.415570
987.000000	45.366010
988.000000	45.317710
989.000000	45.271370
990.000000	45.226720
991.000000	45.184600
992.000000	45.144750
993.000000	45.106880
994.000000	45.071650
995.000000	45.039920
996.000000	45.011010
997.000000	44.982730
998.000000	44.956390
999.000000	44.931720
1000.000000	44.907420
1001.000000	44.886810
1002.000000	44.866870
1003.000000	44.847460
1004.000000	44.829000
1005.000000	44.811040
1006.000000	44.792450
1007.000000	44.776210
1008.000000	44.763070
1009.000000	44.752510
1010.000000	44.743430
1011.000000	44.734980
1012.000000	44.729390
1013.000000	44.726690
1014.000000	44.726680
1015.000000	44.727730
1016.000000	44.731620
1017.000000	44.738000
1018.000000	44.746150
1019.000000	44.757020
1020.000000	44.769720
1021.000000	44.784090
1022.000000	44.801650
1023.000000	44.821520
1024.000000	44.841950
1025.000000	44.865420
1026.000000	44.891330
1027.000000	44.919360
1028.000000	44.949270
1029.000000	44.979920
1030.000000	45.011750
1031.000000	45.045390
1032.000000	45.078380
1033.000000	45.110670
1034.000000	45.145670
1035.000000	45.181680
1036.000000	45.217120
1037.000000	45.252700
1038.000000	45.288420
1039.000000	45.324190
1040.000000	45.361640
1041.000000	45.401050
1042.000000	45.443100
1043.000000	45.488220
1044.000000	45.534080
1045.000000	45.580050
1046.000000	45.628170
1047.000000	45.677590
1048.000000	45.727690
1049.000000	45.780310
1050.000000	45.833410
1051.000000	45.886100
1052.000000	45.938160
1053.000000	45.989730
1054.000000	46.042340
1055.000000	46.098280
1056.000000	46.155100
1057.000000	46.212100
1058.000000	46.270820
1059.000000	46.329260
1060.000000	46.389620
1061.000000	46.451240
1062.000000	46.513740
1063.000000	46.578030
1064.000000	46.642580
1065.000000	46.705090
1066.000000	46.767030
1067.000000	46.830050
1068.000000	46.892510
1069.000000	46.954870
1070.000000	47.016020
1071.000000	47.077340
1072.000000	47.139430
1073.000000	47.199300
1074.000000	47.257010
1075.000000	47.313670
1076.000000	47.370310
1077.000000	47.425380
1078.000000	47.478600
1079.000000	47.531130
1080.000000	47.582520
1081.000000	47.633070
1082.000000	47.681700
1083.000000	47.730280
1084.000000	47.779160
1085.000000	47.828190
1086.000000	47.878160
1087.000000	47.926100
1088.000000	47.974740
1089.000000	48.023140
1090.000000	48.071960
1091.000000	48.121230
1092.000000	48.171310
1093.000000	48.222380
1094.000000	48.272210
1095.000000	48.323700
1096.000000	48.374510
1097.000000	48.426370
1098.000000	48.479800
1099.000000	48.533810
1100.000000	48.588390
1101.000000	48.640630
1102.000000	48.693620
1103.000000	48.746220
1104.000000	48.800910
1105.000000	48.852160
1106.000000	48.904440
1107.000000	48.958210
1108.000000	49.009700
1109.000000	49.059470
1110.000000	49.107850
1111.000000	49.158560
1112.000000	49.207890
1113.000000	49.256650
1114.000000	49.303950
1115.000000	49.352340
1116.000000	49.397240
1117.000000	49.439720
1118.000000	49.480660
1119.000000	49.520250
1120.000000	49.557820
1121.000000	49.590380
1122.000000	49.619190
1123.000000	49.642810
1124.000000	49.663470
1125.000000	49.676670
1126.000000	49.684370
1127.000000	49.686800
1128.000000	49.683440
1129.000000	49.674200
1130.000000	49.657080
1131.000000	49.631470
1132.000000	49.598690
1133.000000	49.561590
1134.000000	49.520450
1135.000000	49.470500
1136.000000	49.412290
1137.000000	49.348210
1138.000000	49.279150
1139.000000	49.204180
1140.000000	49.128380
1141.000000	49.051150
1142.000000	48.974610
1143.000000	48.895630
1144.000000	48.814790
1145.000000	48.744490
1146.000000	48.679180
1147.000000	48.616240
1148.000000	48.557580
1149.000000	48.500660
1150.000000	48.445350
1151.000000	48.394950
1152.000000	48.345630
1153.000000	48.296540
1154.000000	48.244650
1155.000000	48.188130
1156.000000	48.127920
1157.000000	48.064530
1158.000000	47.997160
1159.000000	47.927900
1160.000000	47.852270
1161.000000	47.770470
1162.000000	47.680370
1163.000000	47.587930
1164.000000	47.490920
1165.000000	47.390050
1166.000000	47.286750
1167.000000	47.182940
1168.000000	47.075750
1169.000000	46.970210
1170.000000	46.868400
1171.000000	46.771810
1172.000000	46.677750
1173.000000	46.588030
1174.000000	46.506290
1175.000000	46.429270
1176.000000	46.361520
1177.000000	46.297880
1178.000000	46.239870
1179.000000	46.184450
1180.000000	46.131300
1181.000000	46.077280
1182.000000	46.028400
1183.000000	45.980960
1184.000000	45.935900
1185.000000	45.894440
1186.000000	45.855390
1187.000000	45.822340
1188.000000	45.797370
1189.000000	45.782810
1190.000000	45.779010
1191.000000	45.785600
1192.000000	45.802400
1193.000000	45.830500
1194.000000	45.868600
1195.000000	45.916890
1196.000000	45.969430
1197.000000	46.026630
1198.000000	46.091350
1199.000000	46.155350
1200.000000	46.222970
1201.000000	46.291010
1202.000000	46.359380
1203.000000	46.425610
1204.000000	46.489790
1205.000000	46.553780
1206.000000	46.619370
1207.000000	46.685590
1208.000000	46.748280
1209.000000	46.812610
1210.000000	46.874530
1211.000000	46.938330
1212.000000	47.001800
1213.000000	47.066010
1214.000000	47.128830
1215.000000	47.188460
1216.000000	47.247380
1217.000000	47.305930
1218.000000	47.363050
1219.000000	47.420830
1220.000000	47.476150
1221.000000	47.528400
1222.000000	47.579920
1223.000000	47.629820
1224.000000	47.680700
1225.000000	47.730700
1226.000000	47.778200
1227.000000	47.824320
1228.000000	47.869830
1229.000000	47.912220
1230.000000	47.953880
1231.000000	47.993980
1232.000000	48.033180
1233.000000	48.072160
1234.000000	48.109210
1235.000000	48.143730
1236.000000	48.176840
1237.000000	48.207520
1238.000000	48.237550
1239.000000	48.266300
1240.000000	48.295400
1241.000000	48.324250
1242.000000	48.351360
1243.000000	48.379210
1244.000000	48.406780
1245.000000	48.435890
1246.000000	48.467810
1247.000000	48.501760
1248.000000	48.537170
1249.000000	48.574320
1250.000000	48.610620
1251.000000	48.647970
1252.000000	48.686520
1253.000000	48.721160
1254.000000	48.755000
1255.000000	48.787920
1256.000000	48.818250
1257.000000	48.847390
1258.000000	48.872050
1259.000000	48.893100
1260.000000	48.913740
1261.000000	48.931970
1262.000000	48.948430
1263.000000	48.964910
1264.000000	48.979380
1265.000000	48.993960
1266.000000	49.008220
1267.000000	49.019780
1268.000000	49.031970
1269.000000	49.044680
1270.000000	49.054960
1271.000000	49.065840
1272.000000	49.076500
1273.000000	49.085310
1274.000000	49.094070
1275.000000	49.102680
1276.000000	49.112960
1277.000000	49.126870
1278.000000	49.142060
1279.000000	49.157770
1280.000000	49.177220
1281.000000	49.198720
1282.000000	49.222130
1283.000000	49.248880
1284.000000	49.278520
1285.000000	49.310850
1286.000000	49.344500
1287.000000	49.377120
1288.000000	49.410290
1289.000000	49.444580
1290.000000	49.477420
1291.000000	49.508050
1292.000000	49.536980
1293.000000	49.565200
1294.000000	49.591580
1295.000000	49.614050
1296.000000	49.632480
1297.000000	49.648530
1298.000000	49.660640
1299.000000	49.670490
1300.000000	49.677200
1301.000000	49.680410
1302.000000	49.681400
1303.000000	49.679610
1304.000000	49.673250
1305.000000	49.661980
1306.000000	49.647670
1307.000000	49.629740
1308.000000	49.609440
1309.000000	49.585670
1310.000000	49.559640
1311.000000	49.530050
1312.000000	49.494330
1313.000000	49.452210
1314.000000	49.406360
1315.000000	49.360140
1316.000000	49.310370
1317.000000	49.256840
1318.000000	49.200590
1319.000000	49.140860
1320.000000	49.076720
1321.000000	49.011690
1322.000000	48.945670
1323.000000	48.876840
1324.000000	48.806570
1325.000000	48.731460
1326.000000	48.653500
1327.000000	48.572610
1328.000000	48.488390
1329.000000	48.400420
1330.000000	48.308420
1331.000000	48.211790
1332.000000	48.110150
1333.000000	48.005340
1334.000000	47.895960
1335.000000	47.781980
1336.000000	47.663020
1337.000000	47.539600
1338.000000	47.410330
1339.000000	47.276150
1340.000000	47.136930
1341.000000	46.992530
1342.000000	46.842920
1343.000000	46.690060
1344.000000	46.532590
1345.000000	46.369280
1346.000000	46.201910
1347.000000	46.030150
1348.000000	45.851290
1349.000000	45.666560
1350.000000	45.479960
1351.000000	45.291720
1352.000000	45.102050
1353.000000	44.913590
1354.000000	44.731560
1355.000000	44.555630
1356.000000	44.384820
1357.000000	44.221100
1358.000000	44.071780
1359.000000	43.937810
1360.000000	43.817250
1361.000000	43.710460
1362.000000	43.615000
1363.000000	43.519820
1364.000000	43.424410
1365.000000	43.330140
1366.000000	43.231370
1367.000000	43.134230
1368.000000	43.026380
1369.000000	42.896540
1370.000000	42.749320
1371.000000	42.577470
1372.000000	42.375900
1373.000000	42.148370
1374.000000	41.884230
1375.000000	41.585290
1376.000000	41.256160
1377.000000	40.888750
1378.000000	40.494050
1379.000000	40.085480
1380.000000	39.655160
1381.000000	39.225460
1382.000000	38.800980
1383.000000	38.385990
1384.000000	37.991580
1385.000000	37.617250
1386.000000	37.267650
1387.000000	36.946980
1388.000000	36.653030
1389.000000	36.376160
1390.000000	36.122450
1391.000000	35.878520
1392.000000	35.648210
1393.000000	35.423810
1394.000000	35.208640
1395.000000	35.002480
1396.000000	34.790220
1397.000000	34.565420
1398.000000	34.329800
1399.000000	34.100810
1400.000000	33.867090
1401.000000	33.619150
1402.000000	33.351070
1403.000000	33.078830
1404.000000	32.790380
1405.000000	32.487560
1406.000000	32.179410
1407.000000	31.871850
1408.000000	31.561410
1409.000000	31.237250
1410.000000	30.904010
1411.000000	30.570430
1412.000000	30.247750
1413.000000	29.928060
1414.000000	29.616070
1415.000000	29.309200
1416.000000	29.010130
1417.000000	28.715770
1418.000000	28.434710
1419.000000	28.167360
1420.000000	27.913330
1421.000000	27.670300
1422.000000	27.433370
1423.000000	27.210890
1424.000000	26.997270
1425.000000	26.793090
1426.000000	26.601470
1427.000000	26.423070
1428.000000	26.250530
1429.000000	26.084210
1430.000000	25.924830
1431.000000	25.781010
1432.000000	25.648080
1433.000000	25.518100
1434.000000	25.397410
1435.000000	25.283970
1436.000000	25.176050
1437.000000	25.076220
1438.000000	24.982620
1439.000000	24.891850
1440.000000	24.809820
1441.000000	24.727260
1442.000000	24.648960
1443.000000	24.573010
1444.000000	24.501920
1445.000000	24.438090
1446.000000	24.375840
1447.000000	24.314170
1448.000000	24.252670
1449.000000	24.196720
1450.000000	24.142240
1451.000000	24.091100
1452.000000	24.039540
1453.000000	23.989290
1454.000000	23.936240
1455.000000	23.882860
1456.000000	23.829890
1457.000000	23.775340
1458.000000	23.723460
1459.000000	23.668870
1460.000000	23.613440
1461.000000	23.556990
1462.000000	23.503450
1463.000000	23.450340
1464.000000	23.397280
1465.000000	23.344180
1466.000000	23.291820
1467.000000	23.243020
1468.000000	23.192540
1469.000000	23.144790
1470.000000	23.098310
1471.000000	23.054790
1472.000000	23.011140
1473.000000	22.968780
1474.000000	22.929910
1475.000000	22.890890
1476.000000	22.855530
1477.000000	22.822160
1478.000000	22.793790
1479.000000	22.767820
1480.000000	22.744210
1481.000000	22.720830
1482.000000	22.700450
1483.000000	22.684210
1484.000000	22.671620
1485.000000	22.661160
1486.000000	22.653780
1487.000000	22.648010
1488.000000	22.644050
1489.000000	22.641160
1490.000000	22.641240
1491.000000	22.643190
1492.000000	22.645060
1493.000000	22.647500
1494.000000	22.651050
1495.000000	22.660150
1496.000000	22.670800
1497.000000	22.683590
1498.000000	22.697470
1499.000000	22.715400
1500.000000	22.735510
1501.000000	22.759490
1502.000000	22.788990
1503.000000	22.823710
1504.000000	22.864560
1505.000000	22.908110
1506.000000	22.953980
1507.000000	23.003500
1508.000000	23.058340
1509.000000	23.116270
1510.000000	23.177220
1511.000000	23.241510
1512.000000	23.308480
1513.000000	23.376020
1514.000000	23.443120
1515.000000	23.510990
1516.000000	23.581570
1517.000000	23.652060
1518.000000	23.723680
1519.000000	23.794410
1520.000000	23.866010
1521.000000	23.935770
1522.000000	24.005510
1523.000000	24.075250
1524.000000	24.144200
1525.000000	24.213050
1526.000000	24.282680
1527.000000	24.351670
1528.000000	24.419540
1529.000000	24.487870
1530.000000	24.554440
1531.000000	24.621840
1532.000000	24.688420
1533.000000	24.755360
1534.000000	24.821400
1535.000000	24.886050
1536.000000	24.948790
1537.000000	25.009970
1538.000000	25.069310
1539.000000	25.126580
1540.000000	25.183670
1541.000000	25.239110
1542.000000	25.292590
1543.000000	25.343000
1544.000000	25.393610
1545.000000	25.445040
1546.000000	25.497410
1547.000000	25.553580
1548.000000	25.611250
1549.000000	25.670520
1550.000000	25.731250
1551.000000	25.794150
1552.000000	25.860300
1553.000000	25.929070
1554.000000	25.996950
1555.000000	26.063870
1556.000000	26.128200
1557.000000	26.188790
1558.000000	26.246360
1559.000000	26.301420
1560.000000	26.351940
1561.000000	26.397500
1562.000000	26.437650
1563.000000	26.471640
1564.000000	26.500250
1565.000000	26.523490
1566.000000	26.543160
1567.000000	26.557630
1568.000000	26.565940
1569.000000	26.570980
1570.000000	26.574610
1571.000000	26.575430
1572.000000	26.574820
1573.000000	26.572960
1574.000000	26.571390
1575.000000	26.571730
1576.000000	26.572970
1577.000000	26.577690
1578.000000	26.587710
1579.000000	26.599150
1580.000000	26.611160
1581.000000	26.626710
1582.000000	26.645140
1583.000000	26.667530
1584.000000	26.693680
1585.000000	26.721860
1586.000000	26.753510
1587.000000	26.785920
1588.000000	26.818270
1589.000000	26.854450
1590.000000	26.893020
1591.000000	26.932820
1592.000000	26.973600
1593.000000	27.016520
1594.000000	27.059170
1595.000000	27.102100
1596.000000	27.145980
1597.000000	27.191120
1598.000000	27.238810
1599.000000	27.287050
1600.000000	27.337360
1601.000000	27.390230
1602.000000	27.445730
1603.000000	27.502690
1604.000000	27.562120
1605.000000	27.623730
1606.000000	27.685600
1607.000000	27.749440
1608.000000	27.813490
1609.000000	27.877250
1610.000000	27.938990
1611.000000	27.999970
1612.000000	28.059250
1613.000000	28.116570
1614.000000	28.171740
1615.000000	28.224020
1616.000000	28.274260
1617.000000	28.322830
1618.000000	28.369740
1619.000000	28.413680
1620.000000	28.456460
1621.000000	28.497330
1622.000000	28.537650
1623.000000	28.576550
1624.000000	28.614820
1625.000000	28.654160
1626.000000	28.695050
1627.000000	28.735450
1628.000000	28.775250
1629.000000	28.815360
1630.000000	28.857600
1631.000000	28.900110
1632.000000	28.942730
1633.000000	28.984900
1634.000000	29.026000
1635.000000	29.066860
1636.000000	29.104910
1637.000000	29.141610
1638.000000	29.175880
1639.000000	29.209220
1640.000000	29.240070
1641.000000	29.268440
1642.000000	29.294030
1643.000000	29.317960
1644.000000	29.341030
1645.000000	29.362230
1646.000000	29.381660
1647.000000	29.400490
1648.000000	29.418000
1649.000000	29.434810
1650.000000	29.450660
1651.000000	29.463210
1652.000000	29.473430
1653.000000	29.479290
1654.000000	29.480430
1655.000000	29.477100
1656.000000	29.468860
1657.000000	29.453120
1658.000000	29.431300
1659.000000	29.401300
1660.000000	29.361160
1661.000000	29.314760
1662.000000	29.259390
1663.000000	29.194380
1664.000000	29.121940
1665.000000	29.038830
1666.000000	28.947070
1667.000000	28.850430
1668.000000	28.746830
1669.000000	28.634480
1670.000000	28.517420
1671.000000	28.395650
1672.000000	28.270990
1673.000000	28.146200
1674.000000	28.018540
1675.000000	27.890660
1676.000000	27.762570
1677.000000	27.631780
1678.000000	27.500470
1679.000000	27.369700
1680.000000	27.232490
1681.000000	27.089680
1682.000000	26.942180
1683.000000	26.788670
1684.000000	26.632330
1685.000000	26.475080
1686.000000	26.321250
1687.000000	26.171170
1688.000000	26.033670
1689.000000	25.910350
1690.000000	25.813740
1691.000000	25.741440
1692.000000	25.692780
1693.000000	25.670820
1694.000000	25.671370
1695.000000	25.691700
1696.000000	25.723560
1697.000000	25.766850
1698.000000	25.810950
1699.000000	25.857880
1700.000000	25.894620
1701.000000	25.924990
1702.000000	25.946240
1703.000000	25.956250
1704.000000	25.956610
1705.000000	25.945940
1706.000000	25.926640
1707.000000	25.896780
1708.000000	25.859360
1709.000000	25.809020
1710.000000	25.749540
1711.000000	25.678870
1712.000000	25.597930
1713.000000	25.504870
1714.000000	25.399720
1715.000000	25.280430
1716.000000	25.149780
1717.000000	25.005550
1718.000000	24.851710
1719.000000	24.689780
1720.000000	24.522100
1721.000000	24.352440
1722.000000	24.184450
1723.000000	24.026960
1724.000000	23.883450
1725.000000	23.760310
1726.000000	23.655240
1727.000000	23.573430
1728.000000	23.515400
1729.000000	23.481120
1730.000000	23.467610
1731.000000	23.472710
1732.000000	23.491770
1733.000000	23.522350
1734.000000	23.560230
1735.000000	23.602560
1736.000000	23.650460
1737.000000	23.701750
1738.000000	23.750760
1739.000000	23.802560
1740.000000	23.857240
1741.000000	23.913960
1742.000000	23.976860
1743.000000	24.039350
1744.000000	24.102210
1745.000000	24.165080
1746.000000	24.226220
1747.000000	24.287770
1748.000000	24.349950
1749.000000	24.406720
1750.000000	24.460450
1751.000000	24.506990
1752.000000	24.546070
1753.000000	24.579150
1754.000000	24.607590
1755.000000	24.629080
1756.000000	24.645210
1757.000000	24.655470
1758.000000	24.661860
1759.000000	24.665730
1760.000000	24.666800
1761.000000	24.667360
1762.000000	24.667910
1763.000000	24.669350
1764.000000	24.670550
1765.000000	24.674620
1766.000000	24.683330
1767.000000	24.694470
1768.000000	24.708360
1769.000000	24.726830
1770.000000	24.750020
1771.000000	24.778060
1772.000000	24.808470
1773.000000	24.840720
1774.000000	24.874190
1775.000000	24.909750
1776.000000	24.944350
1777.000000	24.980190
1778.000000	25.016040
1779.000000	25.050670
1780.000000	25.083250
1781.000000	25.113070
1782.000000	25.141070
1783.000000	25.167440
1784.000000	25.189800
1785.000000	25.209660
1786.000000	25.228340
1787.000000	25.244900
1788.000000	25.257300
1789.000000	25.266500
1790.000000	25.274700
1791.000000	25.281240
1792.000000	25.286900
1793.000000	25.293270
1794.000000	25.305490
1795.000000	25.318610
1796.000000	25.331460
1797.000000	25.343760
1798.000000	25.357930
1799.000000	25.374490
1800.000000	25.393770
1801.000000	25.416190
1802.000000	25.439960
1803.000000	25.462910
1804.000000	25.481720
1805.000000	25.500720
1806.000000	25.520800
1807.000000	25.542460
1808.000000	25.565820
1809.000000	25.587630
1810.000000	25.607660
1811.000000	25.629720
1812.000000	25.651780
1813.000000	25.672690
1814.000000	25.694120
1815.000000	25.714610
1816.000000	25.732000
1817.000000	25.748040
1818.000000	25.761310
1819.000000	25.774710
1820.000000	25.789370
1821.000000	25.800860
1822.000000	25.807740
1823.000000	25.809810
1824.000000	25.808720
1825.000000	25.806840
1826.000000	25.807110
1827.000000	25.808500
1828.000000	25.814100
1829.000000	25.821330
1830.000000	25.826410
1831.000000	25.830570
1832.000000	25.837440
1833.000000	25.850630
1834.000000	25.869270
1835.000000	25.892380
1836.000000	25.918320
1837.000000	25.946140
1838.000000	25.971880
1839.000000	25.996460
1840.000000	26.021320
1841.000000	26.046450
1842.000000	26.070580
1843.000000	26.092040
1844.000000	26.108290
1845.000000	26.118130
1846.000000	26.126320
1847.000000	26.134180
1848.000000	26.141680
1849.000000	26.144340
1850.000000	26.138340
1851.000000	26.125940
1852.000000	26.108530
1853.000000	26.089180
1854.000000	26.069710
1855.000000	26.046370
1856.000000	26.014910
1857.000000	25.974250
1858.000000	25.925670
1859.000000	25.872600
1860.000000	25.814360
1861.000000	25.748990
1862.000000	25.677540
1863.000000	25.597720
1864.000000	25.508310
1865.000000	25.411560
1866.000000	25.309670
1867.000000	25.203630
1868.000000	25.092590
1869.000000	24.973100
1870.000000	24.848200
1871.000000	24.717140
1872.000000	24.575790
1873.000000	24.420210
1874.000000	24.248920
1875.000000	24.062770
1876.000000	23.856830
1877.000000	23.630020
1878.000000	23.382070
1879.000000	23.117920
1880.000000	22.837810
1881.000000	22.542080
1882.000000	22.232590
1883.000000	21.910380
1884.000000	21.576970
1885.000000	21.230690
1886.000000	20.873860
1887.000000	20.505840
1888.000000	20.130500
1889.000000	19.741840
1890.000000	19.346080
1891.000000	18.941420
1892.000000	18.528000
1893.000000	18.107750
1894.000000	17.682240
1895.000000	17.258150
1896.000000	16.838500
1897.000000	16.425580
1898.000000	16.017310
1899.000000	15.621050
1900.000000	15.231330
1901.000000	14.852140
1902.000000	14.484950
1903.000000	14.135260
1904.000000	13.806460
1905.000000	13.490830
1906.000000	13.186690
1907.000000	12.894360
1908.000000	12.615770
1909.000000	12.349710
1910.000000	12.101060
1911.000000	11.872180
1912.000000	11.660350
1913.000000	11.464560
1914.000000	11.278800
1915.000000	11.105790
1916.000000	10.943380
1917.000000	10.792230
1918.000000	10.653930
1919.000000	10.529730
1920.000000	10.414420
1921.000000	10.306050
1922.000000	10.207280
1923.000000	10.112050
1924.000000	10.025650
1925.000000	9.945080
1926.000000	9.872990
1927.000000	9.809580
1928.000000	9.755000
1929.000000	9.704990
1930.000000	9.660550
1931.000000	9.617640
1932.000000	9.577110
1933.000000	9.543400
1934.000000	9.512090
1935.000000	9.486140
1936.000000	9.465820
1937.000000	9.452420
1938.000000	9.440700
1939.000000	9.431550
1940.000000	9.426980
1941.000000	9.425700
1942.000000	9.430730
1943.000000	9.439330
1944.000000	9.449630
1945.000000	9.465190
1946.000000	9.484800
1947.000000	9.504960
1948.000000	9.528390
1949.000000	9.554220
1950.000000	9.579470
1951.000000	9.610620
1952.000000	9.641800
1953.000000	9.675410
1954.000000	9.713700
1955.000000	9.753480
1956.000000	9.795640
1957.000000	9.837000
1958.000000	9.880670
1959.000000	9.924430
1960.000000	9.968810
1961.000000	10.015840
1962.000000	10.064940
1963.000000	10.112140
1964.000000	10.161440
1965.000000	10.207690
1966.000000	10.252470
1967.000000	10.300620
1968.000000	10.344870
1969.000000	10.393040
1970.000000	10.442520
1971.000000	10.489390
1972.000000	10.535270
1973.000000	10.582700
1974.000000	10.629820
1975.000000	10.680590
1976.000000	10.732760
1977.000000	10.780550
1978.000000	10.833140
1979.000000	10.884280
1980.000000	10.938940
1981.000000	10.993440
1982.000000	11.046590
1983.000000	11.103050
1984.000000	11.158440
1985.000000	11.214300
1986.000000	11.269130
1987.000000	11.328240
1988.000000	11.382560
1989.000000	11.437380
1990.000000	11.490060
1991.000000	11.545790
1992.000000	11.602300
1993.000000	11.655760
1994.000000	11.707550
1995.000000	11.760240
1996.000000	11.812510
1997.000000	11.861000
1998.000000	11.911670
1999.000000	11.960750
2000.000000	12.009340
2001.000000	12.053180
2002.000000	12.098100
2003.000000	12.141240
2004.000000	12.184080
2005.000000	12.222870
2006.000000	12.260060
2007.000000	12.297120
2008.000000	12.331150
2009.000000	12.360860
2010.000000	12.386330
2011.000000	12.412380
2012.000000	12.434040
2013.000000	12.452840
2014.000000	12.469030
2015.000000	12.482320
2016.000000	12.490990
2017.000000	12.497060
2018.000000	12.498920
2019.000000	12.498880
2020.000000	12.498300
2021.000000	12.492620
2022.000000	12.485200
2023.000000	12.476340
2024.000000	12.463530
2025.000000	12.448510
2026.000000	12.433410
2027.000000	12.416560
2028.000000	12.398200
2029.000000	12.376240
2030.000000	12.353770
2031.000000	12.329020
2032.000000	12.301800
2033.000000	12.270780
2034.000000	12.237940
2035.000000	12.202010
2036.000000	12.163370
2037.000000	12.121970
2038.000000	12.077860
2039.000000	12.033340
2040.000000	11.983130
2041.000000	11.930480
2042.000000	11.875900
2043.000000	11.820100
2044.000000	11.764020
2045.000000	11.705530
2046.000000	11.646230
2047.000000	11.587160
2048.000000	11.530500
2049.000000	11.475860
2050.000000	11.422920
2051.000000	11.375120
2052.000000	11.333550
2053.000000	11.297710
2054.000000	11.267860
2055.000000	11.247520
2056.000000	11.235420
2057.000000	11.230960
2058.000000	11.233550
2059.000000	11.246270
2060.000000	11.268200
2061.000000	11.296910
2062.000000	11.330460
2063.000000	11.370340
2064.000000	11.417780
2065.000000	11.470840
2066.000000	11.527640
2067.000000	11.586830
2068.000000	11.649360
2069.000000	11.712880
2070.000000	11.777620
2071.000000	11.841880
2072.000000	11.908100
2073.000000	11.975650
2074.000000	12.040370
2075.000000	12.102120
2076.000000	12.161470
2077.000000	12.218750
2078.000000	12.273430
2079.000000	12.325160
2080.000000	12.373600
2081.000000	12.419990
2082.000000	12.461790
2083.000000	12.497940
2084.000000	12.529880
2085.000000	12.558930
2086.000000	12.584940
2087.000000	12.607050
2088.000000	12.624750
2089.000000	12.638590
2090.000000	12.650830
2091.000000	12.660180
2092.000000	12.665570
2093.000000	12.669810
2094.000000	12.672720
2095.000000	12.672940
2096.000000	12.672710
2097.000000	12.673380
2098.000000	12.673510
2099.000000	12.673580
2100.000000	12.673850
2101.000000	12.674850
2102.000000	12.676940
2103.000000	12.680070
2104.000000	12.684370
2105.000000	12.688740
2106.000000	12.693240
2107.000000	12.698300
2108.000000	12.703790
2109.000000	12.709510
2110.000000	12.714960
2111.000000	12.719440
2112.000000	12.722940
2113.000000	12.724530
2114.000000	12.725400
2115.000000	12.727240
2116.000000	12.728260
2117.000000	12.726700
2118.000000	12.722600
2119.000000	12.717230
2120.000000	12.711310
2121.000000	12.702180
2122.000000	12.692490
2123.000000	12.682400
2124.000000	12.669120
2125.000000	12.653140
2126.000000	12.633190
2127.000000	12.612630
2128.000000	12.591380
2129.000000	12.567330
2130.000000	12.538420
2131.000000	12.508130
2132.000000	12.476880
2133.000000	12.443720
2134.000000	12.406890
2135.000000	12.367410
2136.000000	12.327600
2137.000000	12.285090
2138.000000	12.240390
2139.000000	12.194520
2140.000000	12.147070
2141.000000	12.097020
2142.000000	12.043440
2143.000000	11.988310
2144.000000	11.933990
2145.000000	11.876800
2146.000000	11.817380
2147.000000	11.754970
2148.000000	11.691940
2149.000000	11.627970
2150.000000	11.561300
2151.000000	11.494500
2152.000000	11.428680
2153.000000	11.360160
2154.000000	11.291780
2155.000000	11.225390
2156.000000	11.159900
2157.000000	11.094280
2158.000000	11.029410
2159.000000	10.964920
2160.000000	10.904300
2161.000000	10.846700
2162.000000	10.789530
2163.000000	10.737570
2164.000000	10.686690
2165.000000	10.639950
2166.000000	10.595560
2167.000000	10.554920
2168.000000	10.516370
2169.000000	10.482310
2170.000000	10.449470
2171.000000	10.415010
2172.000000	10.383700
2173.000000	10.353300
2174.000000	10.325670
2175.000000	10.297260
2176.000000	10.267990
2177.000000	10.240870
2178.000000	10.215060
2179.000000	10.188140
2180.000000	10.161580
2181.000000	10.138660
2182.000000	10.112650
2183.000000	10.085740
2184.000000	10.056360
2185.000000	10.025670
2186.000000	9.994190
2187.000000	9.958790
2188.000000	9.918680
2189.000000	9.872770
2190.000000	9.822600
2191.000000	9.766560
2192.000000	9.705150
2193.000000	9.636440
2194.000000	9.561250
2195.000000	9.479090
2196.000000	9.390240
2197.000000	9.295980
2198.000000	9.197490
2199.000000	9.094060
2200.000000	8.987890
2201.000000	8.879350
2202.000000	8.770670
2203.000000	8.662570
2204.000000	8.557620
2205.000000	8.457680
2206.000000	8.361270
2207.000000	8.273650
2208.000000	8.192370
2209.000000	8.124090
2210.000000	8.066340
2211.000000	8.020700
2212.000000	7.988360
2213.000000	7.969540
2214.000000	7.963370
2215.000000	7.969660
2216.000000	7.988970
2217.000000	8.017560
2218.000000	8.057120
2219.000000	8.103960
2220.000000	8.156550
2221.000000	8.217240
2222.000000	8.281880
2223.000000	8.349510
2224.000000	8.418790
2225.000000	8.489730
2226.000000	8.559040
2227.000000	8.630390
2228.000000	8.699650
2229.000000	8.765860
2230.000000	8.828070
2231.000000	8.887170
2232.000000	8.941420
2233.000000	8.991560
2234.000000	9.037300
2235.000000	9.077770
2236.000000	9.116240
2237.000000	9.142750
2238.000000	9.167100
2239.000000	9.184530
2240.000000	9.198190
2241.000000	9.202790
2242.000000	9.204170
2243.000000	9.199000
2244.000000	9.188270
2245.000000	9.172700
2246.000000	9.151850
2247.000000	9.131120
2248.000000	9.103430
2249.000000	9.075610
2250.000000	9.044550
2251.000000	9.012950
2252.000000	8.979000
2253.000000	8.942360
2254.000000	8.907180
2255.000000	8.869810
2256.000000	8.831710
2257.000000	8.793970
2258.000000	8.758360
2259.000000	8.722150
2260.000000	8.689840
2261.000000	8.658040
2262.000000	8.630670
2263.000000	8.608060
2264.000000	8.586610
2265.000000	8.572450
2266.000000	8.563290
2267.000000	8.556550
2268.000000	8.553950
2269.000000	8.558210
2270.000000	8.563860
2271.000000	8.575490
2272.000000	8.586760
2273.000000	8.602270
2274.000000	8.623900
2275.000000	8.645890
2276.000000	8.668180
2277.000000	8.690830
2278.000000	8.713310
2279.000000	8.735840
2280.000000	8.760790
2281.000000	8.781650
2282.000000	8.804070
2283.000000	8.826390
2284.000000	8.843090
2285.000000	8.858490
2286.000000	8.874340
2287.000000	8.890770
2288.000000	8.905560
2289.000000	8.919310
2290.000000	8.932100
2291.000000	8.946730
2292.000000	8.960470
2293.000000	8.971940
2294.000000	8.985190
2295.000000	8.998840
2296.000000	9.011830
2297.000000	9.026830
2298.000000	9.044020
2299.000000	9.058870
2300.000000	9.073380
2301.000000	9.091040
2302.000000	9.110440
2303.000000	9.129690
2304.000000	9.151370
2305.000000	9.174360
2306.000000	9.201260
2307.000000	9.228060
2308.000000	9.255830
2309.000000	9.285390
2310.000000	9.317480
2311.000000	9.347520
2312.000000	9.379390
2313.000000	9.414680
2314.000000	9.447690
2315.000000	9.480750
2316.000000	9.510620
2317.000000	9.538950
2318.000000	9.566600
2319.000000	9.594590
2320.000000	9.618560
2321.000000	9.641290
2322.000000	9.660080
2323.000000	9.677090
2324.000000	9.692360
2325.000000	9.703300
2326.000000	9.712750
2327.000000	9.720660
2328.000000	9.726480
2329.000000	9.729730
2330.000000	9.733390
2331.000000	9.735730
2332.000000	9.736160
2333.000000	9.735830
2334.000000	9.736860
2335.000000	9.739610
2336.000000	9.742360
2337.000000	9.746430
2338.000000	9.750720
2339.000000	9.755600
2340.000000	9.762270
2341.000000	9.771580
2342.000000	9.782560
2343.000000	9.792290
2344.000000	9.802220
2345.000000	9.812270
2346.000000	9.824200
2347.000000	9.836900
2348.000000	9.851280
2349.000000	9.866680
2350.000000	9.880390
2351.000000	9.891070
2352.000000	9.902670
2353.000000	9.916330
2354.000000	9.930220
2355.000000	9.943720
2356.000000	9.957000
2357.000000	9.970540
2358.000000	9.981780
2359.000000	9.990830
2360.000000	10.000610
2361.000000	10.011350
2362.000000	10.020580
2363.000000	10.027630
2364.000000	10.032950
2365.000000	10.037170
2366.000000	10.040490
2367.000000	10.043530
2368.000000	10.046800
2369.000000	10.049440
2370.000000	10.050550
2371.000000	10.051360
2372.000000	10.054260
2373.000000	10.057830
2374.000000	10.060630
2375.000000	10.064690
2376.000000	10.069130
2377.000000	10.071530
2378.000000	10.073260
2379.000000	10.075180
2380.000000	10.079550
2381.000000	10.085710
2382.000000	10.088490
2383.000000	10.090080
2384.000000	10.092140
2385.000000	10.092170
2386.000000	10.090610
2387.000000	10.088860
2388.000000	10.087960
2389.000000	10.086650
2390.000000	10.081360
2391.000000	10.074220
2392.000000	10.067670
2393.000000	10.057750
2394.000000	10.047110
2395.000000	10.036530
2396.000000	10.024290
2397.000000	10.010260
2398.000000	9.994760
2399.000000	9.979310
2400.000000	9.964120
2401.000000	9.948080
2402.000000	9.928790
2403.000000	9.910860
2404.000000	9.892410
2405.000000	9.872020
2406.000000	9.850630
2407.000000	9.829060
2408.000000	9.806440
2409.000000	9.785030
2410.000000	9.760800
2411.000000	9.734770
2412.000000	9.710110
2413.000000	9.682320
2414.000000	9.653410
2415.000000	9.623930
2416.000000	9.593710
2417.000000	9.560500
2418.000000	9.526450
2419.000000	9.488830
2420.000000	9.452040
2421.000000	9.413650
2422.000000	9.374080
2423.000000	9.334460
2424.000000	9.290460
2425.000000	9.243500
2426.000000	9.195570
2427.000000	9.149100
2428.000000	9.100270
2429.000000	9.050030
2430.000000	8.997540
2431.000000	8.942340
2432.000000	8.885400
2433.000000	8.827530
2434.000000	8.770520
2435.000000	8.714680
2436.000000	8.657810
2437.000000	8.598750
2438.000000	8.539710
2439.000000	8.477510
2440.000000	8.415600
2441.000000	8.354510
2442.000000	8.291340
2443.000000	8.229760
2444.000000	8.169800
2445.000000	8.108260
2446.000000	8.044810
2447.000000	7.982890
2448.000000	7.920640
2449.000000	7.861510
2450.000000	7.801980
2451.000000	7.744320
2452.000000	7.686490
2453.000000	7.629510
2454.000000	7.571280
2455.000000	7.517400
2456.000000	7.465420
2457.000000	7.415060
2458.000000	7.367840
2459.000000	7.326620
2460.000000	7.286790
2461.000000	7.243720
2462.000000	7.205970
2463.000000	7.169070
2464.000000	7.134360
2465.000000	7.101110
2466.000000	7.070520
2467.000000	7.038440
2468.000000	7.006540
2469.000000	6.973130
2470.000000	6.943860
2471.000000	6.917440
2472.000000	6.894600
2473.000000	6.872210
2474.000000	6.854650
2475.000000	6.834350
2476.000000	6.816300
2477.000000	6.803770
2478.000000	6.791160
2479.000000	6.774080
2480.000000	6.757860
2481.000000	6.750070
2482.000000	6.740210
2483.000000	6.728110
2484.000000	6.713450
2485.000000	6.702900
2486.000000	6.680110
2487.000000	6.671850
2488.000000	6.664580
2489.000000	6.661070
2490.000000	6.655440
2491.000000	6.640000
2492.000000	6.632010
2493.000000	6.624790
2494.000000	6.630550
2495.000000	6.622040
2496.000000	6.628090
2497.000000	6.619440
2498.000000	6.618340
2499.000000	6.606290
2500.000000	6.604900
