PE UV       SUBTECH     SPECTRUM    ASCII       PEDS        4.00        
   -1
CICIMAUCR0205-1.ASC
24/06/06
12:36:51.00
24/06/06
12:36:51.00
Vinicio Soto Monge
C. cupreomarginata. Sex F. Ventral
250,000000
1
Lambda 1050
1050L1511233
PerkinElmer UV WinLab 6.3.2.0749 / 2.02.05 Lambda 900 UV/VIS/NIR, Aug  7 2015 09:38:08

0
0
3350/servo 860,8/2
0
0
UV/VIS
1
1
1
DoubleDePol,CommonBeamDepol,RBeamAtt,SBeamAtt,60mm sphere, WB InGaAs Detector
0
0
0
0
Program
Program
3350/servo 860,8/2
3350/0,2 860,8/0,2
3350/0,2 860,8/0,2
0
15.00
 
 
 
0
 
860,8
319,2
860,8
Front
100
on
S:100 R:100
0
0
0
0
 
0
 
 
 
0
 
 
0
0
0
0
0
 
 
 
 
0
0


0
0
#HDR
-1
-1
#GR
nm
%R
1.0
0.0
2500,000000
-1,000000
2251
8
55,959800
4,070400
#DATA
2482.000000	9.195728
2481.000000	9.203799
2480.000000	9.263617
2479.000000	9.159572
2478.000000	9.239181
2477.000000	9.308397
2476.000000	9.157471
2475.000000	9.211539
2474.000000	9.311603
2473.000000	9.294907
2472.000000	9.275337
2471.000000	9.301320
2470.000000	9.265164
2469.000000	9.273015
2468.000000	9.320449
2467.000000	9.357268
2466.000000	9.341899
2465.000000	9.421066
2464.000000	9.421839
2463.000000	9.413215
2462.000000	9.415979
2461.000000	9.472811
2460.000000	9.523452
2459.000000	9.537273
2458.000000	9.562150
2457.000000	9.590566
2456.000000	9.647288
2455.000000	9.674156
2454.000000	9.745804
2453.000000	9.779748
2452.000000	9.802857
2451.000000	9.855819
2450.000000	9.909334
2449.000000	9.968488
2448.000000	9.983415
2447.000000	10.059928
2446.000000	10.108025
2445.000000	10.163751
2444.000000	10.228102
2443.000000	10.275425
2442.000000	10.308596
2441.000000	10.388979
2440.000000	10.472458
2439.000000	10.507950
2438.000000	10.561797
2437.000000	10.617412
2436.000000	10.659539
2435.000000	10.719246
2434.000000	10.774751
2433.000000	10.831472
2432.000000	10.882886
2431.000000	10.910418
2430.000000	10.979191
2429.000000	11.041662
2428.000000	11.081909
2427.000000	11.116959
2426.000000	11.158312
2425.000000	11.198779
2424.000000	11.243449
2423.000000	11.295748
2422.000000	11.327370
2421.000000	11.378453
2420.000000	11.403220
2419.000000	11.444241
2418.000000	11.481060
2417.000000	11.519980
2416.000000	11.558568
2415.000000	11.578249
2414.000000	11.603016
2413.000000	11.646027
2412.000000	11.674222
2411.000000	11.698547
2410.000000	11.731386
2409.000000	11.754163
2408.000000	11.789545
2407.000000	11.812985
2406.000000	11.825037
2405.000000	11.832556
2404.000000	11.846708
2403.000000	11.857212
2402.000000	11.892594
2401.000000	11.917472
2400.000000	11.943677
2399.000000	11.956724
2398.000000	11.977179
2397.000000	11.985582
2396.000000	12.016209
2395.000000	12.036886
2394.000000	12.048827
2393.000000	12.051481
2392.000000	12.052697
2391.000000	12.062316
2390.000000	12.064638
2389.000000	12.073041
2388.000000	12.084762
2387.000000	12.089737
2386.000000	12.078570
2385.000000	12.080118
2384.000000	12.082219
2383.000000	12.079454
2382.000000	12.089184
2381.000000	12.076911
2380.000000	12.069503
2379.000000	12.067402
2378.000000	12.051370
2377.000000	12.053913
2376.000000	12.046394
2375.000000	12.028704
2374.000000	12.037770
2373.000000	12.022512
2372.000000	11.999514
2371.000000	12.008691
2370.000000	12.006590
2369.000000	12.005595
2368.000000	11.990447
2367.000000	11.992658
2366.000000	11.985803
2365.000000	11.967117
2364.000000	11.955729
2363.000000	11.952743
2362.000000	11.947215
2361.000000	11.937264
2360.000000	11.945335
2359.000000	11.945225
2358.000000	11.922337
2357.000000	11.913713
2356.000000	11.904425
2355.000000	11.889941
2354.000000	11.890383
2353.000000	11.870259
2352.000000	11.851463
2351.000000	11.856660
2350.000000	11.841733
2349.000000	11.829792
2348.000000	11.830787
2347.000000	11.825258
2346.000000	11.829349
2345.000000	11.834435
2344.000000	11.824484
2343.000000	11.819288
2342.000000	11.817187
2341.000000	11.820614
2340.000000	11.824374
2339.000000	11.808673
2338.000000	11.795515
2337.000000	11.796732
2336.000000	11.805467
2335.000000	11.809115
2334.000000	11.813980
2333.000000	11.818182
2332.000000	11.824042
2331.000000	11.838637
2330.000000	11.854891
2329.000000	11.858318
2328.000000	11.863515
2327.000000	11.882975
2326.000000	11.876341
2325.000000	11.872913
2324.000000	11.888946
2323.000000	11.916256
2322.000000	11.907853
2321.000000	11.908184
2320.000000	11.908184
2319.000000	11.901219
2318.000000	11.893811
2317.000000	11.894032
2316.000000	11.857655
2315.000000	11.828133
2314.000000	11.814975
2313.000000	11.818514
2312.000000	11.793636
2311.000000	11.764556
2310.000000	11.736914
2309.000000	11.705181
2308.000000	11.691913
2307.000000	11.672564
2306.000000	11.641052
2305.000000	11.627231
2304.000000	11.626678
2303.000000	11.593065
2302.000000	11.597488
2301.000000	11.591738
2300.000000	11.588311
2299.000000	11.581898
2298.000000	11.567303
2297.000000	11.582782
2296.000000	11.595719
2295.000000	11.595166
2294.000000	11.622366
2293.000000	11.623693
2292.000000	11.630548
2291.000000	11.663939
2290.000000	11.680856
2289.000000	11.690586
2288.000000	11.694677
2287.000000	11.729617
2286.000000	11.760576
2285.000000	11.761792
2284.000000	11.811437
2283.000000	11.837089
2282.000000	11.849252
2281.000000	11.884412
2280.000000	11.904425
2279.000000	11.927092
2278.000000	11.929745
2277.000000	11.950974
2276.000000	11.979390
2275.000000	12.016431
2274.000000	12.029035
2273.000000	12.051812
2272.000000	12.081776
2271.000000	12.105991
2270.000000	12.118153
2269.000000	12.148338
2268.000000	12.184273
2267.000000	12.223193
2266.000000	12.240331
2265.000000	12.297605
2264.000000	12.343159
2263.000000	12.393247
2262.000000	12.466553
2261.000000	12.523717
2260.000000	12.585967
2259.000000	12.673537
2258.000000	12.747839
2257.000000	12.838615
2256.000000	12.928949
2255.000000	13.021163
2254.000000	13.111718
2253.000000	13.199620
2252.000000	13.325999
2251.000000	13.419429
2250.000000	13.529776
2249.000000	13.609827
2248.000000	13.687225
2247.000000	13.782314
2246.000000	13.876075
2245.000000	13.984211
2244.000000	14.020698
2243.000000	14.102851
2242.000000	14.166206
2241.000000	14.211097
2240.000000	14.262511
2239.000000	14.316136
2238.000000	14.348091
2237.000000	14.364344
2236.000000	14.417749
2235.000000	14.429026
2234.000000	14.428252
2233.000000	14.432675
2232.000000	14.451472
2231.000000	14.460317
2230.000000	14.434002
2229.000000	14.419628
2228.000000	14.402490
2227.000000	14.383804
2226.000000	14.390880
2225.000000	14.343336
2224.000000	14.282745
2223.000000	14.282303
2222.000000	14.227129
2221.000000	14.196723
2220.000000	14.128281
2219.000000	14.090578
2218.000000	14.041485
2217.000000	13.999469
2216.000000	13.946065
2215.000000	13.901838
2214.000000	13.855731
2213.000000	13.826430
2212.000000	13.769377
2211.000000	13.736317
2210.000000	13.720617
2209.000000	13.659362
2208.000000	13.617567
2207.000000	13.598881
2206.000000	13.579974
2205.000000	13.559187
2204.000000	13.533978
2203.000000	13.494837
2202.000000	13.471949
2201.000000	13.469406
2200.000000	13.448509
2199.000000	13.428275
2198.000000	13.412132
2197.000000	13.395325
2196.000000	13.362487
2195.000000	13.345127
2194.000000	13.347007
2193.000000	13.316933
2192.000000	13.292055
2191.000000	13.301011
2190.000000	13.306539
2189.000000	13.277570
2188.000000	13.250371
2187.000000	13.258110
2186.000000	13.249928
2185.000000	13.222839
2184.000000	13.213330
2183.000000	13.208576
2182.000000	13.184693
2181.000000	13.181708
2180.000000	13.163243
2179.000000	13.134827
2178.000000	13.147653
2177.000000	13.146989
2176.000000	13.144889
2175.000000	13.134274
2174.000000	13.135601
2173.000000	13.119900
2172.000000	13.130957
2171.000000	13.137370
2170.000000	13.146437
2169.000000	13.152518
2168.000000	13.167002
2167.000000	13.171978
2166.000000	13.202937
2165.000000	13.213551
2164.000000	13.231353
2163.000000	13.250039
2162.000000	13.288959
2161.000000	13.326773
2160.000000	13.364366
2159.000000	13.393003
2158.000000	13.440105
2157.000000	13.481679
2156.000000	13.548130
2155.000000	13.599545
2154.000000	13.665996
2153.000000	13.709339
2152.000000	13.787400
2151.000000	13.851972
2150.000000	13.904381
2149.000000	13.963535
2148.000000	14.021362
2147.000000	14.096216
2146.000000	14.167643
2145.000000	14.228345
2144.000000	14.289821
2143.000000	14.344000
2142.000000	14.394087
2141.000000	14.485306
2140.000000	14.542469
2139.000000	14.601402
2138.000000	14.669070
2137.000000	14.731872
2136.000000	14.784724
2135.000000	14.829836
2134.000000	14.889764
2133.000000	14.946043
2132.000000	14.989717
2131.000000	15.036598
2130.000000	15.089229
2129.000000	15.128701
2128.000000	15.181774
2127.000000	15.216161
2126.000000	15.251100
2125.000000	15.276863
2124.000000	15.296212
2123.000000	15.324849
2122.000000	15.368634
2121.000000	15.398598
2120.000000	15.433427
2119.000000	15.461733
2118.000000	15.471794
2117.000000	15.483072
2116.000000	15.501537
2115.000000	15.525973
2114.000000	15.544659
2113.000000	15.547312
2112.000000	15.549745
2111.000000	15.567436
2110.000000	15.570863
2109.000000	15.572301
2108.000000	15.571969
2107.000000	15.587891
2106.000000	15.598616
2105.000000	15.610225
2104.000000	15.599943
2103.000000	15.582915
2102.000000	15.588886
2101.000000	15.592535
2100.000000	15.589107
2099.000000	15.584463
2098.000000	15.584574
2097.000000	15.588001
2096.000000	15.590987
2095.000000	15.600385
2094.000000	15.597952
2093.000000	15.600385
2092.000000	15.598837
2091.000000	15.595299
2090.000000	15.617965
2089.000000	15.618960
2088.000000	15.611884
2087.000000	15.609894
2086.000000	15.597510
2085.000000	15.604697
2084.000000	15.597289
2083.000000	15.571416
2082.000000	15.548528
2081.000000	15.521882
2080.000000	15.479202
2079.000000	15.437518
2078.000000	15.405785
2077.000000	15.358351
2076.000000	15.297981
2075.000000	15.243913
2074.000000	15.188076
2073.000000	15.118419
2072.000000	15.054510
2071.000000	14.980430
2070.000000	14.895956
2069.000000	14.830720
2068.000000	14.760178
2067.000000	14.682227
2066.000000	14.618872
2065.000000	14.554300
2064.000000	14.469716
2063.000000	14.387895
2062.000000	14.321775
2061.000000	14.272020
2060.000000	14.224365
2059.000000	14.160014
2058.000000	14.106831
2057.000000	14.064815
2056.000000	14.037394
2055.000000	14.014175
2054.000000	14.013843
2053.000000	14.038500
2052.000000	14.054311
2051.000000	14.079078
2050.000000	14.114350
2049.000000	14.174388
2048.000000	14.240176
2047.000000	14.304416
2046.000000	14.360364
2045.000000	14.449371
2044.000000	14.551094
2043.000000	14.629265
2042.000000	14.716172
2041.000000	14.803852
2040.000000	14.874284
2039.000000	14.954446
2038.000000	15.044227
2037.000000	15.134119
2036.000000	15.206431
2035.000000	15.262157
2034.000000	15.329161
2033.000000	15.380907
2032.000000	15.433538
2031.000000	15.495014
2030.000000	15.555937
2029.000000	15.585679
2028.000000	15.628359
2027.000000	15.661971
2026.000000	15.707968
2025.000000	15.743239
2024.000000	15.768448
2023.000000	15.787024
2022.000000	15.796864
2021.000000	15.831362
2020.000000	15.858672
2019.000000	15.881781
2018.000000	15.877358
2017.000000	15.897924
2016.000000	15.911302
2015.000000	15.899361
2014.000000	15.886977
2013.000000	15.894828
2012.000000	15.896265
2011.000000	15.870392
2010.000000	15.863537
2009.000000	15.845625
2008.000000	15.825612
2007.000000	15.810022
2006.000000	15.780500
2005.000000	15.746777
2004.000000	15.719798
2003.000000	15.686296
2002.000000	15.626700
2001.000000	15.584574
2000.000000	15.541894
1999.000000	15.493908
1998.000000	15.435528
1997.000000	15.395060
1996.000000	15.356914
1995.000000	15.280401
1994.000000	15.213175
1993.000000	15.165410
1992.000000	15.112890
1991.000000	15.043675
1990.000000	14.971031
1989.000000	14.907344
1988.000000	14.862011
1987.000000	14.797550
1986.000000	14.733752
1985.000000	14.655912
1984.000000	14.581279
1983.000000	14.518918
1982.000000	14.453904
1981.000000	14.383030
1980.000000	14.326972
1979.000000	14.266491
1978.000000	14.190642
1977.000000	14.141439
1976.000000	14.061940
1975.000000	14.008647
1974.000000	13.933129
1973.000000	13.884257
1972.000000	13.841136
1971.000000	13.767829
1970.000000	13.701820
1969.000000	13.670640
1968.000000	13.600871
1967.000000	13.553438
1966.000000	13.489529
1965.000000	13.456469
1964.000000	13.395325
1963.000000	13.346786
1962.000000	13.293271
1961.000000	13.250371
1960.000000	13.176622
1959.000000	13.132615
1958.000000	13.071140
1957.000000	12.994627
1956.000000	12.942659
1955.000000	12.907499
1954.000000	12.859402
1953.000000	12.802017
1952.000000	12.752372
1951.000000	12.692112
1950.000000	12.660932
1949.000000	12.627430
1948.000000	12.557551
1947.000000	12.517967
1946.000000	12.490657
1945.000000	12.433051
1944.000000	12.417019
1943.000000	12.365826
1942.000000	12.316291
1941.000000	12.315186
1940.000000	12.294620
1939.000000	12.284116
1938.000000	12.263882
1937.000000	12.289755
1936.000000	12.277592
1935.000000	12.279472
1934.000000	12.259570
1933.000000	12.270184
1932.000000	12.306230
1931.000000	12.316623
1930.000000	12.343712
1929.000000	12.403198
1928.000000	12.433936
1927.000000	12.484908
1926.000000	12.523828
1925.000000	12.615267
1924.000000	12.680281
1923.000000	12.717764
1922.000000	12.824462
1921.000000	12.920988
1920.000000	13.056987
1919.000000	13.158710
1918.000000	13.286195
1917.000000	13.411800
1916.000000	13.484001
1915.000000	13.603967
1914.000000	13.766945
1913.000000	13.969284
1912.000000	14.185334
1911.000000	14.358816
1910.000000	14.532850
1909.000000	14.715951
1908.000000	14.864333
1907.000000	15.084364
1906.000000	15.377922
1905.000000	15.702108
1904.000000	16.033148
1903.000000	16.333120
1902.000000	16.661618
1901.000000	16.979833
1900.000000	17.344597
1899.000000	17.767741
1898.000000	18.196524
1897.000000	18.656487
1896.000000	19.011190
1895.000000	19.359147
1894.000000	19.719378
1893.000000	20.128370
1892.000000	20.632560
1891.000000	21.201875
1890.000000	21.702417
1889.000000	22.169567
1888.000000	22.659052
1887.000000	23.088941
1886.000000	23.521152
1885.000000	23.966631
1884.000000	24.444396
1883.000000	24.932001
1882.000000	25.349838
1881.000000	25.743128
1880.000000	26.093850
1879.000000	26.386082
1878.000000	26.715133
1877.000000	27.050264
1876.000000	27.354769
1875.000000	27.668119
1874.000000	27.975167
1873.000000	28.285752
1872.000000	28.598439
1871.000000	28.872980
1870.000000	29.154928
1869.000000	29.420292
1868.000000	29.650716
1867.000000	29.791137
1866.000000	29.901705
1865.000000	29.968488
1864.000000	30.045001
1863.000000	30.089560
1862.000000	30.162425
1861.000000	30.289910
1860.000000	30.411203
1859.000000	30.539573
1858.000000	30.658433
1857.000000	30.736605
1856.000000	30.783154
1855.000000	30.810133
1854.000000	30.878685
1853.000000	30.951992
1852.000000	30.970125
1851.000000	30.946795
1850.000000	30.910086
1849.000000	30.931758
1848.000000	31.001194
1847.000000	31.127353
1846.000000	31.158422
1845.000000	31.078482
1844.000000	30.989364
1843.000000	30.897703
1842.000000	30.896486
1841.000000	30.955419
1840.000000	30.963601
1839.000000	30.938171
1838.000000	30.902015
1837.000000	30.859114
1836.000000	30.848279
1835.000000	30.831583
1834.000000	30.780169
1833.000000	30.687623
1832.000000	30.593640
1831.000000	30.561023
1830.000000	30.549634
1829.000000	30.528074
1828.000000	30.496783
1827.000000	30.460848
1826.000000	30.431326
1825.000000	30.399593
1824.000000	30.334800
1823.000000	30.263373
1822.000000	30.219478
1821.000000	30.264700
1820.000000	30.317441
1819.000000	30.330157
1818.000000	30.290463
1817.000000	30.228655
1816.000000	30.177794
1815.000000	30.162535
1814.000000	30.145950
1813.000000	30.117202
1812.000000	30.088344
1811.000000	30.076956
1810.000000	30.063245
1809.000000	30.022335
1808.000000	29.959864
1807.000000	29.921939
1806.000000	29.910219
1805.000000	29.883904
1804.000000	29.847859
1803.000000	29.810044
1802.000000	29.772562
1801.000000	29.763716
1800.000000	29.738838
1799.000000	29.692842
1798.000000	29.653480
1797.000000	29.635900
1796.000000	29.608257
1795.000000	29.568011
1794.000000	29.550099
1793.000000	29.531965
1792.000000	29.513501
1791.000000	29.497247
1790.000000	29.464961
1789.000000	29.446496
1788.000000	29.435550
1787.000000	29.422945
1786.000000	29.414653
1785.000000	29.415427
1784.000000	29.401274
1783.000000	29.374517
1782.000000	29.350966
1781.000000	29.328410
1780.000000	29.302647
1779.000000	29.269809
1778.000000	29.227350
1777.000000	29.178811
1776.000000	29.137790
1775.000000	29.092900
1774.000000	29.023352
1773.000000	28.948608
1772.000000	28.892661
1771.000000	28.826873
1770.000000	28.762412
1769.000000	28.683687
1768.000000	28.616683
1767.000000	28.554433
1766.000000	28.476040
1765.000000	28.406161
1764.000000	28.356848
1763.000000	28.314832
1762.000000	28.265961
1761.000000	28.239093
1760.000000	28.238208
1759.000000	28.218416
1758.000000	28.220296
1757.000000	28.215099
1756.000000	28.198183
1755.000000	28.183919
1754.000000	28.166118
1753.000000	28.149754
1752.000000	28.138586
1751.000000	28.125760
1750.000000	28.119347
1749.000000	28.084076
1748.000000	28.037416
1747.000000	28.006126
1746.000000	27.965989
1745.000000	27.902634
1744.000000	27.860397
1743.000000	27.804671
1742.000000	27.741757
1741.000000	27.678623
1740.000000	27.608965
1739.000000	27.539971
1738.000000	27.469428
1737.000000	27.403087
1736.000000	27.337189
1735.000000	27.268526
1734.000000	27.214348
1733.000000	27.133522
1732.000000	27.073263
1731.000000	27.019084
1730.000000	26.984255
1729.000000	26.936822
1728.000000	26.891599
1727.000000	26.874351
1726.000000	26.862520
1725.000000	26.854559
1724.000000	26.875788
1723.000000	26.891046
1722.000000	26.944893
1721.000000	27.028593
1720.000000	27.131090
1719.000000	27.269632
1718.000000	27.416466
1717.000000	27.557662
1716.000000	27.712346
1715.000000	27.869242
1714.000000	28.041286
1713.000000	28.197409
1712.000000	28.326884
1711.000000	28.461003
1710.000000	28.561067
1709.000000	28.656598
1708.000000	28.763075
1707.000000	28.870989
1706.000000	28.926384
1705.000000	28.967626
1704.000000	29.039827
1703.000000	29.098096
1702.000000	29.141218
1701.000000	29.194843
1700.000000	29.241835
1699.000000	29.300215
1698.000000	29.352956
1697.000000	29.390881
1696.000000	29.427258
1695.000000	29.445501
1694.000000	29.441631
1693.000000	29.445833
1692.000000	29.443732
1691.000000	29.450366
1690.000000	29.451472
1689.000000	29.512727
1688.000000	29.579841
1687.000000	29.670065
1686.000000	29.820991
1685.000000	30.014042
1684.000000	30.214392
1683.000000	30.424803
1682.000000	30.667721
1681.000000	30.879238
1680.000000	31.135645
1679.000000	31.356450
1678.000000	31.581566
1677.000000	31.798501
1676.000000	32.028261
1675.000000	32.200416
1674.000000	32.405078
1673.000000	32.628425
1672.000000	32.821698
1671.000000	33.005683
1670.000000	33.192654
1669.000000	33.398974
1668.000000	33.572234
1667.000000	33.771699
1666.000000	33.914996
1665.000000	34.071118
1664.000000	34.254108
1663.000000	34.379271
1662.000000	34.520135
1661.000000	34.654696
1660.000000	34.808939
1659.000000	34.926583
1658.000000	35.023551
1657.000000	35.143849
1656.000000	35.241370
1655.000000	35.279959
1654.000000	35.362000
1653.000000	35.399815
1652.000000	35.418832
1651.000000	35.445590
1650.000000	35.455209
1649.000000	35.468367
1648.000000	35.473232
1647.000000	35.437739
1646.000000	35.439619
1645.000000	35.436744
1644.000000	35.425245
1643.000000	35.406891
1642.000000	35.409876
1641.000000	35.362111
1640.000000	35.363659
1639.000000	35.346300
1638.000000	35.343204
1637.000000	35.300303
1636.000000	35.279406
1635.000000	35.249000
1634.000000	35.215608
1633.000000	35.181332
1632.000000	35.150926
1631.000000	35.105814
1630.000000	35.056501
1629.000000	35.004644
1628.000000	34.940846
1627.000000	34.889874
1626.000000	34.852613
1625.000000	34.814135
1624.000000	34.763716
1623.000000	34.724796
1622.000000	34.669181
1621.000000	34.611464
1620.000000	34.583933
1619.000000	34.520356
1618.000000	34.497800
1617.000000	34.466841
1616.000000	34.414432
1615.000000	34.369099
1614.000000	34.319564
1613.000000	34.275779
1612.000000	34.221159
1611.000000	34.180691
1610.000000	34.105062
1609.000000	34.043807
1608.000000	33.977356
1607.000000	33.908251
1606.000000	33.832401
1605.000000	33.754672
1604.000000	33.685014
1603.000000	33.607285
1602.000000	33.517724
1601.000000	33.438447
1600.000000	33.356406
1599.000000	33.250481
1598.000000	33.182371
1597.000000	33.113156
1596.000000	33.044493
1595.000000	32.952169
1594.000000	32.878641
1593.000000	32.810752
1592.000000	32.751819
1591.000000	32.681608
1590.000000	32.608191
1589.000000	32.548484
1588.000000	32.503262
1587.000000	32.422879
1586.000000	32.378652
1585.000000	32.322262
1584.000000	32.252051
1583.000000	32.198868
1582.000000	32.162270
1581.000000	32.115168
1580.000000	32.077575
1579.000000	32.032684
1578.000000	31.984145
1577.000000	31.950753
1576.000000	31.923443
1575.000000	31.893037
1574.000000	31.875456
1573.000000	31.859203
1572.000000	31.849583
1571.000000	31.838305
1570.000000	31.843723
1569.000000	31.831340
1568.000000	31.831782
1567.000000	31.836094
1566.000000	31.843502
1565.000000	31.857876
1564.000000	31.863183
1563.000000	31.863626
1562.000000	31.838305
1561.000000	31.840075
1560.000000	31.820062
1559.000000	31.774508
1558.000000	31.728511
1557.000000	31.686606
1556.000000	31.633091
1555.000000	31.564207
1554.000000	31.493001
1553.000000	31.406316
1552.000000	31.321952
1551.000000	31.226753
1550.000000	31.135535
1549.000000	31.051061
1548.000000	30.961390
1547.000000	30.858451
1546.000000	30.781385
1545.000000	30.694810
1544.000000	30.614095
1543.000000	30.546096
1542.000000	30.493245
1541.000000	30.449460
1540.000000	30.396940
1539.000000	30.351717
1538.000000	30.300193
1537.000000	30.253312
1536.000000	30.207868
1535.000000	30.144181
1534.000000	30.089892
1533.000000	30.036819
1532.000000	29.986953
1531.000000	29.933107
1530.000000	29.875169
1529.000000	29.815573
1528.000000	29.758962
1527.000000	29.699255
1526.000000	29.636010
1525.000000	29.577077
1524.000000	29.530528
1523.000000	29.465293
1522.000000	29.402933
1521.000000	29.351739
1520.000000	29.290264
1519.000000	29.211760
1518.000000	29.145198
1517.000000	29.094226
1516.000000	29.036178
1515.000000	28.970280
1514.000000	28.902170
1513.000000	28.846001
1512.000000	28.798125
1511.000000	28.748480
1510.000000	28.688331
1509.000000	28.629619
1508.000000	28.573119
1507.000000	28.524248
1506.000000	28.484554
1505.000000	28.426284
1504.000000	28.367020
1503.000000	28.322240
1502.000000	28.270494
1501.000000	28.230690
1500.000000	28.209792
1499.000000	28.167334
1498.000000	28.134938
1497.000000	28.119790
1496.000000	28.098008
1495.000000	28.080206
1494.000000	28.073462
1493.000000	28.081865
1492.000000	28.083081
1491.000000	28.084629
1490.000000	28.096018
1489.000000	28.107627
1488.000000	28.121780
1487.000000	28.151854
1486.000000	28.178059
1485.000000	28.183477
1484.000000	28.202274
1483.000000	28.216426
1482.000000	28.218638
1481.000000	28.248933
1480.000000	28.270162
1479.000000	28.291944
1478.000000	28.308751
1477.000000	28.315053
1476.000000	28.341589
1475.000000	28.367020
1474.000000	28.384821
1473.000000	28.410805
1472.000000	28.453263
1471.000000	28.499812
1470.000000	28.527454
1469.000000	28.565711
1468.000000	28.604852
1467.000000	28.652728
1466.000000	28.695518
1465.000000	28.746600
1464.000000	28.793149
1463.000000	28.877955
1462.000000	28.930254
1461.000000	28.988081
1460.000000	29.061056
1459.000000	29.134915
1458.000000	29.203578
1457.000000	29.270914
1456.000000	29.354283
1455.000000	29.447270
1454.000000	29.540922
1453.000000	29.591451
1452.000000	29.665863
1451.000000	29.769355
1450.000000	29.849628
1449.000000	29.925367
1448.000000	29.994140
1447.000000	30.059707
1446.000000	30.157228
1445.000000	30.255744
1444.000000	30.370182
1443.000000	30.419053
1442.000000	30.496230
1441.000000	30.609230
1440.000000	30.696248
1439.000000	30.804162
1438.000000	30.905774
1437.000000	31.042879
1436.000000	31.144712
1435.000000	31.248204
1434.000000	31.395259
1433.000000	31.502842
1432.000000	31.665156
1431.000000	31.821278
1430.000000	31.962363
1429.000000	32.092170
1428.000000	32.266867
1427.000000	32.464453
1426.000000	32.641693
1425.000000	32.852878
1424.000000	33.066275
1423.000000	33.306429
1422.000000	33.542492
1421.000000	33.749033
1420.000000	34.010195
1419.000000	34.330953
1418.000000	34.641317
1417.000000	34.891754
1416.000000	35.140311
1415.000000	35.464607
1414.000000	35.861547
1413.000000	36.277394
1412.000000	36.618938
1411.000000	36.932841
1410.000000	37.321599
1409.000000	37.826232
1408.000000	38.297473
1407.000000	38.798789
1406.000000	39.199708
1405.000000	39.712744
1404.000000	40.191725
1403.000000	40.725769
1402.000000	41.079256
1401.000000	41.547401
1400.000000	42.212136
1399.000000	42.790076
1398.000000	43.103094
1397.000000	43.384490
1396.000000	43.875191
1395.000000	44.475134
1394.000000	44.944827
1393.000000	45.254639
1392.000000	45.649809
1391.000000	46.115522
1390.000000	46.524071
1389.000000	46.840849
1388.000000	47.424759
1387.000000	47.910374
1386.000000	48.349550
1385.000000	48.728910
1384.000000	49.160015
1383.000000	49.566463
1382.000000	49.955994
1381.000000	50.371952
1380.000000	50.637978
1379.000000	50.880896
1378.000000	51.105018
1377.000000	51.241791
1376.000000	51.465028
1375.000000	51.667367
1374.000000	51.872361
1373.000000	52.063201
1372.000000	52.280136
1371.000000	52.550364
1370.000000	52.798811
1369.000000	52.954933
1368.000000	53.192433
1367.000000	53.426727
1366.000000	53.562947
1365.000000	53.751134
1364.000000	53.969837
1363.000000	54.052985
1362.000000	54.254771
1361.000000	54.422724
1360.000000	54.624180
1359.000000	54.674156
1358.000000	54.776211
1357.000000	54.880698
1356.000000	55.014153
1355.000000	55.228655
1354.000000	55.475333
1353.000000	55.684196
1352.000000	55.882555
1351.000000	56.090976
1350.000000	56.318857
1349.000000	56.550939
1348.000000	56.778378
1347.000000	57.041751
1346.000000	57.269079
1345.000000	57.475289
1344.000000	57.705934
1343.000000	57.933593
1342.000000	58.138808
1341.000000	58.332744
1340.000000	58.557750
1339.000000	58.728910
1338.000000	58.938878
1337.000000	59.089583
1336.000000	59.279428
1335.000000	59.444064
1334.000000	59.575087
1333.000000	59.723691
1332.000000	59.879150
1331.000000	60.023441
1330.000000	60.154464
1329.000000	60.268239
1328.000000	60.377369
1327.000000	60.507950
1326.000000	60.622057
1325.000000	60.719025
1324.000000	60.785808
1323.000000	60.878685
1322.000000	60.964154
1321.000000	61.039894
1320.000000	61.125805
1319.000000	61.199554
1318.000000	61.266779
1317.000000	61.336105
1316.000000	61.393159
1315.000000	61.451760
1314.000000	61.520644
1313.000000	61.581124
1312.000000	61.633865
1311.000000	61.691914
1310.000000	61.729286
1309.000000	61.761350
1308.000000	61.782801
1307.000000	61.812212
1306.000000	61.819951
1305.000000	61.833441
1304.000000	61.848478
1303.000000	61.862962
1302.000000	61.861967
1301.000000	61.865616
1300.000000	61.873688
1299.000000	61.867717
1298.000000	61.857987
1297.000000	61.845272
1296.000000	61.837753
1295.000000	61.836758
1294.000000	61.806794
1293.000000	61.771523
1292.000000	61.758365
1291.000000	61.735477
1290.000000	61.686606
1289.000000	61.656753
1288.000000	61.627895
1287.000000	61.589196
1286.000000	61.555694
1285.000000	61.497203
1284.000000	61.448995
1283.000000	61.411623
1282.000000	61.356008
1281.000000	61.289556
1280.000000	61.257602
1279.000000	61.205635
1278.000000	61.167821
1277.000000	61.142722
1276.000000	61.121272
1275.000000	61.115190
1274.000000	61.096283
1273.000000	61.097610
1272.000000	61.091197
1271.000000	61.081578
1270.000000	61.095399
1269.000000	61.089428
1268.000000	61.074391
1267.000000	61.074722
1266.000000	61.078261
1265.000000	61.085226
1264.000000	61.061233
1263.000000	61.035802
1262.000000	61.025962
1261.000000	61.007939
1260.000000	60.979855
1259.000000	60.945468
1258.000000	60.904558
1257.000000	60.853807
1256.000000	60.809580
1255.000000	60.772319
1254.000000	60.700560
1253.000000	60.635435
1252.000000	60.567989
1251.000000	60.481303
1250.000000	60.413525
1249.000000	60.322196
1248.000000	60.218262
1247.000000	60.111011
1246.000000	60.009178
1245.000000	59.902258
1244.000000	59.794454
1243.000000	59.693948
1242.000000	59.595211
1241.000000	59.489618
1240.000000	59.378497
1239.000000	59.282414
1238.000000	59.191527
1237.000000	59.088256
1236.000000	58.983327
1235.000000	58.884811
1234.000000	58.795029
1233.000000	58.676279
1232.000000	58.558414
1231.000000	58.442207
1230.000000	58.312952
1229.000000	58.180492
1228.000000	58.037085
1227.000000	57.883285
1226.000000	57.726720
1225.000000	57.561311
1224.000000	57.371133
1223.000000	57.183389
1222.000000	57.009023
1221.000000	56.814755
1220.000000	56.611531
1219.000000	56.420801
1218.000000	56.227417
1217.000000	56.037350
1216.000000	55.861658
1215.000000	55.707747
1214.000000	55.563124
1213.000000	55.414520
1212.000000	55.262489
1211.000000	55.130471
1210.000000	54.989497
1209.000000	54.851397
1208.000000	54.745362
1207.000000	54.660888
1206.000000	54.570996
1205.000000	54.483647
1204.000000	54.380709
1203.000000	54.275890
1202.000000	54.185556
1201.000000	54.098096
1200.000000	54.011079
1199.000000	53.934235
1198.000000	53.847439
1197.000000	53.737092
1196.000000	53.639681
1195.000000	53.535747
1194.000000	53.410805
1193.000000	53.298800
1192.000000	53.205480
1191.000000	53.114814
1190.000000	53.036422
1189.000000	52.962230
1188.000000	52.911480
1187.000000	52.901971
1186.000000	52.904956
1185.000000	52.950731
1184.000000	53.012097
1183.000000	53.077774
1182.000000	53.166671
1181.000000	53.297141
1180.000000	53.405056
1179.000000	53.512860
1178.000000	53.627298
1177.000000	53.730015
1176.000000	53.834060
1175.000000	53.931249
1174.000000	54.016718
1173.000000	54.107937
1172.000000	54.216736
1171.000000	54.320117
1170.000000	54.410120
1169.000000	54.522015
1168.000000	54.632583
1167.000000	54.758299
1166.000000	54.903696
1165.000000	55.056390
1164.000000	55.225338
1163.000000	55.404348
1162.000000	55.609894
1161.000000	55.793327
1160.000000	55.992791
1159.000000	56.170474
1158.000000	56.386524
1157.000000	56.573385
1156.000000	56.719113
1155.000000	56.880985
1154.000000	57.020411
1153.000000	57.138056
1152.000000	57.275824
1151.000000	57.383517
1150.000000	57.485903
1149.000000	57.599678
1148.000000	57.689791
1147.000000	57.793946
1146.000000	57.910706
1145.000000	58.028350
1144.000000	58.138476
1143.000000	58.252472
1142.000000	58.378188
1141.000000	58.482674
1140.000000	58.598992
1139.000000	58.733996
1138.000000	58.863913
1137.000000	58.981337
1136.000000	59.117004
1135.000000	59.289379
1134.000000	59.455231
1133.000000	59.591673
1132.000000	59.656797
1131.000000	59.706553
1130.000000	59.778643
1129.000000	59.862233
1128.000000	59.909556
1127.000000	59.978329
1126.000000	59.993477
1125.000000	60.047213
1124.000000	60.028969
1123.000000	60.042016
1122.000000	60.019129
1121.000000	59.989054
1120.000000	59.954889
1119.000000	59.908008
1118.000000	59.858694
1117.000000	59.817563
1116.000000	59.767365
1115.000000	59.702683
1114.000000	59.634352
1113.000000	59.574203
1112.000000	59.514938
1111.000000	59.461534
1110.000000	59.401164
1109.000000	59.347096
1108.000000	59.277438
1107.000000	59.192632
1106.000000	59.129830
1105.000000	59.063046
1104.000000	59.005772
1103.000000	58.919308
1102.000000	58.848544
1101.000000	58.773358
1100.000000	58.726367
1099.000000	58.659583
1098.000000	58.592247
1097.000000	58.478805
1096.000000	58.424958
1095.000000	58.351098
1094.000000	58.244179
1093.000000	58.162359
1092.000000	58.092259
1091.000000	58.004578
1090.000000	57.904403
1089.000000	57.806551
1088.000000	57.721192
1087.000000	57.631521
1086.000000	57.554676
1085.000000	57.456934
1084.000000	57.330665
1083.000000	57.222640
1082.000000	57.150108
1081.000000	57.018974
1080.000000	56.932952
1079.000000	56.818735
1078.000000	56.720661
1077.000000	56.634197
1076.000000	56.506159
1075.000000	56.393933
1074.000000	56.271091
1073.000000	56.182084
1072.000000	56.082241
1071.000000	55.966145
1070.000000	55.869287
1069.000000	55.717477
1068.000000	55.636983
1067.000000	55.528848
1066.000000	55.403574
1065.000000	55.289799
1064.000000	55.181111
1063.000000	55.050420
1062.000000	54.947149
1061.000000	54.818779
1060.000000	54.680459
1059.000000	54.574092
1058.000000	54.462750
1057.000000	54.348976
1056.000000	54.243272
1055.000000	54.110922
1054.000000	54.009089
1053.000000	53.877071
1052.000000	53.754561
1051.000000	53.649743
1050.000000	53.520599
1049.000000	53.405940
1048.000000	53.302338
1047.000000	53.198514
1046.000000	53.093475
1045.000000	52.959908
1044.000000	52.855974
1043.000000	52.732028
1042.000000	52.641251
1041.000000	52.518189
1040.000000	52.386281
1039.000000	52.307114
1038.000000	52.191460
1037.000000	52.078681
1036.000000	51.966233
1035.000000	51.856881
1034.000000	51.750072
1033.000000	51.619491
1032.000000	51.520091
1031.000000	51.406758
1030.000000	51.278721
1029.000000	51.167489
1028.000000	51.059132
1027.000000	50.932753
1026.000000	50.848832
1025.000000	50.723226
1024.000000	50.592867
1023.000000	50.472458
1022.000000	50.376153
1021.000000	50.256076
1020.000000	50.140864
1019.000000	50.047434
1018.000000	49.916853
1017.000000	49.822760
1016.000000	49.716725
1015.000000	49.606599
1014.000000	49.522457
1013.000000	49.408903
1012.000000	49.300436
1011.000000	49.199377
1010.000000	49.100308
1009.000000	49.010748
1008.000000	48.907145
1007.000000	48.790496
1006.000000	48.686120
1005.000000	48.599987
1004.000000	48.507663
1003.000000	48.396874
1002.000000	48.298800
1001.000000	48.184915
1000.000000	48.088167
999.000000	47.992305
998.000000	47.867473
997.000000	47.742642
996.000000	47.645453
995.000000	47.552797
994.000000	47.451516
993.000000	47.347693
992.000000	47.227284
991.000000	47.145243
990.000000	47.040977
989.000000	46.918689
988.000000	46.807457
987.000000	46.708499
986.000000	46.615511
985.000000	46.493112
984.000000	46.387188
983.000000	46.289777
982.000000	46.182305
981.000000	46.069415
980.000000	45.968688
979.000000	45.867186
978.000000	45.755623
977.000000	45.657107
976.000000	45.557153
975.000000	45.450565
974.000000	45.339887
973.000000	45.230314
972.000000	45.128591
971.000000	45.026537
970.000000	44.927025
969.000000	44.816900
968.000000	44.708432
967.000000	44.586586
966.000000	44.494041
965.000000	44.399505
964.000000	44.300215
963.000000	44.206674
962.000000	44.099092
961.000000	44.000465
960.000000	43.908140
959.000000	43.804096
958.000000	43.704032
957.000000	43.599655
956.000000	43.509764
955.000000	43.415891
954.000000	43.309414
953.000000	43.224608
952.000000	43.133611
951.000000	43.015524
950.000000	42.939343
949.000000	42.852768
948.000000	42.724177
947.000000	42.611729
946.000000	42.521838
945.000000	42.411601
944.000000	42.293293
943.000000	42.187369
942.000000	42.082772
941.000000	41.972314
940.000000	41.859977
939.000000	41.770638
938.000000	41.660844
937.000000	41.537118
936.000000	41.431083
935.000000	41.327813
934.000000	41.224763
933.000000	41.149024
932.000000	41.053825
931.000000	40.946906
930.000000	40.841424
929.000000	40.756065
928.000000	40.664957
927.000000	40.556711
926.000000	40.449239
925.000000	40.346521
924.000000	40.262047
923.000000	40.177462
922.000000	40.077066
921.000000	39.993477
920.000000	39.905022
919.000000	39.826187
918.000000	39.744809
917.000000	39.655138
916.000000	39.592336
915.000000	39.509852
914.000000	39.445944
913.000000	39.380930
912.000000	39.318459
911.000000	39.273789
910.000000	39.214856
909.000000	39.141550
908.000000	39.093895
907.000000	39.044029
906.000000	38.993610
905.000000	38.952699
904.000000	38.915327
903.000000	38.882378
902.000000	38.841910
901.000000	38.797351
900.000000	38.771368
899.000000	38.747153
898.000000	38.737423
897.000000	38.723713
896.000000	38.699609
895.000000	38.666770
894.000000	38.680591
893.000000	38.657704
892.000000	38.627408
891.000000	38.629177
890.000000	38.615245
889.000000	38.596117
888.000000	38.607506
887.000000	38.597223
886.000000	38.596891
885.000000	38.593242
884.000000	38.598660
883.000000	38.603415
882.000000	38.619336
881.000000	38.631610
880.000000	38.639902
879.000000	38.649079
878.000000	38.663343
877.000000	38.656487
876.000000	38.660578
875.000000	38.637138
874.000000	38.584618
873.000000	38.577873
872.000000	38.618452
871.000000	38.681365
870.000000	38.766613
869.000000	38.859822
868.000000	38.942306
867.000000	39.022247
866.000000	39.110591
865.000000	39.197608
864.000000	39.301652
863.000000	39.364897
862.000000	39.502554
861.000000	39.563809
860.000000	39.636674
859.000000	39.762721
858.000000	39.859800
857.000000	39.438900
856.000000	39.941700
855.000000	40.198800
854.000000	39.860400
853.000000	39.979800
852.000000	40.352300
851.000000	40.458700
850.000000	40.869100
849.000000	41.277900
848.000000	41.312800
847.000000	41.196200
846.000000	41.369000
845.000000	41.629200
844.000000	41.716300
843.000000	41.772900
842.000000	41.920200
841.000000	42.437600
840.000000	42.180000
839.000000	42.432800
838.000000	42.561500
837.000000	42.913300
836.000000	42.975800
835.000000	42.947600
834.000000	43.148600
833.000000	43.196900
832.000000	43.497400
831.000000	43.576700
830.000000	43.684800
829.000000	43.800800
828.000000	43.770000
827.000000	43.854900
826.000000	44.022200
825.000000	44.056700
824.000000	44.136300
823.000000	44.078100
822.000000	44.203400
821.000000	44.379400
820.000000	44.515300
819.000000	44.430600
818.000000	44.651600
817.000000	44.652100
816.000000	44.737700
815.000000	44.846900
814.000000	45.044500
813.000000	44.855100
812.000000	45.043400
811.000000	44.875100
810.000000	45.112100
809.000000	45.220600
808.000000	45.305800
807.000000	45.250900
806.000000	45.265700
805.000000	45.392600
804.000000	45.543500
803.000000	45.567700
802.000000	45.589100
801.000000	45.684400
800.000000	45.728400
799.000000	45.551700
798.000000	45.618700
797.000000	45.596700
796.000000	45.827000
795.000000	45.776700
794.000000	45.690600
793.000000	45.788600
792.000000	45.754600
791.000000	45.739000
790.000000	45.754100
789.000000	45.827200
788.000000	45.849800
787.000000	45.836000
786.000000	45.818500
785.000000	45.812000
784.000000	45.729800
783.000000	45.781800
782.000000	45.687600
781.000000	45.790500
780.000000	45.693600
779.000000	45.629000
778.000000	45.676400
777.000000	45.496100
776.000000	45.501000
775.000000	45.420700
774.000000	45.426100
773.000000	45.478300
772.000000	45.488400
771.000000	45.341200
770.000000	45.243500
769.000000	45.305600
768.000000	45.140500
767.000000	45.072600
766.000000	45.086100
765.000000	45.051600
764.000000	44.931800
763.000000	44.811300
762.000000	44.827500
761.000000	44.715300
760.000000	44.597500
759.000000	44.434500
758.000000	44.428600
757.000000	44.294300
756.000000	44.212800
755.000000	44.104800
754.000000	43.977300
753.000000	43.897100
752.000000	43.912300
751.000000	43.733800
750.000000	43.592600
749.000000	43.543300
748.000000	43.425600
747.000000	43.306600
746.000000	43.183100
745.000000	43.106400
744.000000	42.977500
743.000000	42.829300
742.000000	42.689600
741.000000	42.550100
740.000000	42.383300
739.000000	42.232600
738.000000	42.070700
737.000000	41.953500
736.000000	41.811500
735.000000	41.689900
734.000000	41.537800
733.000000	41.331600
732.000000	41.179600
731.000000	40.978400
730.000000	40.839200
729.000000	40.649700
728.000000	40.533600
727.000000	40.266100
726.000000	40.041700
725.000000	39.856100
724.000000	39.643000
723.000000	39.447500
722.000000	39.267000
721.000000	39.025400
720.000000	38.859200
719.000000	38.654700
718.000000	38.456900
717.000000	38.183900
716.000000	38.007900
715.000000	37.772100
714.000000	37.553000
713.000000	37.369800
712.000000	37.154100
711.000000	36.915400
710.000000	36.695400
709.000000	36.433600
708.000000	36.188600
707.000000	35.916100
706.000000	35.631000
705.000000	35.392000
704.000000	35.148500
703.000000	34.888800
702.000000	34.594100
701.000000	34.341700
700.000000	34.044600
699.000000	33.817000
698.000000	33.563100
697.000000	33.310800
696.000000	33.014200
695.000000	32.741000
694.000000	32.505200
693.000000	32.260800
692.000000	31.974100
691.000000	31.715300
690.000000	31.457900
689.000000	31.213500
688.000000	30.965800
687.000000	30.681600
686.000000	30.449000
685.000000	30.225300
684.000000	29.953800
683.000000	29.701700
682.000000	29.487200
681.000000	29.245200
680.000000	29.024100
679.000000	28.766900
678.000000	28.552600
677.000000	28.345300
676.000000	28.142300
675.000000	27.911600
674.000000	27.726400
673.000000	27.559200
672.000000	27.333300
671.000000	27.156400
670.000000	27.001200
669.000000	26.821600
668.000000	26.653600
667.000000	26.499400
666.000000	26.333500
665.000000	26.189300
664.000000	26.070100
663.000000	25.940800
662.000000	25.828100
661.000000	25.703000
660.000000	25.600200
659.000000	25.507700
658.000000	25.406200
657.000000	25.314300
656.000000	25.242500
655.000000	25.193100
654.000000	25.128600
653.000000	25.076100
652.000000	25.041600
651.000000	25.012100
650.000000	25.012800
649.000000	24.991200
648.000000	24.962400
647.000000	24.971100
646.000000	25.005200
645.000000	25.032700
644.000000	25.063500
643.000000	25.119300
642.000000	25.181300
641.000000	25.244900
640.000000	25.327600
639.000000	25.399800
638.000000	25.473100
637.000000	25.576700
636.000000	25.672400
635.000000	25.753400
634.000000	25.848600
633.000000	25.955300
632.000000	26.051900
631.000000	26.153200
630.000000	26.262100
629.000000	26.380400
628.000000	26.498400
627.000000	26.625400
626.000000	26.747300
625.000000	26.864200
624.000000	26.996900
623.000000	27.115000
622.000000	27.214900
621.000000	27.341800
620.000000	27.462100
619.000000	27.592000
618.000000	27.701900
617.000000	27.817600
616.000000	27.945700
615.000000	28.063200
614.000000	28.178800
613.000000	28.299500
612.000000	28.439300
611.000000	28.566800
610.000000	28.691200
609.000000	28.821300
608.000000	28.912000
607.000000	29.018100
606.000000	29.097300
605.000000	29.211800
604.000000	29.336100
603.000000	29.429600
602.000000	29.539700
601.000000	29.636400
600.000000	29.709000
599.000000	29.775400
598.000000	29.863300
597.000000	29.952200
596.000000	30.040500
595.000000	30.086400
594.000000	30.146700
593.000000	30.191200
592.000000	30.240400
591.000000	30.282800
590.000000	30.313800
589.000000	30.346700
588.000000	30.384500
587.000000	30.396300
586.000000	30.432400
585.000000	30.434800
584.000000	30.427300
583.000000	30.418000
582.000000	30.413200
581.000000	30.395000
580.000000	30.385500
579.000000	30.354000
578.000000	30.311700
577.000000	30.258800
576.000000	30.231800
575.000000	30.170200
574.000000	30.110900
573.000000	30.030300
572.000000	29.954300
571.000000	29.887600
570.000000	29.799400
569.000000	29.719300
568.000000	29.611000
567.000000	29.508300
566.000000	29.382300
565.000000	29.266800
564.000000	29.108400
563.000000	28.985100
562.000000	28.824000
561.000000	28.651900
560.000000	28.498400
559.000000	28.324300
558.000000	28.132200
557.000000	27.977000
556.000000	27.785500
555.000000	27.582100
554.000000	27.378500
553.000000	27.164600
552.000000	26.932100
551.000000	26.700700
550.000000	26.458300
549.000000	26.227900
548.000000	26.003400
547.000000	25.759900
546.000000	25.520500
545.000000	25.262800
544.000000	24.990600
543.000000	24.741300
542.000000	24.463700
541.000000	24.189300
540.000000	23.919100
539.000000	23.672600
538.000000	23.394100
537.000000	23.128100
536.000000	22.851800
535.000000	22.554500
534.000000	22.278300
533.000000	21.992100
532.000000	21.695000
531.000000	21.412500
530.000000	21.139000
529.000000	20.844300
528.000000	20.563500
527.000000	20.272300
526.000000	19.989600
525.000000	19.700800
524.000000	19.409500
523.000000	19.120400
522.000000	18.835900
521.000000	18.535500
520.000000	18.275500
519.000000	17.991200
518.000000	17.693800
517.000000	17.434900
516.000000	17.166200
515.000000	16.908500
514.000000	16.631800
513.000000	16.381500
512.000000	16.122700
511.000000	15.888100
510.000000	15.643100
509.000000	15.397600
508.000000	15.184100
507.000000	14.966400
506.000000	14.752300
505.000000	14.544700
504.000000	14.373700
503.000000	14.170600
502.000000	13.987900
501.000000	13.805100
500.000000	13.641600
499.000000	13.501500
498.000000	13.334400
497.000000	13.194900
496.000000	13.073300
495.000000	12.948700
494.000000	12.825500
493.000000	12.720600
492.000000	12.626200
491.000000	12.528100
490.000000	12.410300
489.000000	12.305000
488.000000	12.246500
487.000000	12.160600
486.000000	12.084300
485.000000	12.002600
484.000000	11.922400
483.000000	11.846500
482.000000	11.759300
481.000000	11.660100
480.000000	11.565900
479.000000	11.474500
478.000000	11.402200
477.000000	11.338200
476.000000	11.245200
475.000000	11.166300
474.000000	11.098800
473.000000	11.029500
472.000000	10.951000
471.000000	10.881400
470.000000	10.812100
469.000000	10.734000
468.000000	10.659900
467.000000	10.589900
466.000000	10.519900
465.000000	10.450800
464.000000	10.373300
463.000000	10.301700
462.000000	10.232600
461.000000	10.169100
460.000000	10.101600
459.000000	10.023800
458.000000	9.959200
457.000000	9.875700
456.000000	9.803900
455.000000	9.723500
454.000000	9.657400
453.000000	9.567400
452.000000	9.510600
451.000000	9.409500
450.000000	9.307500
449.000000	9.237900
448.000000	9.138900
447.000000	9.039300
446.000000	8.977600
445.000000	8.878100
444.000000	8.799300
443.000000	8.714100
442.000000	8.598500
441.000000	8.485500
440.000000	8.383700
439.000000	8.279600
438.000000	8.179600
437.000000	8.078600
436.000000	7.982900
435.000000	7.900500
434.000000	7.801700
433.000000	7.695600
432.000000	7.609200
431.000000	7.521500
430.000000	7.423700
429.000000	7.342600
428.000000	7.268700
427.000000	7.175600
426.000000	7.112100
425.000000	7.013800
424.000000	6.938400
423.000000	6.859500
422.000000	6.775300
421.000000	6.705200
420.000000	6.639600
419.000000	6.567100
418.000000	6.489500
417.000000	6.428400
416.000000	6.354200
415.000000	6.298900
414.000000	6.242300
413.000000	6.167100
412.000000	6.096000
411.000000	6.045000
410.000000	5.985600
409.000000	5.904500
408.000000	5.840000
407.000000	5.786100
406.000000	5.731500
405.000000	5.690400
404.000000	5.649500
403.000000	5.584700
402.000000	5.539800
401.000000	5.487300
400.000000	5.439100
399.000000	5.375600
398.000000	5.326400
397.000000	5.303200
396.000000	5.241700
395.000000	5.204300
394.000000	5.153300
393.000000	5.138000
392.000000	5.106600
391.000000	5.060500
390.000000	5.013600
389.000000	4.977300
388.000000	4.951100
387.000000	4.921700
386.000000	4.900000
385.000000	4.851400
384.000000	4.836100
383.000000	4.812800
382.000000	4.795900
381.000000	4.767100
380.000000	4.755200
379.000000	4.737100
378.000000	4.697900
377.000000	4.696200
376.000000	4.755800
375.000000	4.569900
374.000000	4.166500
373.000000	4.138800
372.000000	4.070400
371.000000	4.387600
370.000000	4.379600
369.000000	4.349200
368.000000	4.463700
367.000000	4.427000
366.000000	4.522900
365.000000	4.529400
364.000000	4.589800
363.000000	4.602200
362.000000	4.524300
361.000000	4.483900
360.000000	4.477900
359.000000	4.624300
358.000000	4.663500
357.000000	4.442300
356.000000	4.461900
355.000000	4.527300
354.000000	4.651600
353.000000	4.788100
352.000000	4.788700
351.000000	4.616100
350.000000	4.707600
349.000000	4.798600
348.000000	4.603300
347.000000	4.584400
346.000000	4.691200
345.000000	4.900900
344.000000	4.803900
343.000000	4.592100
342.000000	4.585900
341.000000	4.682100
340.000000	4.829800
339.000000	4.735500
338.000000	4.599100
337.000000	4.682300
336.000000	4.882900
335.000000	4.739100
334.000000	4.615500
333.000000	4.779200
332.000000	4.695500
331.000000	4.630100
330.000000	4.760400
329.000000	4.751000
328.000000	4.908200
327.000000	5.281700
326.000000	5.108600
325.000000	5.236600
324.000000	5.637700
323.000000	5.186400
322.000000	5.097500
321.000000	5.418200
320.000000	5.159000
319.000000	5.623800
318.000000	6.344500
317.000000	6.374100
316.000000	5.382400
315.000000	4.616400
314.000000	4.604800
313.000000	4.625200
312.000000	4.653000
311.000000	4.630300
310.000000	4.620600
309.000000	4.655600
308.000000	4.675700
307.000000	4.694100
306.000000	4.734100
305.000000	4.711500
304.000000	4.672600
303.000000	4.644300
302.000000	4.662300
301.000000	4.681400
300.000000	4.688300
299.000000	4.721800
298.000000	4.720800
297.000000	4.736900
296.000000	4.724500
295.000000	4.732400
294.000000	4.696400
293.000000	4.710400
292.000000	4.796700
291.000000	4.785300
290.000000	4.758200
289.000000	4.762200
288.000000	4.755400
287.000000	4.751200
286.000000	4.788800
285.000000	4.804900
284.000000	4.763000
283.000000	4.740300
282.000000	4.750100
281.000000	4.784000
280.000000	4.806600
279.000000	4.783500
278.000000	4.808200
277.000000	4.831700
276.000000	4.824000
275.000000	4.818100
274.000000	4.844000
273.000000	4.875700
272.000000	4.863200
271.000000	4.919400
270.000000	4.941600
269.000000	4.940600
268.000000	4.917600
267.000000	4.945700
266.000000	4.951200
265.000000	4.970500
264.000000	4.981400
263.000000	5.009100
262.000000	5.021900
261.000000	5.075900
260.000000	5.082600
259.000000	5.098900
258.000000	5.139100
257.000000	5.144000
256.000000	5.142300
255.000000	5.145800
254.000000	5.152000
253.000000	5.177400
252.000000	5.187100
251.000000	5.188600
250.000000	5.193100
