PE UV       SUBTECH     SPECTRUM    ASCII       PEDS        4.00        
   -1
CICIMAUCR0258-2.Sample.ASC
24/07/01
11:22:22.00
24/07/01
11:22:22.00
Vinicio Soto Monge
C. resplendens. Sex M. Dorsal.
250,000000
1
Lambda 1050
1050L1511233
PerkinElmer UV WinLab 6.3.2.0749 / 2.02.05 Lambda 900 UV/VIS/NIR, Aug  7 2015 09:38:08

0
0
3350/servo 860,8/2
0
0
UV/VIS
1
1
1
DoubleDePol,CommonBeamDepol,RBeamAtt,SBeamAtt,60mm sphere, WB InGaAs Detector
0
0
0
0
Program
Program
3350/servo 860,8/2
3350/0,2 860,8/0,2
3350/0,2 860,8/0,2
0
15.00
 
 
 
0
 
860,8
319,2
860,8
Front
100
on
S:100 R:100
0
0
0
0
 
0
 
 
 
0
 
 
0
0
0
0
0
 
 
 
 
0
0


0
0
#HDR
-1
-1
#GR
nm
%R
1.0
0.0
2500,000000
-1,000000
2251
8
91,691800
5,008200
#DATA
2482.000000	8.774636
2481.000000	8.777346
2480.000000	8.758065
2479.000000	8.748268
2478.000000	8.821744
2477.000000	8.736179
2476.000000	8.816846
2475.000000	8.817158
2474.000000	8.844881
2473.000000	8.805798
2472.000000	8.870728
2471.000000	8.880107
2470.000000	8.909498
2469.000000	8.924714
2468.000000	8.914188
2467.000000	8.942119
2466.000000	8.957335
2465.000000	9.024140
2464.000000	9.034666
2463.000000	9.067392
2462.000000	9.105953
2461.000000	9.110747
2460.000000	9.165255
2459.000000	9.221430
2458.000000	9.250507
2457.000000	9.302826
2456.000000	9.348057
2455.000000	9.369006
2454.000000	9.445816
2453.000000	9.523565
2452.000000	9.573486
2451.000000	9.640188
2450.000000	9.719812
2449.000000	9.792037
2448.000000	9.860614
2447.000000	9.922417
2446.000000	9.979008
2445.000000	10.057174
2444.000000	10.145761
2443.000000	10.234557
2442.000000	10.293025
2441.000000	10.342842
2440.000000	10.413087
2439.000000	10.467594
2438.000000	10.565144
2437.000000	10.624550
2436.000000	10.695733
2435.000000	10.759724
2434.000000	10.807978
2433.000000	10.888541
2432.000000	10.952845
2431.000000	11.006831
2430.000000	11.054772
2429.000000	11.138878
2428.000000	11.188800
2427.000000	11.234970
2426.000000	11.295417
2425.000000	11.332728
2424.000000	11.386819
2423.000000	11.451852
2422.000000	11.492707
2421.000000	11.540231
2420.000000	11.604431
2419.000000	11.631841
2418.000000	11.694686
2417.000000	11.745442
2416.000000	11.779939
2415.000000	11.806932
2414.000000	11.846223
2413.000000	11.892601
2412.000000	11.932622
2411.000000	11.961282
2410.000000	11.996300
2409.000000	12.051016
2408.000000	12.073945
2407.000000	12.105940
2406.000000	12.151380
2405.000000	12.211307
2404.000000	12.258727
2403.000000	12.306460
2402.000000	12.348357
2401.000000	12.389628
2400.000000	12.425584
2399.000000	12.447054
2398.000000	12.480196
2397.000000	12.525636
2396.000000	12.554714
2395.000000	12.576287
2394.000000	12.621832
2393.000000	12.646428
2392.000000	12.671649
2391.000000	12.703228
2390.000000	12.729179
2389.000000	12.757006
2388.000000	12.768887
2387.000000	12.803280
2386.000000	12.824749
2385.000000	12.847990
2384.000000	12.857578
2383.000000	12.876651
2382.000000	12.908855
2381.000000	12.901976
2380.000000	12.916255
2379.000000	12.914587
2378.000000	12.918860
2377.000000	12.929491
2376.000000	12.933868
2375.000000	12.932930
2374.000000	12.925218
2373.000000	12.927198
2372.000000	12.934910
2371.000000	12.925739
2370.000000	12.912190
2369.000000	12.908334
2368.000000	12.907813
2367.000000	12.896348
2366.000000	12.887177
2365.000000	12.870919
2364.000000	12.847052
2363.000000	12.838923
2362.000000	12.829335
2361.000000	12.801820
2360.000000	12.767532
2359.000000	12.749189
2358.000000	12.737621
2357.000000	12.708752
2356.000000	12.691659
2355.000000	12.667480
2354.000000	12.641529
2353.000000	12.636110
2352.000000	12.626626
2351.000000	12.617976
2350.000000	12.613286
2349.000000	12.622040
2348.000000	12.638299
2347.000000	12.655599
2346.000000	12.677069
2345.000000	12.707814
2344.000000	12.741685
2343.000000	12.784416
2342.000000	12.821518
2341.000000	12.871440
2340.000000	12.897703
2339.000000	12.927823
2338.000000	12.980350
2337.000000	13.015889
2336.000000	13.027666
2335.000000	13.055702
2334.000000	13.086134
2333.000000	13.086864
2332.000000	13.082903
2331.000000	13.084154
2330.000000	13.081444
2329.000000	13.085926
2328.000000	13.075816
2327.000000	13.042570
2326.000000	13.018912
2325.000000	12.988063
2324.000000	12.975139
2323.000000	12.939079
2322.000000	12.878423
2321.000000	12.827459
2320.000000	12.767636
2319.000000	12.701560
2318.000000	12.621519
2317.000000	12.556485
2316.000000	12.490827
2315.000000	12.412244
2314.000000	12.328868
2313.000000	12.222876
2312.000000	12.139708
2311.000000	12.069359
2310.000000	11.985461
2309.000000	11.920636
2308.000000	11.857270
2307.000000	11.806515
2306.000000	11.788276
2305.000000	11.755968
2304.000000	11.738563
2303.000000	11.732935
2302.000000	11.759407
2301.000000	11.793175
2300.000000	11.833195
2299.000000	11.887181
2298.000000	11.957113
2297.000000	12.029859
2296.000000	12.110526
2295.000000	12.179207
2294.000000	12.264564
2293.000000	12.337310
2292.000000	12.394735
2291.000000	12.474881
2290.000000	12.541269
2289.000000	12.591608
2288.000000	12.624125
2287.000000	12.660497
2286.000000	12.689888
2285.000000	12.698746
2284.000000	12.709377
2283.000000	12.710940
2282.000000	12.688324
2281.000000	12.667376
2280.000000	12.655599
2279.000000	12.612765
2278.000000	12.581915
2277.000000	12.530013
2276.000000	12.503229
2275.000000	12.457997
2274.000000	12.428920
2273.000000	12.390045
2272.000000	12.354610
2271.000000	12.352943
2270.000000	12.355965
2269.000000	12.351067
2268.000000	12.381708
2267.000000	12.408701
2266.000000	12.468419
2265.000000	12.549398
2264.000000	12.640800
2263.000000	12.759924
2262.000000	12.883529
2261.000000	13.034545
2260.000000	13.193064
2259.000000	13.381182
2258.000000	13.570968
2257.000000	13.790352
2256.000000	13.989934
2255.000000	14.205149
2254.000000	14.429745
2253.000000	14.633808
2252.000000	14.856528
2251.000000	15.036308
2250.000000	15.232242
2249.000000	15.419110
2248.000000	15.615670
2247.000000	15.756159
2246.000000	15.938024
2245.000000	16.094146
2244.000000	16.190446
2243.000000	16.331143
2242.000000	16.444118
2241.000000	16.545942
2240.000000	16.626296
2239.000000	16.732392
2238.000000	16.822543
2237.000000	16.885596
2236.000000	16.953652
2235.000000	17.003261
2234.000000	17.052453
2233.000000	17.102167
2232.000000	17.125825
2231.000000	17.174287
2230.000000	17.184605
2229.000000	17.200551
2228.000000	17.207638
2227.000000	17.220040
2226.000000	17.217330
2225.000000	17.199092
2224.000000	17.198779
2223.000000	17.188044
2222.000000	17.162927
2221.000000	17.135100
2220.000000	17.080385
2219.000000	17.056935
2218.000000	17.033277
2217.000000	16.982834
2216.000000	16.942813
2215.000000	16.894976
2214.000000	16.846410
2213.000000	16.830881
2212.000000	16.779917
2211.000000	16.736144
2210.000000	16.721032
2209.000000	16.677051
2208.000000	16.631507
2207.000000	16.624733
2206.000000	16.588360
2205.000000	16.577625
2204.000000	16.526453
2203.000000	16.517073
2202.000000	16.505087
2201.000000	16.475280
2200.000000	16.460377
2199.000000	16.441617
2198.000000	16.413269
2197.000000	16.398261
2196.000000	16.394509
2195.000000	16.373144
2194.000000	16.352404
2193.000000	16.338439
2192.000000	16.337605
2191.000000	16.313426
2190.000000	16.299460
2189.000000	16.290289
2188.000000	16.279554
2187.000000	16.251102
2186.000000	16.235990
2185.000000	16.240993
2184.000000	16.207017
2183.000000	16.198783
2182.000000	16.159388
2181.000000	16.164599
2180.000000	16.130519
2179.000000	16.110613
2178.000000	16.119993
2177.000000	16.101233
2176.000000	16.080702
2175.000000	16.079034
2174.000000	16.074865
2173.000000	16.072572
2172.000000	16.049435
2171.000000	16.052041
2170.000000	16.049435
2169.000000	16.071843
2168.000000	16.077158
2167.000000	16.072989
2166.000000	16.094459
2165.000000	16.110613
2164.000000	16.143442
2163.000000	16.154177
2162.000000	16.177835
2161.000000	16.199304
2160.000000	16.215042
2159.000000	16.248392
2158.000000	16.279137
2157.000000	16.313217
2156.000000	16.363035
2155.000000	16.391487
2154.000000	16.422753
2153.000000	16.487683
2152.000000	16.520304
2151.000000	16.563555
2150.000000	16.621919
2149.000000	16.670590
2148.000000	16.701751
2147.000000	16.741043
2146.000000	16.793674
2145.000000	16.848807
2144.000000	16.896644
2143.000000	16.935622
2142.000000	16.976164
2141.000000	17.026607
2140.000000	17.046826
2139.000000	17.084970
2138.000000	17.120197
2137.000000	17.154694
2136.000000	17.184709
2135.000000	17.228378
2134.000000	17.254954
2133.000000	17.257872
2132.000000	17.292682
2131.000000	17.303625
2130.000000	17.321655
2129.000000	17.340519
2128.000000	17.343437
2127.000000	17.347502
2126.000000	17.361259
2125.000000	17.363864
2124.000000	17.369701
2123.000000	17.355631
2122.000000	17.359070
2121.000000	17.346668
2120.000000	17.333849
2119.000000	17.318737
2118.000000	17.303312
2117.000000	17.286533
2116.000000	17.275277
2115.000000	17.272880
2114.000000	17.261624
2113.000000	17.238070
2112.000000	17.196903
2111.000000	17.156361
2110.000000	17.131244
2109.000000	17.111755
2108.000000	17.093412
2107.000000	17.066627
2106.000000	17.032860
2105.000000	17.019311
2104.000000	16.986899
2103.000000	16.945523
2102.000000	16.904669
2101.000000	16.866003
2100.000000	16.844325
2099.000000	16.825878
2098.000000	16.800969
2097.000000	16.768453
2096.000000	16.731350
2095.000000	16.710193
2094.000000	16.696124
2093.000000	16.663398
2092.000000	16.632132
2091.000000	16.620876
2090.000000	16.593675
2089.000000	16.564180
2088.000000	16.556364
2087.000000	16.516031
2086.000000	16.487161
2085.000000	16.464129
2084.000000	16.419627
2083.000000	16.381795
2082.000000	16.351883
2081.000000	16.320409
2080.000000	16.280388
2079.000000	16.225568
2078.000000	16.170435
2077.000000	16.131770
2076.000000	16.081118
2075.000000	16.028696
2074.000000	15.976794
2073.000000	15.904465
2072.000000	15.844851
2071.000000	15.796492
2070.000000	15.737399
2069.000000	15.666634
2068.000000	15.597848
2067.000000	15.526144
2066.000000	15.460902
2065.000000	15.401705
2064.000000	15.329272
2063.000000	15.269553
2062.000000	15.204311
2061.000000	15.145010
2060.000000	15.096860
2059.000000	15.044437
2058.000000	14.996913
2057.000000	14.957517
2056.000000	14.920311
2055.000000	14.893734
2054.000000	14.878310
2053.000000	14.870702
2052.000000	14.871118
2051.000000	14.884354
2050.000000	14.901134
2049.000000	14.925730
2048.000000	14.962207
2047.000000	15.001811
2046.000000	15.047772
2045.000000	15.088522
2044.000000	15.139903
2043.000000	15.209001
2042.000000	15.257464
2041.000000	15.299256
2040.000000	15.360329
2039.000000	15.404206
2038.000000	15.450376
2037.000000	15.490814
2036.000000	15.535837
2035.000000	15.574503
2034.000000	15.607228
2033.000000	15.632032
2032.000000	15.651522
2031.000000	15.675805
2030.000000	15.682683
2029.000000	15.705820
2028.000000	15.727915
2027.000000	15.739171
2026.000000	15.728332
2025.000000	15.734481
2024.000000	15.723225
2023.000000	15.727707
2022.000000	15.722913
2021.000000	15.697379
2020.000000	15.700088
2019.000000	15.690813
2018.000000	15.671845
2017.000000	15.654544
2016.000000	15.609938
2015.000000	15.582006
2014.000000	15.547822
2013.000000	15.521767
2012.000000	15.493732
2011.000000	15.460694
2010.000000	15.410043
2009.000000	15.363248
2008.000000	15.315515
2007.000000	15.271221
2006.000000	15.220778
2005.000000	15.165020
2004.000000	15.121143
2003.000000	15.057569
2002.000000	14.978361
2001.000000	14.921040
2000.000000	14.856528
1999.000000	14.783469
1998.000000	14.718957
1997.000000	14.645273
1996.000000	14.565231
1995.000000	14.491652
1994.000000	14.404211
1993.000000	14.323961
1992.000000	14.268203
1991.000000	14.173362
1990.000000	14.079460
1989.000000	14.002441
1988.000000	13.900721
1987.000000	13.825578
1986.000000	13.733135
1985.000000	13.637044
1984.000000	13.558566
1983.000000	13.471437
1982.000000	13.382746
1981.000000	13.294471
1980.000000	13.210573
1979.000000	13.101976
1978.000000	13.015160
1977.000000	12.944186
1976.000000	12.864770
1975.000000	12.746584
1974.000000	12.663311
1973.000000	12.581498
1972.000000	12.526678
1971.000000	12.430900
1970.000000	12.327617
1969.000000	12.259978
1968.000000	12.168577
1967.000000	12.097186
1966.000000	11.996300
1965.000000	11.938666
1964.000000	11.839240
1963.000000	11.787234
1962.000000	11.691664
1961.000000	11.613915
1960.000000	11.542107
1959.000000	11.478533
1958.000000	11.375771
1957.000000	11.347632
1956.000000	11.273635
1955.000000	11.177752
1954.000000	11.110113
1953.000000	11.053105
1952.000000	10.993074
1951.000000	10.929291
1950.000000	10.869156
1949.000000	10.811417
1948.000000	10.744716
1947.000000	10.701361
1946.000000	10.654878
1945.000000	10.625384
1944.000000	10.558787
1943.000000	10.529397
1942.000000	10.519183
1941.000000	10.487813
1940.000000	10.462383
1939.000000	10.454879
1938.000000	10.444249
1937.000000	10.423196
1936.000000	10.399746
1935.000000	10.426844
1934.000000	10.443311
1933.000000	10.457485
1932.000000	10.479892
1931.000000	10.498756
1930.000000	10.546280
1929.000000	10.613920
1928.000000	10.658109
1927.000000	10.706155
1926.000000	10.769938
1925.000000	10.893439
1924.000000	10.947425
1923.000000	11.029655
1922.000000	11.139712
1921.000000	11.262588
1920.000000	11.404536
1919.000000	11.512613
1918.000000	11.649246
1917.000000	11.766286
1916.000000	11.910631
1915.000000	12.063522
1914.000000	12.208181
1913.000000	12.423709
1912.000000	12.633504
1911.000000	12.802446
1910.000000	13.010678
1909.000000	13.200360
1908.000000	13.400984
1907.000000	13.612239
1906.000000	13.866641
1905.000000	14.162523
1904.000000	14.465075
1903.000000	14.763667
1902.000000	15.044229
1901.000000	15.339277
1900.000000	15.653919
1899.000000	16.013479
1898.000000	16.399199
1897.000000	16.771892
1896.000000	17.120822
1895.000000	17.479862
1894.000000	17.846093
1893.000000	18.252761
1892.000000	18.706641
1891.000000	19.222324
1890.000000	19.722061
1889.000000	20.187823
1888.000000	20.696940
1887.000000	21.221690
1886.000000	21.727993
1885.000000	22.256912
1884.000000	22.801777
1883.000000	23.374469
1882.000000	23.965086
1881.000000	24.486397
1880.000000	25.035743
1879.000000	25.530270
1878.000000	26.024588
1877.000000	26.531412
1876.000000	27.035214
1875.000000	27.512439
1874.000000	27.977992
1873.000000	28.423952
1872.000000	28.880854
1871.000000	29.295861
1870.000000	29.674910
1869.000000	30.025612
1868.000000	30.376106
1867.000000	30.629674
1866.000000	30.859689
1865.000000	31.074904
1864.000000	31.272923
1863.000000	31.453537
1862.000000	31.633318
1861.000000	31.836235
1860.000000	32.055098
1859.000000	32.235400
1858.000000	32.390167
1857.000000	32.541808
1856.000000	32.683235
1855.000000	32.757440
1854.000000	32.867601
1853.000000	32.937950
1852.000000	32.985162
1851.000000	33.069268
1850.000000	33.130862
1849.000000	33.197459
1848.000000	33.256031
1847.000000	33.310330
1846.000000	33.320543
1845.000000	33.288131
1844.000000	33.283441
1843.000000	33.278230
1842.000000	33.308350
1841.000000	33.355249
1840.000000	33.385785
1839.000000	33.387245
1838.000000	33.368381
1837.000000	33.360460
1836.000000	33.350767
1835.000000	33.316479
1834.000000	33.259262
1833.000000	33.200794
1832.000000	33.153686
1831.000000	33.124609
1830.000000	33.100430
1829.000000	33.071456
1828.000000	33.035500
1827.000000	32.975261
1826.000000	32.923463
1825.000000	32.884693
1824.000000	32.830916
1823.000000	32.791520
1822.000000	32.793188
1821.000000	32.820493
1820.000000	32.797148
1819.000000	32.758587
1818.000000	32.702620
1817.000000	32.662599
1816.000000	32.633105
1815.000000	32.621537
1814.000000	32.595690
1813.000000	32.573595
1812.000000	32.545143
1811.000000	32.515440
1810.000000	32.492303
1809.000000	32.445091
1808.000000	32.412158
1807.000000	32.379641
1806.000000	32.334305
1805.000000	32.285425
1804.000000	32.245405
1803.000000	32.216431
1802.000000	32.181101
1801.000000	32.146708
1800.000000	32.096786
1799.000000	32.029356
1798.000000	31.992983
1797.000000	31.954317
1796.000000	31.894286
1795.000000	31.859059
1794.000000	31.828731
1793.000000	31.782874
1792.000000	31.742749
1791.000000	31.715548
1790.000000	31.675944
1789.000000	31.634464
1788.000000	31.608513
1787.000000	31.582146
1786.000000	31.534829
1785.000000	31.507003
1784.000000	31.467503
1783.000000	31.414351
1782.000000	31.374330
1781.000000	31.338270
1780.000000	31.297415
1779.000000	31.246556
1778.000000	31.197676
1777.000000	31.166827
1776.000000	31.131809
1775.000000	31.079282
1774.000000	31.021335
1773.000000	30.969850
1772.000000	30.918157
1771.000000	30.845307
1770.000000	30.799241
1769.000000	30.764744
1768.000000	30.686891
1767.000000	30.627694
1766.000000	30.581316
1765.000000	30.526392
1764.000000	30.485329
1763.000000	30.454792
1762.000000	30.451145
1761.000000	30.456460
1760.000000	30.479076
1759.000000	30.510863
1758.000000	30.560159
1757.000000	30.610394
1756.000000	30.665318
1755.000000	30.719304
1754.000000	30.769538
1753.000000	30.821649
1752.000000	30.854582
1751.000000	30.883347
1750.000000	30.904504
1749.000000	30.911070
1748.000000	30.904817
1747.000000	30.891476
1746.000000	30.860731
1745.000000	30.834051
1744.000000	30.807787
1743.000000	30.738585
1742.000000	30.660524
1741.000000	30.570581
1740.000000	30.466674
1739.000000	30.349530
1738.000000	30.226341
1737.000000	30.113575
1736.000000	29.994346
1735.000000	29.905238
1734.000000	29.832388
1733.000000	29.765374
1732.000000	29.723894
1731.000000	29.714514
1730.000000	29.738798
1729.000000	29.769855
1728.000000	29.813941
1727.000000	29.873972
1726.000000	29.920246
1725.000000	29.981631
1724.000000	30.039891
1723.000000	30.098150
1722.000000	30.155471
1721.000000	30.230614
1720.000000	30.299504
1719.000000	30.375168
1718.000000	30.455939
1717.000000	30.543484
1716.000000	30.636553
1715.000000	30.738585
1714.000000	30.833947
1713.000000	30.948485
1712.000000	31.041137
1711.000000	31.107630
1710.000000	31.195383
1709.000000	31.232798
1708.000000	31.269484
1707.000000	31.305127
1706.000000	31.315237
1705.000000	31.319406
1704.000000	31.280948
1703.000000	31.238843
1702.000000	31.187046
1701.000000	31.117426
1700.000000	31.048849
1699.000000	30.961617
1698.000000	30.866359
1697.000000	30.765370
1696.000000	30.679075
1695.000000	30.607371
1694.000000	30.570165
1693.000000	30.553906
1692.000000	30.592780
1691.000000	30.631238
1690.000000	30.701274
1689.000000	30.809038
1688.000000	30.888767
1687.000000	30.960575
1686.000000	31.070319
1685.000000	31.145566
1684.000000	31.234049
1683.000000	31.358697
1682.000000	31.474382
1681.000000	31.687929
1680.000000	31.928053
1679.000000	32.215494
1678.000000	32.517316
1677.000000	32.840087
1676.000000	33.171821
1675.000000	33.490631
1674.000000	33.745763
1673.000000	34.001312
1672.000000	34.212358
1671.000000	34.424655
1670.000000	34.590783
1669.000000	34.766707
1668.000000	34.903444
1667.000000	35.029238
1666.000000	35.116888
1665.000000	35.209436
1664.000000	35.300837
1663.000000	35.374417
1662.000000	35.449977
1661.000000	35.514593
1660.000000	35.552946
1659.000000	35.601513
1658.000000	35.662899
1657.000000	35.669569
1656.000000	35.718136
1655.000000	35.755655
1654.000000	35.735020
1653.000000	35.754196
1652.000000	35.740648
1651.000000	35.741064
1650.000000	35.724389
1649.000000	35.696562
1648.000000	35.670611
1647.000000	35.619752
1646.000000	35.604640
1645.000000	35.581711
1644.000000	35.538877
1643.000000	35.493228
1642.000000	35.468841
1641.000000	35.414646
1640.000000	35.386298
1639.000000	35.350342
1638.000000	35.285725
1637.000000	35.230071
1636.000000	35.193386
1635.000000	35.145132
1634.000000	35.075095
1633.000000	35.041849
1632.000000	34.977545
1631.000000	34.926477
1630.000000	34.850396
1629.000000	34.794221
1628.000000	34.729917
1627.000000	34.653732
1626.000000	34.579110
1625.000000	34.532107
1624.000000	34.458423
1623.000000	34.384635
1622.000000	34.324291
1621.000000	34.249565
1620.000000	34.192348
1619.000000	34.127523
1618.000000	34.056444
1617.000000	34.004230
1616.000000	33.950661
1615.000000	33.881458
1614.000000	33.822469
1613.000000	33.747326
1612.000000	33.687816
1611.000000	33.619448
1610.000000	33.568797
1609.000000	33.514810
1608.000000	33.444045
1607.000000	33.365984
1606.000000	33.301888
1605.000000	33.249361
1604.000000	33.180263
1603.000000	33.086777
1602.000000	33.015490
1601.000000	32.971301
1600.000000	32.905537
1599.000000	32.822578
1598.000000	32.742432
1597.000000	32.667915
1596.000000	32.604132
1595.000000	32.527530
1594.000000	32.468958
1593.000000	32.396003
1592.000000	32.329511
1591.000000	32.272294
1590.000000	32.221017
1589.000000	32.147438
1588.000000	32.081153
1587.000000	32.030502
1586.000000	31.977454
1585.000000	31.923259
1584.000000	31.858330
1583.000000	31.785271
1582.000000	31.720446
1581.000000	31.684177
1580.000000	31.625710
1579.000000	31.564845
1578.000000	31.534100
1577.000000	31.468649
1576.000000	31.425919
1575.000000	31.386628
1574.000000	31.338582
1573.000000	31.318259
1572.000000	31.287514
1571.000000	31.239677
1570.000000	31.219979
1569.000000	31.202470
1568.000000	31.174122
1567.000000	31.147025
1566.000000	31.119615
1565.000000	31.100022
1564.000000	31.071569
1563.000000	31.060105
1562.000000	31.018208
1561.000000	30.987568
1560.000000	30.963388
1559.000000	30.932122
1558.000000	30.889705
1557.000000	30.858334
1556.000000	30.802368
1555.000000	30.759637
1554.000000	30.710550
1553.000000	30.658960
1552.000000	30.610915
1551.000000	30.546402
1550.000000	30.484704
1549.000000	30.436137
1548.000000	30.376836
1547.000000	30.301276
1546.000000	30.239786
1545.000000	30.184236
1544.000000	30.141297
1543.000000	30.085435
1542.000000	30.037181
1541.000000	29.998619
1540.000000	29.953596
1539.000000	29.909198
1538.000000	29.856984
1537.000000	29.816755
1536.000000	29.770793
1535.000000	29.707010
1534.000000	29.661570
1533.000000	29.625093
1532.000000	29.562040
1531.000000	29.505656
1530.000000	29.461571
1529.000000	29.404667
1528.000000	29.334735
1527.000000	29.264282
1526.000000	29.204876
1525.000000	29.134736
1524.000000	29.071057
1523.000000	29.006544
1522.000000	28.947556
1521.000000	28.882105
1520.000000	28.803940
1519.000000	28.728901
1518.000000	28.655426
1517.000000	28.581429
1516.000000	28.505452
1515.000000	28.428746
1514.000000	28.347975
1513.000000	28.268663
1512.000000	28.189247
1511.000000	28.110352
1510.000000	28.036356
1509.000000	27.952146
1508.000000	27.870958
1507.000000	27.792167
1506.000000	27.705664
1505.000000	27.621141
1504.000000	27.540162
1503.000000	27.469188
1502.000000	27.389980
1501.000000	27.291596
1500.000000	27.213014
1499.000000	27.142248
1498.000000	27.066584
1497.000000	26.987689
1496.000000	26.920154
1495.000000	26.857309
1494.000000	26.797174
1493.000000	26.730994
1492.000000	26.664293
1491.000000	26.611036
1490.000000	26.545482
1489.000000	26.484617
1488.000000	26.427712
1487.000000	26.395196
1486.000000	26.341314
1485.000000	26.281908
1484.000000	26.226880
1483.000000	26.171851
1482.000000	26.127141
1481.000000	26.089204
1480.000000	26.053769
1479.000000	26.016875
1478.000000	25.965807
1477.000000	25.945693
1476.000000	25.929955
1475.000000	25.892644
1474.000000	25.870029
1473.000000	25.850331
1472.000000	25.844286
1471.000000	25.832092
1470.000000	25.823755
1469.000000	25.820420
1468.000000	25.809998
1467.000000	25.796657
1466.000000	25.807184
1465.000000	25.820524
1464.000000	25.817293
1463.000000	25.818856
1462.000000	25.851373
1461.000000	25.869820
1460.000000	25.893895
1459.000000	25.922347
1458.000000	25.968308
1457.000000	26.018439
1456.000000	26.063879
1455.000000	26.107756
1454.000000	26.163305
1453.000000	26.221981
1452.000000	26.299417
1451.000000	26.390297
1450.000000	26.456686
1449.000000	26.514320
1448.000000	26.563303
1447.000000	26.664189
1446.000000	26.747774
1445.000000	26.823438
1444.000000	26.899936
1443.000000	26.987585
1442.000000	27.092327
1441.000000	27.181748
1440.000000	27.268042
1439.000000	27.369970
1438.000000	27.475337
1437.000000	27.598109
1436.000000	27.695763
1435.000000	27.823954
1434.000000	27.959233
1433.000000	28.099201
1432.000000	28.236042
1431.000000	28.368715
1430.000000	28.493050
1429.000000	28.641877
1428.000000	28.823533
1427.000000	28.970171
1426.000000	29.155163
1425.000000	29.350159
1424.000000	29.548908
1423.000000	29.748073
1422.000000	29.957869
1421.000000	30.163392
1420.000000	30.423839
1419.000000	30.681889
1418.000000	30.908256
1417.000000	31.145462
1416.000000	31.385377
1415.000000	31.688763
1414.000000	31.999444
1413.000000	32.303456
1412.000000	32.586518
1411.000000	32.859993
1410.000000	33.216948
1409.000000	33.618614
1408.000000	33.979947
1407.000000	34.374838
1406.000000	34.756702
1405.000000	35.142422
1404.000000	35.544296
1403.000000	35.977437
1402.000000	36.351067
1401.000000	36.807657
1400.000000	37.298640
1399.000000	37.736053
1398.000000	38.088527
1397.000000	38.452361
1396.000000	38.915933
1395.000000	39.407333
1394.000000	39.862360
1393.000000	40.239117
1392.000000	40.664128
1391.000000	41.145523
1390.000000	41.598569
1389.000000	42.026498
1388.000000	42.583036
1387.000000	43.128213
1386.000000	43.655048
1385.000000	44.163748
1384.000000	44.726643
1383.000000	45.243264
1382.000000	45.778853
1381.000000	46.245240
1380.000000	46.640340
1379.000000	46.927050
1378.000000	47.223870
1377.000000	47.463682
1376.000000	47.697448
1375.000000	47.925066
1374.000000	48.125065
1373.000000	48.349764
1372.000000	48.632098
1371.000000	48.892962
1370.000000	49.187593
1369.000000	49.415627
1368.000000	49.656689
1367.000000	49.909841
1366.000000	50.095875
1365.000000	50.260856
1364.000000	50.488682
1363.000000	50.621459
1362.000000	50.810619
1361.000000	50.965178
1360.000000	51.116297
1359.000000	51.135682
1358.000000	51.271482
1357.000000	51.367886
1356.000000	51.493576
1355.000000	51.640318
1354.000000	51.866789
1353.000000	52.073042
1352.000000	52.252614
1351.000000	52.576635
1350.000000	52.874289
1349.000000	53.137341
1348.000000	53.412692
1347.000000	53.709720
1346.000000	53.966832
1345.000000	54.197368
1344.000000	54.477096
1343.000000	54.728580
1342.000000	54.957135
1341.000000	55.205910
1340.000000	55.446346
1339.000000	55.687513
1338.000000	55.911378
1337.000000	56.146708
1336.000000	56.388604
1335.000000	56.618306
1334.000000	56.843526
1333.000000	57.057491
1332.000000	57.267808
1331.000000	57.488339
1330.000000	57.705013
1329.000000	57.910849
1328.000000	58.090108
1327.000000	58.271347
1326.000000	58.475307
1325.000000	58.657276
1324.000000	58.835389
1323.000000	59.016836
1322.000000	59.168165
1321.000000	59.333146
1320.000000	59.494166
1319.000000	59.638929
1318.000000	59.800262
1317.000000	59.930121
1316.000000	60.062481
1315.000000	60.187233
1314.000000	60.323032
1313.000000	60.460395
1312.000000	60.563781
1311.000000	60.694474
1310.000000	60.784416
1309.000000	60.889991
1308.000000	61.004738
1307.000000	61.099683
1306.000000	61.182121
1305.000000	61.274982
1304.000000	61.321985
1303.000000	61.395878
1302.000000	61.476127
1301.000000	61.531885
1300.000000	61.594105
1299.000000	61.665705
1298.000000	61.690405
1297.000000	61.727924
1296.000000	61.759190
1295.000000	61.803901
1294.000000	61.859867
1293.000000	61.893843
1292.000000	61.910519
1291.000000	61.924693
1290.000000	61.947308
1289.000000	61.960857
1288.000000	61.967006
1287.000000	61.974093
1286.000000	61.972947
1285.000000	61.959294
1284.000000	61.950227
1283.000000	61.936469
1282.000000	61.915938
1281.000000	61.904161
1280.000000	61.887486
1279.000000	61.854865
1278.000000	61.827351
1277.000000	61.815991
1276.000000	61.785141
1275.000000	61.770446
1274.000000	61.762213
1273.000000	61.738242
1272.000000	61.728550
1271.000000	61.715522
1270.000000	61.706038
1269.000000	61.694782
1268.000000	61.678003
1267.000000	61.662995
1266.000000	61.637044
1265.000000	61.610468
1264.000000	61.582328
1263.000000	61.564194
1262.000000	61.546372
1261.000000	61.517607
1260.000000	61.487904
1259.000000	61.462475
1258.000000	61.428186
1257.000000	61.383892
1256.000000	61.358671
1255.000000	61.314065
1254.000000	61.268520
1253.000000	61.221829
1252.000000	61.176389
1251.000000	61.126051
1250.000000	61.068834
1249.000000	61.008490
1248.000000	60.954295
1247.000000	60.895828
1246.000000	60.821206
1245.000000	60.740331
1244.000000	60.660602
1243.000000	60.569930
1242.000000	60.497184
1241.000000	60.429754
1240.000000	60.350129
1239.000000	60.260812
1238.000000	60.177019
1237.000000	60.093851
1236.000000	60.002033
1235.000000	59.918656
1234.000000	59.855082
1233.000000	59.774103
1232.000000	59.668527
1231.000000	59.567954
1230.000000	59.472072
1229.000000	59.378794
1228.000000	59.279785
1227.000000	59.180463
1226.000000	59.082704
1225.000000	58.977858
1224.000000	58.871970
1223.000000	58.761079
1222.000000	58.655608
1221.000000	58.553785
1220.000000	58.428616
1219.000000	58.312202
1218.000000	58.206939
1217.000000	58.094172
1216.000000	57.995476
1215.000000	57.898029
1214.000000	57.799437
1213.000000	57.694487
1212.000000	57.593289
1211.000000	57.496155
1210.000000	57.398917
1209.000000	57.302409
1208.000000	57.207985
1207.000000	57.113562
1206.000000	57.023203
1205.000000	56.948372
1204.000000	56.879691
1203.000000	56.796002
1202.000000	56.731177
1201.000000	56.676357
1200.000000	56.630083
1199.000000	56.570156
1198.000000	56.499911
1197.000000	56.415701
1196.000000	56.334722
1195.000000	56.237172
1194.000000	56.103665
1193.000000	55.951920
1192.000000	55.783604
1191.000000	55.591213
1190.000000	55.370474
1189.000000	55.157656
1188.000000	54.961721
1187.000000	54.798720
1186.000000	54.688976
1185.000000	54.637595
1184.000000	54.622275
1183.000000	54.689289
1182.000000	54.828006
1181.000000	55.025296
1180.000000	55.258333
1179.000000	55.517737
1178.000000	55.786731
1177.000000	56.036026
1176.000000	56.266353
1175.000000	56.471563
1174.000000	56.659369
1173.000000	56.846132
1172.000000	57.025912
1171.000000	57.219762
1170.000000	57.408089
1169.000000	57.596311
1168.000000	57.790682
1167.000000	57.995580
1166.000000	58.223823
1165.000000	58.447897
1164.000000	58.672805
1163.000000	58.901569
1162.000000	59.116471
1161.000000	59.366600
1160.000000	59.629653
1159.000000	59.877489
1158.000000	60.123554
1157.000000	60.379103
1156.000000	60.589420
1155.000000	60.829335
1154.000000	61.030272
1153.000000	61.214951
1152.000000	61.388895
1151.000000	61.541161
1150.000000	61.681233
1149.000000	61.829539
1148.000000	61.965860
1147.000000	62.127193
1146.000000	62.271434
1145.000000	62.454966
1144.000000	62.642459
1143.000000	62.857883
1142.000000	63.120206
1141.000000	63.375650
1140.000000	63.670282
1139.000000	63.944694
1138.000000	64.242244
1137.000000	64.563972
1136.000000	64.897999
1135.000000	65.235257
1134.000000	65.594088
1133.000000	65.915608
1132.000000	66.151355
1131.000000	66.423058
1130.000000	66.652238
1129.000000	66.882670
1128.000000	67.063909
1127.000000	67.225451
1126.000000	67.343533
1125.000000	67.460677
1124.000000	67.546971
1123.000000	67.639207
1122.000000	67.699967
1121.000000	67.746345
1120.000000	67.773234
1119.000000	67.813151
1118.000000	67.832223
1117.000000	67.866720
1116.000000	67.890482
1115.000000	67.880790
1114.000000	67.875996
1113.000000	67.893713
1112.000000	67.879539
1111.000000	67.886418
1110.000000	67.893609
1109.000000	67.879331
1108.000000	67.859841
1107.000000	67.864427
1106.000000	67.876412
1105.000000	67.894755
1104.000000	67.884854
1103.000000	67.893505
1102.000000	67.894547
1101.000000	67.906324
1100.000000	67.913098
1099.000000	67.905281
1098.000000	67.911118
1097.000000	67.895485
1096.000000	67.898924
1095.000000	67.908095
1094.000000	67.885375
1093.000000	67.900696
1092.000000	67.892045
1091.000000	67.895485
1090.000000	67.883708
1089.000000	67.876204
1088.000000	67.868075
1087.000000	67.841082
1086.000000	67.842332
1085.000000	67.809190
1084.000000	67.797205
1083.000000	67.772192
1082.000000	67.750097
1081.000000	67.753536
1080.000000	67.741655
1079.000000	67.700488
1078.000000	67.664219
1077.000000	67.668701
1076.000000	67.642542
1075.000000	67.618050
1074.000000	67.566878
1073.000000	67.552287
1072.000000	67.535195
1071.000000	67.494861
1070.000000	67.447858
1069.000000	67.432642
1068.000000	67.389286
1067.000000	67.379906
1066.000000	67.326649
1065.000000	67.300698
1064.000000	67.259219
1063.000000	67.223679
1062.000000	67.183867
1061.000000	67.141554
1060.000000	67.115707
1059.000000	67.106848
1058.000000	67.052549
1057.000000	67.005650
1056.000000	66.956145
1055.000000	66.930924
1054.000000	66.902055
1053.000000	66.864848
1052.000000	66.829518
1051.000000	66.795854
1050.000000	66.767715
1049.000000	66.734052
1048.000000	66.716959
1047.000000	66.686631
1046.000000	66.669226
1045.000000	66.658909
1044.000000	66.636918
1043.000000	66.599920
1042.000000	66.608883
1041.000000	66.589289
1040.000000	66.560108
1039.000000	66.533114
1038.000000	66.513729
1037.000000	66.498617
1036.000000	66.467456
1035.000000	66.460577
1034.000000	66.447758
1033.000000	66.416909
1032.000000	66.416700
1031.000000	66.374908
1030.000000	66.343433
1029.000000	66.338952
1028.000000	66.326758
1027.000000	66.288926
1026.000000	66.268707
1025.000000	66.266102
1024.000000	66.238379
1023.000000	66.225768
1022.000000	66.206279
1021.000000	66.171782
1020.000000	66.141662
1019.000000	66.135096
1018.000000	66.131866
1017.000000	66.111126
1016.000000	66.087989
1015.000000	66.082569
1014.000000	66.085071
1013.000000	66.088510
1012.000000	66.091011
1011.000000	66.095701
1010.000000	66.101850
1009.000000	66.109145
1008.000000	66.124779
1007.000000	66.132387
1006.000000	66.166050
1005.000000	66.178765
1004.000000	66.189083
1003.000000	66.217118
1002.000000	66.225872
1001.000000	66.240359
1000.000000	66.256201
999.000000	66.268290
998.000000	66.285695
997.000000	66.320088
996.000000	66.333845
995.000000	66.352500
994.000000	66.372615
993.000000	66.410134
992.000000	66.454741
991.000000	66.484131
990.000000	66.521859
989.000000	66.567403
988.000000	66.602942
987.000000	66.649737
986.000000	66.702160
985.000000	66.761149
984.000000	66.807006
983.000000	66.870789
982.000000	66.917063
981.000000	66.979387
980.000000	67.053487
979.000000	67.124253
978.000000	67.182721
977.000000	67.239000
976.000000	67.294132
975.000000	67.363752
974.000000	67.426597
973.000000	67.500385
972.000000	67.556247
971.000000	67.612630
970.000000	67.682145
969.000000	67.755204
968.000000	67.819091
967.000000	67.884958
966.000000	67.954995
965.000000	68.018882
964.000000	68.087563
963.000000	68.159267
962.000000	68.228678
961.000000	68.292252
960.000000	68.353117
959.000000	68.423570
958.000000	68.485477
957.000000	68.539046
956.000000	68.622735
955.000000	68.708509
954.000000	68.768227
953.000000	68.819399
952.000000	68.885371
951.000000	68.967184
950.000000	69.052332
949.000000	69.123411
948.000000	69.194906
947.000000	69.275051
946.000000	69.351237
945.000000	69.427422
944.000000	69.504128
943.000000	69.586358
942.000000	69.649620
941.000000	69.713194
940.000000	69.800740
939.000000	69.871193
938.000000	69.925700
937.000000	69.989379
936.000000	70.055038
935.000000	70.128513
934.000000	70.186251
933.000000	70.221165
932.000000	70.255037
931.000000	70.298914
930.000000	70.357277
929.000000	70.388231
928.000000	70.419497
927.000000	70.457746
926.000000	70.508293
925.000000	70.544666
924.000000	70.576453
923.000000	70.618662
922.000000	70.681090
921.000000	70.736744
920.000000	70.793961
919.000000	70.848468
918.000000	70.902976
917.000000	70.965925
916.000000	71.021579
915.000000	71.087759
914.000000	71.155710
913.000000	71.215741
912.000000	71.279524
911.000000	71.343828
910.000000	71.419388
909.000000	71.501410
908.000000	71.570299
907.000000	71.650653
906.000000	71.734343
905.000000	71.819908
904.000000	71.912560
903.000000	72.001251
902.000000	72.107348
901.000000	72.210109
900.000000	72.314851
899.000000	72.415007
898.000000	72.509326
897.000000	72.626053
896.000000	72.724229
895.000000	72.812295
894.000000	72.902133
893.000000	73.006562
892.000000	73.100777
891.000000	73.190303
890.000000	73.279099
889.000000	73.357994
888.000000	73.442100
887.000000	73.537357
886.000000	73.624069
885.000000	73.701504
884.000000	73.776543
883.000000	73.839909
882.000000	73.916199
881.000000	73.974666
880.000000	74.056584
879.000000	74.139647
878.000000	74.220835
877.000000	74.299939
876.000000	74.372789
875.000000	74.421564
874.000000	74.506504
873.000000	74.548609
872.000000	74.531725
871.000000	74.539020
870.000000	74.599156
869.000000	74.760176
868.000000	74.954547
867.000000	75.179559
866.000000	75.406135
865.000000	75.636045
864.000000	75.856263
863.000000	76.098472
862.000000	76.345370
861.000000	76.594874
860.000000	76.867932
859.000000	77.105346
858.000000	77.363500
857.000000	76.798800
856.000000	77.186500
855.000000	78.105200
854.000000	78.371300
853.000000	78.156100
852.000000	78.635600
851.000000	78.988300
850.000000	79.317200
849.000000	79.905000
848.000000	79.854600
847.000000	80.192000
846.000000	80.640700
845.000000	80.954700
844.000000	81.323800
843.000000	81.751000
842.000000	81.848400
841.000000	81.951300
840.000000	82.484900
839.000000	83.204400
838.000000	82.903500
837.000000	83.323100
836.000000	83.796600
835.000000	83.961200
834.000000	84.559200
833.000000	84.625000
832.000000	85.040100
831.000000	85.632600
830.000000	85.849200
829.000000	85.894400
828.000000	86.409100
827.000000	86.864700
826.000000	86.837700
825.000000	87.411400
824.000000	87.769800
823.000000	88.116100
822.000000	88.394700
821.000000	88.690700
820.000000	88.860500
819.000000	89.201500
818.000000	89.438000
817.000000	89.628900
816.000000	89.636800
815.000000	89.986900
814.000000	90.174600
813.000000	90.317200
812.000000	90.538100
811.000000	90.376000
810.000000	90.944400
809.000000	90.857000
808.000000	91.139400
807.000000	91.089100
806.000000	91.315600
805.000000	91.470300
804.000000	91.561300
803.000000	91.577800
802.000000	91.471200
801.000000	91.517400
800.000000	91.605000
799.000000	91.611900
798.000000	91.689300
797.000000	91.681000
796.000000	91.607800
795.000000	91.668700
794.000000	91.652000
793.000000	91.691800
792.000000	91.614800
791.000000	91.617100
790.000000	91.168000
789.000000	91.399800
788.000000	91.287400
787.000000	91.392000
786.000000	91.392300
785.000000	91.006800
784.000000	91.267400
783.000000	91.294300
782.000000	91.138300
781.000000	90.961700
780.000000	91.006300
779.000000	91.177600
778.000000	90.910000
777.000000	90.820500
776.000000	90.705900
775.000000	90.727000
774.000000	90.644800
773.000000	90.536900
772.000000	90.429600
771.000000	90.603700
770.000000	90.480700
769.000000	90.361100
768.000000	90.259900
767.000000	90.265300
766.000000	90.322400
765.000000	90.295100
764.000000	90.172100
763.000000	90.067500
762.000000	90.124200
761.000000	89.901800
760.000000	89.906500
759.000000	89.731700
758.000000	89.691100
757.000000	89.452400
756.000000	89.171300
755.000000	89.204800
754.000000	89.068800
753.000000	88.933800
752.000000	88.704000
751.000000	88.569700
750.000000	88.301500
749.000000	88.131900
748.000000	88.029400
747.000000	87.855400
746.000000	87.530400
745.000000	87.435200
744.000000	87.223400
743.000000	87.009300
742.000000	86.849200
741.000000	86.562800
740.000000	86.440100
739.000000	86.112100
738.000000	85.883400
737.000000	85.610800
736.000000	85.276500
735.000000	84.966600
734.000000	84.741800
733.000000	84.349600
732.000000	83.926300
731.000000	83.655700
730.000000	83.342500
729.000000	83.032200
728.000000	82.562500
727.000000	82.276200
726.000000	81.949300
725.000000	81.707000
724.000000	81.447900
723.000000	81.147600
722.000000	80.833500
721.000000	80.589900
720.000000	80.367200
719.000000	80.154600
718.000000	79.961800
717.000000	79.789600
716.000000	79.542100
715.000000	79.335300
714.000000	79.137500
713.000000	78.942300
712.000000	78.871300
711.000000	78.680800
710.000000	78.616900
709.000000	78.472200
708.000000	78.334300
707.000000	78.117000
706.000000	77.950900
705.000000	77.762600
704.000000	77.632800
703.000000	77.503400
702.000000	77.258400
701.000000	77.002200
700.000000	76.711900
699.000000	76.449300
698.000000	76.089100
697.000000	75.680600
696.000000	75.230100
695.000000	74.794400
694.000000	74.332600
693.000000	73.792200
692.000000	73.164400
691.000000	72.538400
690.000000	71.890700
689.000000	71.296600
688.000000	70.578100
687.000000	69.844600
686.000000	69.086300
685.000000	68.356500
684.000000	67.576200
683.000000	66.703100
682.000000	65.896700
681.000000	65.062500
680.000000	64.214400
679.000000	63.335300
678.000000	62.478500
677.000000	61.626700
676.000000	60.803200
675.000000	60.000300
674.000000	59.264200
673.000000	58.518600
672.000000	57.798500
671.000000	57.163100
670.000000	56.615300
669.000000	56.179100
668.000000	55.797900
667.000000	55.531400
666.000000	55.324200
665.000000	55.237600
664.000000	55.269400
663.000000	55.367600
662.000000	55.607200
661.000000	55.890900
660.000000	56.301500
659.000000	56.831000
658.000000	57.396000
657.000000	58.020500
656.000000	58.689200
655.000000	59.399200
654.000000	60.155000
653.000000	60.929100
652.000000	61.713000
651.000000	62.510300
650.000000	63.313600
649.000000	64.097200
648.000000	64.942300
647.000000	65.743600
646.000000	66.514400
645.000000	67.360300
644.000000	68.229600
643.000000	69.034000
642.000000	69.832400
641.000000	70.706600
640.000000	71.540900
639.000000	72.345700
638.000000	73.135000
637.000000	73.888600
636.000000	74.601700
635.000000	75.278000
634.000000	75.970000
633.000000	76.579800
632.000000	77.125000
631.000000	77.703100
630.000000	78.255000
629.000000	78.755500
628.000000	79.187900
627.000000	79.592000
626.000000	80.032200
625.000000	80.494900
624.000000	80.982200
623.000000	81.397400
622.000000	81.846000
621.000000	82.334700
620.000000	82.839200
619.000000	83.315800
618.000000	83.787500
617.000000	84.265800
616.000000	84.744100
615.000000	85.149100
614.000000	85.531000
613.000000	85.949200
612.000000	86.316100
611.000000	86.653300
610.000000	86.961900
609.000000	87.221200
608.000000	87.452300
607.000000	87.651800
606.000000	87.842200
605.000000	87.978500
604.000000	88.093700
603.000000	88.246500
602.000000	88.350800
601.000000	88.405900
600.000000	88.484000
599.000000	88.558000
598.000000	88.614200
597.000000	88.652600
596.000000	88.705200
595.000000	88.774000
594.000000	88.800900
593.000000	88.855200
592.000000	88.849600
591.000000	88.825600
590.000000	88.810000
589.000000	88.782900
588.000000	88.784400
587.000000	88.740400
586.000000	88.650600
585.000000	88.534600
584.000000	88.387900
583.000000	88.302000
582.000000	88.150300
581.000000	87.935200
580.000000	87.731800
579.000000	87.487200
578.000000	87.296700
577.000000	87.042100
576.000000	86.786400
575.000000	86.524100
574.000000	86.214400
573.000000	85.924200
572.000000	85.626500
571.000000	85.323200
570.000000	85.013900
569.000000	84.648200
568.000000	84.331200
567.000000	83.971900
566.000000	83.612300
565.000000	83.251800
564.000000	82.789500
563.000000	82.359700
562.000000	81.908400
561.000000	81.437500
560.000000	80.923300
559.000000	80.385600
558.000000	79.839500
557.000000	79.263800
556.000000	78.686900
555.000000	78.098600
554.000000	77.468800
553.000000	76.831500
552.000000	76.141800
551.000000	75.473700
550.000000	74.744400
549.000000	73.944700
548.000000	73.106400
547.000000	72.217100
546.000000	71.288000
545.000000	70.237500
544.000000	69.207100
543.000000	68.066300
542.000000	66.897400
541.000000	65.656700
540.000000	64.382000
539.000000	63.080600
538.000000	61.745000
537.000000	60.386700
536.000000	58.993100
535.000000	57.565800
534.000000	56.142200
533.000000	54.703800
532.000000	53.269800
531.000000	51.844200
530.000000	50.430500
529.000000	49.035900
528.000000	47.734100
527.000000	46.495800
526.000000	45.279200
525.000000	44.107700
524.000000	43.025900
523.000000	42.017900
522.000000	41.064600
521.000000	40.204900
520.000000	39.364900
519.000000	38.672200
518.000000	37.999300
517.000000	37.418700
516.000000	36.904400
515.000000	36.403000
514.000000	35.989500
513.000000	35.625600
512.000000	35.264400
511.000000	34.968100
510.000000	34.648200
509.000000	34.343800
508.000000	34.104800
507.000000	33.811200
506.000000	33.533900
505.000000	33.222100
504.000000	32.914100
503.000000	32.587100
502.000000	32.251500
501.000000	31.884700
500.000000	31.476500
499.000000	31.059000
498.000000	30.686400
497.000000	30.279900
496.000000	29.873800
495.000000	29.405200
494.000000	28.953000
493.000000	28.511200
492.000000	28.126600
491.000000	27.712600
490.000000	27.320800
489.000000	26.934200
488.000000	26.623000
487.000000	26.299000
486.000000	26.007400
485.000000	25.738300
484.000000	25.506600
483.000000	25.290300
482.000000	25.166600
481.000000	25.028200
480.000000	24.926700
479.000000	24.847000
478.000000	24.786100
477.000000	24.772100
476.000000	24.811900
475.000000	24.834600
474.000000	24.894100
473.000000	24.949000
472.000000	25.038800
471.000000	25.137800
470.000000	25.260400
469.000000	25.368200
468.000000	25.491400
467.000000	25.598400
466.000000	25.722700
465.000000	25.826600
464.000000	25.955500
463.000000	26.053800
462.000000	26.106900
461.000000	26.186700
460.000000	26.272000
459.000000	26.299600
458.000000	26.333000
457.000000	26.340200
456.000000	26.373900
455.000000	26.315400
454.000000	26.269100
453.000000	26.189900
452.000000	26.155100
451.000000	26.038400
450.000000	25.945300
449.000000	25.812300
448.000000	25.697600
447.000000	25.552900
446.000000	25.370700
445.000000	25.178000
444.000000	24.970300
443.000000	24.765400
442.000000	24.537500
441.000000	24.274200
440.000000	24.003800
439.000000	23.734800
438.000000	23.455500
437.000000	23.140900
436.000000	22.839400
435.000000	22.550000
434.000000	22.219600
433.000000	21.886800
432.000000	21.512600
431.000000	21.152100
430.000000	20.800200
429.000000	20.368200
428.000000	19.964900
427.000000	19.607700
426.000000	19.217800
425.000000	18.801900
424.000000	18.363700
423.000000	17.891700
422.000000	17.472000
421.000000	17.023300
420.000000	16.565400
419.000000	16.095100
418.000000	15.634200
417.000000	15.216100
416.000000	14.770800
415.000000	14.334800
414.000000	13.874800
413.000000	13.462700
412.000000	13.032300
411.000000	12.631900
410.000000	12.231600
409.000000	11.836100
408.000000	11.464400
407.000000	11.103700
406.000000	10.773200
405.000000	10.431400
404.000000	10.116900
403.000000	9.793100
402.000000	9.525100
401.000000	9.260200
400.000000	8.980200
399.000000	8.720800
398.000000	8.510100
397.000000	8.289200
396.000000	8.102100
395.000000	7.891600
394.000000	7.676800
393.000000	7.545400
392.000000	7.396300
391.000000	7.246200
390.000000	7.116100
389.000000	6.992500
388.000000	6.879200
387.000000	6.754100
386.000000	6.629600
385.000000	6.540900
384.000000	6.444900
383.000000	6.365000
382.000000	6.299700
381.000000	6.212100
380.000000	6.138600
379.000000	6.086700
378.000000	6.030200
377.000000	5.976800
376.000000	5.919700
375.000000	5.731200
374.000000	5.577000
373.000000	5.628700
372.000000	5.710100
371.000000	5.723000
370.000000	5.698300
369.000000	5.651600
368.000000	5.609700
367.000000	5.681400
366.000000	5.683000
365.000000	5.572600
364.000000	5.559900
363.000000	5.530300
362.000000	5.528800
361.000000	5.466100
360.000000	5.457300
359.000000	5.346700
358.000000	5.298500
357.000000	5.399200
356.000000	5.409200
355.000000	5.366600
354.000000	5.278000
353.000000	5.331500
352.000000	5.413400
351.000000	5.225900
350.000000	5.146100
349.000000	5.266000
348.000000	5.202200
347.000000	5.123600
346.000000	5.137200
345.000000	5.136400
344.000000	5.008200
343.000000	5.032500
342.000000	5.136800
341.000000	5.101700
340.000000	5.047300
339.000000	5.081100
338.000000	5.179200
337.000000	5.089200
336.000000	5.143400
335.000000	5.219400
334.000000	5.272500
333.000000	5.249400
332.000000	5.255400
331.000000	5.321900
330.000000	5.180900
329.000000	5.148400
328.000000	5.125000
327.000000	5.121000
326.000000	5.079500
325.000000	5.260100
324.000000	5.423200
323.000000	5.477100
322.000000	5.364200
321.000000	5.339100
320.000000	5.287300
319.000000	5.232200
318.000000	5.538200
317.000000	5.355100
316.000000	5.047200
315.000000	5.045600
314.000000	5.079800
313.000000	5.043100
312.000000	5.010300
311.000000	5.048300
310.000000	5.078700
309.000000	5.073500
308.000000	5.040800
307.000000	5.024200
306.000000	5.094800
305.000000	5.095400
304.000000	5.065800
303.000000	5.088800
302.000000	5.074000
301.000000	5.063400
300.000000	5.103100
299.000000	5.100900
298.000000	5.092200
297.000000	5.103100
296.000000	5.095100
295.000000	5.094500
294.000000	5.102700
293.000000	5.111600
292.000000	5.122500
291.000000	5.094400
290.000000	5.138000
289.000000	5.131000
288.000000	5.131200
287.000000	5.110800
286.000000	5.158400
285.000000	5.135200
284.000000	5.146200
283.000000	5.168000
282.000000	5.156100
281.000000	5.134800
280.000000	5.176500
279.000000	5.212400
278.000000	5.173700
277.000000	5.176500
276.000000	5.227700
275.000000	5.249700
274.000000	5.261300
273.000000	5.244300
272.000000	5.242100
271.000000	5.257600
270.000000	5.279200
269.000000	5.276500
268.000000	5.270400
267.000000	5.303200
266.000000	5.324900
265.000000	5.321300
264.000000	5.389900
263.000000	5.399600
262.000000	5.369200
261.000000	5.407900
260.000000	5.448500
259.000000	5.460300
258.000000	5.454700
257.000000	5.462400
256.000000	5.480100
255.000000	5.517400
254.000000	5.510000
253.000000	5.507400
252.000000	5.531000
251.000000	5.572000
250.000000	5.552200
