PE UV       SUBTECH     SPECTRUM    ASCII       PEDS        4.00        
   -1
CICIMAUCR0242-1.Sample.ASC
24/06/21
13:33:23.00
24/06/21
13:33:23.00
Vinicio Soto Monge
C. cupreomarginata. Ventral. Sex M
250,000000
1
Lambda 1050
1050L1511233
PerkinElmer UV WinLab 6.3.2.0749 / 2.02.05 Lambda 900 UV/VIS/NIR, Aug  7 2015 09:38:08

0
0
3350/servo 860,8/2
0
0
UV/VIS
1
1
1
DoubleDePol,CommonBeamDepol,RBeamAtt,SBeamAtt,60mm sphere, WB InGaAs Detector
0
0
0
0
Program
Program
3350/servo 860,8/2
3350/0,2 860,8/0,2
3350/0,2 860,8/0,2
0
15.00
 
 
 
0
 
860,8
319,2
860,8
Front
100
on
S:100 R:100
0
0
0
0
 
0
 
 
 
0
 
 
0
0
0
0
0
 
 
 
 
0
0


0
0
#HDR
-1
-1
#GR
nm
%R
1.0
0.0
2500,000000
-1,000000
2251
8
53,395800
3,911100
#DATA
2482.000000	5.580683
2481.000000	5.558890
2480.000000	5.596629
2479.000000	5.481817
2478.000000	5.531356
2477.000000	5.544964
2476.000000	5.557721
2475.000000	5.527529
2474.000000	5.493724
2473.000000	5.556126
2472.000000	5.531463
2471.000000	5.468954
2470.000000	5.490641
2469.000000	5.500740
2468.000000	5.512221
2467.000000	5.538054
2466.000000	5.494149
2465.000000	5.519025
2464.000000	5.475652
2463.000000	5.491279
2462.000000	5.540711
2461.000000	5.530187
2460.000000	5.510733
2459.000000	5.498508
2458.000000	5.523702
2457.000000	5.523915
2456.000000	5.517962
2455.000000	5.545921
2454.000000	5.592908
2453.000000	5.582384
2452.000000	5.578982
2451.000000	5.590995
2450.000000	5.591420
2449.000000	5.647656
2448.000000	5.637132
2447.000000	5.630328
2446.000000	5.673382
2445.000000	5.660626
2444.000000	5.685395
2443.000000	5.729406
2442.000000	5.731851
2441.000000	5.770122
2440.000000	5.793296
2439.000000	5.785323
2438.000000	5.794997
2437.000000	5.825401
2436.000000	5.832098
2435.000000	5.856974
2434.000000	5.847726
2433.000000	5.879192
2432.000000	5.908958
2431.000000	5.892800
2430.000000	5.923841
2429.000000	5.931495
2428.000000	5.946591
2427.000000	5.970829
2426.000000	5.970404
2425.000000	5.989433
2424.000000	5.984755
2423.000000	5.977633
2422.000000	6.017604
2421.000000	6.027065
2420.000000	6.047689
2419.000000	6.051835
2418.000000	6.049390
2417.000000	6.041098
2416.000000	6.053748
2415.000000	6.072458
2414.000000	6.090424
2413.000000	6.099035
2412.000000	6.094357
2411.000000	6.103075
2410.000000	6.121359
2409.000000	6.122316
2408.000000	6.131565
2407.000000	6.135498
2406.000000	6.133691
2405.000000	6.143577
2404.000000	6.151444
2403.000000	6.162925
2402.000000	6.172918
2401.000000	6.185569
2400.000000	6.189502
2399.000000	6.191416
2398.000000	6.204491
2397.000000	6.220012
2396.000000	6.228623
2395.000000	6.237127
2394.000000	6.242230
2393.000000	6.251160
2392.000000	6.269870
2391.000000	6.265618
2390.000000	6.267212
2389.000000	6.278375
2388.000000	6.272740
2387.000000	6.278056
2386.000000	6.279012
2385.000000	6.284966
2384.000000	6.288899
2383.000000	6.292620
2382.000000	6.292939
2381.000000	6.295490
2380.000000	6.286560
2379.000000	6.275185
2378.000000	6.272209
2377.000000	6.272634
2376.000000	6.268169
2375.000000	6.251373
2374.000000	6.261046
2373.000000	6.251054
2372.000000	6.233619
2371.000000	6.236383
2370.000000	6.223626
2369.000000	6.221713
2368.000000	6.229686
2367.000000	6.219693
2366.000000	6.178552
2365.000000	6.157823
2364.000000	6.172174
2363.000000	6.154208
2362.000000	6.134967
2361.000000	6.114768
2360.000000	6.097972
2359.000000	6.102330
2358.000000	6.085959
2357.000000	6.067037
2356.000000	6.046838
2355.000000	6.032806
2354.000000	6.038759
2353.000000	6.023663
2352.000000	6.003571
2351.000000	6.019943
2350.000000	6.029935
2349.000000	6.013139
2348.000000	6.002402
2347.000000	6.008355
2346.000000	6.022175
2345.000000	6.027490
2344.000000	6.037696
2343.000000	6.049071
2342.000000	6.056406
2341.000000	6.057256
2340.000000	6.047157
2339.000000	6.056831
2338.000000	6.055981
2337.000000	6.063635
2336.000000	6.054492
2335.000000	6.036526
2334.000000	6.040141
2333.000000	6.036952
2332.000000	6.030148
2331.000000	6.015584
2330.000000	6.002508
2329.000000	5.980928
2328.000000	5.982097
2327.000000	5.959241
2326.000000	5.928306
2325.000000	5.909384
2324.000000	5.890780
2323.000000	5.863459
2322.000000	5.845812
2321.000000	5.826039
2320.000000	5.810624
2319.000000	5.786068
2318.000000	5.750455
2317.000000	5.716011
2316.000000	5.691880
2315.000000	5.657330
2314.000000	5.611406
2313.000000	5.601732
2312.000000	5.576962
2311.000000	5.572072
2310.000000	5.545070
2309.000000	5.519450
2308.000000	5.495425
2307.000000	5.490322
2306.000000	5.485751
2305.000000	5.483306
2304.000000	5.486070
2303.000000	5.491066
2302.000000	5.495531
2301.000000	5.491704
2300.000000	5.508075
2299.000000	5.500315
2298.000000	5.519025
2297.000000	5.534546
2296.000000	5.555276
2295.000000	5.558358
2294.000000	5.580895
2293.000000	5.593865
2292.000000	5.620973
2291.000000	5.620442
2290.000000	5.608429
2289.000000	5.631285
2288.000000	5.635218
2287.000000	5.618953
2286.000000	5.620654
2285.000000	5.623524
2284.000000	5.608110
2283.000000	5.585786
2282.000000	5.579620
2281.000000	5.557721
2280.000000	5.569840
2279.000000	5.562185
2278.000000	5.547621
2277.000000	5.525616
2276.000000	5.529018
2275.000000	5.525829
2274.000000	5.529443
2273.000000	5.508819
2272.000000	5.488409
2271.000000	5.500209
2270.000000	5.494681
2269.000000	5.493192
2268.000000	5.494574
2267.000000	5.505949
2266.000000	5.538266
2265.000000	5.550704
2264.000000	5.564312
2263.000000	5.603326
2262.000000	5.663708
2261.000000	5.688372
2260.000000	5.731639
2259.000000	5.770122
2258.000000	5.826783
2257.000000	5.898009
2256.000000	5.968065
2255.000000	6.019305
2254.000000	6.084577
2253.000000	6.133691
2252.000000	6.206617
2251.000000	6.293257
2250.000000	6.372988
2249.000000	6.407750
2248.000000	6.471321
2247.000000	6.525963
2246.000000	6.569761
2245.000000	6.622702
2244.000000	6.712425
2243.000000	6.735813
2242.000000	6.775678
2241.000000	6.812992
2240.000000	6.853707
2239.000000	6.892509
2238.000000	6.928972
2237.000000	6.972027
2236.000000	6.997115
2235.000000	7.010403
2234.000000	7.027944
2233.000000	7.056753
2232.000000	7.065151
2231.000000	7.085775
2230.000000	7.093323
2229.000000	7.126065
2228.000000	7.124789
2227.000000	7.133613
2226.000000	7.131593
2225.000000	7.125746
2224.000000	7.122982
2223.000000	7.149453
2222.000000	7.137653
2221.000000	7.125108
2220.000000	7.126916
2219.000000	7.095023
2218.000000	7.093110
2217.000000	7.100870
2216.000000	7.098106
2215.000000	7.084393
2214.000000	7.056222
2213.000000	7.035066
2212.000000	7.056753
2211.000000	7.053351
2210.000000	7.031346
2209.000000	7.028263
2208.000000	7.024755
2207.000000	7.027519
2206.000000	7.019333
2205.000000	6.989355
2204.000000	7.001367
2203.000000	6.990311
2202.000000	6.997965
2201.000000	6.980425
2200.000000	6.973834
2199.000000	6.961715
2198.000000	6.963628
2197.000000	6.967668
2196.000000	6.957037
2195.000000	6.955230
2194.000000	6.929185
2193.000000	6.924720
2192.000000	6.914621
2191.000000	6.930035
2190.000000	6.925996
2189.000000	6.917916
2188.000000	6.916109
2187.000000	6.918767
2186.000000	6.905797
2185.000000	6.878051
2184.000000	6.887194
2183.000000	6.893253
2182.000000	6.875500
2181.000000	6.885493
2180.000000	6.897612
2179.000000	6.892403
2178.000000	6.888150
2177.000000	6.871460
2176.000000	6.869015
2175.000000	6.868484
2174.000000	6.867527
2173.000000	6.872842
2172.000000	6.882197
2171.000000	6.886556
2170.000000	6.882516
2169.000000	6.888682
2168.000000	6.886556
2167.000000	6.900057
2166.000000	6.907711
2165.000000	6.910475
2164.000000	6.924188
2163.000000	6.945875
2162.000000	6.946832
2161.000000	6.961821
2160.000000	6.962140
2159.000000	6.980531
2158.000000	6.982019
2157.000000	6.992118
2156.000000	7.027519
2155.000000	7.047292
2154.000000	7.046654
2153.000000	7.071317
2152.000000	7.085775
2151.000000	7.087157
2150.000000	7.115647
2149.000000	7.140523
2148.000000	7.170289
2147.000000	7.150622
2146.000000	7.167950
2145.000000	7.192613
2144.000000	7.207815
2143.000000	7.232372
2142.000000	7.227375
2141.000000	7.234817
2140.000000	7.244491
2139.000000	7.254909
2138.000000	7.259586
2137.000000	7.273087
2136.000000	7.284887
2135.000000	7.302747
2134.000000	7.308062
2133.000000	7.310189
2132.000000	7.312634
2131.000000	7.304979
2130.000000	7.300302
2129.000000	7.311570
2128.000000	7.326879
2127.000000	7.311039
2126.000000	7.310720
2125.000000	7.304661
2124.000000	7.304342
2123.000000	7.297219
2122.000000	7.293924
2121.000000	7.271174
2120.000000	7.262563
2119.000000	7.261606
2118.000000	7.245022
2117.000000	7.232797
2116.000000	7.224399
2115.000000	7.206220
2114.000000	7.185703
2113.000000	7.190700
2112.000000	7.166462
2111.000000	7.147645
2110.000000	7.142224
2109.000000	7.134570
2108.000000	7.128085
2107.000000	7.112777
2106.000000	7.098532
2105.000000	7.073231
2104.000000	7.046760
2103.000000	7.041020
2102.000000	7.035704
2101.000000	7.030495
2100.000000	7.021353
2099.000000	7.000623
2098.000000	6.993819
2097.000000	6.981382
2096.000000	6.978192
2095.000000	6.965435
2094.000000	6.956399
2093.000000	6.947044
2092.000000	6.930354
2091.000000	6.923657
2090.000000	6.914408
2089.000000	6.898462
2088.000000	6.886450
2087.000000	6.872417
2086.000000	6.874862
2085.000000	6.864657
2084.000000	6.844565
2083.000000	6.827556
2082.000000	6.820646
2081.000000	6.819157
2080.000000	6.809590
2079.000000	6.794388
2078.000000	6.773233
2077.000000	6.754523
2076.000000	6.741766
2075.000000	6.732305
2074.000000	6.708598
2073.000000	6.681809
2072.000000	6.676919
2071.000000	6.667457
2070.000000	6.651724
2069.000000	6.628018
2068.000000	6.604630
2067.000000	6.597295
2066.000000	6.564446
2065.000000	6.555516
2064.000000	6.550414
2063.000000	6.530215
2062.000000	6.510655
2061.000000	6.499812
2060.000000	6.486523
2059.000000	6.462711
2058.000000	6.455375
2057.000000	6.463667
2056.000000	6.456545
2055.000000	6.463136
2054.000000	6.482271
2053.000000	6.488543
2052.000000	6.476318
2051.000000	6.486417
2050.000000	6.498749
2049.000000	6.506509
2048.000000	6.513206
2047.000000	6.539251
2046.000000	6.564552
2045.000000	6.590810
2044.000000	6.622171
2043.000000	6.646409
2042.000000	6.677557
2041.000000	6.703389
2040.000000	6.712532
2039.000000	6.729966
2038.000000	6.754629
2037.000000	6.784289
2036.000000	6.815649
2035.000000	6.832977
2034.000000	6.848179
2033.000000	6.871141
2032.000000	6.890489
2031.000000	6.898250
2030.000000	6.922488
2029.000000	6.924720
2028.000000	6.928547
2027.000000	6.940028
2026.000000	6.943005
2025.000000	6.962565
2024.000000	6.968412
2023.000000	6.974578
2022.000000	6.985634
2021.000000	6.982551
2020.000000	6.998391
2019.000000	7.008065
2018.000000	7.011573
2017.000000	7.012955
2016.000000	6.999241
2015.000000	6.999028
2014.000000	6.999879
2013.000000	6.981169
2012.000000	6.976704
2011.000000	6.984145
2010.000000	6.975109
2009.000000	6.969688
2008.000000	6.946194
2007.000000	6.949702
2006.000000	6.922488
2005.000000	6.899950
2004.000000	6.883686
2003.000000	6.884430
2002.000000	6.857003
2001.000000	6.852644
2000.000000	6.831276
1999.000000	6.802255
1998.000000	6.762815
1997.000000	6.767280
1996.000000	6.736238
1995.000000	6.707429
1994.000000	6.682872
1993.000000	6.663843
1992.000000	6.647472
1991.000000	6.630356
1990.000000	6.599740
1989.000000	6.575502
1988.000000	6.546693
1987.000000	6.534787
1986.000000	6.519585
1985.000000	6.499280
1984.000000	6.449847
1983.000000	6.414766
1982.000000	6.411683
1981.000000	6.379260
1980.000000	6.351939
1979.000000	6.325787
1978.000000	6.284966
1977.000000	6.266787
1976.000000	6.242230
1975.000000	6.223095
1974.000000	6.199920
1973.000000	6.196093
1972.000000	6.159736
1971.000000	6.142302
1970.000000	6.127313
1969.000000	6.099248
1968.000000	6.078305
1967.000000	6.058000
1966.000000	6.030148
1965.000000	6.016328
1964.000000	6.014946
1963.000000	5.985393
1962.000000	5.963813
1961.000000	5.937236
1960.000000	5.916187
1959.000000	5.909065
1958.000000	5.888441
1957.000000	5.871432
1956.000000	5.862609
1955.000000	5.838689
1954.000000	5.832949
1953.000000	5.825189
1952.000000	5.795635
1951.000000	5.775543
1950.000000	5.771610
1949.000000	5.757258
1948.000000	5.763956
1947.000000	5.711653
1946.000000	5.719520
1945.000000	5.685289
1944.000000	5.697301
1943.000000	5.687096
1942.000000	5.687202
1941.000000	5.660413
1940.000000	5.670937
1939.000000	5.671363
1938.000000	5.669768
1937.000000	5.671256
1936.000000	5.700916
1935.000000	5.660519
1934.000000	5.675402
1933.000000	5.689860
1932.000000	5.698896
1931.000000	5.705593
1930.000000	5.700597
1929.000000	5.696876
1928.000000	5.735040
1927.000000	5.759491
1926.000000	5.783516
1925.000000	5.805841
1924.000000	5.815621
1923.000000	5.835713
1922.000000	5.866329
1921.000000	5.876428
1920.000000	5.948611
1919.000000	5.958497
1918.000000	6.020793
1917.000000	6.019305
1916.000000	6.061934
1915.000000	6.102330
1914.000000	6.133159
1913.000000	6.205767
1912.000000	6.267425
1911.000000	6.331315
1910.000000	6.364483
1909.000000	6.420188
1908.000000	6.447509
1907.000000	6.497473
1906.000000	6.586345
1905.000000	6.663630
1904.000000	6.773764
1903.000000	6.833721
1902.000000	6.929929
1901.000000	7.006364
1900.000000	7.093642
1899.000000	7.195483
1898.000000	7.331450
1897.000000	7.448919
1896.000000	7.561498
1895.000000	7.646331
1894.000000	7.734991
1893.000000	7.845762
1892.000000	7.983855
1891.000000	8.153627
1890.000000	8.308941
1889.000000	8.498061
1888.000000	8.682078
1887.000000	8.837073
1886.000000	9.010460
1885.000000	9.263895
1884.000000	9.501491
1883.000000	9.776613
1882.000000	10.122217
1881.000000	10.405418
1880.000000	10.710200
1879.000000	10.996059
1878.000000	11.298289
1877.000000	11.630072
1876.000000	11.945804
1875.000000	12.282371
1874.000000	12.591618
1873.000000	12.914471
1872.000000	13.265284
1871.000000	13.601745
1870.000000	13.927894
1869.000000	14.238204
1868.000000	14.527040
1867.000000	14.710844
1866.000000	14.901027
1865.000000	15.026150
1864.000000	15.157014
1863.000000	15.249394
1862.000000	15.351024
1861.000000	15.478805
1860.000000	15.599782
1859.000000	15.743402
1858.000000	15.875329
1857.000000	15.961756
1856.000000	16.021501
1855.000000	16.060728
1854.000000	16.101869
1853.000000	16.157786
1852.000000	16.172138
1851.000000	16.162783
1850.000000	16.156829
1849.000000	16.122705
1848.000000	16.150983
1847.000000	16.206794
1846.000000	16.230925
1845.000000	16.204242
1844.000000	16.136844
1843.000000	16.058283
1842.000000	16.020650
1841.000000	16.036278
1840.000000	16.065406
1839.000000	16.072953
1838.000000	16.065299
1837.000000	16.024903
1836.000000	16.006618
1835.000000	16.004067
1834.000000	15.950594
1833.000000	15.886066
1832.000000	15.807505
1831.000000	15.733409
1830.000000	15.701305
1829.000000	15.662822
1828.000000	15.608074
1827.000000	15.562468
1826.000000	15.507295
1825.000000	15.447019
1824.000000	15.378238
1823.000000	15.318707
1822.000000	15.275652
1821.000000	15.248225
1820.000000	15.239083
1819.000000	15.244079
1818.000000	15.224200
1817.000000	15.184760
1816.000000	15.154462
1815.000000	15.131288
1814.000000	15.131181
1813.000000	15.124484
1812.000000	15.108644
1811.000000	15.098332
1810.000000	15.065165
1809.000000	15.034123
1808.000000	14.997447
1807.000000	14.958539
1806.000000	14.926222
1805.000000	14.899326
1804.000000	14.849256
1803.000000	14.794295
1802.000000	14.748902
1801.000000	14.706167
1800.000000	14.669384
1799.000000	14.632921
1798.000000	14.594119
1797.000000	14.542135
1796.000000	14.497274
1795.000000	14.449542
1794.000000	14.407444
1793.000000	14.386715
1792.000000	14.342278
1791.000000	14.297311
1790.000000	14.261591
1789.000000	14.215773
1788.000000	14.156667
1787.000000	14.100324
1786.000000	14.045789
1785.000000	13.992316
1784.000000	13.950431
1783.000000	13.896002
1782.000000	13.837321
1781.000000	13.777470
1780.000000	13.712410
1779.000000	13.665317
1778.000000	13.620987
1777.000000	13.564431
1776.000000	13.495545
1775.000000	13.435906
1774.000000	13.364787
1773.000000	13.287077
1772.000000	13.200756
1771.000000	13.105292
1770.000000	13.031622
1769.000000	12.941367
1768.000000	12.845266
1767.000000	12.762027
1766.000000	12.711532
1765.000000	12.642645
1764.000000	12.589066
1763.000000	12.559938
1762.000000	12.567911
1761.000000	12.570356
1760.000000	12.583538
1759.000000	12.633715
1758.000000	12.687506
1757.000000	12.731517
1756.000000	12.774040
1755.000000	12.826024
1754.000000	12.872374
1753.000000	12.894486
1752.000000	12.907562
1751.000000	12.929673
1750.000000	12.924039
1749.000000	12.916598
1748.000000	12.879497
1747.000000	12.844415
1746.000000	12.801999
1745.000000	12.746507
1744.000000	12.683573
1743.000000	12.595019
1742.000000	12.484673
1741.000000	12.364015
1740.000000	12.226666
1739.000000	12.098992
1738.000000	11.946229
1737.000000	11.799632
1736.000000	11.672595
1735.000000	11.591696
1734.000000	11.511647
1733.000000	11.461151
1732.000000	11.452009
1731.000000	11.471250
1730.000000	11.514517
1729.000000	11.576494
1728.000000	11.642723
1727.000000	11.695983
1726.000000	11.760617
1725.000000	11.856506
1724.000000	11.908490
1723.000000	11.950162
1722.000000	11.987582
1721.000000	12.029148
1720.000000	12.043819
1719.000000	12.071671
1718.000000	12.084428
1717.000000	12.109410
1716.000000	12.156398
1715.000000	12.207212
1714.000000	12.243888
1713.000000	12.300868
1712.000000	12.337225
1711.000000	12.374220
1710.000000	12.409833
1709.000000	12.442894
1708.000000	12.427374
1707.000000	12.395907
1706.000000	12.402392
1705.000000	12.379536
1704.000000	12.344667
1703.000000	12.320323
1702.000000	12.223690
1701.000000	12.169792
1700.000000	12.081876
1699.000000	11.988539
1698.000000	11.891906
1697.000000	11.776670
1696.000000	11.696727
1695.000000	11.632836
1694.000000	11.613276
1693.000000	11.632092
1692.000000	11.700766
1691.000000	11.769866
1690.000000	11.869369
1689.000000	11.980247
1688.000000	12.073053
1687.000000	12.162457
1686.000000	12.205299
1685.000000	12.216992
1684.000000	12.255582
1683.000000	12.328189
1682.000000	12.455439
1681.000000	12.639668
1680.000000	12.908518
1679.000000	13.248381
1678.000000	13.647776
1677.000000	14.046214
1676.000000	14.416693
1675.000000	14.782495
1674.000000	15.115342
1673.000000	15.404815
1672.000000	15.646982
1671.000000	15.862785
1670.000000	16.041805
1669.000000	16.232733
1668.000000	16.380286
1667.000000	16.527415
1666.000000	16.621709
1665.000000	16.730993
1664.000000	16.809766
1663.000000	16.861431
1662.000000	16.924152
1661.000000	16.999098
1660.000000	17.033010
1659.000000	17.092967
1658.000000	17.099877
1657.000000	17.129749
1656.000000	17.156645
1655.000000	17.149523
1654.000000	17.158559
1653.000000	17.141975
1652.000000	17.140168
1651.000000	17.139104
1650.000000	17.101791
1649.000000	17.071706
1648.000000	17.061501
1647.000000	16.995590
1646.000000	16.967206
1645.000000	16.925853
1644.000000	16.865258
1643.000000	16.831771
1642.000000	16.766074
1641.000000	16.742155
1640.000000	16.666571
1639.000000	16.620646
1638.000000	16.565048
1637.000000	16.517635
1636.000000	16.452788
1635.000000	16.390598
1634.000000	16.337551
1633.000000	16.244958
1632.000000	16.199459
1631.000000	16.135037
1630.000000	16.067000
1629.000000	15.999176
1628.000000	15.947405
1627.000000	15.861084
1626.000000	15.785075
1625.000000	15.727775
1624.000000	15.656975
1623.000000	15.574800
1622.000000	15.530470
1621.000000	15.473808
1620.000000	15.401094
1619.000000	15.318388
1618.000000	15.254072
1617.000000	15.205383
1616.000000	15.140855
1615.000000	15.071437
1614.000000	15.017220
1613.000000	14.954925
1612.000000	14.897625
1611.000000	14.839475
1610.000000	14.785790
1609.000000	14.735507
1608.000000	14.667896
1607.000000	14.603793
1606.000000	14.545643
1605.000000	14.500569
1604.000000	14.444652
1603.000000	14.373639
1602.000000	14.324206
1601.000000	14.278069
1600.000000	14.219281
1599.000000	14.171550
1598.000000	14.108403
1597.000000	14.041855
1596.000000	13.999226
1595.000000	13.953089
1594.000000	13.903231
1593.000000	13.842211
1592.000000	13.799051
1591.000000	13.753976
1590.000000	13.718364
1589.000000	13.674140
1588.000000	13.622794
1587.000000	13.588138
1586.000000	13.537004
1585.000000	13.490229
1584.000000	13.468011
1583.000000	13.440265
1582.000000	13.407522
1581.000000	13.361492
1580.000000	13.351499
1579.000000	13.331726
1578.000000	13.307700
1577.000000	13.278998
1576.000000	13.256567
1575.000000	13.253378
1574.000000	13.226057
1573.000000	13.202138
1572.000000	13.197248
1571.000000	13.184384
1570.000000	13.177049
1569.000000	13.168545
1568.000000	13.181620
1567.000000	13.173116
1566.000000	13.170777
1565.000000	13.160147
1564.000000	13.161529
1563.000000	13.152174
1562.000000	13.150047
1561.000000	13.155150
1560.000000	13.132082
1559.000000	13.135164
1558.000000	13.146539
1557.000000	13.144626
1556.000000	13.128892
1555.000000	13.106568
1554.000000	13.098063
1553.000000	13.095087
1552.000000	13.072124
1551.000000	13.050544
1550.000000	13.039382
1549.000000	13.006321
1548.000000	12.985484
1547.000000	12.964223
1546.000000	12.942005
1545.000000	12.921913
1544.000000	12.910751
1543.000000	12.903841
1542.000000	12.881091
1541.000000	12.859511
1540.000000	12.845053
1539.000000	12.827512
1538.000000	12.819539
1537.000000	12.808271
1536.000000	12.785202
1535.000000	12.772552
1534.000000	12.728222
1533.000000	12.707173
1532.000000	12.701007
1531.000000	12.674005
1530.000000	12.645940
1529.000000	12.621915
1528.000000	12.597783
1527.000000	12.565891
1526.000000	12.523581
1525.000000	12.503596
1524.000000	12.467770
1523.000000	12.425141
1522.000000	12.395375
1521.000000	12.369649
1520.000000	12.339245
1519.000000	12.294596
1518.000000	12.257389
1517.000000	12.217630
1516.000000	12.173938
1515.000000	12.148212
1514.000000	12.110686
1513.000000	12.078475
1512.000000	12.047965
1511.000000	12.003741
1510.000000	11.955052
1509.000000	11.919865
1508.000000	11.887866
1507.000000	11.836201
1506.000000	11.807817
1505.000000	11.783792
1504.000000	11.736273
1503.000000	11.673552
1502.000000	11.633368
1501.000000	11.597755
1500.000000	11.559697
1499.000000	11.510796
1498.000000	11.481137
1497.000000	11.479542
1496.000000	11.443929
1495.000000	11.418522
1494.000000	11.389288
1493.000000	11.347084
1492.000000	11.316999
1491.000000	11.302966
1490.000000	11.290847
1489.000000	11.265015
1488.000000	11.246092
1487.000000	11.214838
1486.000000	11.201762
1485.000000	11.189856
1484.000000	11.158070
1483.000000	11.136384
1482.000000	11.119693
1481.000000	11.110657
1480.000000	11.101621
1479.000000	11.087482
1478.000000	11.081317
1477.000000	11.082380
1476.000000	11.071749
1475.000000	11.051551
1474.000000	11.040389
1473.000000	11.041983
1472.000000	11.043259
1471.000000	11.033904
1470.000000	11.045491
1469.000000	11.046767
1468.000000	11.040176
1467.000000	11.041771
1466.000000	11.044853
1465.000000	11.048468
1464.000000	11.054953
1463.000000	11.074726
1462.000000	11.098326
1461.000000	11.095987
1460.000000	11.107256
1459.000000	11.127879
1458.000000	11.136915
1457.000000	11.170402
1456.000000	11.206440
1455.000000	11.241840
1454.000000	11.286170
1453.000000	11.324547
1452.000000	11.364305
1451.000000	11.406084
1450.000000	11.460726
1449.000000	11.512072
1448.000000	11.562887
1447.000000	11.598712
1446.000000	11.665473
1445.000000	11.717776
1444.000000	11.783686
1443.000000	11.834926
1442.000000	11.900942
1441.000000	11.950588
1440.000000	12.025534
1439.000000	12.065930
1438.000000	12.140770
1437.000000	12.215185
1436.000000	12.280032
1435.000000	12.360719
1434.000000	12.436303
1433.000000	12.533999
1432.000000	12.610115
1431.000000	12.711107
1430.000000	12.800298
1429.000000	12.886300
1428.000000	12.965180
1427.000000	13.098914
1426.000000	13.200968
1425.000000	13.351286
1424.000000	13.480768
1423.000000	13.629172
1422.000000	13.804366
1421.000000	13.928745
1420.000000	14.059927
1419.000000	14.251811
1418.000000	14.455920
1417.000000	14.619952
1416.000000	14.793976
1415.000000	14.976717
1414.000000	15.190819
1413.000000	15.455523
1412.000000	15.671114
1411.000000	15.853642
1410.000000	16.099849
1409.000000	16.421321
1408.000000	16.746726
1407.000000	17.053846
1406.000000	17.353419
1405.000000	17.687116
1404.000000	18.087680
1403.000000	18.440725
1402.000000	18.785797
1401.000000	19.092067
1400.000000	19.525374
1399.000000	19.983662
1398.000000	20.332030
1397.000000	20.561015
1396.000000	20.857398
1395.000000	21.264872
1394.000000	21.650553
1393.000000	21.936519
1392.000000	22.226524
1391.000000	22.582758
1390.000000	22.971522
1389.000000	23.273221
1388.000000	23.671871
1387.000000	24.173002
1386.000000	24.677321
1385.000000	25.176644
1384.000000	25.695422
1383.000000	26.298925
1382.000000	26.927837
1381.000000	27.562169
1380.000000	28.088494
1379.000000	28.466309
1378.000000	28.763436
1377.000000	28.970416
1376.000000	29.193341
1375.000000	29.431575
1374.000000	29.701700
1373.000000	29.964703
1372.000000	30.314666
1371.000000	30.689716
1370.000000	31.147686
1369.000000	31.508172
1368.000000	31.838893
1367.000000	32.195765
1366.000000	32.510964
1365.000000	32.755470
1364.000000	33.011563
1363.000000	33.224496
1362.000000	33.422226
1361.000000	33.617087
1360.000000	33.891358
1359.000000	33.999260
1358.000000	34.088770
1357.000000	34.205601
1356.000000	34.343056
1355.000000	34.626151
1354.000000	34.981535
1353.000000	35.447903
1352.000000	35.901514
1351.000000	36.431666
1350.000000	36.993073
1349.000000	37.505153
1348.000000	37.966418
1347.000000	38.432467
1346.000000	38.890224
1345.000000	39.256770
1344.000000	39.641920
1343.000000	40.036105
1342.000000	40.402758
1341.000000	40.780359
1340.000000	41.142121
1339.000000	41.532480
1338.000000	41.882761
1337.000000	42.223262
1336.000000	42.571098
1335.000000	42.905645
1334.000000	43.241362
1333.000000	43.570382
1332.000000	43.889621
1331.000000	44.204289
1330.000000	44.514068
1329.000000	44.819381
1328.000000	45.099605
1327.000000	45.380255
1326.000000	45.622316
1325.000000	45.908707
1324.000000	46.145027
1323.000000	46.387087
1322.000000	46.609162
1321.000000	46.821244
1320.000000	47.031200
1319.000000	47.247003
1318.000000	47.426237
1317.000000	47.630558
1316.000000	47.815957
1315.000000	47.985623
1314.000000	48.157521
1313.000000	48.315387
1312.000000	48.462834
1311.000000	48.615278
1310.000000	48.748481
1309.000000	48.880726
1308.000000	48.992986
1307.000000	49.112475
1306.000000	49.243871
1305.000000	49.322963
1304.000000	49.399079
1303.000000	49.464989
1302.000000	49.540041
1301.000000	49.602975
1300.000000	49.650388
1299.000000	49.681323
1298.000000	49.725972
1297.000000	49.784760
1296.000000	49.818990
1295.000000	49.851520
1294.000000	49.867892
1293.000000	49.879798
1292.000000	49.898508
1291.000000	49.888515
1290.000000	49.897870
1289.000000	49.887027
1288.000000	49.874483
1287.000000	49.844610
1286.000000	49.807084
1285.000000	49.758927
1284.000000	49.703222
1283.000000	49.658467
1282.000000	49.601274
1281.000000	49.542167
1280.000000	49.483061
1279.000000	49.435542
1278.000000	49.385365
1277.000000	49.323494
1276.000000	49.259923
1275.000000	49.211872
1274.000000	49.150958
1273.000000	49.092702
1272.000000	49.055070
1271.000000	49.015524
1270.000000	48.968536
1269.000000	48.919528
1268.000000	48.871053
1267.000000	48.813966
1266.000000	48.762938
1265.000000	48.712018
1264.000000	48.658758
1263.000000	48.616979
1262.000000	48.558723
1261.000000	48.482926
1260.000000	48.419461
1259.000000	48.367371
1258.000000	48.290617
1257.000000	48.215884
1256.000000	48.161029
1255.000000	48.084914
1254.000000	47.994340
1253.000000	47.910677
1252.000000	47.818615
1251.000000	47.720600
1250.000000	47.633429
1249.000000	47.533925
1248.000000	47.427937
1247.000000	47.319504
1246.000000	47.208308
1245.000000	47.078401
1244.000000	46.936587
1243.000000	46.808913
1242.000000	46.656363
1241.000000	46.504556
1240.000000	46.352857
1239.000000	46.187018
1238.000000	46.024687
1237.000000	45.859593
1236.000000	45.693329
1235.000000	45.522388
1234.000000	45.334756
1233.000000	45.151802
1232.000000	44.963852
1231.000000	44.764633
1230.000000	44.564351
1229.000000	44.365132
1228.000000	44.146565
1227.000000	43.911839
1226.000000	43.690402
1225.000000	43.487569
1224.000000	43.265281
1223.000000	43.026304
1222.000000	42.814115
1221.000000	42.600438
1220.000000	42.362736
1219.000000	42.147678
1218.000000	41.943675
1217.000000	41.730211
1216.000000	41.530035
1215.000000	41.344104
1214.000000	41.162107
1213.000000	40.977452
1212.000000	40.788120
1211.000000	40.627384
1210.000000	40.477279
1209.000000	40.327280
1208.000000	40.161547
1207.000000	40.032172
1206.000000	39.919380
1205.000000	39.804675
1204.000000	39.719843
1203.000000	39.656909
1202.000000	39.608539
1201.000000	39.553791
1200.000000	39.499150
1199.000000	39.438661
1198.000000	39.349788
1197.000000	39.247521
1196.000000	39.104220
1195.000000	38.923604
1194.000000	38.673146
1193.000000	38.349760
1192.000000	37.982258
1191.000000	37.551502
1190.000000	37.077693
1189.000000	36.614195
1188.000000	36.187905
1187.000000	35.838899
1186.000000	35.615974
1185.000000	35.499568
1184.000000	35.526570
1183.000000	35.711438
1182.000000	36.027275
1181.000000	36.484820
1180.000000	36.998813
1179.000000	37.540446
1178.000000	38.090584
1177.000000	38.569071
1176.000000	39.013327
1175.000000	39.401773
1174.000000	39.771401
1173.000000	40.119981
1172.000000	40.446131
1171.000000	40.806086
1170.000000	41.172525
1169.000000	41.524188
1168.000000	41.908275
1167.000000	42.278116
1166.000000	42.666242
1165.000000	43.054900
1164.000000	43.441325
1163.000000	43.841889
1162.000000	44.270093
1161.000000	44.694045
1160.000000	45.078557
1159.000000	45.487625
1158.000000	45.892442
1157.000000	46.257606
1156.000000	46.643393
1155.000000	46.976346
1154.000000	47.265607
1153.000000	47.503096
1152.000000	47.672124
1151.000000	47.815745
1150.000000	47.933426
1149.000000	48.045049
1148.000000	48.128925
1147.000000	48.222368
1146.000000	48.342814
1145.000000	48.545222
1144.000000	48.798445
1143.000000	49.114176
1142.000000	49.488801
1141.000000	49.894362
1140.000000	50.322566
1139.000000	50.765015
1138.000000	51.231914
1137.000000	51.694774
1136.000000	52.181128
1135.000000	52.705114
1134.000000	53.258867
1133.000000	53.766375
1132.000000	54.190221
1131.000000	54.618531
1130.000000	54.986140
1129.000000	55.320475
1128.000000	55.619197
1127.000000	55.861258
1126.000000	56.049527
1125.000000	56.213346
1124.000000	56.330921
1123.000000	56.445095
1122.000000	56.531628
1121.000000	56.623690
1120.000000	56.698849
1119.000000	56.712881
1118.000000	56.739990
1117.000000	56.750301
1116.000000	56.763377
1115.000000	56.756148
1114.000000	56.744986
1113.000000	56.716815
1112.000000	56.698105
1111.000000	56.676631
1110.000000	56.657921
1109.000000	56.644845
1108.000000	56.620607
1107.000000	56.591373
1106.000000	56.568517
1105.000000	56.559693
1104.000000	56.511217
1103.000000	56.486235
1102.000000	56.455725
1101.000000	56.415010
1100.000000	56.379397
1099.000000	56.344528
1098.000000	56.312743
1097.000000	56.283615
1096.000000	56.235883
1095.000000	56.180710
1094.000000	56.139144
1093.000000	56.090349
1092.000000	56.035175
1091.000000	55.957678
1090.000000	55.899103
1089.000000	55.850095
1088.000000	55.763987
1087.000000	55.696907
1086.000000	55.625150
1085.000000	55.558602
1084.000000	55.477171
1083.000000	55.397760
1082.000000	55.318774
1081.000000	55.240745
1080.000000	55.156869
1079.000000	55.063956
1078.000000	54.978911
1077.000000	54.910024
1076.000000	54.837523
1075.000000	54.754604
1074.000000	54.663286
1073.000000	54.599289
1072.000000	54.504464
1071.000000	54.408256
1070.000000	54.322573
1069.000000	54.237208
1068.000000	54.120164
1067.000000	54.049683
1066.000000	53.960598
1065.000000	53.857161
1064.000000	53.768395
1063.000000	53.680054
1062.000000	53.583846
1061.000000	53.485725
1060.000000	53.380588
1059.000000	53.272580
1058.000000	53.178605
1057.000000	53.076338
1056.000000	52.946006
1055.000000	52.854475
1054.000000	52.733286
1053.000000	52.623577
1052.000000	52.520672
1051.000000	52.411814
1050.000000	52.312736
1049.000000	52.217591
1048.000000	52.097465
1047.000000	52.023475
1046.000000	51.924503
1045.000000	51.826488
1044.000000	51.707850
1043.000000	51.607922
1042.000000	51.532550
1041.000000	51.440488
1040.000000	51.331737
1039.000000	51.227556
1038.000000	51.123694
1037.000000	51.023447
1036.000000	50.916289
1035.000000	50.804242
1034.000000	50.690600
1033.000000	50.593436
1032.000000	50.479156
1031.000000	50.366789
1030.000000	50.249746
1029.000000	50.117713
1028.000000	49.989613
1027.000000	49.870656
1026.000000	49.735327
1025.000000	49.613925
1024.000000	49.477852
1023.000000	49.329448
1022.000000	49.219633
1021.000000	49.067401
1020.000000	48.921229
1019.000000	48.793555
1018.000000	48.648978
1017.000000	48.519071
1016.000000	48.424351
1015.000000	48.304331
1014.000000	48.174211
1013.000000	48.074921
1012.000000	47.964362
1011.000000	47.888246
1010.000000	47.807346
1009.000000	47.722726
1008.000000	47.659686
1007.000000	47.565711
1006.000000	47.489170
1005.000000	47.423898
1004.000000	47.352779
1003.000000	47.273261
1002.000000	47.188534
1001.000000	47.120604
1000.000000	47.046402
999.000000	46.985807
998.000000	46.915007
997.000000	46.844738
996.000000	46.769579
995.000000	46.698141
994.000000	46.645626
993.000000	46.567596
992.000000	46.501474
991.000000	46.436945
990.000000	46.369122
989.000000	46.302999
988.000000	46.230072
987.000000	46.163737
986.000000	46.091661
985.000000	46.031704
984.000000	45.996197
983.000000	45.935071
982.000000	45.865865
981.000000	45.799530
980.000000	45.747333
979.000000	45.717992
978.000000	45.661012
977.000000	45.582557
976.000000	45.521431
975.000000	45.467746
974.000000	45.413955
973.000000	45.338796
972.000000	45.278414
971.000000	45.228024
970.000000	45.165728
969.000000	45.102901
968.000000	45.044751
967.000000	44.981286
966.000000	44.905914
965.000000	44.847233
964.000000	44.803860
963.000000	44.757298
962.000000	44.691387
961.000000	44.639297
960.000000	44.597837
959.000000	44.567965
958.000000	44.524486
957.000000	44.458788
956.000000	44.402764
955.000000	44.350887
954.000000	44.297839
953.000000	44.222468
952.000000	44.147415
951.000000	44.099365
950.000000	44.044298
949.000000	43.964461
948.000000	43.894937
947.000000	43.814143
946.000000	43.720168
945.000000	43.655215
944.000000	43.590580
943.000000	43.491077
942.000000	43.388491
941.000000	43.309930
940.000000	43.213297
939.000000	43.101037
938.000000	43.002810
937.000000	42.903413
936.000000	42.805079
935.000000	42.706107
934.000000	42.614471
933.000000	42.525386
932.000000	42.426733
931.000000	42.348598
930.000000	42.241228
929.000000	42.126097
928.000000	42.009160
927.000000	41.913484
926.000000	41.809622
925.000000	41.694279
924.000000	41.581169
923.000000	41.467739
922.000000	41.366429
921.000000	41.251511
920.000000	41.135105
919.000000	41.020188
918.000000	40.901868
917.000000	40.778021
916.000000	40.657788
915.000000	40.528944
914.000000	40.400738
913.000000	40.281036
912.000000	40.164524
911.000000	40.040889
910.000000	39.926290
909.000000	39.814030
908.000000	39.706554
907.000000	39.608752
906.000000	39.519986
905.000000	39.433558
904.000000	39.361589
903.000000	39.300249
902.000000	39.238698
901.000000	39.194687
900.000000	39.158861
899.000000	39.120804
898.000000	39.069032
897.000000	39.024064
896.000000	38.986538
895.000000	38.936574
894.000000	38.890543
893.000000	38.850572
892.000000	38.810600
891.000000	38.771267
890.000000	38.710034
889.000000	38.660708
888.000000	38.595435
887.000000	38.550255
886.000000	38.505606
885.000000	38.455642
884.000000	38.399087
883.000000	38.331582
882.000000	38.266416
881.000000	38.189237
880.000000	38.113015
879.000000	38.066771
878.000000	37.983427
877.000000	37.876907
876.000000	37.782613
875.000000	37.670353
874.000000	37.531623
873.000000	37.387790
872.000000	37.218018
871.000000	37.135736
870.000000	37.117558
869.000000	37.094702
868.000000	37.112987
867.000000	37.099273
866.000000	37.094489
865.000000	37.070570
864.000000	37.050903
863.000000	37.037509
862.000000	37.041974
861.000000	37.042080
860.000000	37.049734
859.000000	37.068976
858.000000	37.075567
857.000000	36.736400
856.000000	37.152600
855.000000	37.337700
854.000000	37.318700
853.000000	37.596500
852.000000	37.409100
851.000000	37.073400
850.000000	37.516300
849.000000	37.528500
848.000000	37.601300
847.000000	37.786100
846.000000	37.884600
845.000000	37.900200
844.000000	37.964000
843.000000	38.016400
842.000000	38.126500
841.000000	38.154400
840.000000	38.290500
839.000000	38.427100
838.000000	38.465900
837.000000	38.505400
836.000000	38.488900
835.000000	38.565500
834.000000	38.736100
833.000000	38.841800
832.000000	38.864000
831.000000	38.769100
830.000000	39.047200
829.000000	39.032900
828.000000	39.224500
827.000000	39.384400
826.000000	39.290500
825.000000	39.521000
824.000000	39.584600
823.000000	39.376100
822.000000	39.432300
821.000000	39.529300
820.000000	39.812300
819.000000	39.912400
818.000000	39.736700
817.000000	40.009500
816.000000	39.980000
815.000000	39.968200
814.000000	40.001700
813.000000	40.175400
812.000000	40.010500
811.000000	40.286500
810.000000	40.421900
809.000000	40.287500
808.000000	40.416700
807.000000	40.434300
806.000000	40.469400
805.000000	40.602700
804.000000	40.627900
803.000000	40.695200
802.000000	40.696500
801.000000	40.748700
800.000000	40.673300
799.000000	40.885100
798.000000	40.876500
797.000000	40.916300
796.000000	40.955100
795.000000	40.953600
794.000000	40.923700
793.000000	40.996600
792.000000	41.064300
791.000000	41.095900
790.000000	40.883000
789.000000	40.979700
788.000000	41.008600
787.000000	40.980200
786.000000	41.067600
785.000000	41.188900
784.000000	41.061100
783.000000	41.024800
782.000000	41.102800
781.000000	41.142400
780.000000	41.055000
779.000000	41.062400
778.000000	40.956600
777.000000	41.008200
776.000000	40.970000
775.000000	40.888100
774.000000	40.923500
773.000000	40.771500
772.000000	40.925500
771.000000	40.930500
770.000000	40.782700
769.000000	40.752600
768.000000	40.743600
767.000000	40.756600
766.000000	40.640900
765.000000	40.622000
764.000000	40.552400
763.000000	40.573500
762.000000	40.541400
761.000000	40.490100
760.000000	40.430900
759.000000	40.308800
758.000000	40.318100
757.000000	40.251200
756.000000	40.215300
755.000000	40.104900
754.000000	40.018600
753.000000	39.924500
752.000000	39.953900
751.000000	39.885600
750.000000	39.799400
749.000000	39.731100
748.000000	39.640900
747.000000	39.570100
746.000000	39.517500
745.000000	39.409700
744.000000	39.330700
743.000000	39.252000
742.000000	39.030400
741.000000	39.021400
740.000000	38.939300
739.000000	38.839900
738.000000	38.802500
737.000000	38.610900
736.000000	38.583300
735.000000	38.455300
734.000000	38.394600
733.000000	38.235400
732.000000	38.148600
731.000000	38.003000
730.000000	37.904400
729.000000	37.783900
728.000000	37.648400
727.000000	37.518600
726.000000	37.394100
725.000000	37.263900
724.000000	37.152000
723.000000	36.976400
722.000000	36.810500
721.000000	36.702000
720.000000	36.598000
719.000000	36.460700
718.000000	36.271200
717.000000	36.135700
716.000000	36.002000
715.000000	35.851200
714.000000	35.690700
713.000000	35.517800
712.000000	35.337000
711.000000	35.167900
710.000000	35.014500
709.000000	34.856500
708.000000	34.666000
707.000000	34.480600
706.000000	34.289400
705.000000	34.080600
704.000000	33.922600
703.000000	33.715400
702.000000	33.479200
701.000000	33.320500
700.000000	33.119000
699.000000	32.909000
698.000000	32.712500
697.000000	32.470800
696.000000	32.293500
695.000000	32.069400
694.000000	31.865100
693.000000	31.650300
692.000000	31.470200
691.000000	31.235800
690.000000	31.018900
689.000000	30.819800
688.000000	30.580900
687.000000	30.343000
686.000000	30.143700
685.000000	29.922700
684.000000	29.698100
683.000000	29.489300
682.000000	29.262000
681.000000	29.008100
680.000000	28.784100
679.000000	28.577000
678.000000	28.359300
677.000000	28.153500
676.000000	27.927400
675.000000	27.717000
674.000000	27.499900
673.000000	27.320100
672.000000	27.072000
671.000000	26.813400
670.000000	26.617700
669.000000	26.377300
668.000000	26.166900
667.000000	25.965800
666.000000	25.788400
665.000000	25.610300
664.000000	25.434000
663.000000	25.252900
662.000000	25.064100
661.000000	24.914700
660.000000	24.761200
659.000000	24.608100
658.000000	24.452100
657.000000	24.324400
656.000000	24.187800
655.000000	24.042500
654.000000	23.930100
653.000000	23.813500
652.000000	23.701700
651.000000	23.626500
650.000000	23.554400
649.000000	23.501600
648.000000	23.476000
647.000000	23.442800
646.000000	23.387400
645.000000	23.373000
644.000000	23.365100
643.000000	23.335200
642.000000	23.315800
641.000000	23.309000
640.000000	23.330500
639.000000	23.352400
638.000000	23.380700
637.000000	23.431800
636.000000	23.492700
635.000000	23.546600
634.000000	23.580500
633.000000	23.637500
632.000000	23.705900
631.000000	23.764400
630.000000	23.801500
629.000000	23.852200
628.000000	23.932600
627.000000	24.023100
626.000000	24.095700
625.000000	24.162300
624.000000	24.250500
623.000000	24.342700
622.000000	24.431400
621.000000	24.506200
620.000000	24.593800
619.000000	24.659700
618.000000	24.732100
617.000000	24.814400
616.000000	24.891300
615.000000	24.983800
614.000000	25.063100
613.000000	25.130500
612.000000	25.203600
611.000000	25.272800
610.000000	25.333800
609.000000	25.394600
608.000000	25.470600
607.000000	25.520400
606.000000	25.586600
605.000000	25.619900
604.000000	25.674100
603.000000	25.741800
602.000000	25.795700
601.000000	25.839500
600.000000	25.886900
599.000000	25.903800
598.000000	25.945300
597.000000	25.969700
596.000000	25.994700
595.000000	26.019500
594.000000	26.032400
593.000000	26.066900
592.000000	26.077000
591.000000	26.076800
590.000000	26.073500
589.000000	26.061000
588.000000	26.077100
587.000000	26.070000
586.000000	26.044500
585.000000	26.037900
584.000000	26.016900
583.000000	25.978300
582.000000	25.965800
581.000000	25.927000
580.000000	25.907300
579.000000	25.868600
578.000000	25.825600
577.000000	25.769000
576.000000	25.719700
575.000000	25.669400
574.000000	25.612800
573.000000	25.552100
572.000000	25.490400
571.000000	25.416300
570.000000	25.326800
569.000000	25.252800
568.000000	25.175800
567.000000	25.080800
566.000000	24.985200
565.000000	24.877000
564.000000	24.780400
563.000000	24.666400
562.000000	24.547900
561.000000	24.430900
560.000000	24.308900
559.000000	24.161300
558.000000	24.057800
557.000000	23.922500
556.000000	23.789200
555.000000	23.666100
554.000000	23.531800
553.000000	23.395500
552.000000	23.264200
551.000000	23.124400
550.000000	22.980900
549.000000	22.842800
548.000000	22.691900
547.000000	22.557700
546.000000	22.415200
545.000000	22.245300
544.000000	22.101200
543.000000	21.928500
542.000000	21.796200
541.000000	21.610400
540.000000	21.459100
539.000000	21.290100
538.000000	21.118500
537.000000	20.951600
536.000000	20.774600
535.000000	20.580500
534.000000	20.393100
533.000000	20.211100
532.000000	20.022200
531.000000	19.832300
530.000000	19.626900
529.000000	19.420800
528.000000	19.208300
527.000000	19.012200
526.000000	18.793400
525.000000	18.567900
524.000000	18.353400
523.000000	18.111300
522.000000	17.885400
521.000000	17.645600
520.000000	17.415700
519.000000	17.179800
518.000000	16.941300
517.000000	16.716100
516.000000	16.478600
515.000000	16.233500
514.000000	16.007500
513.000000	15.794800
512.000000	15.594400
511.000000	15.378100
510.000000	15.154400
509.000000	14.953100
508.000000	14.764400
507.000000	14.575800
506.000000	14.394100
505.000000	14.226100
504.000000	14.041900
503.000000	13.883300
502.000000	13.709000
501.000000	13.541900
500.000000	13.396700
499.000000	13.236400
498.000000	13.109100
497.000000	12.986700
496.000000	12.834400
495.000000	12.720600
494.000000	12.609600
493.000000	12.477800
492.000000	12.359500
491.000000	12.238900
490.000000	12.155100
489.000000	12.071800
488.000000	11.985700
487.000000	11.888000
486.000000	11.800100
485.000000	11.730900
484.000000	11.663000
483.000000	11.565800
482.000000	11.493400
481.000000	11.406700
480.000000	11.307800
479.000000	11.212700
478.000000	11.125000
477.000000	11.045300
476.000000	10.956800
475.000000	10.874800
474.000000	10.806200
473.000000	10.746400
472.000000	10.660200
471.000000	10.605400
470.000000	10.533700
469.000000	10.469100
468.000000	10.426700
467.000000	10.373000
466.000000	10.323400
465.000000	10.275000
464.000000	10.222300
463.000000	10.193500
462.000000	10.140100
461.000000	10.073700
460.000000	10.055100
459.000000	10.006600
458.000000	9.946300
457.000000	9.917500
456.000000	9.878900
455.000000	9.832400
454.000000	9.779300
453.000000	9.727300
452.000000	9.664000
451.000000	9.609700
450.000000	9.563600
449.000000	9.490400
448.000000	9.442400
447.000000	9.378500
446.000000	9.303900
445.000000	9.247100
444.000000	9.165400
443.000000	9.084600
442.000000	9.019100
441.000000	8.925900
440.000000	8.841300
439.000000	8.740900
438.000000	8.640500
437.000000	8.558000
436.000000	8.464600
435.000000	8.385600
434.000000	8.289900
433.000000	8.195200
432.000000	8.106600
431.000000	7.996800
430.000000	7.917700
429.000000	7.846100
428.000000	7.741800
427.000000	7.659500
426.000000	7.572100
425.000000	7.471600
424.000000	7.372600
423.000000	7.298400
422.000000	7.199900
421.000000	7.106900
420.000000	7.007200
419.000000	6.915600
418.000000	6.837300
417.000000	6.761600
416.000000	6.656100
415.000000	6.563100
414.000000	6.479500
413.000000	6.403600
412.000000	6.309200
411.000000	6.227300
410.000000	6.131500
409.000000	6.048200
408.000000	5.978200
407.000000	5.902500
406.000000	5.807100
405.000000	5.734900
404.000000	5.669500
403.000000	5.582500
402.000000	5.515300
401.000000	5.456100
400.000000	5.392000
399.000000	5.313900
398.000000	5.260100
397.000000	5.205600
396.000000	5.151300
395.000000	5.076900
394.000000	5.016200
393.000000	4.973300
392.000000	4.906800
391.000000	4.868900
390.000000	4.844200
389.000000	4.792800
388.000000	4.730300
387.000000	4.701000
386.000000	4.668900
385.000000	4.642300
384.000000	4.584300
383.000000	4.550000
382.000000	4.528000
381.000000	4.501400
380.000000	4.466500
379.000000	4.456300
378.000000	4.456200
377.000000	4.399000
376.000000	4.313700
375.000000	4.120400
374.000000	4.028400
373.000000	4.056700
372.000000	3.998000
371.000000	4.116000
370.000000	4.119800
369.000000	4.145400
368.000000	4.123600
367.000000	4.075300
366.000000	4.042000
365.000000	4.067700
364.000000	4.095700
363.000000	4.035800
362.000000	4.086600
361.000000	4.047900
360.000000	4.045200
359.000000	4.104600
358.000000	4.095800
357.000000	4.053100
356.000000	3.989900
355.000000	4.007600
354.000000	4.077900
353.000000	4.109000
352.000000	4.159200
351.000000	4.146700
350.000000	4.151500
349.000000	4.226900
348.000000	4.179900
347.000000	4.094600
346.000000	4.049200
345.000000	4.166200
344.000000	4.191400
343.000000	4.163400
342.000000	4.113600
341.000000	4.064600
340.000000	4.045800
339.000000	3.921900
338.000000	3.911100
337.000000	4.049000
336.000000	4.068100
335.000000	4.010100
334.000000	3.955500
333.000000	4.063600
332.000000	4.213200
331.000000	4.099800
330.000000	4.211600
329.000000	4.250800
328.000000	4.113200
327.000000	4.257300
326.000000	4.163000
325.000000	4.025200
324.000000	4.206200
323.000000	4.104500
322.000000	4.196100
321.000000	4.554200
320.000000	4.607800
319.000000	4.449700
318.000000	4.431000
317.000000	4.473400
316.000000	4.235300
315.000000	4.046800
314.000000	4.036000
313.000000	4.057700
312.000000	4.059700
311.000000	4.062800
310.000000	4.058000
309.000000	4.058600
308.000000	4.075900
307.000000	4.051000
306.000000	4.045800
305.000000	4.062300
304.000000	4.064500
303.000000	4.032700
302.000000	4.045300
301.000000	4.080000
300.000000	4.063900
299.000000	4.059000
298.000000	4.072400
297.000000	4.044100
296.000000	4.049500
295.000000	4.076500
294.000000	4.021700
293.000000	4.035300
292.000000	4.043900
291.000000	4.066400
290.000000	4.061000
289.000000	4.022700
288.000000	4.019200
287.000000	4.068000
286.000000	4.064100
285.000000	4.059200
284.000000	4.060200
283.000000	4.076300
282.000000	4.083000
281.000000	4.081200
280.000000	4.103200
279.000000	4.100300
278.000000	4.098500
277.000000	4.097900
276.000000	4.068000
275.000000	4.115700
274.000000	4.119000
273.000000	4.128800
272.000000	4.145200
271.000000	4.126700
270.000000	4.154900
269.000000	4.171500
268.000000	4.210600
267.000000	4.230000
266.000000	4.237500
265.000000	4.269900
264.000000	4.260700
263.000000	4.275500
262.000000	4.299100
261.000000	4.275700
260.000000	4.294400
259.000000	4.324900
258.000000	4.315600
257.000000	4.379300
256.000000	4.409800
255.000000	4.445000
254.000000	4.438700
253.000000	4.454600
252.000000	4.458900
251.000000	4.502600
250.000000	4.491400
