PE UV       SUBTECH     SPECTRUM    ASCII       PEDS        4.00        
   -1
CICIMAUCR0209-2.Sample.ASC
24/06/12
12:28:59.00
24/06/12
12:28:59.00
Vinicio Soto Monge
C. cupreomarginata. Sex F. Ventral
250,000000
1
Lambda 1050
1050L1511233
PerkinElmer UV WinLab 6.3.2.0749 / 2.02.05 Lambda 900 UV/VIS/NIR, Aug  7 2015 09:38:08

0
0
3350/servo 860,8/2
0
0
UV/VIS
1
1
1
DoubleDePol,CommonBeamDepol,RBeamAtt,SBeamAtt,60mm sphere, WB InGaAs Detector
0
0
0
0
Program
Program
3350/servo 860,8/2
3350/0,2 860,8/0,2
3350/0,2 860,8/0,2
0
15.00
 
 
 
0
 
860,8
319,2
860,8
Front
100
on
S:100 R:100
0
0
0
0
 
0
 
 
 
0
 
 
0
0
0
0
0
 
 
 
 
0
0


0
0
#HDR
-1
-1
#GR
nm
%R
1.0
0.0
2500,000000
-1,000000
2251
8
56,865700
3,647200
#DATA
2482.000000	7.063192
2481.000000	6.935282
2480.000000	6.959355
2479.000000	6.868369
2478.000000	6.849397
2477.000000	6.896420
2476.000000	6.855415
2475.000000	6.917024
2474.000000	6.853579
2473.000000	6.866023
2472.000000	6.886526
2471.000000	6.877141
2470.000000	6.774630
2469.000000	6.882751
2468.000000	6.938648
2467.000000	6.911414
2466.000000	6.976899
2465.000000	7.038100
2464.000000	7.057174
2463.000000	6.968637
2462.000000	7.008519
2461.000000	6.959253
2460.000000	7.072372
2459.000000	7.118987
2458.000000	7.127555
2457.000000	7.130921
2456.000000	7.153361
2455.000000	7.163357
2454.000000	7.221600
2453.000000	7.211502
2452.000000	7.282801
2451.000000	7.317992
2450.000000	7.375214
2449.000000	7.350734
2448.000000	7.439475
2447.000000	7.430499
2446.000000	7.479766
2445.000000	7.581053
2444.000000	7.577381
2443.000000	7.580339
2442.000000	7.690093
2441.000000	7.747214
2440.000000	7.779854
2439.000000	7.780466
2438.000000	7.832385
2437.000000	7.869921
2436.000000	7.951829
2435.000000	8.023536
2434.000000	8.033940
2433.000000	8.062500
2432.000000	8.113603
2431.000000	8.175620
2430.000000	8.180924
2429.000000	8.186840
2428.000000	8.246919
2427.000000	8.291595
2426.000000	8.336884
2425.000000	8.363506
2424.000000	8.426747
2423.000000	8.421545
2422.000000	8.460816
2421.000000	8.548333
2420.000000	8.573017
2419.000000	8.616062
2418.000000	8.612288
2417.000000	8.612186
2416.000000	8.680425
2415.000000	8.703783
2414.000000	8.736322
2413.000000	8.763760
2412.000000	8.771308
2411.000000	8.801909
2410.000000	8.824961
2409.000000	8.824757
2408.000000	8.872698
2407.000000	8.877492
2406.000000	8.924514
2405.000000	8.960113
2404.000000	8.960725
2403.000000	8.972761
2402.000000	9.004280
2401.000000	9.027842
2400.000000	9.054158
2399.000000	9.061196
2398.000000	9.060278
2397.000000	9.093327
2396.000000	9.117195
2395.000000	9.131067
2394.000000	9.152182
2393.000000	9.175846
2392.000000	9.200020
2391.000000	9.211852
2390.000000	9.229193
2389.000000	9.226847
2388.000000	9.232763
2387.000000	9.232355
2386.000000	9.252551
2385.000000	9.280091
2384.000000	9.304470
2383.000000	9.304776
2382.000000	9.285090
2381.000000	9.308958
2380.000000	9.321912
2379.000000	9.329664
2378.000000	9.354246
2377.000000	9.359449
2376.000000	9.359041
2375.000000	9.364549
2374.000000	9.338946
2373.000000	9.336498
2372.000000	9.358633
2371.000000	9.347616
2370.000000	9.329256
2369.000000	9.354042
2368.000000	9.364753
2367.000000	9.368323
2366.000000	9.398821
2365.000000	9.387805
2364.000000	9.385255
2363.000000	9.386071
2362.000000	9.374953
2361.000000	9.382195
2360.000000	9.375157
2359.000000	9.385969
2358.000000	9.401779
2357.000000	9.388723
2356.000000	9.376075
2355.000000	9.376177
2354.000000	9.370057
2353.000000	9.371893
2352.000000	9.384541
2351.000000	9.389539
2350.000000	9.375463
2349.000000	9.372811
2348.000000	9.390661
2347.000000	9.393517
2346.000000	9.401779
2345.000000	9.420547
2344.000000	9.406981
2343.000000	9.385255
2342.000000	9.415753
2341.000000	9.441968
2340.000000	9.450026
2339.000000	9.469610
2338.000000	9.485114
2337.000000	9.488276
2336.000000	9.487052
2335.000000	9.481442
2334.000000	9.487766
2333.000000	9.504903
2332.000000	9.511941
2331.000000	9.508065
2330.000000	9.520203
2329.000000	9.549783
2328.000000	9.564777
2327.000000	9.562941
2326.000000	9.554679
2325.000000	9.558759
2324.000000	9.588340
2323.000000	9.582526
2322.000000	9.580282
2321.000000	9.571204
2320.000000	9.549273
2319.000000	9.553047
2318.000000	9.542949
2317.000000	9.520713
2316.000000	9.502659
2315.000000	9.497763
2314.000000	9.480626
2313.000000	9.443396
2312.000000	9.420241
2311.000000	9.397495
2310.000000	9.371689
2309.000000	9.350064
2308.000000	9.334458
2307.000000	9.330174
2306.000000	9.312222
2305.000000	9.291006
2304.000000	9.296922
2303.000000	9.291210
2302.000000	9.291312
2301.000000	9.297228
2300.000000	9.321810
2299.000000	9.325992
2298.000000	9.342108
2297.000000	9.362917
2296.000000	9.390559
2295.000000	9.404737
2294.000000	9.439418
2293.000000	9.466958
2292.000000	9.499905
2291.000000	9.518877
2290.000000	9.541623
2289.000000	9.571102
2288.000000	9.596092
2287.000000	9.614248
2286.000000	9.640667
2285.000000	9.651683
2284.000000	9.672797
2283.000000	9.717066
2282.000000	9.722472
2281.000000	9.705743
2280.000000	9.735732
2279.000000	9.720432
2278.000000	9.733080
2277.000000	9.746442
2276.000000	9.735834
2275.000000	9.741342
2274.000000	9.773064
2273.000000	9.773574
2272.000000	9.772656
2271.000000	9.780205
2270.000000	9.794587
2269.000000	9.816007
2268.000000	9.845077
2267.000000	9.861296
2266.000000	9.877820
2265.000000	9.923007
2264.000000	9.951261
2263.000000	10.018072
2262.000000	10.106711
2261.000000	10.137822
2260.000000	10.237783
2259.000000	10.306838
2258.000000	10.388541
2257.000000	10.488809
2256.000000	10.562862
2255.000000	10.656091
2254.000000	10.769109
2253.000000	10.876822
2252.000000	10.955363
2251.000000	11.049307
2250.000000	11.166914
2249.000000	11.248413
2248.000000	11.335115
2247.000000	11.417634
2246.000000	11.502193
2245.000000	11.564312
2244.000000	11.637039
2243.000000	11.704768
2242.000000	11.762093
2241.000000	11.819213
2240.000000	11.860320
2239.000000	11.908363
2238.000000	11.932435
2237.000000	11.980376
2236.000000	12.016076
2235.000000	12.045351
2234.000000	12.076971
2233.000000	12.071055
2232.000000	12.069525
2231.000000	12.088701
2230.000000	12.104205
2229.000000	12.076053
2228.000000	12.084621
2227.000000	12.062385
2226.000000	12.043821
2225.000000	12.010874
2224.000000	12.010364
2223.000000	11.987516
2222.000000	11.955487
2221.000000	11.932129
2220.000000	11.889186
2219.000000	11.873172
2218.000000	11.831046
2217.000000	11.768621
2216.000000	11.759339
2215.000000	11.723536
2214.000000	11.685184
2213.000000	11.671005
2212.000000	11.645199
2211.000000	11.608274
2210.000000	11.583896
2209.000000	11.551868
2208.000000	11.532487
2207.000000	11.489341
2206.000000	11.487811
2205.000000	11.460678
2204.000000	11.457108
2203.000000	11.413962
2202.000000	11.402436
2201.000000	11.416410
2200.000000	11.391011
2199.000000	11.386217
2198.000000	11.363165
2197.000000	11.345417
2196.000000	11.344805
2195.000000	11.339297
2194.000000	11.326954
2193.000000	11.311246
2192.000000	11.289418
2191.000000	11.274730
2190.000000	11.285644
2189.000000	11.282074
2188.000000	11.275444
2187.000000	11.263204
2186.000000	11.267794
2185.000000	11.244741
2184.000000	11.232195
2183.000000	11.217507
2182.000000	11.220771
2181.000000	11.197821
2180.000000	11.183336
2179.000000	11.174870
2178.000000	11.174462
2177.000000	11.174564
2176.000000	11.168138
2175.000000	11.160590
2174.000000	11.156000
2173.000000	11.160080
2172.000000	11.160998
2171.000000	11.143148
2170.000000	11.153144
2169.000000	11.142128
2168.000000	11.155592
2167.000000	11.179664
2166.000000	11.190477
2165.000000	11.190171
2164.000000	11.208939
2163.000000	11.222505
2162.000000	11.262388
2161.000000	11.266978
2160.000000	11.263204
2159.000000	11.303494
2158.000000	11.331034
2157.000000	11.359901
2156.000000	11.398253
2155.000000	11.421918
2154.000000	11.447826
2153.000000	11.487913
2152.000000	11.542789
2151.000000	11.589710
2150.000000	11.612252
2149.000000	11.645811
2148.000000	11.679879
2147.000000	11.723230
2146.000000	11.766785
2145.000000	11.798303
2144.000000	11.835330
2143.000000	11.863176
2142.000000	11.904181
2141.000000	11.933047
2140.000000	11.973440
2139.000000	12.009344
2138.000000	12.037701
2137.000000	12.050451
2136.000000	12.094005
2135.000000	12.119302
2134.000000	12.134806
2133.000000	12.161938
2132.000000	12.196517
2131.000000	12.210899
2130.000000	12.219977
2129.000000	12.245681
2128.000000	12.251598
2127.000000	12.269754
2126.000000	12.277812
2125.000000	12.284850
2124.000000	12.282198
2123.000000	12.287910
2122.000000	12.312186
2121.000000	12.317388
2120.000000	12.316674
2119.000000	12.305352
2118.000000	12.295458
2117.000000	12.306984
2116.000000	12.302292
2115.000000	12.274344
2114.000000	12.273528
2113.000000	12.269856
2112.000000	12.265572
2111.000000	12.256494
2110.000000	12.238949
2109.000000	12.212837
2108.000000	12.203147
2107.000000	12.190907
2106.000000	12.166324
2105.000000	12.148372
2104.000000	12.140008
2103.000000	12.131746
2102.000000	12.113692
2101.000000	12.095127
2100.000000	12.075339
2099.000000	12.051777
2098.000000	12.038721
2097.000000	12.028520
2096.000000	12.019952
2095.000000	12.002408
2094.000000	11.971196
2093.000000	11.951509
2092.000000	11.952121
2091.000000	11.941513
2090.000000	11.917645
2089.000000	11.911423
2088.000000	11.892246
2087.000000	11.864502
2086.000000	11.853282
2085.000000	11.832066
2084.000000	11.815133
2083.000000	11.793713
2082.000000	11.760155
2081.000000	11.734246
2080.000000	11.698546
2079.000000	11.666313
2078.000000	11.624187
2077.000000	11.592770
2076.000000	11.567168
2075.000000	11.529733
2074.000000	11.485465
2073.000000	11.436912
2072.000000	11.398763
2071.000000	11.332565
2070.000000	11.261572
2069.000000	11.195577
2068.000000	11.140088
2067.000000	11.096023
2066.000000	11.050021
2065.000000	10.997388
2064.000000	10.936697
2063.000000	10.885084
2062.000000	10.837246
2061.000000	10.778901
2060.000000	10.721576
2059.000000	10.687405
2058.000000	10.645177
2057.000000	10.611006
2056.000000	10.585302
2055.000000	10.554702
2054.000000	10.539809
2053.000000	10.536647
2052.000000	10.532771
2051.000000	10.537565
2050.000000	10.546337
2049.000000	10.559190
2048.000000	10.566228
2047.000000	10.573164
2046.000000	10.599174
2045.000000	10.652725
2044.000000	10.687915
2043.000000	10.711784
2042.000000	10.726370
2041.000000	10.760132
2040.000000	10.791243
2039.000000	10.820007
2038.000000	10.852648
2037.000000	10.873354
2036.000000	10.885288
2035.000000	10.920479
2034.000000	10.931495
2033.000000	10.948529
2032.000000	10.959035
2031.000000	10.953323
2030.000000	10.963115
2029.000000	10.970357
2028.000000	10.989534
2027.000000	10.996266
2026.000000	10.988106
2025.000000	10.981374
2024.000000	10.980558
2023.000000	10.978007
2022.000000	10.978722
2021.000000	10.959137
2020.000000	10.947509
2019.000000	10.946591
2018.000000	10.926905
2017.000000	10.904464
2016.000000	10.884472
2015.000000	10.876516
2014.000000	10.858054
2013.000000	10.844386
2012.000000	10.825515
2011.000000	10.791957
2010.000000	10.767375
2009.000000	10.746668
2008.000000	10.719026
2007.000000	10.680775
2006.000000	10.652011
2005.000000	10.595094
2004.000000	10.561536
2003.000000	10.525529
2002.000000	10.495235
2001.000000	10.461370
2000.000000	10.417714
1999.000000	10.380891
1998.000000	10.342845
1997.000000	10.302350
1996.000000	10.247473
1995.000000	10.194228
1994.000000	10.148430
1993.000000	10.108547
1992.000000	10.071929
1991.000000	10.029700
1990.000000	9.962481
1989.000000	9.896078
1988.000000	9.868130
1987.000000	9.824371
1986.000000	9.762558
1985.000000	9.716352
1984.000000	9.682691
1983.000000	9.617308
1982.000000	9.563553
1981.000000	9.530709
1980.000000	9.458900
1979.000000	9.416365
1978.000000	9.354961
1977.000000	9.317220
1976.000000	9.263975
1975.000000	9.216443
1974.000000	9.182680
1973.000000	9.134535
1972.000000	9.072825
1971.000000	9.039878
1970.000000	8.985307
1969.000000	8.946649
1968.000000	8.913396
1967.000000	8.869536
1966.000000	8.829857
1965.000000	8.780080
1964.000000	8.749378
1963.000000	8.710311
1962.000000	8.672877
1961.000000	8.621876
1960.000000	8.598212
1959.000000	8.545783
1958.000000	8.496210
1957.000000	8.473668
1956.000000	8.426951
1955.000000	8.408489
1954.000000	8.367383
1953.000000	8.310874
1952.000000	8.285883
1951.000000	8.244267
1950.000000	8.229783
1949.000000	8.180516
1948.000000	8.163074
1947.000000	8.142367
1946.000000	8.115031
1945.000000	8.105545
1944.000000	8.066682
1943.000000	8.045160
1942.000000	8.031900
1941.000000	8.005277
1940.000000	7.998341
1939.000000	8.007827
1938.000000	7.978247
1937.000000	7.969985
1936.000000	7.972229
1935.000000	7.973351
1934.000000	7.987529
1933.000000	7.974269
1932.000000	7.987223
1931.000000	8.027820
1930.000000	8.019048
1929.000000	8.056074
1928.000000	8.088511
1927.000000	8.096569
1926.000000	8.133187
1925.000000	8.167562
1924.000000	8.215808
1923.000000	8.264769
1922.000000	8.317096
1921.000000	8.367485
1920.000000	8.439600
1919.000000	8.499882
1918.000000	8.567611
1917.000000	8.634116
1916.000000	8.699091
1915.000000	8.784160
1914.000000	8.876166
1913.000000	8.968579
1912.000000	9.085269
1911.000000	9.184516
1910.000000	9.286008
1909.000000	9.394435
1908.000000	9.496131
1907.000000	9.638627
1906.000000	9.767862
1905.000000	9.963909
1904.000000	10.157406
1903.000000	10.314080
1902.000000	10.482280
1901.000000	10.669453
1900.000000	10.899670
1899.000000	11.139782
1898.000000	11.428752
1897.000000	11.661111
1896.000000	11.908873
1895.000000	12.154186
1894.000000	12.413066
1893.000000	12.691938
1892.000000	13.016608
1891.000000	13.383100
1890.000000	13.763463
1889.000000	14.121182
1888.000000	14.497669
1887.000000	14.837844
1886.000000	15.211679
1885.000000	15.570113
1884.000000	15.991277
1883.000000	16.401832
1882.000000	16.786276
1881.000000	17.191528
1880.000000	17.544657
1879.000000	17.867899
1878.000000	18.262747
1877.000000	18.637398
1876.000000	18.966455
1875.000000	19.319278
1874.000000	19.675875
1873.000000	20.049200
1872.000000	20.403859
1871.000000	20.743218
1870.000000	21.085433
1869.000000	21.405615
1868.000000	21.719882
1867.000000	21.966011
1866.000000	22.186538
1865.000000	22.388909
1864.000000	22.573430
1863.000000	22.732552
1862.000000	22.920235
1861.000000	23.114139
1860.000000	23.314980
1859.000000	23.478795
1858.000000	23.654747
1857.000000	23.805505
1856.000000	23.941065
1855.000000	24.039191
1854.000000	24.173118
1853.000000	24.295418
1852.000000	24.380487
1851.000000	24.449542
1850.000000	24.496259
1849.000000	24.535938
1848.000000	24.632635
1847.000000	24.763095
1846.000000	24.817666
1845.000000	24.812259
1844.000000	24.815625
1843.000000	24.797775
1842.000000	24.831232
1841.000000	24.893657
1840.000000	24.918239
1839.000000	24.931499
1838.000000	24.930683
1837.000000	24.929867
1836.000000	24.944759
1835.000000	24.943535
1834.000000	24.922523
1833.000000	24.889475
1832.000000	24.855508
1831.000000	24.834394
1830.000000	24.835822
1829.000000	24.827560
1828.000000	24.812667
1827.000000	24.783903
1826.000000	24.756363
1825.000000	24.761055
1824.000000	24.731066
1823.000000	24.698120
1822.000000	24.676700
1821.000000	24.706178
1820.000000	24.737186
1819.000000	24.749325
1818.000000	24.695060
1817.000000	24.637429
1816.000000	24.631921
1815.000000	24.627637
1814.000000	24.601932
1813.000000	24.595404
1812.000000	24.583266
1811.000000	24.545832
1810.000000	24.515333
1809.000000	24.491261
1808.000000	24.456478
1807.000000	24.425470
1806.000000	24.408232
1805.000000	24.381507
1804.000000	24.353559
1803.000000	24.324795
1802.000000	24.291338
1801.000000	24.277874
1800.000000	24.248293
1799.000000	24.210247
1798.000000	24.181687
1797.000000	24.155676
1796.000000	24.137316
1795.000000	24.105491
1794.000000	24.085907
1793.000000	24.069893
1792.000000	24.047657
1791.000000	24.026746
1790.000000	24.020014
1789.000000	24.003796
1788.000000	23.989822
1787.000000	23.986660
1786.000000	23.975236
1785.000000	23.965749
1784.000000	23.956875
1783.000000	23.945655
1782.000000	23.941983
1781.000000	23.916687
1780.000000	23.896286
1779.000000	23.890370
1778.000000	23.874050
1777.000000	23.856812
1776.000000	23.826007
1775.000000	23.813155
1774.000000	23.796835
1773.000000	23.769193
1772.000000	23.758177
1771.000000	23.739000
1770.000000	23.714112
1769.000000	23.674229
1768.000000	23.654951
1767.000000	23.627411
1766.000000	23.600686
1765.000000	23.589364
1764.000000	23.582938
1763.000000	23.583448
1762.000000	23.584672
1761.000000	23.597524
1760.000000	23.613640
1759.000000	23.635979
1758.000000	23.661887
1757.000000	23.688612
1756.000000	23.718192
1755.000000	23.750832
1754.000000	23.785207
1753.000000	23.812441
1752.000000	23.849876
1751.000000	23.877620
1750.000000	23.900265
1749.000000	23.906385
1748.000000	23.893940
1747.000000	23.888024
1746.000000	23.891288
1745.000000	23.881496
1744.000000	23.872418
1743.000000	23.819173
1742.000000	23.768887
1741.000000	23.731248
1740.000000	23.687184
1739.000000	23.655053
1738.000000	23.602318
1737.000000	23.550196
1736.000000	23.501439
1735.000000	23.445134
1734.000000	23.401681
1733.000000	23.372407
1732.000000	23.349151
1731.000000	23.323752
1730.000000	23.303760
1729.000000	23.279076
1728.000000	23.281422
1727.000000	23.298762
1726.000000	23.304576
1725.000000	23.310594
1724.000000	23.325078
1723.000000	23.353945
1722.000000	23.416676
1721.000000	23.485323
1720.000000	23.577226
1719.000000	23.687694
1718.000000	23.795509
1717.000000	23.911485
1716.000000	24.043883
1715.000000	24.159858
1714.000000	24.278690
1713.000000	24.393952
1712.000000	24.493097
1711.000000	24.600402
1710.000000	24.674762
1709.000000	24.769725
1708.000000	24.834598
1707.000000	24.889883
1706.000000	24.937823
1705.000000	24.996780
1704.000000	25.022994
1703.000000	25.043905
1702.000000	25.033399
1701.000000	25.047985
1700.000000	25.042171
1699.000000	25.040743
1698.000000	25.028911
1697.000000	25.035847
1696.000000	25.013100
1695.000000	24.982194
1694.000000	24.953123
1693.000000	24.941291
1692.000000	24.935579
1691.000000	24.926195
1690.000000	24.923543
1689.000000	24.944045
1688.000000	24.970668
1687.000000	25.052983
1686.000000	25.115102
1685.000000	25.195173
1684.000000	25.314617
1683.000000	25.446402
1682.000000	25.593795
1681.000000	25.768217
1680.000000	25.901839
1679.000000	26.088910
1678.000000	26.250582
1677.000000	26.438060
1676.000000	26.587493
1675.000000	26.754571
1674.000000	26.901351
1673.000000	27.062207
1672.000000	27.200317
1671.000000	27.326595
1670.000000	27.481637
1669.000000	27.607609
1668.000000	27.704816
1667.000000	27.815590
1666.000000	27.900659
1665.000000	28.009189
1664.000000	28.055293
1663.000000	28.161987
1662.000000	28.216048
1661.000000	28.299281
1660.000000	28.361910
1659.000000	28.420051
1658.000000	28.459321
1657.000000	28.493186
1656.000000	28.534598
1655.000000	28.544186
1654.000000	28.565913
1653.000000	28.554182
1652.000000	28.578867
1651.000000	28.579479
1650.000000	28.564485
1649.000000	28.552142
1648.000000	28.518482
1647.000000	28.492370
1646.000000	28.469827
1645.000000	28.449529
1644.000000	28.418623
1643.000000	28.396590
1642.000000	28.370580
1641.000000	28.328249
1640.000000	28.292345
1639.000000	28.261846
1638.000000	28.229002
1637.000000	28.192485
1636.000000	28.153623
1635.000000	28.123226
1634.000000	28.078244
1633.000000	28.019695
1632.000000	27.971040
1631.000000	27.917285
1630.000000	27.876893
1629.000000	27.818956
1628.000000	27.775095
1627.000000	27.704306
1626.000000	27.651062
1625.000000	27.600061
1624.000000	27.536718
1623.000000	27.471131
1622.000000	27.428699
1621.000000	27.379636
1620.000000	27.312417
1619.000000	27.259070
1618.000000	27.201133
1617.000000	27.175123
1616.000000	27.112902
1615.000000	27.047825
1614.000000	26.984278
1613.000000	26.939704
1612.000000	26.867589
1611.000000	26.808836
1610.000000	26.765281
1609.000000	26.700000
1608.000000	26.631965
1607.000000	26.561992
1606.000000	26.484165
1605.000000	26.431634
1604.000000	26.335141
1603.000000	26.286384
1602.000000	26.204273
1601.000000	26.113900
1600.000000	26.049435
1599.000000	25.980788
1598.000000	25.900819
1597.000000	25.809426
1596.000000	25.760567
1595.000000	25.686616
1594.000000	25.608381
1593.000000	25.530452
1592.000000	25.468639
1591.000000	25.413558
1590.000000	25.344911
1589.000000	25.280038
1588.000000	25.218531
1587.000000	25.143458
1586.000000	25.083991
1585.000000	25.029625
1584.000000	24.975258
1583.000000	24.898043
1582.000000	24.831742
1581.000000	24.774927
1580.000000	24.726476
1579.000000	24.658135
1578.000000	24.598566
1577.000000	24.561030
1576.000000	24.505643
1575.000000	24.446992
1574.000000	24.388851
1573.000000	24.354375
1572.000000	24.309392
1571.000000	24.291644
1570.000000	24.246763
1569.000000	24.186787
1568.000000	24.155574
1567.000000	24.135990
1566.000000	24.088559
1565.000000	24.055511
1564.000000	24.023992
1563.000000	23.973706
1562.000000	23.922297
1561.000000	23.890064
1560.000000	23.841818
1559.000000	23.780821
1558.000000	23.731350
1557.000000	23.658215
1556.000000	23.587732
1555.000000	23.545402
1554.000000	23.483793
1553.000000	23.401885
1552.000000	23.302944
1551.000000	23.224403
1550.000000	23.150350
1549.000000	23.071401
1548.000000	22.984496
1547.000000	22.901772
1546.000000	22.833431
1545.000000	22.761826
1544.000000	22.683285
1543.000000	22.625960
1542.000000	22.549969
1541.000000	22.480710
1540.000000	22.428792
1539.000000	22.364225
1538.000000	22.302004
1537.000000	22.238253
1536.000000	22.180724
1535.000000	22.114933
1534.000000	22.036086
1533.000000	21.975395
1532.000000	21.907462
1531.000000	21.838509
1530.000000	21.785265
1529.000000	21.708763
1528.000000	21.640525
1527.000000	21.576774
1526.000000	21.497518
1525.000000	21.416427
1524.000000	21.349820
1523.000000	21.293414
1522.000000	21.209160
1521.000000	21.129293
1520.000000	21.069724
1519.000000	20.998017
1518.000000	20.911316
1517.000000	20.831755
1516.000000	20.764434
1515.000000	20.698745
1514.000000	20.618878
1513.000000	20.528403
1512.000000	20.460776
1511.000000	20.383867
1510.000000	20.303694
1509.000000	20.234639
1508.000000	20.149059
1507.000000	20.066132
1506.000000	19.984837
1505.000000	19.919658
1504.000000	19.843463
1503.000000	19.757170
1502.000000	19.698621
1501.000000	19.623344
1500.000000	19.561939
1499.000000	19.499616
1498.000000	19.433825
1497.000000	19.370380
1496.000000	19.308771
1495.000000	19.262463
1494.000000	19.207586
1493.000000	19.145365
1492.000000	19.089570
1491.000000	19.036530
1490.000000	19.002971
1489.000000	18.959213
1488.000000	18.901888
1487.000000	18.860475
1486.000000	18.823551
1485.000000	18.779792
1484.000000	18.719407
1483.000000	18.681871
1482.000000	18.659328
1481.000000	18.615570
1480.000000	18.569669
1479.000000	18.553757
1478.000000	18.519382
1477.000000	18.497452
1476.000000	18.471544
1475.000000	18.442575
1474.000000	18.423807
1473.000000	18.415137
1472.000000	18.415647
1471.000000	18.401163
1470.000000	18.393921
1469.000000	18.385760
1468.000000	18.365972
1467.000000	18.372602
1466.000000	18.384332
1465.000000	18.374234
1464.000000	18.378518
1463.000000	18.404121
1462.000000	18.419931
1461.000000	18.438495
1460.000000	18.444615
1459.000000	18.465526
1458.000000	18.496738
1457.000000	18.529990
1456.000000	18.569669
1455.000000	18.592109
1454.000000	18.628014
1453.000000	18.658206
1452.000000	18.694621
1451.000000	18.745724
1450.000000	18.821715
1449.000000	18.841197
1448.000000	18.870981
1447.000000	18.922186
1446.000000	18.993485
1445.000000	19.063356
1444.000000	19.088040
1443.000000	19.152607
1442.000000	19.208096
1441.000000	19.272765
1440.000000	19.336618
1439.000000	19.422503
1438.000000	19.486356
1437.000000	19.560919
1436.000000	19.638134
1435.000000	19.716777
1434.000000	19.808885
1433.000000	19.891404
1432.000000	19.993099
1431.000000	20.118867
1430.000000	20.204548
1429.000000	20.323992
1428.000000	20.438846
1427.000000	20.560023
1426.000000	20.685281
1425.000000	20.828797
1424.000000	20.988327
1423.000000	21.150612
1422.000000	21.317792
1421.000000	21.468244
1420.000000	21.637464
1419.000000	21.844425
1418.000000	22.058016
1417.000000	22.232133
1416.000000	22.429200
1415.000000	22.672269
1414.000000	22.927375
1413.000000	23.209613
1412.000000	23.449622
1411.000000	23.680145
1410.000000	23.963913
1409.000000	24.338565
1408.000000	24.636511
1407.000000	24.993924
1406.000000	25.311251
1405.000000	25.707730
1404.000000	26.085645
1403.000000	26.494671
1402.000000	26.847086
1401.000000	27.284264
1400.000000	27.829768
1399.000000	28.317845
1398.000000	28.687498
1397.000000	29.056744
1396.000000	29.570729
1395.000000	30.190082
1394.000000	30.738033
1393.000000	31.179496
1392.000000	31.715105
1391.000000	32.265403
1390.000000	32.814987
1389.000000	33.303166
1388.000000	33.913236
1387.000000	34.542483
1386.000000	35.067893
1385.000000	35.577900
1384.000000	36.095965
1383.000000	36.623007
1382.000000	37.171571
1381.000000	37.691370
1380.000000	38.071427
1379.000000	38.443835
1378.000000	38.777685
1377.000000	39.084608
1376.000000	39.371130
1375.000000	39.647044
1374.000000	39.905413
1373.000000	40.174901
1372.000000	40.446633
1371.000000	40.720099
1370.000000	40.963372
1369.000000	41.182165
1368.000000	41.411261
1367.000000	41.655452
1366.000000	41.805802
1365.000000	41.989405
1364.000000	42.178515
1363.000000	42.300611
1362.000000	42.475442
1361.000000	42.666184
1360.000000	42.837853
1359.000000	42.881407
1358.000000	43.011459
1357.000000	43.127843
1356.000000	43.237494
1355.000000	43.421097
1354.000000	43.594091
1353.000000	43.780754
1352.000000	43.939366
1351.000000	44.133985
1350.000000	44.367466
1349.000000	44.568715
1348.000000	44.792608
1347.000000	45.050978
1346.000000	45.261815
1345.000000	45.469082
1344.000000	45.725820
1343.000000	45.930843
1342.000000	46.161876
1341.000000	46.376997
1340.000000	46.603542
1339.000000	46.827537
1338.000000	47.058367
1337.000000	47.267266
1336.000000	47.500645
1335.000000	47.726680
1334.000000	47.939455
1333.000000	48.142336
1332.000000	48.354499
1331.000000	48.561868
1330.000000	48.774541
1329.000000	48.974872
1328.000000	49.158780
1327.000000	49.359825
1326.000000	49.533636
1325.000000	49.723562
1324.000000	49.899821
1323.000000	50.083015
1322.000000	50.252338
1321.000000	50.411256
1320.000000	50.569868
1319.000000	50.731439
1318.000000	50.865264
1317.000000	51.005210
1316.000000	51.143422
1315.000000	51.294895
1314.000000	51.447285
1313.000000	51.568972
1312.000000	51.700248
1311.000000	51.824996
1310.000000	51.928018
1309.000000	52.045421
1308.000000	52.137426
1307.000000	52.251872
1306.000000	52.332351
1305.000000	52.422725
1304.000000	52.503000
1303.000000	52.580623
1302.000000	52.656920
1301.000000	52.718529
1300.000000	52.777894
1299.000000	52.838176
1298.000000	52.905599
1297.000000	52.952928
1296.000000	53.005969
1295.000000	53.055950
1294.000000	53.085224
1293.000000	53.123678
1292.000000	53.158155
1291.000000	53.177127
1290.000000	53.194263
1289.000000	53.210074
1288.000000	53.217622
1287.000000	53.246182
1286.000000	53.248936
1285.000000	53.242714
1284.000000	53.247916
1283.000000	53.250160
1282.000000	53.239450
1281.000000	53.223640
1280.000000	53.229556
1279.000000	53.219560
1278.000000	53.205484
1277.000000	53.197426
1276.000000	53.196099
1275.000000	53.198956
1274.000000	53.196711
1273.000000	53.193651
1272.000000	53.180493
1271.000000	53.184267
1270.000000	53.196405
1269.000000	53.201302
1268.000000	53.195079
1267.000000	53.199466
1266.000000	53.190897
1265.000000	53.187327
1264.000000	53.170701
1263.000000	53.149791
1262.000000	53.146833
1261.000000	53.134899
1260.000000	53.111744
1259.000000	53.093690
1258.000000	53.076044
1257.000000	53.041057
1256.000000	53.018719
1255.000000	52.999135
1254.000000	52.963944
1253.000000	52.923450
1252.000000	52.870103
1251.000000	52.824610
1250.000000	52.769835
1249.000000	52.722813
1248.000000	52.679768
1247.000000	52.614589
1246.000000	52.544922
1245.000000	52.487903
1244.000000	52.419154
1243.000000	52.340307
1242.000000	52.274210
1241.000000	52.206583
1240.000000	52.145791
1239.000000	52.086426
1238.000000	52.015943
1237.000000	51.956068
1236.000000	51.892521
1235.000000	51.820712
1234.000000	51.758083
1233.000000	51.693516
1232.000000	51.633131
1231.000000	51.570400
1230.000000	51.493797
1229.000000	51.429434
1228.000000	51.358237
1227.000000	51.273576
1226.000000	51.200033
1225.000000	51.119350
1224.000000	51.037545
1223.000000	50.951864
1222.000000	50.862204
1221.000000	50.766833
1220.000000	50.668606
1219.000000	50.585679
1218.000000	50.497753
1217.000000	50.408400
1216.000000	50.320679
1215.000000	50.235202
1214.000000	50.150642
1213.000000	50.073223
1212.000000	50.005494
1211.000000	49.936949
1210.000000	49.856572
1209.000000	49.776705
1208.000000	49.709486
1207.000000	49.640737
1206.000000	49.573110
1205.000000	49.502627
1204.000000	49.439794
1203.000000	49.380123
1202.000000	49.325757
1201.000000	49.275470
1200.000000	49.210597
1199.000000	49.155720
1198.000000	49.097477
1197.000000	49.038419
1196.000000	48.968446
1195.000000	48.901737
1194.000000	48.838190
1193.000000	48.768727
1192.000000	48.682026
1191.000000	48.601852
1190.000000	48.528309
1189.000000	48.462008
1188.000000	48.394993
1187.000000	48.348787
1186.000000	48.344503
1185.000000	48.338077
1184.000000	48.356233
1183.000000	48.416822
1182.000000	48.485775
1181.000000	48.563500
1180.000000	48.670601
1179.000000	48.802897
1178.000000	48.916731
1177.000000	49.036481
1176.000000	49.138890
1175.000000	49.247522
1174.000000	49.366557
1173.000000	49.461113
1172.000000	49.561992
1171.000000	49.659607
1170.000000	49.778235
1169.000000	49.890233
1168.000000	50.019060
1167.000000	50.156558
1166.000000	50.279776
1165.000000	50.430534
1164.000000	50.595777
1163.000000	50.767649
1162.000000	50.939828
1161.000000	51.108538
1160.000000	51.283674
1159.000000	51.470847
1158.000000	51.639761
1157.000000	51.807860
1156.000000	51.994930
1155.000000	52.165885
1154.000000	52.339593
1153.000000	52.509222
1152.000000	52.673546
1151.000000	52.837360
1150.000000	52.992811
1149.000000	53.157237
1148.000000	53.341554
1147.000000	53.540252
1146.000000	53.724263
1145.000000	53.931428
1144.000000	54.142265
1143.000000	54.337700
1142.000000	54.536806
1141.000000	54.783446
1140.000000	55.024781
1139.000000	55.257855
1138.000000	55.496538
1137.000000	55.752766
1136.000000	56.019193
1135.000000	56.270729
1134.000000	56.530323
1133.000000	56.719943
1132.000000	56.893958
1131.000000	57.065524
1130.000000	57.228625
1129.000000	57.372141
1128.000000	57.492400
1127.000000	57.596544
1126.000000	57.701911
1125.000000	57.785348
1124.000000	57.838491
1123.000000	57.905608
1122.000000	57.945389
1121.000000	57.966299
1120.000000	57.982925
1119.000000	57.992207
1118.000000	57.996287
1117.000000	57.998124
1116.000000	57.994859
1115.000000	58.003836
1114.000000	57.997409
1113.000000	57.983333
1112.000000	57.977519
1111.000000	57.969461
1110.000000	57.954977
1109.000000	57.953447
1108.000000	57.949265
1107.000000	57.911830
1106.000000	57.905914
1105.000000	57.911116
1104.000000	57.900508
1103.000000	57.860830
1102.000000	57.868684
1101.000000	57.842367
1100.000000	57.825741
1099.000000	57.804015
1098.000000	57.794427
1097.000000	57.778820
1096.000000	57.762092
1095.000000	57.751790
1094.000000	57.719354
1093.000000	57.693751
1092.000000	57.680083
1091.000000	57.649381
1090.000000	57.602970
1089.000000	57.590934
1088.000000	57.560333
1087.000000	57.525857
1086.000000	57.506069
1085.000000	57.454150
1084.000000	57.421305
1083.000000	57.387543
1082.000000	57.342152
1081.000000	57.314510
1080.000000	57.282073
1079.000000	57.226381
1078.000000	57.190374
1077.000000	57.152634
1076.000000	57.105509
1075.000000	57.065320
1074.000000	57.009424
1073.000000	56.968827
1072.000000	56.933126
1071.000000	56.879780
1070.000000	56.828371
1069.000000	56.774616
1068.000000	56.722697
1067.000000	56.666903
1066.000000	56.633650
1065.000000	56.575101
1064.000000	56.535015
1063.000000	56.465756
1062.000000	56.427709
1061.000000	56.348760
1060.000000	56.299901
1059.000000	56.245229
1058.000000	56.197186
1057.000000	56.162710
1056.000000	56.090798
1055.000000	56.030006
1054.000000	55.979923
1053.000000	55.930044
1052.000000	55.876697
1051.000000	55.822229
1050.000000	55.768270
1049.000000	55.714311
1048.000000	55.662494
1047.000000	55.613636
1046.000000	55.591603
1045.000000	55.510410
1044.000000	55.476342
1043.000000	55.412795
1042.000000	55.366384
1041.000000	55.334560
1040.000000	55.269993
1039.000000	55.221440
1038.000000	55.167175
1037.000000	55.119031
1036.000000	55.056810
1035.000000	55.010297
1034.000000	54.960622
1033.000000	54.908806
1032.000000	54.861885
1031.000000	54.785384
1030.000000	54.738361
1029.000000	54.666756
1028.000000	54.629118
1027.000000	54.579851
1026.000000	54.535174
1025.000000	54.462039
1024.000000	54.415629
1023.000000	54.352388
1022.000000	54.284557
1021.000000	54.237942
1020.000000	54.188472
1019.000000	54.137981
1018.000000	54.107686
1017.000000	54.042201
1016.000000	53.991303
1015.000000	53.936222
1014.000000	53.900113
1013.000000	53.875225
1012.000000	53.820348
1011.000000	53.777508
1010.000000	53.740991
1009.000000	53.702231
1008.000000	53.689378
1007.000000	53.654086
1006.000000	53.609205
1005.000000	53.581869
1004.000000	53.527910
1003.000000	53.506490
1002.000000	53.470789
1001.000000	53.427745
1000.000000	53.400714
999.000000	53.354100
998.000000	53.348694
997.000000	53.302079
996.000000	53.246896
995.000000	53.227006
994.000000	53.194773
993.000000	53.154891
992.000000	53.124902
991.000000	53.082266
990.000000	53.045953
989.000000	53.023309
988.000000	52.982406
987.000000	52.945584
986.000000	52.921818
985.000000	52.897541
984.000000	52.880201
983.000000	52.838686
982.000000	52.804108
981.000000	52.789624
980.000000	52.767795
979.000000	52.737399
978.000000	52.702412
977.000000	52.698842
976.000000	52.671404
975.000000	52.636724
974.000000	52.623973
973.000000	52.599493
972.000000	52.562059
971.000000	52.540944
970.000000	52.522176
969.000000	52.499634
968.000000	52.459853
967.000000	52.443533
966.000000	52.443023
965.000000	52.412830
964.000000	52.376416
963.000000	52.358668
962.000000	52.346529
961.000000	52.324089
960.000000	52.300119
959.000000	52.288797
958.000000	52.275128
957.000000	52.279617
956.000000	52.262990
955.000000	52.254014
954.000000	52.262072
953.000000	52.250852
952.000000	52.229024
951.000000	52.232084
950.000000	52.221578
949.000000	52.195567
948.000000	52.192099
947.000000	52.175881
946.000000	52.133652
945.000000	52.092036
944.000000	52.071432
943.000000	52.038383
942.000000	51.985648
941.000000	51.949336
940.000000	51.895581
939.000000	51.819794
938.000000	51.767977
937.000000	51.711060
936.000000	51.655266
935.000000	51.593759
934.000000	51.524500
933.000000	51.456261
932.000000	51.380780
931.000000	51.325189
930.000000	51.249606
929.000000	51.169535
928.000000	51.083038
927.000000	51.016431
926.000000	50.935849
925.000000	50.838846
924.000000	50.757347
923.000000	50.659018
922.000000	50.594043
921.000000	50.509177
920.000000	50.400852
919.000000	50.286508
918.000000	50.188791
917.000000	50.122694
916.000000	50.018958
915.000000	49.898393
914.000000	49.790577
913.000000	49.683578
912.000000	49.584738
911.000000	49.460399
910.000000	49.351971
909.000000	49.242115
908.000000	49.130934
907.000000	49.018426
906.000000	48.872156
905.000000	48.740268
904.000000	48.629291
903.000000	48.513723
902.000000	48.399584
901.000000	48.273714
900.000000	48.158044
899.000000	48.046251
898.000000	47.906407
897.000000	47.763809
896.000000	47.677005
895.000000	47.596220
894.000000	47.518903
893.000000	47.429958
892.000000	47.357231
891.000000	47.281852
890.000000	47.193314
889.000000	47.098045
888.000000	47.011038
887.000000	46.935557
886.000000	46.854262
885.000000	46.767458
884.000000	46.684021
883.000000	46.616292
882.000000	46.522859
881.000000	46.413921
880.000000	46.322120
879.000000	46.252453
878.000000	46.166058
877.000000	46.090169
876.000000	45.998164
875.000000	45.915644
874.000000	45.846793
873.000000	45.774576
872.000000	45.688793
871.000000	45.609232
870.000000	45.539055
869.000000	45.452150
868.000000	45.386563
867.000000	45.285581
866.000000	45.205816
865.000000	45.136353
864.000000	45.071276
863.000000	44.955709
862.000000	44.897874
861.000000	44.865845
860.000000	44.782306
859.000000	44.737222
858.000000	44.618900
857.000000	45.116500
856.000000	44.947900
855.000000	43.792300
854.000000	44.123400
853.000000	44.697200
852.000000	45.147000
851.000000	44.079700
850.000000	44.386300
849.000000	44.076500
848.000000	44.343700
847.000000	44.166900
846.000000	43.929300
845.000000	43.985800
844.000000	44.226900
843.000000	44.226400
842.000000	43.713400
841.000000	44.175800
840.000000	43.858900
839.000000	43.811500
838.000000	44.221100
837.000000	43.993600
836.000000	43.903700
835.000000	43.989500
834.000000	44.120800
833.000000	44.071100
832.000000	43.889700
831.000000	44.266800
830.000000	43.895100
829.000000	43.653900
828.000000	44.024300
827.000000	43.953500
826.000000	43.912500
825.000000	43.615100
824.000000	43.964100
823.000000	43.572900
822.000000	43.700500
821.000000	43.400200
820.000000	43.372100
819.000000	43.545800
818.000000	43.268000
817.000000	43.412800
816.000000	43.377800
815.000000	43.411200
814.000000	43.062200
813.000000	43.101100
812.000000	43.052100
811.000000	43.123600
810.000000	43.017300
809.000000	42.927700
808.000000	43.047600
807.000000	42.707600
806.000000	42.856800
805.000000	42.473400
804.000000	42.325900
803.000000	42.365300
802.000000	42.236700
801.000000	42.485900
800.000000	42.064200
799.000000	42.315600
798.000000	42.049700
797.000000	42.215700
796.000000	42.020900
795.000000	41.794000
794.000000	41.831000
793.000000	41.584300
792.000000	41.618000
791.000000	41.645100
790.000000	41.260600
789.000000	41.345700
788.000000	41.506900
787.000000	41.317600
786.000000	41.199600
785.000000	40.908200
784.000000	40.951400
783.000000	40.892900
782.000000	40.635800
781.000000	40.556200
780.000000	40.460200
779.000000	40.256900
778.000000	40.091000
777.000000	39.902300
776.000000	39.932100
775.000000	39.800900
774.000000	39.730800
773.000000	39.483200
772.000000	39.562900
771.000000	39.321100
770.000000	39.163900
769.000000	39.236200
768.000000	39.022400
767.000000	38.933400
766.000000	38.931000
765.000000	38.693700
764.000000	38.428900
763.000000	38.262200
762.000000	38.194500
761.000000	37.909400
760.000000	37.834300
759.000000	37.512100
758.000000	37.389100
757.000000	37.207400
756.000000	37.125800
755.000000	36.992200
754.000000	36.847500
753.000000	36.749600
752.000000	36.495700
751.000000	36.248300
750.000000	36.117900
749.000000	35.911200
748.000000	35.720800
747.000000	35.696300
746.000000	35.428300
745.000000	35.181500
744.000000	34.980800
743.000000	34.885400
742.000000	34.545700
741.000000	34.283300
740.000000	34.222800
739.000000	33.978900
738.000000	33.792100
737.000000	33.647000
736.000000	33.343100
735.000000	33.241500
734.000000	33.113100
733.000000	32.858000
732.000000	32.720700
731.000000	32.443600
730.000000	32.220100
729.000000	32.003800
728.000000	31.819100
727.000000	31.593600
726.000000	31.381800
725.000000	31.222900
724.000000	31.041600
723.000000	30.757500
722.000000	30.466800
721.000000	30.342600
720.000000	30.179500
719.000000	30.027100
718.000000	29.772300
717.000000	29.614400
716.000000	29.405800
715.000000	29.146100
714.000000	28.930100
713.000000	28.821200
712.000000	28.567200
711.000000	28.249400
710.000000	28.147400
709.000000	27.970500
708.000000	27.755100
707.000000	27.527700
706.000000	27.362200
705.000000	27.160100
704.000000	26.985300
703.000000	26.761100
702.000000	26.565100
701.000000	26.340400
700.000000	26.136200
699.000000	25.926300
698.000000	25.771600
697.000000	25.626300
696.000000	25.388400
695.000000	25.174000
694.000000	25.017000
693.000000	24.846100
692.000000	24.672000
691.000000	24.459100
690.000000	24.259100
689.000000	24.116800
688.000000	23.987900
687.000000	23.793400
686.000000	23.654800
685.000000	23.525200
684.000000	23.380900
683.000000	23.228400
682.000000	23.040300
681.000000	22.891100
680.000000	22.829400
679.000000	22.689100
678.000000	22.532800
677.000000	22.464100
676.000000	22.325600
675.000000	22.126900
674.000000	22.038400
673.000000	21.965000
672.000000	21.843500
671.000000	21.752200
670.000000	21.690900
669.000000	21.618100
668.000000	21.566200
667.000000	21.483000
666.000000	21.438700
665.000000	21.408100
664.000000	21.404400
663.000000	21.407600
662.000000	21.400300
661.000000	21.377700
660.000000	21.410000
659.000000	21.476100
658.000000	21.544600
657.000000	21.631300
656.000000	21.708900
655.000000	21.782000
654.000000	21.895300
653.000000	22.003900
652.000000	22.116700
651.000000	22.285900
650.000000	22.452600
649.000000	22.592200
648.000000	22.707000
647.000000	22.859500
646.000000	23.044200
645.000000	23.231200
644.000000	23.396600
643.000000	23.572300
642.000000	23.774400
641.000000	23.973500
640.000000	24.161000
639.000000	24.367400
638.000000	24.588200
637.000000	24.790200
636.000000	25.002000
635.000000	25.229000
634.000000	25.431700
633.000000	25.658700
632.000000	25.888600
631.000000	26.139500
630.000000	26.391500
629.000000	26.609200
628.000000	26.865900
627.000000	27.117600
626.000000	27.336600
625.000000	27.596900
624.000000	27.887300
623.000000	28.123600
622.000000	28.337900
621.000000	28.576800
620.000000	28.820700
619.000000	29.026000
618.000000	29.233200
617.000000	29.431500
616.000000	29.593600
615.000000	29.760500
614.000000	29.956500
613.000000	30.101100
612.000000	30.271600
611.000000	30.440100
610.000000	30.597000
609.000000	30.771500
608.000000	30.885400
607.000000	30.993600
606.000000	31.174800
605.000000	31.332300
604.000000	31.454900
603.000000	31.569900
602.000000	31.733800
601.000000	31.887000
600.000000	32.040400
599.000000	32.150700
598.000000	32.261500
597.000000	32.375600
596.000000	32.474900
595.000000	32.617400
594.000000	32.719600
593.000000	32.804700
592.000000	32.911300
591.000000	33.010000
590.000000	33.062900
589.000000	33.165200
588.000000	33.216200
587.000000	33.306500
586.000000	33.303600
585.000000	33.387100
584.000000	33.424100
583.000000	33.414500
582.000000	33.464600
581.000000	33.471200
580.000000	33.492800
579.000000	33.507200
578.000000	33.516300
577.000000	33.496500
576.000000	33.446300
575.000000	33.453800
574.000000	33.433600
573.000000	33.391300
572.000000	33.353300
571.000000	33.290200
570.000000	33.214200
569.000000	33.188800
568.000000	33.096200
567.000000	33.026300
566.000000	32.906300
565.000000	32.797000
564.000000	32.701200
563.000000	32.596700
562.000000	32.473700
561.000000	32.351100
560.000000	32.219200
559.000000	31.962300
558.000000	31.806200
557.000000	31.664100
556.000000	31.425400
555.000000	31.246900
554.000000	31.061600
553.000000	30.910100
552.000000	30.694100
551.000000	30.471200
550.000000	30.242600
549.000000	30.008400
548.000000	29.756300
547.000000	29.513300
546.000000	29.265800
545.000000	29.022600
544.000000	28.736200
543.000000	28.420100
542.000000	28.119600
541.000000	27.826500
540.000000	27.475400
539.000000	27.146200
538.000000	26.826000
537.000000	26.450900
536.000000	26.065500
535.000000	25.693600
534.000000	25.305100
533.000000	24.895300
532.000000	24.497000
531.000000	24.068700
530.000000	23.622800
529.000000	23.215900
528.000000	22.787900
527.000000	22.338500
526.000000	21.934400
525.000000	21.495700
524.000000	21.074700
523.000000	20.632200
522.000000	20.208200
521.000000	19.790900
520.000000	19.394300
519.000000	18.979400
518.000000	18.592200
517.000000	18.234000
516.000000	17.868600
515.000000	17.484600
514.000000	17.161500
513.000000	16.797800
512.000000	16.499800
511.000000	16.206400
510.000000	15.883900
509.000000	15.592500
508.000000	15.362400
507.000000	15.064300
506.000000	14.815400
505.000000	14.575000
504.000000	14.340000
503.000000	14.137900
502.000000	13.942600
501.000000	13.742700
500.000000	13.500000
499.000000	13.323900
498.000000	13.125700
497.000000	12.985500
496.000000	12.841800
495.000000	12.675600
494.000000	12.538600
493.000000	12.367600
492.000000	12.233600
491.000000	12.096400
490.000000	11.998800
489.000000	11.876900
488.000000	11.746500
487.000000	11.655200
486.000000	11.563600
485.000000	11.414300
484.000000	11.352800
483.000000	11.230300
482.000000	11.150000
481.000000	11.050000
480.000000	10.917800
479.000000	10.808300
478.000000	10.727500
477.000000	10.614700
476.000000	10.509700
475.000000	10.425500
474.000000	10.320300
473.000000	10.245900
472.000000	10.111100
471.000000	10.021400
470.000000	9.933800
469.000000	9.870200
468.000000	9.776100
467.000000	9.673600
466.000000	9.596700
465.000000	9.523400
464.000000	9.425400
463.000000	9.352800
462.000000	9.246800
461.000000	9.194100
460.000000	9.128200
459.000000	9.033400
458.000000	8.992800
457.000000	8.913700
456.000000	8.844100
455.000000	8.772800
454.000000	8.693800
453.000000	8.610200
452.000000	8.534400
451.000000	8.470400
450.000000	8.382100
449.000000	8.298400
448.000000	8.229300
447.000000	8.152900
446.000000	8.075500
445.000000	7.977400
444.000000	7.913900
443.000000	7.807500
442.000000	7.773700
441.000000	7.678300
440.000000	7.585900
439.000000	7.514600
438.000000	7.416300
437.000000	7.333500
436.000000	7.276700
435.000000	7.230900
434.000000	7.170000
433.000000	7.072000
432.000000	6.992900
431.000000	6.934100
430.000000	6.878700
429.000000	6.819000
428.000000	6.767400
427.000000	6.721600
426.000000	6.647300
425.000000	6.566700
424.000000	6.499900
423.000000	6.484500
422.000000	6.420400
421.000000	6.354200
420.000000	6.321000
419.000000	6.244600
418.000000	6.204000
417.000000	6.185300
416.000000	6.144400
415.000000	6.078000
414.000000	6.028900
413.000000	5.976000
412.000000	5.950300
411.000000	5.921200
410.000000	5.859700
409.000000	5.808600
408.000000	5.755800
407.000000	5.749900
406.000000	5.715200
405.000000	5.663000
404.000000	5.658900
403.000000	5.635400
402.000000	5.579200
401.000000	5.533100
400.000000	5.511300
399.000000	5.461100
398.000000	5.416500
397.000000	5.377500
396.000000	5.402100
395.000000	5.378600
394.000000	5.354200
393.000000	5.322700
392.000000	5.314800
391.000000	5.301800
390.000000	5.250900
389.000000	5.235500
388.000000	5.188700
387.000000	5.199600
386.000000	5.156200
385.000000	5.133900
384.000000	5.105400
383.000000	5.124100
382.000000	5.124000
381.000000	5.090400
380.000000	5.065500
379.000000	5.097300
378.000000	5.091400
377.000000	5.030300
376.000000	5.167700
375.000000	4.733400
374.000000	3.647200
373.000000	3.826200
372.000000	4.265600
371.000000	4.593600
370.000000	4.782800
369.000000	4.689700
368.000000	4.440600
367.000000	5.023900
366.000000	5.093100
365.000000	4.749700
364.000000	5.078400
363.000000	4.988700
362.000000	4.653800
361.000000	4.917900
360.000000	4.566400
359.000000	4.644600
358.000000	4.967700
357.000000	5.057400
356.000000	4.898200
355.000000	4.586500
354.000000	4.734900
353.000000	5.088700
352.000000	4.990200
351.000000	5.185700
350.000000	5.195500
349.000000	5.290500
348.000000	4.984900
347.000000	4.958000
346.000000	4.997000
345.000000	4.684300
344.000000	5.013100
343.000000	4.777500
342.000000	4.754400
341.000000	5.433900
340.000000	5.316500
339.000000	5.153800
338.000000	4.924700
337.000000	5.104800
336.000000	5.171800
335.000000	5.398400
334.000000	5.665600
333.000000	4.840100
332.000000	5.068000
331.000000	5.584400
330.000000	4.855700
329.000000	5.202500
328.000000	6.002300
327.000000	5.109000
326.000000	5.301500
325.000000	5.366800
324.000000	5.893800
323.000000	6.087800
322.000000	5.490800
321.000000	5.882400
320.000000	5.541600
319.000000	6.146300
318.000000	6.562100
317.000000	6.555400
316.000000	5.802700
315.000000	5.036100
314.000000	5.124500
313.000000	5.074900
312.000000	5.070700
311.000000	5.052400
310.000000	4.913900
309.000000	5.093200
308.000000	5.163000
307.000000	5.231200
306.000000	5.105100
305.000000	5.026500
304.000000	5.135000
303.000000	5.147200
302.000000	5.108800
301.000000	5.124200
300.000000	5.119100
299.000000	5.104300
298.000000	5.087100
297.000000	5.174300
296.000000	5.144200
295.000000	5.123400
294.000000	5.046100
293.000000	5.051700
292.000000	5.072000
291.000000	5.047200
290.000000	5.190500
289.000000	5.165800
288.000000	5.130800
287.000000	5.074100
286.000000	5.092800
285.000000	5.157900
284.000000	5.123700
283.000000	5.104100
282.000000	5.118500
281.000000	5.198600
280.000000	5.208100
279.000000	5.195100
278.000000	5.168600
277.000000	5.135600
276.000000	5.137800
275.000000	5.220100
274.000000	5.241500
273.000000	5.218300
272.000000	5.315400
271.000000	5.364400
270.000000	5.258400
269.000000	5.303000
268.000000	5.291500
267.000000	5.314500
266.000000	5.418000
265.000000	5.429000
264.000000	5.430400
263.000000	5.435600
262.000000	5.569900
261.000000	5.484900
260.000000	5.560900
259.000000	5.641300
258.000000	5.593100
257.000000	5.589100
256.000000	5.588000
255.000000	5.617500
254.000000	5.630400
253.000000	5.628600
252.000000	5.624400
251.000000	5.734900
250.000000	5.778600
