0133 parche negro elitro izq
Integration time [ms]:   8,000
Averaging Nr. [scans]: 10
Smoothing Nr. [pixels]: 0
Data measured with spectrometer [name]: 7314920SP
Wave   ;Sample   ;Dark     ;Reference;Reflectance
[nm]   ;[counts] ;[counts] ;[counts] ;[%]

 199,42;   66,325;   63,873;  150,055; 2,84504
 200,02;   96,018;   92,669;  145,732; 6,31213
 200,62;   60,507;   67,563;   88,793;-33,23839
 201,22;   93,363;   86,969;  138,011;12,52660
 201,82;   57,459;   66,174;  141,790;-11,52547
 202,42;   99,403;  101,668;  154,973;-4,24983
 203,03;   57,229;   60,168;   91,775;-9,29917
 203,63;   76,369;   69,967;  109,037;16,38511
 204,23;   77,086;   70,671;  129,903;10,83106
 204,83;   69,639;   74,567;  123,718;-10,02600
 205,43;   46,525;   56,673;  123,555;-15,17321
 206,03;   58,924;   50,167;   90,459;21,73471
 206,63;   85,886;   68,865;  100,007;54,65534
 207,24;   82,179;   74,675;  162,566; 8,53690
 207,84;   42,009;   39,967;   83,699; 4,67054
 208,44;   51,463;   50,669;   95,011; 1,79015
 209,04;   49,800;   47,365;   85,066; 6,46034
 209,64;   80,636;   69,972;  127,998;18,37681
 210,24;   42,339;   45,367;   97,218;-5,83958
 210,84;   48,478;   51,469;  101,970;-5,92354
 211,44;   82,337;   86,470;  122,908;-11,34060
 212,05;   61,900;   60,865;   99,266; 2,69689
 212,65;   72,129;   66,368;  112,975;12,36021
 213,25;   91,303;   93,768;  142,073;-5,10377
 213,85;   82,260;   84,465;  114,904;-7,24479
 214,45;   58,839;   53,367;  100,418;11,63009
 215,05;   43,178;   39,369;  100,070; 6,27430
 215,65;   53,893;   55,169;  105,630;-2,53004
 216,25;   42,539;   40,267;   82,518; 5,37760
 216,85;   33,648;   34,069;   89,651;-0,75744
 217,45;   51,229;   49,068;   97,375; 4,47297
 218,05;   58,582;   58,270;  112,886; 0,57126
 218,66;   24,633;   28,769;   75,692;-8,81399
 219,26;   30,269;   26,567;   79,337; 7,01471
 219,86;   31,457;   36,771;   81,584;-11,85833
 220,46;   70,067;   54,270;  104,127;31,68501
 221,06;   55,286;   51,871;  115,903; 5,33398
 221,66;   47,531;   43,471;  103,481; 6,76518
 222,26;   38,736;   39,772;  102,398;-1,65549
 222,86;   64,273;   67,268;  118,954;-5,79445
 223,46;   53,839;   51,767;   88,918; 5,57748
 224,06;   63,571;   64,971;  120,343;-2,52711
 224,66;   59,312;   57,570;  105,805; 3,61056
 225,26;   43,622;   48,169;  113,748;-6,93378
 225,86;   41,380;   42,173;  112,376;-1,12876
 226,46;   54,388;   49,968;  102,913; 8,34810
 227,06;   35,012;   27,670;   87,705;12,22877
 227,66;   43,945;   37,665;   74,845;16,89093
 228,27;   37,067;   29,270;   96,227;11,64511
 228,87;   85,897;   89,170;  143,046;-6,07548
 229,47;   25,050;   29,172;   92,357;-6,52369
 230,07;    1,322;   11,169;   59,648;-20,31210
 230,67;   30,448;   38,169;   84,651;-16,61064
 231,27;   28,367;   27,670;   76,327; 1,43294
 231,87;   36,148;   43,169;  100,751;-12,19299
 232,47;   49,149;   43,775;  132,047; 6,08753
 233,07;   59,671;   42,965;   75,547;51,27271
 233,67;   52,729;   53,768;   94,275;-2,56552
 234,27;   11,924;    0,567;   53,259;21,55421
 234,87;   33,757;   34,771;  106,084;-1,42204
 235,47;   28,222;   16,169;   74,148;20,78836
 236,07;   32,720;   30,266;   72,042; 5,87384
 236,67;   50,279;   49,966;   85,180; 0,88883
 237,27;   37,255;   28,873;  109,074;10,45066
 237,87;   36,312;   25,370;   99,805;14,69945
 238,47;   14,818;   14,269;   68,032; 1,02196
 239,07;   24,321;   33,272;   95,738;-14,33022
 239,67;   48,743;   43,477;  131,421; 5,98759
 240,27;   49,080;   46,773;  119,176; 3,18710
 240,87;   46,870;   50,773;  119,533;-5,67739
 241,47;   41,666;   39,164;   76,131; 6,76988
 242,07;   45,958;   39,968;   92,894;11,31829
 242,67;   -2,060;  -11,027;   77,914;10,08161
 243,27;   12,239;    7,767;   46,418;11,57040
 243,87;   36,471;   48,671;  108,343;-20,44376
 244,47;   37,986;   22,371;   99,703;20,19275
 245,07;   13,878;    2,669;   55,770;21,10801
 245,67;   32,629;   31,068;   85,575; 2,86341
 246,27;   31,986;   34,965;   69,007;-8,75129
 246,87;   13,973;   26,668;   63,154;-34,79438
 247,46;   -0,393;   19,663;   23,793;-485,64104
 248,06;   14,882;   20,470;   69,786;-11,33089
 248,66;   36,036;   31,072;  105,898; 6,63308
 249,26;   50,320;   32,366;   70,742;46,78364
 249,86;   25,180;   42,873;  102,176;-29,83365
 250,46;   14,264;   16,775;   93,507;-3,27329
 251,06;   22,129;   22,168;   65,375;-0,09079
 251,66;    5,242;   20,771;   64,724;-35,32994
 252,26;   27,650;   38,866;   70,261;-35,72711
 252,86;   30,678;   35,969;   89,070;-9,96488
 253,46;   -8,461;   -8,033;   22,118;-1,41917
 254,06;   36,205;   31,766;   79,483; 9,30296
 254,66;   22,825;   34,973;  100,155;-18,63728
 255,26;   44,395;   39,073;  118,836; 6,67271
 255,86;   46,066;   37,464;   55,631;47,35226
 256,46;   19,037;   19,870;   70,208;-1,65347
 257,05;   20,927;   23,570;   59,565;-7,34462
 257,65;   40,857;   38,071;   97,684; 4,67329
 258,25;   39,750;   37,372;  101,457; 3,71073
 258,85;   17,478;   15,669;   51,770; 5,00972
 259,45;    8,248;    6,869;   42,951; 3,82182
 260,05;   39,139;   46,667;   85,818;-19,22775
 260,65;   49,950;   45,066;   83,561;12,68585
 261,25;   36,671;   29,371;   85,943;12,90497
 261,85;   -2,584;   -0,129;   47,622;-5,14127
 262,45;   43,778;   46,169;  109,270;-3,78987
 263,04;   39,610;   53,073;  116,295;-21,29449
 263,64;   43,084;   33,767;   77,097;21,50147
 264,24;   46,601;   37,671;   89,062;17,37693
 264,84;   64,029;   58,974;  138,671; 6,34321
 265,44;   20,414;   26,368;   67,716;-14,39973
 266,04;   48,775;   48,865;   71,464;-0,40029
 266,64;   53,979;   39,866;   86,780;30,08279
 267,24;   24,679;   40,166;   68,980;-53,74854
 267,84;   20,803;   24,668;   76,573;-7,44706
 268,43;   56,043;   48,368;   95,935;16,13638
 269,03;   44,633;   46,969;   87,892;-5,70775
 269,63;   58,035;   58,566;   92,402;-1,57037
 270,23;   13,145;   10,765;   39,045; 8,41590
 270,83;   48,850;   55,266;   83,161;-23,00247
 271,43;   18,199;   23,967;   58,856;-16,53484
 272,03;   52,914;   64,168;   99,116;-32,20213
 272,62;   20,193;   23,269;   68,730;-6,76781
 273,22;    4,497;   11,970;   61,046;-15,22790
 273,82;   20,808;   17,460;   26,403;37,43770
 274,42;   20,381;   25,164;   46,890;-22,01248
 275,02;   30,856;   34,864;   60,388;-15,70588
 275,62;   42,850;   31,972;  100,457;15,88382
 276,21;   27,752;   22,770;   69,267;10,71546
 276,81;   55,009;   46,767;   71,099;33,87460
 277,41;   27,046;   22,971;   96,341; 5,55350
 278,01;    5,356;   21,364;   42,788;-74,72499
 278,61;   46,863;   38,869;   83,811;17,78703
 279,20;   51,580;   65,473;  119,076;-25,91696
 279,80;    7,743;    6,762;   11,539;20,53530
 280,40;   34,220;   36,866;   79,742;-6,17152
 281,00;   -6,137;   -4,331;   33,311;-4,79847
 281,60;   19,414;   20,774;   74,812;-2,51569
 282,20;   37,137;   36,670;   70,108; 1,39860
 282,79;   31,343;   29,568;   70,135; 4,37686
 283,39;   10,635;   17,466;   44,702;-25,08227
 283,99;   23,371;   23,165;   34,347; 1,84294
 284,59;   11,407;   16,869;   45,289;-19,21868
 285,19;   23,824;   27,067;   57,759;-10,56525
 285,78;   17,837;   23,270;   63,808;-13,40046
 286,38;   42,486;   39,665;   59,207;14,43477
 286,98;   32,743;   35,168;   73,535;-6,31913
 287,58;    3,586;    4,771;   61,403;-2,09166
 288,17;   20,195;    8,973;   80,336;15,72574
 288,77;   21,038;   19,976;   92,504; 1,46461
 289,37;    9,478;   11,269;   57,670;-3,86079
 289,97;   38,171;   48,965;   66,647;-61,04178
 290,57;   44,376;   46,672;   93,260;-4,92803
 291,16;   70,814;   63,868;  102,616;17,92605
 291,76;   12,097;    5,570;   47,346;15,62335
 292,36;   25,769;   34,367;   58,137;-36,17313
 292,96;  -12,735;   -3,127;   60,117;-15,19064
 293,55;   22,409;   24,267;   65,399;-4,51578
 294,15;   11,752;   26,870;   62,567;-42,34876
 294,75;   40,786;   42,065;   66,207;-5,29832
 295,35;    9,914;   21,068;   52,016;-36,04108
 295,94;   34,094;   42,967;   66,740;-37,32034
 296,54;   26,388;   30,768;   70,613;-10,99293
 297,14;   27,831;   29,971;   76,881;-4,56237
 297,73;    8,230;   12,165;   40,085;-14,09298
 298,33;   33,505;   28,066;   57,583;18,42697
 298,93;   37,973;   41,968;   82,554;-9,84316
 299,53;    8,706;   24,872;   69,079;-36,56975
 300,12;   -1,969;  -12,229;   59,481;14,30733
 300,72;   34,384;   41,567;   91,197;-14,47444
 301,32;   35,757;   25,771;   99,584;13,52860
 301,92;   11,796;    3,664;   33,050;27,67368
 302,51;    9,654;   11,567;   49,978;-4,98071
 303,11;    5,224;   14,667;   48,759;-27,69771
 303,71;   26,118;   21,369;   82,132; 7,81627
 304,30;   16,290;    5,466;   38,423;32,84308
 304,90;    6,105;   19,666;   44,283;-55,08745
 305,50;   25,845;   18,565;   64,345;15,90224
 306,09;   20,120;   15,466;   49,042;13,86056
 306,69;   33,701;   34,171;   90,262;-0,83751
 307,29;   19,493;   18,760;   33,144; 5,09742
 307,88;   27,607;   43,269;   72,489;-53,60047
 308,48;   13,667;    0,070;   49,727;27,38224
 309,08;   -1,623;   -4,437;   11,774;17,35821
 309,68;   22,130;   22,365;   39,585;-1,36348
 310,27;   13,693;   20,169;   49,830;-21,83613
 310,87;   28,988;   23,468;   54,813;17,61021
 311,47;   54,339;   54,967;   92,918;-1,65449
 312,06;   35,215;   47,865;   68,426;-61,52250
 312,66;   58,114;   51,168;  100,016;14,21960
 313,26;   52,242;   48,571;   96,224; 7,70371
 313,85;   42,024;   38,267;   65,959;13,56832
 314,45;   44,163;   42,969;   86,611; 2,73541
 315,04;   50,115;   52,165;   81,826;-6,91001
 315,64;   30,484;   21,267;   47,897;34,61012
 316,24;   29,167;   40,770;   85,627;-25,86609
 316,83;   36,220;   40,366;   76,742;-11,39785
 317,43;   25,599;   35,167;   68,156;-29,00626
 318,03;   39,936;   39,063;   70,012; 2,82109
 318,62;   78,813;   73,061;   94,820;26,43323
 319,22;   16,503;    7,668;   66,973;14,89721
 319,82;   41,614;   40,768;   93,516; 1,60384
 320,41;   60,518;   59,069;   98,732; 3,65434
 321,01;   83,045;   80,465;  115,945; 7,27174
 321,60;   83,681;   81,164;  102,790;11,64037
 322,20;   54,625;   67,673;  132,855;-20,01803
 322,80;   53,784;   54,567;   91,797;-2,10470
 323,39;   59,141;   65,764;   94,828;-22,78916
 323,99;   51,650;   61,766;  102,661;-24,73783
 324,59;   62,336;   73,063;   97,512;-43,87537
 325,18;   53,354;   40,967;   92,178;24,18811
 325,78;   69,130;   76,365;  108,885;-22,24704
 326,37;   59,529;   74,868;  108,075;-46,19222
 326,97;   66,384;   63,267;  111,497; 6,46171
 327,57;   35,607;   42,263;   76,493;-19,44637
 328,16;   53,866;   60,864;   93,631;-21,35467
 328,76;   61,694;   50,467;  110,140;18,81543
 329,35;   59,057;   56,871;  137,484; 2,71158
 329,95;   36,037;   27,470;   91,308;13,42087
 330,54;   50,639;   52,167;   94,018;-3,65079
 331,14;   24,209;   26,967;   82,599;-4,95655
 331,74;   57,645;   54,165;   96,145; 8,28970
 332,33;   31,067;   35,370;  108,127;-5,91389
 332,93;   47,596;   43,764;   79,250;10,79918
 333,52;   38,535;   42,466;   93,102;-7,76397
 334,12;   81,633;   72,069;  140,392;13,99856
 334,71;   40,520;   50,666;   87,942;-27,21864
 335,31;   68,124;   63,267;  119,859; 8,58308
 335,90;   33,917;   32,362;   53,836; 7,24074
 336,50;   32,286;   30,665;   77,207; 3,48258
 337,10;   43,193;   38,769;  121,530; 5,34475
 337,69;   50,286;   51,765;   93,707;-3,52659
 338,29;   36,869;   30,467;  101,037; 9,07137
 338,88;   23,873;   22,468;   99,854; 1,81573
 339,48;   61,502;   57,862;  111,677; 6,76414
 340,07;   50,064;   48,566;  107,321; 2,54995
 340,67;   39,457;   31,171;  124,784; 8,85120
 341,26;   52,420;   48,466;   98,942; 7,83312
 341,86;   54,022;   61,469;  138,348;-9,68679
 342,45;   49,407;   45,669;  142,689; 3,85294
 343,05;   36,707;   27,269;  115,689;10,67422
 343,64;   55,179;   47,366;  122,480;10,40153
 344,24;   34,286;   28,765;   92,107; 8,71595
 344,83;   65,171;   71,365;  121,747;-12,29369
 345,43;   41,794;   29,667;  114,240;14,33997
 346,02;   37,648;   41,469;  124,351;-4,61015
 346,62;   48,342;   40,971;  140,424; 7,41160
 347,21;   51,630;   42,165;  131,985;10,53794
 347,81;   43,176;   26,172;  140,560;14,86529
 348,40;   34,866;   29,064;  100,731; 8,09664
 349,00;   60,736;   49,163;  137,712;13,06975
 349,59;   79,197;   65,870;  177,846;11,90148
 350,19;   42,342;   32,571;  139,424; 9,14438
 350,78;   54,824;   55,467;  140,759;-0,75350
 351,38;   29,048;   15,869;  140,951;10,53627
 351,97;   38,694;   26,767;  136,040;10,91555
 352,57;   31,567;   42,570;  155,827;-9,71487
 353,16;   28,941;   30,564;  134,328;-1,56457
 353,76;   47,197;   38,770;  169,846; 6,42894
 354,35;   29,322;   27,669;  160,148; 1,24766
 354,95;   49,652;   43,970;  182,067; 4,11480
 355,54;   41,003;   38,368;  163,973; 2,09759
 356,14;   42,322;   40,069;  164,749; 1,80695
 356,73;   46,302;   29,162;  145,176;14,77410
 357,32;   18,318;   13,769;  164,432; 3,01960
 357,92;   39,091;   17,772;  181,419;13,02734
 358,51;   55,706;   43,372;  214,179; 7,22084
 359,11;   38,576;   36,772;  212,360; 1,02747
 359,70;   32,027;   28,470;  189,965; 2,20214
 360,30;   60,743;   54,562;  188,039; 4,63073
 360,89;   29,273;   31,168;  188,054;-1,20782
 361,48;   60,752;   55,570;  216,467; 3,22096
 362,08;   27,299;   19,867;  187,156; 4,44215
 362,67;   40,107;   39,763;  192,693; 0,22463
 363,27;   66,454;   60,767;  247,678; 3,04257
 363,86;   46,045;   35,765;  215,745; 5,71175
 364,46;   53,966;   44,664;  257,231; 4,37633
 365,05;   66,429;   64,659;  254,989; 0,93029
 365,64;   61,934;   50,960;  269,706; 5,01681
 366,24;   48,940;   38,558;  309,432; 3,83276
 366,83;   65,727;   43,255;  335,383; 7,69239
 367,43;   67,464;   51,545;  352,843; 5,28344
 368,02;   52,943;   34,646;  399,757; 5,01115
 368,61;   79,607;   62,239;  475,425; 4,20359
 369,21;   34,245;   32,419;  445,299; 0,44221
 369,80;   59,728;   43,007;  526,947; 3,45535
 370,39;   82,809;   62,006;  604,971; 3,83148
 370,99;   51,715;   42,089;  615,416; 1,67910
 371,58;   42,245;   22,974;  630,953; 3,16977
 372,18;   55,980;   37,166;  701,603; 2,83164
 372,77;   46,746;   42,449;  679,385; 0,67459
 373,36;   68,333;   42,747;  690,836; 3,94796
 373,96;   62,595;   35,135;  639,498; 4,54358
 374,55;   50,050;   29,844;  621,406; 3,41563
 375,14;   46,731;   42,849;  573,826; 0,73109
 375,74;   73,496;   69,157;  543,276; 0,91518
 376,33;   58,701;   45,964;  464,589; 3,04260
 376,92;   50,607;   33,278;  447,997; 4,17865
 377,52;  108,056;   86,103;  548,460; 4,74793
 378,11;   69,266;   46,703;  457,203; 5,49663
 378,71;   78,636;   73,011;  514,270; 1,27460
 379,30;   83,377;   59,517;  553,928; 4,82590
 379,89;   79,244;   59,813;  556,103; 3,91529
 380,49;   38,866;   31,018;  568,185; 1,46108
 381,08;   96,439;   70,306;  570,990; 5,21949
 381,67;   72,663;   55,008;  555,483; 3,52762
 382,26;   63,539;   41,706;  539,390; 4,38695
 382,86;   65,026;   54,003;  516,041; 2,38569
 383,45;   80,370;   50,412;  562,105; 5,85455
 384,04;   66,740;   38,712;  553,886; 5,44044
 384,64;   60,034;   49,014;  566,760; 2,12843
 385,23;   88,369;   64,406;  560,509; 4,83019
 385,82;   88,213;   59,615;  592,774; 5,36374
 386,42;   87,652;   61,024;  659,022; 4,45290
 387,01;   76,004;   55,414;  580,541; 3,92101
 387,60;   96,752;   69,009;  590,140; 5,32371
 388,20;   62,970;   37,712;  590,805; 4,56656
 388,79;  101,211;   72,418;  665,563; 4,85425
 389,38;   74,739;   32,106;  564,890; 8,00195
 389,97;   70,483;   45,415;  640,955; 4,20923
 390,57;   93,278;   71,114;  654,038; 3,80225
 391,16;   92,778;   62,514;  655,838; 5,10079
 391,75;   79,659;   52,713;  638,562; 4,59947
 392,34;   95,394;   60,821;  696,694; 5,43718
 392,94;   84,541;   44,718;  689,683; 6,17435
 393,53;   69,172;   41,016;  666,612; 4,50072
 394,12;   80,748;   53,023;  719,105; 4,16237
 394,72;  102,174;   54,213;  706,122; 7,35698
 395,31;   70,213;   42,115;  694,874; 4,30438
 395,90;   63,667;   42,924;  732,881; 3,00642
 396,49;   83,770;   58,028;  779,187; 3,56953
 397,09;   83,892;   47,417;  749,188; 5,19750
 397,68;   76,427;   44,025;  800,719; 4,28206
 398,27;   80,736;   54,626;  809,652; 3,45803
 398,86;   75,386;   43,125;  807,657; 4,21974
 399,45;   92,783;   56,630;  844,037; 4,59133
 400,05;   74,275;   23,820;  799,518; 6,50451
 400,64;   99,071;   56,419;  831,001; 5,50643
 401,23;   93,335;   53,920;  859,956; 4,88991
 401,82;  104,035;   67,220;  868,256; 4,59586
 402,42;   97,109;   62,921;  873,953; 4,21541
 403,01;  130,427;   81,525;  912,919; 5,88194
 403,60;  109,902;   68,532;  940,513; 4,74444
 404,19;  109,497;   76,024;  931,900; 3,91092
 404,78;  102,528;   57,522;  909,929; 5,27994
 405,38;  116,877;   68,332;  984,210; 5,30032
 405,97;  100,906;   63,226;  953,933; 4,23029
 406,56;  131,814;   71,528; 1004,366; 6,46269
 407,15;  115,234;   68,829;  989,442; 5,04062
 407,74;  123,238;   80,730; 1026,758; 4,49332
 408,34;   92,607;   50,933; 1018,629; 4,30652
 408,93;  120,557;   59,531; 1016,234; 6,37881
 409,52;   93,590;   51,435; 1041,359; 4,25839
 410,11;  137,887;   84,931; 1090,453; 5,26650
 410,70;  109,580;   54,727; 1027,230; 5,64043
 411,29;  111,485;   58,628; 1030,847; 5,43672
 411,89;  120,635;   60,535; 1093,938; 5,81566
 412,48;  105,700;   48,228; 1051,606; 5,72781
 413,07;  122,511;   65,033; 1101,446; 5,54582
 413,66;  111,005;   78,135; 1102,119; 3,20998
 414,25;  122,328;   63,337; 1142,311; 5,46735
 414,84;  129,057;   69,431; 1102,434; 5,77213
 415,44;  148,608;   91,530; 1155,939; 5,36246
 416,03;  130,969;   76,637; 1161,173; 5,00971
 416,62;  125,948;   76,138; 1168,687; 4,55902
 417,21;  124,086;   75,334; 1158,843; 4,49940
 417,80;  133,243;   65,037; 1162,871; 6,21279
 418,39;  146,427;   78,440; 1179,201; 6,17635
 418,98;  111,826;   55,634; 1143,405; 5,16582
 419,58;  124,366;   64,033; 1142,067; 5,59659
 420,17;  116,460;   52,735; 1164,540; 5,73169
 420,76;  143,269;   72,537; 1192,873; 6,31348
 421,35;  113,750;   60,236; 1155,197; 4,88729
 421,94;  145,227;   88,340; 1223,501; 5,01135
 422,53;  129,357;   61,540; 1195,320; 5,98145
 423,12;  137,393;   64,039; 1190,766; 6,51035
 423,71;  119,735;   60,835; 1162,138; 5,34814
 424,30;  147,024;   85,236; 1210,695; 5,49002
 424,90;  104,203;   39,438; 1163,809; 5,76013
 425,49;  137,912;   70,140; 1216,242; 5,91327
 426,08;  146,112;   80,240; 1209,641; 5,83248
 426,67;  103,664;   57,436; 1168,257; 4,16167
 427,26;  129,825;   60,343; 1230,391; 5,93843
 427,85;  122,918;   63,238; 1209,968; 5,20436
 428,44;  130,150;   68,442; 1218,093; 5,36759
 429,03;  147,191;   85,341; 1233,155; 5,38845
 429,62;  148,376;   78,941; 1240,296; 5,97876
 430,21;  141,329;   81,443; 1277,807; 5,00566
 430,80;  122,923;   70,445; 1235,381; 4,50480
 431,39;  129,259;   53,344; 1246,926; 6,36030
 431,99;  150,235;   78,535; 1206,838; 6,35461
 432,58;  143,193;   82,639; 1251,166; 5,18207
 433,17;  141,005;   69,735; 1238,319; 6,09880
 433,76;  135,632;   71,347; 1288,314; 5,28239
 434,35;  154,593;   88,245; 1292,462; 5,50968
 434,94;  149,726;   70,849; 1318,887; 6,32008
 435,53;  132,570;   78,643; 1278,669; 4,49380
 436,12;  137,444;   70,044; 1294,267; 5,50559
 436,71;  155,386;   87,740; 1303,239; 5,56529
 437,30;  148,746;   76,941; 1299,177; 5,87490
 437,89;  144,779;   76,245; 1320,802; 5,50667
 438,48;  132,910;   65,942; 1305,731; 5,40154
 439,07;  159,463;   95,238; 1347,147; 5,13011
 439,66;  169,107;   83,648; 1375,711; 6,61413
 440,25;  157,344;   85,844; 1390,567; 5,48014
 440,84;  160,200;   79,850; 1387,984; 6,14240
 441,43;  146,152;   78,054; 1440,985; 4,99642
 442,02;  150,160;   79,650; 1411,022; 5,29604
 442,61;  169,859;   93,344; 1397,226; 5,86828
 443,20;  169,786;   94,249; 1446,625; 5,58544
 443,79;  144,143;   74,546; 1412,957; 5,19992
 444,38;  159,251;   84,248; 1461,789; 5,44471
 444,97;  169,768;   84,146; 1466,359; 6,19458
 445,56;  176,413;  101,846; 1477,038; 5,42228
 446,15;  176,064;   81,651; 1522,539; 6,55245
 446,74;  148,474;   58,644; 1462,286; 6,39980
 447,33;  168,143;   82,646; 1538,357; 5,87316
 447,92;  157,935;   78,151; 1570,720; 5,34541
 448,51;  192,183;   89,746; 1586,019; 6,84615
 449,10;  175,338;   92,045; 1608,840; 5,49137
 449,69;  172,490;   73,950; 1627,741; 6,34188
 450,28;  164,592;   66,948; 1608,251; 6,33516
 450,87;  170,962;   78,647; 1656,333; 5,85126
 451,46;  182,181;   96,048; 1702,208; 5,36265
 452,05;  174,400;   70,950; 1715,384; 6,29097
 452,64;  175,675;   70,850; 1725,182; 6,33638
 453,23;  216,139;  113,752; 1794,936; 6,09019
 453,82;  181,020;   83,451; 1800,660; 5,68184
 454,40;  161,575;   65,450; 1786,682; 5,58465
 454,99;  211,103;  101,253; 1871,891; 6,20398
 455,58;  168,602;   69,747; 1832,095; 5,60930
 456,17;  171,114;   63,852; 1873,634; 5,92675
 456,76;  180,335;   67,751; 1918,820; 6,08210
 457,35;  199,551;   78,348; 1930,490; 6,54395
 457,94;  178,063;   66,954; 1978,929; 5,81122
 458,53;  170,205;   67,350; 2010,101; 5,29427
 459,12;  213,736;   82,657; 2111,116; 6,46197
 459,71;  193,321;   58,148; 2060,071; 6,75219
 460,30;  211,907;   84,448; 2087,511; 6,36319
 460,89;  190,635;   57,551; 2129,920; 6,42183
 461,48;  188,363;   75,954; 2173,829; 5,35823
 462,06;  192,930;   68,050; 2187,303; 5,89266
 462,65;  163,711;   48,249; 2176,527; 5,42515
 463,24;  210,701;   87,456; 2288,680; 5,59895
 463,83;  188,230;   54,450; 2229,803; 6,14983
 464,42;  212,826;   88,349; 2333,687; 5,54380
 465,01;  192,675;   73,050; 2336,482; 5,28511
 465,60;  197,860;   64,050; 2384,322; 5,76700
 466,19;  226,063;   73,354; 2462,829; 6,39090
 466,77;  212,264;   81,551; 2462,939; 5,48896
 467,36;  204,921;   69,457; 2459,256; 5,66841
 467,95;  215,179;   79,551; 2466,098; 5,68303
 468,54;  221,122;   71,954; 2513,866; 6,10866
 469,13;  226,124;   69,452; 2535,977; 6,35196
 469,72;  216,512;   67,555; 2582,723; 5,92234
 470,31;  224,642;   87,855; 2629,242; 5,38235
 470,90;  217,415;   76,750; 2652,044; 5,46212
 471,48;  192,350;   32,057; 2671,875; 6,07213
 472,07;  271,917;  125,747; 2686,454; 5,70819
 472,66;  240,058;   67,853; 2748,412; 6,42424
 473,25;  230,164;   68,351; 2723,339; 6,09470
 473,84;  227,967;   55,955; 2766,545; 6,34594
 474,43;  212,844;   55,459; 2843,049; 5,64593
 475,01;  244,737;   69,254; 2885,926; 6,23015
 475,60;  217,297;   49,755; 2882,364; 5,91476
 476,19;  259,040;   74,158; 2956,932; 6,41333
 476,78;  237,321;   71,057; 2964,456; 5,74631
 477,37;  213,697;   59,355; 2945,364; 5,34794
 477,95;  254,471;   75,656; 3018,661; 6,07596
 478,54;  244,603;   63,253; 3023,691; 6,12578
 479,13;  233,303;   56,253; 3070,291; 5,87418
 479,72;  258,393;   81,154; 3090,147; 5,89030
 480,31;  243,174;   63,459; 3167,468; 5,78977
 480,89;  239,937;   60,254; 3171,026; 5,77615
 481,48;  218,079;   46,260; 3214,084; 5,42386
 482,07;  237,722;   61,654; 3233,866; 5,55033
 482,66;  238,918;   52,853; 3253,650; 5,81307
 483,25;  268,979;   78,960; 3319,884; 5,86309
 483,83;  245,652;   59,954; 3325,385; 5,68678
 484,42;  234,663;   54,354; 3355,129; 5,46263
 485,01;  254,710;   65,958; 3400,413; 5,66067
 485,60;  253,481;   73,764; 3490,590; 5,25978
 486,18;  236,971;   66,956; 3490,761; 4,96570
 486,77;  259,839;   67,252; 3519,736; 5,57822
 487,36;  272,296;   58,464; 3561,750; 6,10376
 487,95;  254,653;   59,161; 3640,781; 5,45821
 488,53;  267,138;   54,461; 3642,522; 5,92737
 489,12;  256,221;   50,563; 3722,252; 5,60119
 489,71;  216,472;   38,062; 3680,357; 4,89830
 490,30;  265,208;   61,460; 3742,503; 5,53506
 490,88;  285,768;   87,561; 3859,141; 5,25528
 491,47;  253,636;   60,663; 3867,512; 5,06910
 492,06;  252,462;   62,563; 3920,615; 4,92215
 492,65;  264,998;   59,161; 3947,060; 5,29429
 493,23;  256,864;   54,860; 3982,825; 5,14270
 493,82;  269,088;   65,853; 4018,031; 5,14236
 494,41;  252,128;   51,361; 4066,179; 5,00063
 494,99;  274,867;   73,655; 4126,945; 4,96418
 495,58;  280,508;   86,060; 4224,403; 4,69869
 496,17;  264,801;   56,356; 4198,681; 5,03209
 496,76;  274,571;   65,356; 4276,761; 4,96784
 497,34;  258,765;   54,557; 4305,235; 4,80413
 497,93;  263,850;   66,057; 4350,675; 4,61636
 498,52;  269,904;   60,059; 4454,387; 4,77535
 499,10;  268,287;   75,862; 4533,217; 4,31703
 499,69;  272,534;   55,360; 4537,006; 4,84585
 500,28;  248,874;   37,959; 4592,068; 4,63131
 500,86;  269,443;   62,862; 4698,539; 4,45633
 501,45;  258,243;   53,462; 4730,438; 4,37849
 502,04;  258,972;   53,362; 4813,958; 4,31901
 502,62;  278,601;   70,956; 4856,181; 4,33931
 503,21;  262,431;   57,856; 4939,699; 4,19053
 503,80;  282,402;   69,662; 5015,577; 4,30133
 504,38;  271,564;   58,460; 5081,425; 4,24259
 504,97;  261,602;   49,962; 5122,776; 4,17205
 505,56;  267,829;   70,859; 5194,989; 3,84398
 506,14;  279,611;   64,064; 5263,709; 4,14542
 506,73;  227,186;   23,565; 5292,507; 3,86455
 507,32;  283,045;   62,865; 5376,045; 4,14403
 507,90;  270,779;   70,860; 5443,284; 3,72120
 508,49;  271,500;   58,865; 5500,366; 3,90766
 509,08;  265,866;   67,264; 5571,931; 3,60790
 509,66;  280,393;   69,960; 5677,644; 3,75259
 510,25;  271,883;   63,561; 5737,400; 3,67162
 510,83;  251,586;   45,165; 5855,607; 3,55258
 511,42;  288,388;   61,968; 5895,913; 3,88108
 512,01;  259,041;   59,164; 5980,328; 3,37563
 512,59;  262,402;   46,562; 6041,676; 3,60027
 513,18;  253,128;   59,961; 6114,379; 3,19050
 513,77;  240,206;   42,257; 6171,797; 3,22943
 514,35;  251,147;   37,763; 6190,255; 3,46826
 514,94;  286,187;   58,662; 6323,517; 3,63177
 515,52;  253,620;   48,166; 6358,342; 3,25591
 516,11;  291,671;   80,665; 6474,047; 3,30038
 516,69;  254,489;   41,959; 6446,727; 3,31831
 517,28;  296,225;   83,358; 6541,973; 3,29586
 517,87;  266,995;   45,558; 6604,054; 3,37635
 518,45;  261,355;   74,858; 6626,192; 2,84670
 519,04;  254,000;   54,258; 6707,970; 3,00195
 519,62;  258,962;   55,863; 6774,114; 3,02310
 520,21;  239,735;   24,466; 6828,002; 3,16407
 520,79;  270,428;   52,068; 7000,875; 3,14242
 521,38;  281,923;   52,960; 6995,363; 3,29803
 521,97;  261,473;   43,068; 7141,554; 3,07678
 522,55;  277,414;   67,759; 7195,230; 2,94152
 523,14;  248,429;   26,759; 7180,289; 3,09876
 523,72;  295,238;   77,561; 7383,422; 2,97949
 524,31;  278,986;   71,665; 7406,107; 2,82668
 524,89;  261,214;   48,468; 7526,815; 2,84483
 525,48;  248,179;   21,666; 7603,580; 2,98754
 526,06;  282,741;   56,264; 7633,128; 2,98905
 526,65;  288,112;   72,370; 7803,105; 2,79070
 527,23;  288,532;   46,262; 7840,596; 3,10828
 527,82;  269,554;   37,967; 7905,978; 2,94340
 528,41;  293,664;   67,366; 8041,021; 2,83807
 528,99;  281,600;   66,365; 8108,167; 2,67646
 529,58;  278,217;   42,562; 8168,736; 2,89995
 530,16;  273,628;   49,461; 8315,379; 2,71193
 530,75;  302,126;   73,964; 8417,069; 2,73473
 531,33;  275,679;   45,566; 8440,980; 2,74094
 531,92;  282,093;   48,560; 8567,344; 2,74139
 532,50;  323,652;   87,770; 8706,468; 2,73687
 533,09;  315,660;   65,665; 8807,204; 2,85985
 533,67;  304,985;   63,458; 8952,011; 2,71727
 534,26;  300,749;   65,760; 9007,665; 2,62795
 534,84;  304,398;   68,461; 9127,061; 2,60456
 535,42;  299,226;   61,564; 9205,969; 2,59899
 536,01;  327,762;   79,263; 9330,215; 2,68620
 536,59;  287,235;   43,366; 9482,202; 2,58367
 537,18;  332,034;   77,360; 9568,605; 2,68325
 537,76;  313,461;   56,972; 9764,700; 2,64211
 538,35;  317,758;   59,368; 9892,694; 2,62770
 538,93;  333,241;   72,664; 9941,828; 2,64031
 539,52;  320,512;   57,370;10111,405; 2,61727
 540,10;  325,993;   63,269;10309,029; 2,56422
 540,69;  341,251;   68,763;10444,071; 2,62631
 541,27;  342,787;   58,262;10514,917; 2,72100
 541,85;  313,005;   47,366;10658,783; 2,50333
 542,44;  334,178;   56,460;10765,484; 2,59331
 543,02;  348,293;   80,369;10952,729; 2,46426
 543,61;  363,939;   77,067;11102,218; 2,60198
 544,19;  345,990;   55,066;11264,023; 2,59546
 544,78;  347,850;   62,766;11296,562; 2,53773
 545,36;  369,263;   77,469;11521,011; 2,54986
 545,94;  334,726;   54,564;11563,069; 2,43439
 546,53;  337,131;   52,771;11724,882; 2,43623
 547,11;  395,303;   90,668;11879,873; 2,58401
 547,70;  361,934;   75,860;11954,706; 2,40826
 548,28;  349,100;   47,965;12093,066; 2,50007
 548,86;  377,200;   81,365;12327,767; 2,41569
 549,45;  336,373;   33,768;12364,953; 2,45398
 550,03;  376,669;   76,467;12507,537; 2,41493
 550,62;  362,520;   63,566;12662,842; 2,37279
 551,20;  382,039;   61,467;12808,418; 2,51489
 551,78;  373,296;   61,164;12952,850; 2,42119
 552,37;  367,426;   55,864;13112,469; 2,38624
 552,95;  374,971;   56,765;13214,547; 2,41839
 553,54;  372,586;   49,965;13393,207; 2,41786
 554,12;  394,384;   67,167;13498,797; 2,43616
 554,70;  404,703;   67,568;13736,973; 2,46634
 555,29;  388,630;   61,965;13856,285; 2,36811
 555,87;  389,782;   60,170;13987,786; 2,36661
 556,45;  400,372;   57,162;14154,058; 2,43465
 557,04;  391,709;   43,667;14376,600; 2,42827
 557,62;  409,609;   68,867;14525,499; 2,35700
 558,20;  387,546;   42,671;14799,940; 2,33698
 558,79;  443,928;  100,368;14905,875; 2,32049
 559,37;  393,239;   49,867;15000,418; 2,29672
 559,95;  410,033;   46,669;15169,691; 2,40272
 560,54;  424,188;   71,768;15324,613; 2,31052
 561,12;  418,350;   50,866;15485,562; 2,38089
 561,70;  412,048;   50,369;15679,551; 2,31413
 562,29;  436,558;   61,768;15810,994; 2,37974
 562,87;  442,773;   73,168;16023,953; 2,31716
 563,45;  448,273;   71,068;16194,754; 2,33945
 564,04;  411,032;   54,362;16227,195; 2,20536
 564,62;  418,518;   37,769;16438,332; 2,32156
 565,20;  424,243;   59,962;16715,838; 2,18710
 565,78;  442,515;   70,765;16797,326; 2,22252
 566,37;  448,805;   71,066;17011,283; 2,22984
 566,95;  446,193;   52,969;17124,330; 2,30341
 567,53;  461,072;   67,262;17308,857; 2,28407
 568,12;  456,700;   62,265;17367,766; 2,27925
 568,70;  487,756;   85,264;17565,889; 2,30250
 569,28;  478,148;   61,069;17745,252; 2,35849
 569,86;  470,424;   67,767;17910,758; 2,25667
 570,45;  479,207;   78,569;18124,689; 2,22008
 571,03;  458,857;   53,962;18259,898; 2,22398
 571,61;  473,642;   46,571;18424,824; 2,32379
 572,19;  470,077;   54,263;18395,773; 2,26707
 572,78;  473,229;   70,668;18668,975; 2,16450
 573,36;  517,826;   84,264;18797,668; 2,31685
 573,94;  477,996;   44,064;18892,750; 2,30219
 574,52;  490,874;   54,559;19030,768; 2,29927
 575,11;  446,766;   37,264;19159,830; 2,14146
 575,69;  482,879;   53,566;19268,680; 2,23425
 576,27;  481,153;   47,161;19391,381; 2,24352
 576,85;  484,126;   43,264;19549,668; 2,26009
 577,44;  483,472;   30,262;19814,158; 2,29081
 578,02;  471,004;   32,159;19753,887; 2,22518
 578,60;  501,781;   50,464;20073,791; 2,25396
 579,18;  497,121;   51,963;20160,752; 2,21375
 579,76;  495,741;   40,264;20300,129; 2,24817
 580,35;  509,937;   60,170;20436,707; 2,20728
 580,93;  511,799;   59,667;20641,557; 2,19674
 581,51;  486,352;   24,770;20697,168; 2,23284
 582,09;  527,947;   58,663;20755,756; 2,26739
 582,67;  520,639;   49,567;20971,318; 2,25159
 583,26;  493,588;   28,568;21227,014; 2,19365
 583,84;  489,311;   14,164;21413,709; 2,22036
 584,42;  520,856;   48,064;21513,287; 2,20259
 585,00;  554,679;   81,366;21772,180; 2,18209
 585,58;  508,409;   25,167;21912,299; 2,20788
 586,17;  534,938;   46,761;21948,521; 2,22894
 586,75;  494,835;    6,666;22026,902; 2,21691
 587,33;  526,954;   47,767;22191,678; 2,16397
 587,91;  557,235;   74,866;22390,201; 2,16160
 588,49;  553,772;   63,962;22349,758; 2,19786
 589,07;  531,314;   45,468;22403,215; 2,17305
 589,65;  528,794;   28,267;22444,439; 2,23289
 590,24;  539,257;   42,562;22447,799; 2,21687
 590,82;  518,698;   28,261;22484,160; 2,18400
 591,40;  541,311;   41,464;22520,209; 2,22364
 591,98;  531,789;   45,759;22558,227; 2,15894
 592,56;  559,698;   61,161;22699,961; 2,20213
 593,14;  526,789;   43,359;22728,928; 2,13100
 593,72;  527,486;   29,765;22889,107; 2,17732
 594,30;  559,904;   36,759;22797,486; 2,29845
 594,89;  543,241;   41,364;22862,428; 2,19918
 595,47;  530,338;   38,961;22922,623; 2,14729
 596,05;  527,309;   30,267;23003,799; 2,16354
 596,63;  538,109;   31,167;23056,199; 2,20170
 597,21;  537,120;   36,766;23145,441; 2,16522
 597,79;  537,994;   35,467;23166,039; 2,17257
 598,37;  546,422;   36,669;23222,748; 2,19853
 598,95;  547,735;   50,766;23305,301; 2,13708
 599,53;  541,406;   46,757;23207,996; 2,13568
 600,11;  545,771;   48,665;23341,947; 2,13412
 600,70;  557,836;   57,363;23315,111; 2,15186
 601,28;  538,611;   38,564;23424,809; 2,13821
 601,86;  554,335;   61,766;23355,102; 2,11463
 602,44;  544,798;   23,661;23449,660; 2,22461
 603,02;  532,586;   38,656;23576,521; 2,09845
 603,60;  564,240;   54,858;23663,232; 2,15763
 604,18;  574,492;   69,263;23594,734; 2,14758
 604,76;  534,047;   59,263;23642,154; 2,01326
 605,34;  533,575;   27,565;23530,764; 2,15294
 605,92;  561,313;   59,561;23453,719; 2,14477
 606,50;  523,857;   17,662;23498,998; 2,15574
 607,08;  541,679;   31,666;23394,881; 2,18297
 607,66;  553,320;   39,266;23561,643; 2,18538
 608,24;  547,224;   46,067;23522,059; 2,13477
 608,82;  530,366;   26,164;23532,031; 2,14501
 609,40;  551,264;   46,466;23471,021; 2,15500
 609,98;  528,241;   18,864;23505,928; 2,16875
 610,56;  549,523;   43,861;23497,662; 2,15599
 611,14;  532,130;   30,765;23481,086; 2,13799
 611,72;  565,500;   42,665;23572,467; 2,22201
 612,30;  535,132;   24,962;23468,496; 2,17616
 612,88;  563,514;   60,659;23517,730; 2,14373
 613,46;  544,957;   21,862;23505,697; 2,22747
 614,04;  532,103;   30,068;23461,873; 2,14254
 614,62;  546,053;   41,561;23489,982; 2,15150
 615,20;  548,414;   52,768;23402,416; 2,12271
 615,78;  527,893;   25,569;23463,430; 2,14321
 616,36;  534,196;   41,364;23400,150; 2,10984
 616,94;  507,320;    7,666;23272,242; 2,14770
 617,52;  531,099;   24,067;23373,656; 2,17148
 618,10;  574,959;   63,559;23336,107; 2,19744
 618,68;  519,005;   17,966;23253,184; 2,15638
 619,26;  536,543;   39,268;23398,834; 2,12879
 619,84;  532,492;   18,963;23277,133; 2,20795
 620,42;  524,385;   31,165;23313,506; 2,11843
 621,00;  524,686;   28,865;23209,607; 2,13893
 621,58;  540,534;   38,760;23216,406; 2,16491
 622,16;  553,227;   49,270;23335,164; 2,16421
 622,74;  542,920;   47,066;23327,742; 2,12989
 623,32;  519,890;   42,166;23291,223; 2,05481
 623,90;  574,357;   66,971;23311,484; 2,18282
 624,48;  531,957;   32,662;23196,598; 2,15549
 625,05;  530,757;   34,562;23105,098; 2,15078
 625,63;  550,257;   52,962;23188,799; 2,14946
 626,21;  536,632;   38,262;23117,596; 2,15938
 626,79;  552,639;   53,967;23219,719; 2,15263
 627,37;  529,087;   28,162;23090,717; 2,17203
 627,95;  568,414;   72,768;23200,215; 2,14311
 628,53;  538,385;   49,365;23176,607; 2,11448
 629,11;  531,444;   48,259;23043,449; 2,10125
 629,69;  533,418;   53,369;23256,932; 2,06886
 630,27;  560,892;   80,763;23105,434; 2,08528
 630,84;  526,857;   43,862;23021,197; 2,10205
 631,42;  538,699;   54,367;23319,656; 2,08178
 632,00;  531,474;   45,459;23125,768; 2,10576
 632,58;  537,051;   50,263;23105,172; 2,11143
 633,16;  553,212;   49,870;23096,906; 2,18398
 633,74;  551,756;   56,264;23018,488; 2,15785
 634,32;  528,068;   45,661;23007,842; 2,10088
 634,90;  547,497;   51,970;23195,746; 2,14108
 635,47;  525,693;   38,860;23035,645; 2,11696
 636,05;  521,768;   37,461;22989,342; 2,11010
 636,63;  530,586;   45,965;23104,807; 2,10167
 637,21;  557,741;   67,464;23150,529; 2,12397
 637,79;  561,860;   71,465;23192,904; 2,12095
 638,37;  541,727;   54,055;23070,883; 2,11876
 638,94;  518,330;   33,265;23100,686; 2,10282
 639,52;  536,430;   41,665;23195,285; 2,13688
 640,10;  538,397;   64,264;23215,900; 2,04795
 640,68;  541,800;   54,164;23175,334; 2,10905
 641,26;  523,003;   35,864;23250,268; 2,09844
 641,84;  537,506;   39,164;23235,002; 2,14841
 642,41;  526,909;   28,264;23192,936; 2,15261
 642,99;  544,912;   48,464;23145,568; 2,14940
 643,57;  526,915;   22,064;23158,402; 2,18207
 644,15;  522,818;   27,064;23178,035; 2,14140
 644,73;  529,221;   37,564;23277,568; 2,11556
 645,30;  545,024;   55,264;23230,303; 2,11331
 645,88;  541,027;   44,964;23362,635; 2,12741
 646,46;  541,330;   59,264;23447,568; 2,06114
 647,04;  553,733;   51,864;23367,902; 2,15246
 647,61;  538,336;   46,564;23396,336; 2,10611
 648,19;  560,839;   61,664;23433,369; 2,13581
 648,77;  516,342;   26,264;23442,002; 2,09294
 649,35;  554,545;   51,064;23590,137; 2,13892
 649,92;  532,648;   42,464;23596,070; 2,08114
 650,50;  530,452;   30,064;23551,104; 2,12740
 651,08;  548,055;   39,964;23450,537; 2,17034
 651,66;  515,558;   21,864;23534,770; 2,09967
 652,23;  547,461;   39,064;23561,004; 2,16137
 652,81;  538,364;   36,464;23644,137; 2,12600
 653,39;  564,067;   56,164;23647,170; 2,15295
 653,97;  539,770;   37,065;23882,504; 2,10818
 654,54;  533,173;   23,565;23823,137; 2,14125
 655,12;  528,376;   30,965;23831,971; 2,08987
 655,70;  541,379;   42,065;23962,805; 2,08737
 656,28;  548,882;   32,765;23947,037; 2,15820
 656,85;  553,385;   44,065;24051,070; 2,12155
 657,43;  528,388;   -1,035;23831,305; 2,22145
 658,01;  517,191;   21,465;24078,539; 2,06062
 658,58;  576,294;   55,165;24234,371; 2,15528
 659,16;  565,997;   51,965;24154,105; 2,13272
 659,74;  562,000;   59,465;24338,039; 2,06987
 660,32;  588,203;   71,665;24327,672; 2,12953
 660,89;  549,806;   34,265;24347,305; 2,12043
 661,47;  563,709;   51,665;24464,939; 2,09740
 662,05;  544,512;   25,365;24587,373; 2,11362
 662,62;  588,915;   59,665;24584,006; 2,15806
 663,20;  608,218;   80,665;24740,139; 2,13935
 663,78;  586,821;   47,965;24902,773; 2,16801
 664,35;  586,624;   52,465;24921,006; 2,14793
 664,93;  584,127;   64,465;25123,539; 2,07375
 665,51;  591,230;   49,565;25170,973; 2,15619
 666,08;  580,433;   30,165;25185,707; 2,18746
 666,66;  593,236;   47,465;25667,539; 2,13025
 667,23;  604,739;   51,765;25732,773; 2,15324
 667,81;  614,442;   65,865;25889,307; 2,12434
 668,39;  618,545;   43,265;26047,141; 2,21229
 668,96;  628,048;   54,665;26309,074; 2,18395
 669,54;  603,351;   38,765;26408,408; 2,14104
 670,12;  610,754;   51,165;26808,740; 2,09133
 670,69;  642,257;   64,165;26950,674; 2,15012
 671,27;  621,660;   25,565;27096,008; 2,20201
 671,84;  623,563;   40,665;27105,240; 2,15373
 672,42;  664,366;   66,265;27253,875; 2,19990
 673,00;  648,869;   57,165;27531,408; 2,15367
 673,57;  648,772;   59,965;27276,441; 2,16342
 674,15;  650,075;   64,065;27613,475; 2,12712
 674,72;  654,078;   58,565;27536,209; 2,16726
 675,30;  670,281;   69,466;27513,541; 2,18924
 675,88;  641,884;   36,266;27573,176; 2,19930
 676,45;  645,287;   59,466;27677,309; 2,12117
 677,03;  657,490;   67,866;27525,043; 2,14743
 677,60;  617,893;   41,466;27770,576; 2,07878
 678,18;  646,996;   59,466;27877,510; 2,11205
 678,76;  640,799;   40,766;27809,143; 2,16085
 679,33;  650,902;   57,666;27813,176; 2,13737
 679,91;  632,905;   44,266;27813,311; 2,11977
 680,48;  627,208;   28,766;27740,242; 2,15955
 681,06;  653,111;   50,866;27735,176; 2,17540
 681,63;  640,714;   37,566;27736,209; 2,17754
 682,21;  672,917;   67,966;27797,543; 2,18161
 682,78;  613,021;   20,566;27459,576; 2,15917
 683,36;  641,224;   46,966;27565,510; 2,15948
 683,93;  625,927;   30,466;27450,645; 2,17161
 684,51;  625,430;   26,166;27477,277; 2,18302
 685,08;  641,133;   38,966;27733,711; 2,17430
 685,66;  648,236;   53,066;27694,045; 2,15321
 686,24;  636,039;   33,766;27796,578; 2,16935
 686,81;  664,142;   57,666;27899,910; 2,17826
 687,39;  635,245;   38,866;27807,844; 2,14764
 687,96;  666,348;   54,166;27850,479; 2,20238
 688,54;  642,251;   30,866;27984,811; 2,18711
 689,11;  606,854;   26,966;28043,545; 2,06980
 689,69;  632,657;   29,666;28019,279; 2,15434
 690,26;  673,860;   59,466;28289,313; 2,17640
 690,84;  651,963;   50,066;28239,846; 2,13516
 691,41;  663,766;   35,966;28403,879; 2,21306
 691,98;  636,669;   31,466;28427,912; 2,13126
 692,56;  654,572;   32,866;28437,445; 2,18875
 693,13;  678,475;   64,866;28655,080; 2,14622
 693,71;  654,878;   24,466;28657,912; 2,20166
 694,28;  652,481;   41,966;28715,945; 2,12916
 694,86;  657,384;   47,266;28928,879; 2,11248
 695,43;  690,787;   61,366;29100,912; 2,16746
 696,01;  655,590;   36,266;29145,547; 2,12758
 696,58;  679,693;   42,167;29083,879; 2,19521
 697,16;  673,696;   38,067;29126,414; 2,18517
 697,73;  697,799;   63,467;29338,246; 2,16682
 698,30;  676,402;   51,867;29223,980; 2,14086
 698,88;  669,905;   40,467;29558,613; 2,13238
 699,45;  679,908;   35,367;29765,848; 2,16795
 700,03;  674,711;   56,067;29750,980; 2,08333
 700,60;  701,814;   56,267;29850,613; 2,16668
 701,18;  715,017;   61,867;29963,947; 2,18430
 701,75;  723,120;   74,367;30094,682; 2,16105
 702,32;  691,423;   50,367;29901,914; 2,14748
 702,90;  707,726;   52,467;30254,148; 2,16961
 703,47;  701,029;   51,367;30428,881; 2,13863
 704,05;  729,032;   67,767;30546,715; 2,16958
 704,62;  695,135;   39,867;30587,848; 2,14505
 705,19;  709,338;   43,667;30586,982; 2,17943
 705,77;  700,041;   29,967;30618,314; 2,19062
 706,34;  743,944;   61,667;30627,049; 2,23219
 706,91;  719,047;   46,367;30673,883; 2,19633
 707,49;  747,450;   57,267;30976,316; 2,23223
 708,06;  758,453;   66,367;31089,049; 2,23090
 708,64;  707,056;   25,767;31093,582; 2,19291
 709,21;  748,659;   58,167;31179,316; 2,21872
 709,78;  741,062;   41,367;31281,150; 2,23976
 710,36;  765,365;   61,667;31419,684; 2,24408
 710,93;  760,268;   50,567;31562,416; 2,25217
 711,50;  746,771;   44,467;31506,049; 2,23226
 712,08;  759,674;   76,567;31925,383; 2,14484
 712,65;  750,077;   73,667;31775,916; 2,13363
 713,22;  773,480;   69,067;31900,250; 2,21297
 713,80;  782,883;   84,167;31966,883; 2,19152
 714,37;  766,586;   55,767;31827,018; 2,23730
 714,94;  786,990;   53,967;31727,551; 2,31430
 715,52;  761,093;   47,867;31732,984; 2,25098
 716,09;  764,896;   65,467;31891,918; 2,19763
 716,66;  765,599;   73,467;31935,051; 2,17231
 717,23;  761,002;   66,867;31908,484; 2,17996
 717,81;  740,505;   50,168;31812,018; 2,17348
 718,38;  746,208;   47,468;31671,252; 2,20954
 718,95;  760,011;   59,068;31618,984; 2,22099
 719,53;  760,314;   56,568;31661,418; 2,22670
 720,10;  745,617;   59,968;31481,252; 2,18212
 720,67;  729,320;   35,768;31355,984; 2,21439
 721,24;  762,823;   59,468;31256,020; 2,25459
 721,82;  737,426;   49,968;31236,053; 2,20437
 722,39;  769,829;   64,068;31235,885; 2,26410
 722,96;  757,332;   64,968;31261,420; 2,21937
 723,53;  762,035;   88,268;31151,953; 2,16899
 724,11;  761,938;   61,568;31207,486; 2,24867
 724,68;  753,541;   71,568;31242,020; 2,18788
 725,25;  750,044;   72,768;31399,953; 2,16194
 725,82;  797,347;   96,068;31564,387; 2,22852
 726,40;  767,650;   62,668;31714,820; 2,22728
 726,97;  763,553;   62,168;31875,354; 2,20470
 727,54;  754,356;   46,968;31801,486; 2,22768
 728,11;  776,259;   49,568;32045,820; 2,27118
 728,69;  744,162;   39,568;31938,953; 2,20880
 729,26;  771,665;   53,568;32105,088; 2,24045
 729,83;  760,168;   53,268;32264,621; 2,19457
 730,40;  784,671;   66,768;32291,754; 2,22778
 730,97;  765,474;   44,268;32590,588; 2,21594
 731,55;  768,477;   41,468;32755,820; 2,22229
 732,12;  803,680;   86,268;32841,656; 2,19021
 732,69;  799,083;   66,968;32889,988; 2,23049
 733,26;  772,386;   55,168;32930,520; 2,18163
 733,83;  766,389;   41,168;32979,055; 2,20178
 734,41;  806,892;   65,468;32991,590; 2,25178
 734,98;  778,195;   51,368;33155,621; 2,19557
 735,55;  783,398;   43,168;33183,656; 2,23361
 736,12;  805,701;   65,968;33377,289; 2,22066
 736,69;  830,204;   76,968;33377,922; 2,26190
 737,26;  790,307;   57,468;33552,254; 2,18792
 737,84;  794,710;   70,768;33487,188; 2,16643
 738,41;  794,713;   63,168;33492,422; 2,18834
 738,98;  785,016;   63,569;33375,055; 2,16576
 739,55;  788,419;   49,669;33377,789; 2,21660
 740,12;  815,122;   62,969;33678,023; 2,23755
 740,69;  825,125;   70,569;33575,656; 2,25207
 741,26;  806,328;   56,269;33557,391; 2,23891
 741,83;  802,431;   53,869;33719,523; 2,22352
 742,41;  811,834;   56,169;33833,055; 2,23723
 742,98;  843,037;   91,469;33874,590; 2,22469
 743,55;  802,140;   53,569;33836,824; 2,21581
 744,12;  810,043;   50,469;33859,855; 2,24664
 744,69;  819,546;   59,569;33848,492; 2,24919
 745,26;  788,349;   42,169;33677,723; 2,21843
 745,83;  807,252;   58,769;33854,355; 2,21474
 746,40;  835,456;   57,969;33844,789; 2,30115
 746,97;  795,159;   44,769;33828,125; 2,22118
 747,55;  819,161;   62,269;33966,957; 2,23241
 748,12;  827,165;   57,869;33910,191; 2,27250
 748,69;  824,368;   68,769;33877,625; 2,23491
 749,26;  828,371;   65,069;33958,559; 2,25206
 749,83;  813,474;   42,569;33911,992; 2,27611
 750,40;  846,577;   89,669;34158,824; 2,22168
 750,97;  864,880;   96,269;34144,160; 2,25744
 751,54;  782,683;   40,569;33980,793; 2,18653
 752,11;  801,886;   52,969;33874,727; 2,21430
 752,68;  849,789;   87,869;33912,859; 2,25253
 753,25;  804,292;   60,269;33774,594; 2,20684
 753,82;  815,695;   65,069;33810,527; 2,22437
 754,39;  843,298;   75,169;33727,160; 2,28256
 754,96;  823,501;   60,069;33616,395; 2,27507
 755,53;  806,504;   29,469;33796,527; 2,30116
 756,10;  831,307;   64,169;33720,961; 2,27929
 756,67;  806,010;   73,369;33813,395; 2,17143
 757,24;  822,113;   72,769;33740,426; 2,22571
 757,81;  781,816;   16,469;33677,762; 2,27367
 758,38;  802,219;   54,569;33822,695; 2,21407
 758,95;  832,522;   79,469;33743,426; 2,23697
 759,52;  807,425;   57,469;33615,859; 2,23478
 760,09;  813,528;   68,570;33306,992; 2,24126
 760,66;  817,731;   59,570;33309,727; 2,28017
 761,23;  826,034;   91,070;33353,961; 2,20956
 761,80;  812,437;   56,270;33295,793; 2,27490
 762,37;  826,340;   68,970;33167,727; 2,28821
 762,94;  824,243;   70,970;33187,461; 2,27462
 763,51;  797,546;   36,070;32949,793; 2,31355
 764,08;  808,649;   66,270;32998,527; 2,25426
 764,65;  810,152;   69,570;32798,961; 2,26274
 765,22;  783,955;   54,670;32804,496; 2,22684
 765,79;  809,458;   77,370;32691,928; 2,24467
 766,36;  795,661;   73,170;32743,063; 2,21149
 766,93;  798,564;   68,970;32551,295; 2,24613
 767,50;  799,667;   89,470;32828,328; 2,16928
 768,07;  802,270;   63,870;32699,262; 2,26258
 768,64;  821,073;   86,470;32572,596; 2,26128
 769,21;  796,176;   57,970;32359,729; 2,28534
 769,78;  787,879;   78,770;32244,963; 2,20452
 770,34;  756,982;   45,570;32031,195; 2,22416
 770,91;  779,485;   58,470;31921,430; 2,26286
 771,48;  770,288;   62,370;31836,863; 2,22794
 772,05;  786,691;   66,470;31610,697; 2,28321
 772,62;  751,594;   42,670;31443,029; 2,25769
 773,19;  760,497;   59,370;31579,764; 2,22436
 773,76;  778,300;   71,070;31506,297; 2,24980
 774,33;  760,203;   74,170;31447,330; 2,18669
 774,90;  750,306;   52,870;31206,064; 2,23873
 775,47;  761,309;   59,970;30957,498; 2,26989
 776,03;  759,012;   73,470;30984,330; 2,21780
 776,60;  754,015;   55,970;30757,863; 2,27362
 777,17;  761,418;   65,470;30698,098; 2,27192
 777,74;  724,321;   30,870;30522,031; 2,27427
 778,31;  750,724;   68,970;30582,064; 2,23430
 778,88;  735,227;   30,470;30366,898; 2,32314
 779,45;  761,731;   75,770;30358,131; 2,26521
 780,01;  737,934;   58,370;30299,664; 2,24714
 780,58;  728,737;   60,570;30177,998; 2,21854
 781,15;  715,840;   38,771;29979,432; 2,26137
 781,72;  724,643;   66,771;29962,266; 2,20057
 782,29;  725,946;   51,771;29667,100; 2,27644
 782,86;  711,049;   55,571;29617,732; 2,21729
 783,42;  727,252;   56,171;29598,166; 2,27162
 783,99;  735,955;   66,671;29482,100; 2,27528
 784,56;  721,458;   55,171;29320,232; 2,27673
 785,13;  718,061;   40,271;29247,266; 2,32064
 785,70;  711,364;   49,071;29060,299; 2,28288
 786,26;  716,167;   51,671;28910,732; 2,30256
 786,83;  728,570;   84,371;28889,166; 2,23643
 787,40;  711,573;   57,171;28783,500; 2,27806
 787,97;  683,576;   43,971;28581,133; 2,24131
 788,54;  711,779;   70,371;28515,268; 2,25491
 789,10;  709,482;   57,971;28344,400; 2,30326
 789,67;  712,485;   70,371;28245,334; 2,27902
 790,24;  694,488;   51,071;28193,768; 2,28627
 790,81;  700,891;   88,271;27914,400; 2,20160
 791,37;  697,794;   73,671;27872,135; 2,24517
 791,94;  691,797;   70,771;27886,367; 2,23265
 792,51;  687,800;   46,271;27539,201; 2,33343
 793,08;  697,303;   69,771;27555,234; 2,28314
 793,64;  694,106;   71,271;27455,168; 2,27446
 794,21;  688,509;   69,671;27250,602; 2,27674
 794,78;  652,012;   53,071;27147,035; 2,21061
 795,35;  674,815;   73,471;27007,969; 2,23262
 795,91;  655,418;   48,071;26789,301; 2,27120
 796,48;  679,821;   55,771;26710,734; 2,34121
 797,05;  667,224;   57,671;26624,369; 2,29442
 797,62;  643,827;   41,971;26600,701; 2,26613
 798,18;  665,630;   57,471;26410,736; 2,30772
 798,75;  639,533;   56,571;26279,770; 2,22308
 799,32;  665,136;   60,771;26209,102; 2,31129
 799,88;  643,639;   55,971;26051,535; 2,26065
 800,45;  613,242;   33,971;25945,270; 2,23559
 801,02;  628,245;   65,271;25880,104; 2,18081
 801,58;  681,548;   90,872;25660,436; 2,31008
 802,15;  638,951;   72,872;25615,270; 2,21624
 802,72;  653,554;   66,172;25404,703; 2,31814
 803,28;  617,057;   49,172;25288,938; 2,24996
 803,85;  624,760;   41,972;25144,871; 2,32160
 804,42;  646,563;   77,772;24948,004; 2,28704
 804,98;  663,166;  100,672;24935,537; 2,26494
 805,55;  623,169;   56,972;24702,371; 2,29738
 806,12;  652,572;   83,572;24611,004; 2,31985
 806,68;  617,975;   66,472;24493,738; 2,25774
 807,25;  620,978;   74,972;24436,271; 2,24129
 807,82;  644,581;   86,872;24407,805; 2,29313
 808,38;  629,984;   73,672;24367,037; 2,28998
 808,95;  603,087;   62,972;24166,971; 2,24077
 809,52;  589,690;   50,272;24162,004; 2,23716
 810,08;  603,493;   55,172;23994,938; 2,29042
 810,65;  613,297;   77,172;24169,672; 2,22528
 811,21;  612,599;   69,972;24123,404; 2,25593
 811,78;  634,403;   92,472;24337,539; 2,23522
 812,35;  619,306;   64,972;24173,871; 2,29929
 812,91;  625,809;   90,072;24239,705; 2,21840
 813,48;  616,412;   68,172;24202,738; 2,27159
 814,04;  611,015;   64,172;24088,373; 2,27622
 814,61;  627,218;   77,572;24176,006; 2,28083
 815,18;  609,021;   67,772;23892,539; 2,27179
 815,74;  590,024;   69,772;23709,172; 2,20078
 816,31;  620,127;   83,372;23614,406; 2,28105
 816,87;  572,330;   43,272;23489,641; 2,25646
 817,44;  597,033;   76,972;23452,273; 2,22483
 818,00;  572,336;   43,272;23159,506; 2,28871
 818,57;  594,739;   71,872;23076,340; 2,27289
 819,14;  607,142;   82,872;22924,273; 2,29526
 819,70;  583,945;   72,672;22792,707; 2,25032
 820,27;  571,948;   62,972;22691,941; 2,24922
 820,83;  584,151;   70,072;22541,373; 2,28771
 821,40;  614,854;   98,072;22431,908; 2,31389
 821,96;  580,057;   75,272;22315,541; 2,26969
 822,53;  575,660;   70,973;22257,574; 2,27474
 823,09;  590,363;   81,073;22073,309; 2,31577
 823,66;  558,866;   68,173;21862,541; 2,25147
 824,22;  576,669;   77,173;21851,674; 2,29395
 824,79;  563,172;   75,473;21561,408; 2,26985
 825,35;  552,375;   65,173;21648,041; 2,25736
 825,92;  564,978;   75,173;21398,875; 2,29700
 826,48;  567,281;   87,673;21501,309; 2,23973
 827,05;  571,384;   89,573;21448,242; 2,25581
 827,61;  555,987;   75,273;21249,076; 2,27033
 828,18;  552,590;   60,873;21191,209; 2,32707
 828,74;  547,893;   91,673;21053,543; 2,17643
 829,31;  556,696;   83,373;21002,176; 2,26267
 829,87;  546,999;   73,073;20733,709; 2,29386
 830,44;  557,002;   85,173;20631,443; 2,29642
 831,00;  572,205;   91,273;20673,977; 2,33658
 831,57;  556,308;  101,573;20631,609; 2,21498
 832,13;  531,011;   72,073;20323,344; 2,26622
 832,69;  522,614;   58,173;20309,477; 2,29339
 833,26;  542,017;   85,473;20322,711; 2,25596
 833,82;  535,520;   93,073;20197,744; 2,20072
 834,39;  533,723;   78,773;20137,477; 2,26809
 834,95;  523,326;   57,173;19959,410; 2,34221
 835,52;  542,729;   87,873;19851,744; 2,30145
 836,08;  547,432;   95,573;19951,877; 2,27565
 836,64;  522,035;   76,273;19800,711; 2,25995
 837,21;  527,838;   88,673;19552,443; 2,25632
 837,77;  527,541;   91,873;19491,777; 2,24572
 838,34;  519,144;   67,473;19470,012; 2,32790
 838,90;  502,347;   64,473;19306,045; 2,27567
 839,46;  535,650;   83,873;19312,479; 2,34951
 840,03;  519,653;   76,173;19300,811; 2,30683
 840,59;  530,356;   85,873;19175,645; 2,32838
 841,16;  537,159;  105,173;19156,578; 2,26748
 841,72;  491,162;   59,373;18965,512; 2,28386
 842,28;  492,665;   77,873;18857,246; 2,20876
 842,85;  524,768;   95,573;18812,578; 2,29308
 843,41;  527,372;  105,374;18740,813; 2,26449
 843,97;  516,175;   89,174;18686,846; 2,29599
 844,54;  529,678;  104,774;18624,979; 2,29427
 845,10;  505,281;   89,174;18523,713; 2,25721
 845,67;  494,584;   68,774;18413,445; 2,32116
 846,23;  507,787;   78,674;18361,080; 2,34714
 846,79;  502,990;   90,474;18265,613; 2,26967
 847,36;  472,193;   55,774;18179,047; 2,29770
 847,92;  503,696;   84,874;18034,680; 2,33330
 848,48;  456,799;   41,874;18039,213; 2,30548
 849,04;  470,002;   62,374;17949,447; 2,27890
 849,61;  463,605;   56,274;17918,580; 2,28039
 850,17;  486,208;   68,174;17819,514; 2,35494
 850,73;  467,211;   71,474;17764,848; 2,23664
 851,30;  448,214;   46,074;17669,881; 2,28180
 851,86;  472,217;   75,874;17597,914; 2,26197
 852,42;  451,220;   51,174;17568,348; 2,28374
 852,99;  478,123;   79,274;17583,082; 2,27864
 853,55;  487,026;   83,174;17542,514; 2,31310
 854,11;  456,229;   70,074;17432,049; 2,22414
 854,67;  480,032;   85,474;17420,881; 2,27602
 855,24;  441,135;   51,874;17213,414; 2,26822
 855,80;  478,338;   76,874;17244,848; 2,33845
 856,36;  457,041;   80,574;17175,881; 2,20216
 856,92;  434,844;   54,474;17027,215; 2,24106
 857,49;  470,447;   81,274;17048,248; 2,29371
 858,05;  450,150;   67,274;16968,482; 2,26538
 858,61;  448,853;   65,774;17003,316; 2,26171
 859,17;  449,656;   77,374;16904,250; 2,21242
 859,74;  450,759;   82,074;16836,883; 2,20047
 860,30;  470,662;   93,074;16663,016; 2,27875
 860,86;  430,765;   72,074;16692,350; 2,15815
 861,42;  460,568;   74,674;16545,883; 2,34284
 861,99;  425,471;   54,674;16506,717; 2,25380
 862,55;  427,574;   66,374;16393,051; 2,21233
 863,11;  453,377;   75,174;16437,283; 2,31145
 863,67;  415,180;   61,274;16290,117; 2,18072
 864,23;  456,383;   80,175;16199,351; 2,33392
 864,80;  442,986;   69,175;16081,384; 2,33454
 865,36;  442,489;   71,875;16120,817; 2,30928
 865,92;  453,392;   96,175;16088,751; 2,23365
 866,48;  429,795;   67,375;15987,384; 2,27651
 867,04;  417,098;   60,675;15891,418; 2,25146
 867,60;  461,901;   99,375;15884,451; 2,29664
 868,17;  453,704;   93,675;15884,685; 2,27997
 868,73;  439,407;   82,775;15672,618; 2,28760
 869,29;  411,710;   59,475;15470,151; 2,28566
 869,85;  456,913;  100,475;15369,685; 2,33436
 870,41;  434,916;   80,575;15293,418; 2,32923
 870,97;  440,019;   92,975;15232,252; 2,29235
 871,54;  409,022;   84,175;15178,686; 2,15209
 872,10;  430,825;   84,275;15055,419; 2,31479
 872,66;  407,228;   66,775;14910,652; 2,29356
 873,22;  421,731;   81,975;14890,586; 2,29432
 873,78;  395,434;   65,275;14742,419; 2,24948
 874,34;  438,237;   95,075;14662,652; 2,35566
 874,90;  438,837;  109,775;14536,053; 2,28099
 875,46;  426,837;   96,375;14412,952; 2,30825
 876,03;  411,938;   86,475;14363,353; 2,27965
 876,59;  390,438;   64,475;14153,253; 2,31363
 877,15;  436,237;  101,475;14166,853; 2,38005
 877,71;  411,337;   78,275;14064,652; 2,38133
 878,27;  408,638;   95,675;13910,553; 2,26540
 878,83;  421,237;  114,275;13971,753; 2,21514
 879,39;  404,237;   91,075;14082,753; 2,23821
 879,95;  393,337;   86,275;13964,253; 2,21259
 880,51;  381,337;   75,175;13927,253; 2,21023
 881,07;  389,538;   82,375;13978,753; 2,21038
 881,63;  403,038;   92,575;13971,253; 2,23697
 882,19;  396,237;   82,675;13921,553; 2,26581
 882,75;  392,938;   86,275;14019,553; 2,20094
 883,31;  412,538;   95,575;14187,853; 2,24919
 883,88;  414,138;   96,375;14174,353; 2,25716
 884,44;  418,138;   76,175;14175,753; 2,42534
 885,00;  440,038;  106,075;14266,952; 2,35835
 885,56;  414,337;  101,675;14299,452; 2,20219
 886,12;  431,038;  109,875;14421,152; 2,24412
 886,68;  422,837;   90,775;14436,753; 2,31467
 887,24;  440,938;  102,475;14574,952; 2,33866
 887,80;  431,638;   86,975;14671,753; 2,36317
 888,36;  454,737;  106,275;14715,652; 2,38520
 888,92;  448,038;   98,975;14773,353; 2,37872
 889,48;  441,837;   99,575;14973,853; 2,30104
 890,04;  442,438;   95,275;14803,053; 2,36040
 890,60;  448,837;  117,475;15014,652; 2,22433
 891,16;  427,237;   99,875;15075,853; 2,18592
 891,72;  448,138;  113,275;15058,452; 2,24061
 892,28;  463,737;  112,475;15126,053; 2,33963
 892,84;  443,538;   93,775;15039,853; 2,34016
 893,39;  459,138;  117,575;15112,952; 2,27779
 893,95;  454,938;  112,975;15044,753; 2,29017
 894,51;  404,138;   66,375;14891,253; 2,27835
 895,07;  473,038;  127,375;14906,353; 2,33888
 895,63;  392,138;   74,275;14689,952; 2,17481
 896,19;  423,138;   90,375;14601,952; 2,29308
 896,75;  433,438;  105,175;14460,152; 2,28675
 897,31;  405,337;   82,775;14295,853; 2,26948
 897,87;  419,038;   98,175;14146,853; 2,28393
 898,43;  421,538;   87,775;14075,753; 2,38607
 898,99;  420,837;  109,175;14002,753; 2,24321
 899,55;  420,638;  109,475;13940,652; 2,24972
 900,11;  406,237;  104,975;13747,553; 2,20825
 900,67;  414,138;   91,375;13658,652; 2,37898
 901,22;  425,737;  108,375;13601,952; 2,35195
 901,78;  388,638;   91,275;13560,053; 2,20779
 902,34;  419,138;  103,075;13451,152; 2,36785
 902,90;  364,237;   73,575;13350,652; 2,18921
 903,46;  402,038;   95,775;13236,353; 2,33066
 904,02;  393,138;   88,075;13091,553; 2,34601
 904,58;  369,737;   67,075;12918,152; 2,35515
 905,14;  350,337;   63,975;12874,553; 2,23536
 905,70;  364,038;   66,775;12696,053; 2,35376
 906,25;  374,837;   84,375;12708,452; 2,30086
 906,81;  373,038;   87,675;12732,152; 2,25682
 907,37;  384,938;   79,275;12616,152; 2,43811
 907,93;  359,038;   74,775;12588,152; 2,27167
 908,49;  387,038;  101,875;12497,652; 2,30048
 909,05;  384,837;   89,675;12425,553; 2,39272
 909,60;  373,837;   86,575;12340,452; 2,34426
 910,16;  341,337;   67,675;12291,853; 2,23870
 910,72;  387,138;  100,475;12207,753; 2,36769
 911,28;  362,538;   90,875;12156,053; 2,25162
 911,84;  368,038;   79,575;12106,753; 2,39842
 912,39;  339,737;   73,475;12049,353; 2,22332
 912,95;  378,337;  104,475;12001,452; 2,30195
 913,51;  359,538;   85,375;11945,253; 2,31168
 914,07;  361,438;   83,775;11813,452; 2,36718
 914,63;  345,837;   64,775;11748,053; 2,40568
 915,18;  353,938;   77,475;11617,853; 2,39561
 915,74;  335,837;   63,975;11632,652; 2,34999
 916,30;  319,638;   61,475;11588,553; 2,23962
 916,86;  345,538;   83,575;11514,652; 2,29167
 917,42;  356,337;   82,275;11425,152; 2,41616
 917,97;  337,737;   75,375;11265,452; 2,34460
 918,53;  317,737;   67,775;11196,253; 2,24615
 919,09;  335,138;   88,975;11223,753; 2,21075
 919,65;  338,737;   83,375;11083,452; 2,32146
 920,20;  312,438;   61,875;10983,053; 2,29428
 920,76;  301,438;   65,475;10849,452; 2,18808
 921,32;  330,737;   82,675;10770,952; 2,32088
 921,87;  338,038;   97,475;10670,253; 2,27530
 922,43;  305,337;   64,675;10561,353; 2,29275
 922,99;  304,737;   61,875;10406,753; 2,34766
 923,55;  300,938;   63,775;10357,353; 2,30399
 924,10;  303,538;   73,575;10282,853; 2,25249
 924,66;  321,438;   78,675;10170,152; 2,40562
 925,22;  280,638;   43,275;10093,952; 2,36166
 925,77;  302,737;   66,075; 9927,053; 2,39999
 926,33;  326,938;   90,375; 9903,253; 2,41074
 926,89;  292,737;   71,975; 9692,753; 2,29464
 927,44;  274,237;   52,175; 9580,553; 2,33054
 928,00;  290,837;   66,875; 9533,753; 2,36575
 928,56;  291,638;   80,375; 9372,253; 2,27363
 929,12;  298,837;   72,775; 9275,152; 2,45657
 929,67;  272,737;   67,575; 9091,053; 2,27365
 930,23;  254,538;   50,975; 8915,253; 2,29644
 930,78;  309,038;  100,675; 8842,553; 2,38350
 931,34;  268,038;   61,975; 8632,152; 2,40441
 931,90;  261,837;   61,675; 8494,353; 2,37365
 932,45;  276,538;   78,775; 8290,753; 2,40822
 933,01;  241,137;   52,975; 8024,453; 2,36045
 933,57;  254,238;   72,175; 7753,252; 2,37027
 934,12;  244,038;   70,475; 7399,553; 2,36814
 934,68;  226,137;   59,075; 7020,252; 2,39992
 935,24;  218,637;   67,875; 6614,752; 2,30282
 935,79;  213,738;   72,975; 6254,853; 2,27702
 936,35;  230,837;   91,375; 5812,252; 2,43778
 936,90;  219,137;   80,275; 5348,752; 2,63572
 937,46;  185,538;   72,775; 4956,953; 2,30873
 938,02;  169,238;   63,375; 4549,152; 2,35996
 938,57;  182,538;   73,175; 4265,053; 2,60891
 939,13;  179,738;   70,575; 3986,752; 2,78748
 939,68;  135,137;   57,375; 3713,452; 2,12694
 940,24;  153,738;   68,775; 3504,052; 2,47324
 940,79;  178,938;   91,875; 3391,052; 2,63892
 941,35;  174,837;   79,675; 3217,552; 3,03270
 941,91;  135,538;   71,375; 3122,252; 2,10308
 942,46;  143,738;   75,075; 3063,552; 2,29757
 943,02;  132,837;   65,375; 3050,752; 2,25976
 943,57;  131,938;   61,275; 2982,452; 2,41897
 944,13;  138,337;   67,375; 2974,452; 2,44103
 944,68;  152,337;   65,975; 3041,752; 2,90218
 945,24;  163,337;   82,275; 3060,052; 2,72225
 945,79;  142,438;   68,775; 3104,052; 2,42688
 946,35;  135,538;   51,775; 3194,752; 2,66507
 946,90;  184,837;   98,575; 3283,552; 2,70842
 947,46;  141,238;   52,175; 3311,052; 2,73292
 948,01;  129,538;   51,575; 3390,052; 2,33527
 948,57;  173,137;   86,775; 3552,952; 2,49158
 949,12;  156,137;   65,875; 3613,353; 2,54441
 949,68;  176,637;   76,275; 3732,653; 2,74486
 950,23;  171,637;   70,075; 3833,252; 2,69885
 950,79;  176,438;   75,775; 3933,452; 2,60941
 951,34;  170,637;   83,275; 4070,952; 2,19081
 951,90;  152,738;   57,475; 4140,853; 2,33293
 952,45;  187,637;   81,075; 4292,152; 2,53053
 953,01;  173,038;   65,975; 4364,252; 2,49082
 953,56;  174,337;   87,975; 4500,853; 1,95706
 954,12;  149,038;   42,075; 4567,553; 2,36356
 954,67;  178,438;   70,875; 4720,453; 2,31338
 955,23;  181,038;   61,975; 4804,553; 2,51050
 955,78;  182,238;   67,175; 4882,953; 2,38928
 956,33;  166,238;   58,575; 4947,252; 2,20228
 956,89;  171,538;   53,475; 5038,553; 2,36832
 957,44;  189,438;   53,675; 5170,752; 2,65313
 958,00;  178,938;   49,475; 5238,353; 2,49500
 958,55;  193,637;   70,475; 5313,953; 2,34887
 959,10;  185,137;   52,375; 5370,252; 2,49653
 959,66;  199,637;   74,275; 5488,752; 2,31532
 960,21;  209,837;   78,475; 5567,453; 2,39321
 960,77;  191,738;   54,275; 5606,152; 2,47596
 961,32;  191,938;   48,375; 5663,453; 2,55673
 961,87;  215,738;   79,775; 5738,752; 2,40260
 962,43;  194,137;   68,975; 5780,652; 2,19134
 962,98;  220,337;   76,175; 5828,652; 2,50609
 963,54;  173,837;   27,075; 5820,652; 2,53319
 964,09;  204,137;   56,275; 5873,953; 2,54161
 964,64;  212,438;   64,975; 5901,053; 2,52674
 965,20;  181,238;   44,375; 5966,652; 2,31098
 965,75;  208,038;   66,575; 5976,353; 2,39370
 966,30;  207,837;   75,275; 6068,553; 2,21185
 966,86;  220,438;   62,975; 6121,953; 2,59883
 967,41;  223,137;   81,075; 6084,453; 2,36638
 967,96;  210,038;   75,175; 6108,953; 2,23513
 968,52;  234,637;   81,775; 6126,353; 2,52892
 969,07;  213,738;   72,975; 6120,152; 2,32774
 969,62;  211,837;   77,175; 6134,953; 2,22297
 970,18;  206,137;   57,575; 6147,652; 2,43942
 970,73;  209,938;   66,475; 6203,553; 2,33764
 971,28;  240,337;   95,775; 6197,053; 2,36938
 971,84;  203,337;   55,075; 6118,752; 2,44509
 972,39;  234,238;   95,875; 6148,652; 2,28593
 972,94;  209,038;   54,975; 6140,652; 2,53156
 973,49;  214,538;   64,575; 6141,252; 2,46784
 974,05;  221,137;   64,375; 6178,053; 2,56413
 974,60;  224,637;   88,575; 6213,252; 2,22155
 975,15;  224,438;   77,675; 6231,553; 2,38488
 975,71;  204,337;   62,375; 6121,453; 2,34297
 976,26;  223,837;   77,575; 6110,252; 2,42450
 976,81;  232,938;   90,675; 6134,152; 2,35398
 977,36;  237,038;   84,775; 6156,953; 2,50754
 977,92;  237,137;   90,175; 6209,353; 2,40167
 978,47;  215,837;   77,175; 6060,252; 2,31758
 979,02;  230,637;   95,475; 6085,652; 2,25640
 979,57;  215,538;   86,775; 6058,453; 2,15622
 980,13;  213,837;   76,175; 6038,752; 2,30877
 980,68;  204,837;   77,075; 6010,553; 2,15325
 981,23;  218,837;   89,175; 6054,652; 2,17355
 981,78;  214,238;   82,075; 5974,152; 2,24305
 982,33;  215,337;   79,275; 5893,252; 2,34027
 982,89;  214,238;   94,375; 5938,152; 2,05111
 983,44;  205,337;   65,675; 5935,853; 2,37919
 983,99;  243,637;  104,775; 5949,453; 2,37588
 984,54;  230,938;   81,475; 5900,053; 2,56871
 985,09;  237,738;   87,275; 5873,752; 2,60024
 985,65;  218,438;   69,375; 5811,853; 2,59579
 986,20;  232,938;  106,575; 5791,152; 2,22290
 986,75;  243,837;   95,875; 5823,953; 2,58311
 987,30;  228,738;   97,175; 5726,053; 2,33728
 987,85;  227,837;   92,475; 5721,353; 2,40479
 988,40;  229,637;   96,675; 5693,953; 2,37549
 988,96;  246,538;  114,875; 5666,553; 2,37158
 989,51;  235,337;  108,875; 5644,053; 2,28471
 990,06;  248,938;  128,275; 5680,853; 2,17309
 990,61;  220,337;   93,575; 5569,053; 2,31509
 991,16;  235,837;  104,375; 5558,053; 2,41053
 991,71;  211,837;   79,875; 5505,853; 2,43205
 992,26;  219,438;   93,475; 5457,252; 2,34839
 992,81;  207,837;   75,075; 5427,053; 2,48062
 993,37;  236,938;  113,475; 5390,553; 2,33960
 993,92;  232,637;  108,375; 5368,953; 2,36215
 994,47;  248,938;  117,475; 5329,652; 2,52222
 995,02;  236,637;  118,475; 5313,252; 2,27464
 995,57;  220,137;   90,875; 5274,652; 2,49360
 996,12;  251,337;  133,575; 5247,553; 2,30276
 996,67;  242,538;  132,375; 5191,652; 2,17744
 997,22;  217,238;   99,875; 5128,652; 2,33382
 997,77;  236,238;  115,275; 5110,553; 2,42154
 998,32;  212,238;  103,775; 5015,652; 2,20817
 998,87;  224,738;  114,275; 5018,752; 2,25228
 999,42;  225,137;  101,675; 4972,553; 2,53471
 999,97;  217,538;  109,975; 4956,353; 2,21944
1000,53;  238,238;  123,475; 4993,752; 2,35639
1001,08;  209,837;   98,375; 4879,053; 2,33152
1001,63;  239,137;  144,475; 4878,053; 1,99981
1002,18;  183,738;   85,075; 4777,453; 2,10261
1002,73;  237,837;  131,375; 4813,853; 2,27364
1003,28;  211,337;  103,575; 4811,953; 2,28874
1003,83;  229,738;  119,075; 4691,752; 2,42008
1004,38;  251,738;  137,775; 4703,152; 2,49623
1004,93;  216,637;  114,375; 4680,953; 2,23937
1005,48;  215,337;  104,075; 4573,053; 2,48966
1006,03;  211,238;  112,775; 4525,652; 2,23125
1006,58;  215,137;  111,475; 4486,553; 2,36939
1007,13;  171,337;   94,475; 4466,252; 1,75815
1007,68;  208,938;  104,975; 4462,453; 2,38584
1008,23;  216,438;  114,575; 4425,853; 2,36270
1008,78;  205,938;  107,375; 4384,152; 2,30460
1009,33;  214,137;  121,875; 4307,752; 2,20414
1009,88;  182,538;   84,775; 4329,553; 2,30312
1010,43;  208,337;  118,875; 4320,752; 2,12911
1010,98;  199,738;  100,675; 4310,053; 2,35338
1011,52;  182,738;   97,075; 4264,953; 2,05530
1012,07;  236,938;  144,475; 4319,252; 2,21479
1012,62;  189,738;  103,875; 4259,152; 2,06635
1013,17;  192,137;   97,175; 4172,053; 2,33044
1013,72;  178,438;   94,575; 4143,453; 2,07125
1014,27;  181,137;  100,275; 4105,853; 2,01875
1014,82;  188,438;   86,875; 4042,952; 2,56725
1015,37;  171,038;   84,375; 3964,853; 2,23329
1015,92;  197,438;  109,475; 3894,252; 2,32411
1016,47;  169,137;   90,275; 3819,452; 2,11474
1017,02;  160,738;   81,075; 3732,153; 2,18189
1017,57;  186,238;   96,475; 3718,853; 2,47800
1018,11;  164,137;   77,275; 3656,252; 2,42702
1018,66;  200,738;  120,175; 3636,552; 2,29107
1019,21;  184,837;  109,675; 3579,552; 2,16614
1019,76;  158,538;   77,675; 3497,353; 2,36462
1020,31;  160,137;   71,975; 3446,452; 2,61263
1020,86;  165,238;   96,175; 3448,052; 2,06041
1021,41;  153,637;   80,175; 3387,052; 2,22151
1021,96;  166,938;   83,675; 3385,853; 2,52144
1022,50;  188,238;  105,975; 3332,952; 2,54921
1023,05;  163,038;   94,675; 3288,052; 2,14076
1023,60;  178,038;   97,975; 3251,353; 2,53894
1024,15;  148,038;   81,075; 3184,853; 2,15745
1024,70;  174,238;   95,075; 3176,252; 2,56923
1025,25;  166,238;   81,175; 3127,452; 2,79234
1025,79;  167,938;  101,175; 3110,752; 2,21833
1026,34;  156,837;   83,475; 3044,653; 2,47748
1026,89;  174,337;  102,175; 3039,052; 2,45712
1027,44;  161,038;   95,875; 2952,952; 2,28074
1027,99;  162,337;   93,475; 2944,552; 2,41531
1028,53;  164,337;   89,675; 2900,052; 2,65667
1029,08;  168,938;  114,775; 2876,653; 1,96108
1029,63;  174,837;  114,875; 2854,952; 2,18835
1030,18;  160,238;   92,075; 2788,552; 2,52784
1030,73;  140,438;   91,175; 2739,552; 1,86010
1031,27;  143,238;   85,875; 2715,252; 2,18160
1031,82;  145,637;   81,875; 2686,452; 2,44809
1032,37;  150,038;   98,875; 2688,853; 1,97540
1032,92;  163,837;  100,575; 2675,452; 2,45691
1033,46;  148,137;   99,775; 2599,252; 1,93490
1034,01;  137,637;   78,375; 2582,952; 2,36617
1034,56;  161,438;   98,875; 2559,252; 2,54280
1035,11;  145,438;   92,375; 2523,552; 2,18258
1035,65;  143,337;   87,575; 2478,052; 2,33269
1036,20;  147,637;   99,375; 2454,452; 2,04930
1036,75;  176,438;  118,675; 2446,353; 2,48155
1037,29;  146,837;   90,275; 2398,252; 2,45074
1037,84;  128,938;   78,375; 2347,252; 2,22852
1038,39;  141,637;   91,075; 2329,952; 2,25839
1038,94;  114,338;   73,075; 2277,153; 1,87210
1039,48;  143,538;   83,575; 2278,552; 2,73181
1040,03;  152,137;  102,875; 2245,252; 2,29943
1040,58;  143,438;  101,175; 2194,552; 2,01887
1041,12;  135,938;   91,375; 2191,653; 2,12174
1041,67;  131,538;  101,075; 2166,752; 1,47470
1042,22;  160,538;  118,475; 2145,252; 2,07534
1042,76;  137,137;   99,275; 2118,452; 1,87514
1043,31;  149,238;   90,675; 2060,653; 2,97275
1043,86;  151,238;   98,875; 2044,252; 2,69164
1044,40;  148,637;   92,975; 2018,052; 2,89144
1044,95;  157,637;   94,175; 1988,552; 3,35004
1045,50;  126,537;   75,375; 1934,353; 2,75218
1046,04;  153,438;  114,375; 1930,453; 2,15093
1046,59;  135,038;   96,175; 1878,353; 2,18062
1047,13;  159,137;  121,075; 1879,453; 2,16464
1047,68;  150,938;  115,675; 1860,052; 2,02149
1048,23;  155,637;  118,775; 1866,752; 2,10887
1048,77;  130,837;   90,175; 1784,953; 2,39928
1049,32;  136,137;  104,175; 1785,953; 1,90052
1049,86;  141,538;   92,675; 1760,552; 2,92962
1050,41;  125,637;   82,475; 1735,552; 2,61104
1050,96;  140,538;  100,875; 1698,652; 2,48235
1051,50;  146,837;  101,675; 1663,252; 2,89211
1052,05;  130,337;   94,675; 1664,052; 2,27240
1052,59;  131,538;   82,975; 1624,152; 3,15100
1053,14;  123,637;   84,475; 1582,652; 2,61401
1053,69;  121,037;   98,475; 1571,453; 1,53176
1054,23;  136,938;  104,575; 1569,052; 2,20983
1054,78;  137,837;  100,775; 1550,152; 2,55713
1055,32;  156,738;  123,075; 1550,453; 2,35835
1055,87;  113,738;   68,875; 1491,752; 3,15294
1056,41;  116,537;   78,775; 1469,552; 2,71521
1056,96;  128,637;   96,775; 1451,052; 2,35273
1057,50;  143,137;  113,375; 1470,853; 2,19249
1058,05;  104,037;   82,075; 1401,953; 1,66398
1058,59;  124,838;   95,875; 1396,552; 2,22672
1059,14;  133,438;  103,575; 1370,453; 2,35717
1059,68;  100,537;   75,975; 1329,353; 1,95970
1060,23;  154,238;  126,875; 1383,752; 2,17702
1060,77;  142,738;   97,375; 1317,052; 3,71922
1061,32;  148,637;  108,575; 1320,652; 3,30528
1061,86;  124,338;  111,175; 1289,752; 1,11681
1062,41;  129,438;   93,975; 1242,953; 3,08644
1062,95;  122,637;  109,575; 1230,853; 1,16497
1063,50;  135,337;  111,075; 1230,052; 2,16827
1064,04;  116,338;   90,475; 1197,453; 2,33632
1064,59;  139,038;  114,775; 1210,052; 2,21519
1065,13;  131,438;  103,475; 1170,552; 2,62048
1065,68;  127,338;  107,275; 1161,353; 1,90332
1066,22;  134,038;  115,875; 1166,453; 1,72881
1066,76;  145,238;  130,175; 1145,252; 1,48388
1067,31;  115,938;   99,875; 1110,552; 1,58928
1067,85;  114,238;  100,975; 1090,252; 1,34063
1068,40;  129,337;  110,275; 1095,353; 1,93513
1068,94;  113,137;   99,175; 1079,353; 1,42449
1069,49;  118,238;   98,175; 1041,652; 2,12644
1070,03;  117,738;  111,175; 1034,353; 0,71086
1070,57;  106,838;   88,775; 1012,852; 1,95465
1071,12;  103,537;   75,875;  987,153; 3,03557
1071,66;  154,337;  131,775; 1039,953; 2,48437
1072,21;  131,038;  112,475; 1011,352; 2,06508
1072,75;  121,938;  104,475;  978,552; 1,99782
1073,29;   90,537;   77,075;  942,453; 1,55568
1073,84;  113,938;   95,975;  941,153; 2,12529
1074,38;  109,938;   93,875;  928,253; 1,92509
1074,92;  124,438;  107,275;  940,153; 2,06063
1075,47;  125,637;  112,775;  938,852; 1,55706
1076,01;  133,738;  121,775;  926,253; 1,48699
1076,56;  109,238;   97,275;  891,953; 1,50533
1077,10;  104,137;   86,075;  865,253; 2,31815
1077,64;  119,637;   97,875;  884,453; 2,76673
1078,19;  136,038;  123,175;  887,753; 1,68230
1078,73;  118,438;   98,775;  853,852; 2,60404
1079,27;  136,438;  121,075;  875,552; 2,03618
1079,81;  140,637;  121,375;  860,953; 2,60453
1080,36;  126,137;  105,975;  836,052; 2,76169
1080,90;  106,037;   96,375;  819,753; 1,33575
1081,44;   99,037;   82,475;  789,552; 2,34239
1081,99;   86,238;   70,375;  771,753; 2,26162
1082,53;  123,338;  113,075;  798,653; 1,49691
1083,07;  112,137;  104,175;  791,453; 1,15856
1083,62;  115,637;  101,275;  772,552; 2,13958
1084,16;  115,037;   98,975;  782,453; 2,35011
1084,70;  130,438;  107,475;  767,153; 3,48087
1085,24;  126,838;  108,775;  750,653; 2,81401
1085,79;  118,338;  109,175;  747,552; 1,43528
1086,33;   95,438;   99,075;  711,453;-0,59400
1086,87;  105,938;  102,075;  714,852; 0,63033
1087,41;  114,537;   84,475;  686,852; 4,99064
1087,96;  141,038;  124,575;  732,552; 2,70775
1088,50;  116,037;  112,075;  696,953; 0,67749
1089,04;  127,537;  121,775;  715,153; 0,97114
1089,58;   96,137;   82,375;  655,953; 2,39941
1090,13;  106,838;  102,975;  653,153; 0,70205
1090,67;  120,137;  101,775;  678,753; 3,18253
1091,21;  110,637;   92,075;  651,852; 3,31605
1091,75;  123,438;  106,875;  647,153; 3,06555
1092,29;  123,738;  105,875;  642,552; 3,32835
1092,84;  111,838;  105,975;  628,352; 1,12227
1093,38;  134,837;  128,175;  662,753; 1,24631
1093,92;  133,938;  113,475;  640,052; 3,88594
1094,46;  136,337;  128,175;  638,852; 1,59837
1095,00;  102,738;   93,975;  602,052; 1,72464
1095,54;   99,037;   89,975;  591,352; 1,80752
1096,09;  109,738;  114,975;  597,352;-1,08577
1096,63;  129,137;  117,175;  598,453; 2,48557
1097,17;  111,838;  102,575;  573,052; 1,96875
1097,71;  131,938;  122,875;  582,453; 1,97192
1098,25;  108,037;  103,275;  553,653; 1,05745
1098,79;  128,938;  104,775;  568,753; 5,20769
1099,33;  123,238;  111,975;  572,052; 2,44796
1099,88;  116,637;  110,775;  562,253; 1,29851
1100,42;   91,938;   83,275;  521,253; 1,97784

