0133 ELITRO PARTE BRILLANTE
Integration time [ms]:   8,000
Averaging Nr. [scans]: 10
Smoothing Nr. [pixels]: 0
Data measured with spectrometer [name]: 7314920SP
Wave   ;Sample   ;Dark     ;Reference;Reflectance
[nm]   ;[counts] ;[counts] ;[counts] ;[%]

 199,42;   94,474;   63,873;  150,055;35,50784
 200,02;  107,504;   92,669;  145,732;27,95786
 200,62;   71,910;   67,563;   88,793;20,47696
 201,22;  105,243;   86,969;  138,011;35,80136
 201,82;   80,190;   66,174;  141,790;18,53542
 202,42;  116,458;  101,668;  154,973;27,74525
 203,03;   61,327;   60,168;   91,775; 3,66721
 203,63;   84,242;   69,967;  109,037;36,53673
 204,23;   82,135;   70,671;  129,903;19,35507
 204,83;   88,550;   74,567;  123,718;28,44848
 205,43;   78,774;   56,673;  123,555;33,04529
 206,03;   63,804;   50,167;   90,459;33,84486
 206,63;   65,965;   68,865;  100,007;-9,31253
 207,24;  101,060;   74,675;  162,566;30,01926
 207,84;   51,957;   39,967;   83,699;27,41821
 208,44;   68,743;   50,669;   95,011;40,75990
 209,04;   65,511;   47,365;   85,066;48,13048
 209,64;   92,797;   69,972;  127,998;39,33600
 210,24;   58,750;   45,367;   97,218;25,80996
 210,84;   69,289;   51,469;  101,970;35,28575
 211,44;   98,173;   86,470;  122,908;32,11956
 212,05;   70,311;   60,865;   99,266;24,59780
 212,65;   78,027;   66,368;  112,975;25,01557
 213,25;   96,258;   93,768;  142,073; 5,15354
 213,85;   93,695;   84,465;  114,904;30,32345
 214,45;   68,150;   53,367;  100,418;31,41848
 215,05;   39,989;   39,369;  100,070; 1,02081
 215,65;   73,435;   55,169;  105,630;36,19813
 216,25;   38,650;   40,267;   82,518;-3,82762
 216,85;   53,896;   34,069;   89,651;35,67243
 217,45;   67,627;   49,068;   97,375;38,41876
 218,05;   73,312;   58,270;  112,886;27,54116
 218,66;   30,050;   28,769;   75,692; 2,73103
 219,26;   39,742;   26,567;   79,337;24,96665
 219,86;   40,643;   36,771;   81,584; 8,64092
 220,46;   66,466;   54,270;  104,127;24,46183
 221,06;   68,735;   51,871;  115,903;26,33745
 221,66;   63,374;   43,471;  103,481;33,16537
 222,26;   60,897;   39,772;  102,398;33,73213
 222,86;   73,465;   67,268;  118,954;11,99034
 223,46;   78,650;   51,767;   88,918;72,36039
 224,06;   66,989;   64,971;  120,343; 3,64499
 224,66;   79,404;   57,570;  105,805;45,26598
 225,26;   71,727;   48,169;  113,748;35,92276
 225,86;   64,536;   42,173;  112,376;31,85460
 226,46;   66,512;   49,968;  102,913;31,24635
 227,06;   36,504;   27,670;   87,705;14,71491
 227,66;   50,149;   37,665;   74,845;33,57780
 228,27;   49,466;   29,270;   96,227;30,16254
 228,87;  100,658;   89,170;  143,046;21,32324
 229,47;   53,343;   29,172;   92,357;38,25436
 230,07;   14,027;   11,169;   59,648; 5,89492
 230,67;   54,096;   38,169;   84,651;34,26584
 231,27;   47,966;   27,670;   76,327;41,71223
 231,87;   52,996;   43,169;  100,751;17,06695
 232,47;   84,467;   43,775;  132,047;46,09846
 233,07;   59,618;   42,965;   75,547;51,11230
 233,67;   64,227;   53,768;   94,275;25,82025
 234,27;   29,004;    0,567;   53,259;53,96795
 234,87;   53,343;   34,771;  106,084;26,04324
 235,47;   30,027;   16,169;   74,148;23,90140
 236,07;   42,880;   30,266;   72,042;30,19494
 236,67;   56,165;   49,966;   85,180;17,60267
 237,27;   53,967;   28,873;  109,074;31,28831
 237,87;   45,904;   25,370;   99,805;27,58658
 238,47;   29,704;   14,269;   68,032;28,70985
 239,07;   44,051;   33,272;   95,738;17,25553
 239,67;   77,568;   43,477;  131,421;38,76429
 240,27;   61,836;   46,773;  119,176;20,80433
 240,87;   72,413;   50,773;  119,533;31,47104
 241,47;   40,995;   39,164;   76,131; 4,95424
 242,07;   41,519;   39,968;   92,894; 2,93090
 242,67;   18,821;  -11,027;   77,914;33,55852
 243,27;   23,250;    7,767;   46,418;40,05766
 243,87;   59,989;   48,671;  108,343;18,96739
 244,47;   49,035;   22,371;   99,703;34,48043
 245,07;   23,089;    2,669;   55,770;38,45437
 245,67;   42,427;   31,068;   85,575;20,83957
 246,27;   38,465;   34,965;   69,007;10,28100
 246,87;   25,965;   26,668;   63,154;-1,92605
 247,46;   11,210;   19,663;   23,793;-204,67250
 248,06;   37,412;   20,470;   69,786;34,35367
 248,66;   56,797;   31,072;  105,898;34,37987
 249,26;   31,380;   32,366;   70,742;-2,56836
 249,86;   42,236;   42,873;  102,176;-1,07400
 250,46;   33,413;   16,775;   93,507;21,68356
 251,06;   25,127;   22,168;   65,375; 6,84862
 251,66;   21,197;   20,771;   64,724; 0,96972
 252,26;   36,773;   38,866;   70,261;-6,66834
 252,86;   35,089;   35,969;   89,070;-1,65791
 253,46;   -2,350;   -8,033;   22,118;18,84759
 254,06;   44,034;   31,766;   79,483;25,71054
 254,66;   42,474;   34,973;  100,155;11,50821
 255,26;   51,082;   39,073;  118,836;15,05603
 255,86;   40,695;   37,464;   55,631;17,78716
 256,46;   24,773;   19,870;   70,208; 9,74178
 257,05;   32,451;   23,570;   59,565;24,67090
 257,65;   65,243;   38,071;   97,684;45,58095
 258,25;   52,143;   37,372;  101,457;23,04908
 258,85;   21,389;   15,669;   51,770;15,84345
 259,45;    7,396;    6,869;   42,951; 1,46203
 260,05;   53,950;   46,667;   85,818;18,60166
 260,65;   48,273;   45,066;   83,561; 8,32954
 261,25;   44,789;   29,371;   85,943;27,25407
 261,85;    6,428;   -0,129;   47,622;13,73068
 262,45;   52,689;   46,169;  109,270;10,33207
 263,04;   77,928;   53,073;  116,295;39,31396
 263,64;   45,888;   33,767;   77,097;27,97401
 264,24;   51,282;   37,671;   89,062;26,48393
 264,84;   75,898;   58,974;  138,671;21,23490
 265,44;   35,681;   26,368;   67,716;22,52357
 266,04;   54,142;   48,865;   71,464;23,34774
 266,64;   51,465;   39,866;   86,780;24,72315
 267,24;   45,765;   40,166;   68,980;19,43017
 267,84;   39,058;   24,668;   76,573;27,72296
 268,43;   64,673;   48,368;   95,935;34,27849
 269,03;   57,350;   46,969;   87,892;25,36839
 269,63;   68,526;   58,566;   92,402;29,43754
 270,23;   14,749;   10,765;   39,045;14,08822
 270,83;   54,573;   55,266;   83,161;-2,48620
 271,43;   22,734;   23,967;   58,856;-3,53410
 272,03;   57,581;   64,168;   99,116;-18,84784
 272,62;   31,135;   23,269;   68,730;17,30233
 273,22;   25,558;   11,970;   61,046;27,68791
 273,82;   19,987;   17,460;   26,403;28,24822
 274,42;   17,341;   25,164;   46,890;-36,00410
 275,02;   34,472;   34,864;   60,388;-1,53672
 275,62;   57,443;   31,972;  100,457;37,19211
 276,21;   42,320;   22,770;   69,267;42,04485
 276,81;   54,857;   46,767;   71,099;33,25047
 277,41;   37,620;   22,971;   96,341;19,96555
 278,01;   13,872;   21,364;   42,788;-34,97204
 278,61;   59,743;   38,869;   83,811;46,44602
 279,20;   64,936;   65,473;  119,076;-1,00165
 279,80;   -3,498;    6,762;   11,539;-214,76618
 280,40;   47,480;   36,866;   79,742;24,75572
 281,00;    1,343;   -4,331;   33,311;15,07265
 281,60;   37,651;   20,774;   74,812;31,23287
 282,20;   44,073;   36,670;   70,108;22,14177
 282,79;   40,173;   29,568;   70,135;26,14249
 283,39;   15,226;   17,466;   44,702;-8,22296
 283,99;   22,018;   23,165;   34,347;-10,24945
 284,59;   18,881;   16,869;   45,289; 7,07871
 285,19;   31,704;   27,067;   57,759;15,10736
 285,78;   34,173;   23,270;   63,808;26,89760
 286,38;   51,265;   39,665;   59,207;59,35817
 286,98;   42,573;   35,168;   73,535;19,30099
 287,58;   23,035;    4,771;   61,403;32,25103
 288,17;   37,082;    8,973;   80,336;39,38897
 288,77;   44,944;   19,976;   92,504;34,42574
 289,37;   12,789;   11,269;   57,670; 3,27501
 289,97;   47,318;   48,965;   66,647;-9,30948
 290,57;   62,312;   46,672;   93,260;33,57232
 291,16;   75,181;   63,868;  102,616;29,19645
 291,76;   18,358;    5,570;   47,346;30,61117
 292,36;   30,542;   34,367;   58,137;-16,09219
 292,96;   16,090;   -3,127;   60,117;30,38542
 293,55;   29,857;   24,267;   65,399;13,59186
 294,15;   30,420;   26,870;   62,567; 9,94435
 294,75;   29,665;   42,065;   66,207;-51,36287
 295,35;   35,081;   21,068;   52,016;45,27930
 295,94;   42,411;   42,967;   66,740;-2,33614
 296,54;   32,112;   30,768;   70,613; 3,37138
 297,14;   40,774;   29,971;   76,881;23,02823
 297,73;   11,303;   12,165;   40,085;-3,08722
 298,33;   38,134;   28,066;   57,583;34,11015
 298,93;   50,365;   41,968;   82,554;20,69033
 299,53;   28,105;   24,872;   69,079; 7,31293
 300,12;   10,574;  -12,229;   59,481;31,79827
 300,72;   48,088;   41,567;   91,197;13,13930
 301,32;   48,643;   25,771;   99,584;30,98669
 301,92;   14,487;    3,664;   33,050;36,83231
 302,51;   27,596;   11,567;   49,978;41,73024
 303,11;   16,804;   14,667;   48,759; 6,26757
 303,71;   30,904;   21,369;   82,132;15,69268
 304,30;   12,588;    5,466;   38,423;21,61030
 304,90;   16,434;   19,666;   44,283;-13,12785
 305,50;   27,149;   18,565;   64,345;18,75091
 306,09;   23,380;   15,466;   49,042;23,57120
 306,69;   50,482;   34,171;   90,262;29,07837
 307,29;   18,440;   18,760;   33,144;-2,22393
 307,88;   58,481;   43,269;   72,489;52,05995
 308,48;    6,066;    0,070;   49,727;12,07472
 309,08;    3,018;   -4,437;   11,774;45,98759
 309,68;   23,303;   22,365;   39,585; 5,44731
 310,27;   18,935;   20,169;   49,830;-4,16147
 310,87;   24,012;   23,468;   54,813; 1,73336
 311,47;   56,850;   54,967;   92,918; 4,96106
 312,06;   43,557;   47,865;   68,426;-20,95249
 312,66;   63,581;   51,168;  100,016;25,41158
 313,26;   51,097;   48,571;   96,224; 5,30120
 313,85;   46,904;   38,267;   65,959;31,18868
 314,45;   56,643;   42,969;   86,611;31,33154
 315,04;   51,757;   52,165;   81,826;-1,37560
 315,64;   24,488;   21,267;   47,897;12,09548
 316,24;   46,266;   40,770;   85,627;12,25215
 316,83;   43,980;   40,366;   76,742; 9,93600
 317,43;   46,834;   35,167;   68,156;35,36668
 318,03;   52,103;   39,063;   70,012;42,13224
 318,62;   71,210;   73,061;   94,820;-8,50921
 319,22;   38,158;    7,668;   66,973;51,41185
 319,82;   64,381;   40,768;   93,516;44,76575
 320,41;   72,904;   59,069;   98,732;34,88199
 321,01;   90,249;   80,465;  115,945;27,57667
 321,60;   81,241;   81,164;  102,790; 0,35839
 322,20;   72,974;   67,673;  132,855; 8,13303
 322,80;   66,788;   54,567;   91,797;32,82614
 323,39;   68,926;   65,764;   94,828;10,87843
 323,99;   69,773;   61,766;  102,661;19,57807
 324,59;   64,803;   73,063;   97,512;-33,78785
 325,18;   59,296;   40,967;   92,178;35,79110
 325,78;   78,103;   76,365;  108,885; 5,34450
 326,37;   79,827;   74,868;  108,075;14,93374
 326,97;   71,588;   63,267;  111,497;17,25287
 327,57;   35,210;   42,263;   76,493;-20,60410
 328,16;   74,195;   60,864;   93,631;40,68520
 328,76;   81,211;   50,467;  110,140;51,52169
 329,35;   80,743;   56,871;  137,484;29,61335
 329,95;   51,973;   27,470;   91,308;38,38420
 330,54;   56,850;   52,167;   94,018;11,18911
 331,14;   42,557;   26,967;   82,599;28,02439
 331,74;   61,749;   54,165;   96,145;18,06614
 332,33;   56,166;   35,370;  108,127;28,58272
 332,93;   49,887;   43,764;   79,250;17,25626
 333,52;   52,426;   42,466;   93,102;19,67072
 334,12;   88,950;   72,069;  140,392;24,70838
 334,71;   48,180;   50,666;   87,942;-6,66815
 335,31;   69,404;   63,267;  119,859;10,84383
 335,90;   35,933;   32,362;   53,836;16,62922
 336,50;   40,665;   30,665;   77,207;21,48562
 337,10;   56,935;   38,769;  121,530;21,94976
 337,69;   61,765;   51,765;   93,707;23,84206
 338,29;   53,042;   30,467;  101,037;31,98938
 338,88;   31,665;   22,468;   99,854;11,88501
 339,48;   57,987;   57,862;  111,677; 0,23203
 340,07;   57,719;   48,566;  107,321;15,57757
 340,67;   48,843;   31,171;  124,784;18,87797
 341,26;   65,180;   48,466;   98,942;33,11321
 341,86;   84,127;   61,469;  138,348;29,47202
 342,45;   69,081;   45,669;  142,689;24,13092
 343,05;   61,481;   27,269;  115,689;38,69246
 343,64;   75,665;   47,366;  122,480;37,67426
 344,24;   44,965;   28,765;   92,107;25,57518
 344,83;   66,418;   71,365;  121,747;-9,81718
 345,43;   45,711;   29,667;  114,240;18,97130
 346,02;   50,696;   41,469;  124,351;11,13331
 346,62;   74,397;   40,971;  140,424;33,60977
 347,21;   60,303;   42,165;  131,985;20,19371
 347,81;   49,812;   26,172;  140,560;20,66710
 348,40;   37,695;   29,064;  100,731;12,04378
 349,00;   63,903;   49,163;  137,712;16,64548
 349,59;   89,358;   65,870;  177,846;20,97602
 350,19;   51,697;   32,571;  139,424;17,89942
 350,78;   65,304;   55,467;  140,759;11,53302
 351,38;   35,096;   15,869;  140,951;15,37191
 351,97;   48,511;   26,767;  136,040;19,89933
 352,57;   50,066;   42,570;  155,827; 6,61853
 353,16;   32,026;   30,564;  134,328; 1,40869
 353,76;   57,558;   38,770;  169,846;14,33374
 354,35;   44,727;   27,669;  160,148;12,87585
 354,95;   63,220;   43,970;  182,067;13,93934
 355,54;   61,558;   38,368;  163,973;18,46226
 356,14;   56,727;   40,069;  164,749;13,36055
 356,73;   59,487;   29,162;  145,176;26,13888
 357,32;   45,204;   13,769;  164,432;20,86466
 357,92;   61,659;   17,772;  181,419;26,81787
 358,51;   77,505;   43,372;  214,179;19,98328
 359,11;   64,712;   36,772;  212,360;15,91264
 359,70;   54,451;   28,470;  189,965;16,08734
 360,30;   64,602;   54,562;  188,039; 7,52239
 360,89;   46,265;   31,168;  188,054; 9,62311
 361,48;   85,020;   55,570;  216,467;18,30349
 362,08;   45,134;   19,867;  187,156;15,10383
 362,67;   57,110;   39,763;  192,693;11,34326
 363,27;   74,996;   60,767;  247,678; 7,61264
 363,86;   64,549;   35,765;  215,745;15,99298
 364,46;   84,395;   44,664;  257,231;18,69123
 365,05;   98,532;   64,659;  254,989;17,79722
 365,64;   96,956;   50,960;  269,706;21,02709
 366,24;  100,155;   38,558;  309,432;22,74014
 366,83;  113,885;   43,255;  335,383;24,17780
 367,43;  125,883;   51,545;  352,843;24,67256
 368,02;  119,137;   34,646;  399,757;23,14111
 368,61;  166,250;   62,239;  475,425;25,17305
 369,21;  124,553;   32,419;  445,299;22,31494
 369,80;  178,265;   43,007;  526,947;27,94946
 370,39;  215,596;   62,006;  604,971;28,28730
 370,99;  203,230;   42,089;  615,416;28,10638
 371,58;  189,357;   22,974;  630,953;27,36665
 372,18;  221,678;   37,166;  701,603;27,76976
 372,77;  230,897;   42,449;  679,385;29,58664
 373,36;  240,727;   42,747;  690,836;30,54838
 373,96;  202,594;   35,135;  639,498;27,70826
 374,55;  205,550;   29,844;  621,406;29,70203
 375,14;  198,851;   42,849;  573,826;29,38019
 375,74;  193,630;   69,157;  543,276;26,25352
 376,33;  145,224;   45,964;  464,589;23,71096
 376,92;  134,989;   33,278;  447,997;24,52531
 377,52;  211,711;   86,103;  548,460;27,16678
 378,11;  149,334;   46,703;  457,203;25,00146
 378,71;  181,836;   73,011;  514,270;24,66230
 379,30;  192,022;   59,517;  553,928;26,80055
 379,89;  190,382;   59,813;  556,103;26,30909
 380,49;  174,099;   31,018;  568,185;26,63625
 381,08;  227,688;   70,306;  570,990;31,43346
 381,67;  203,581;   55,008;  555,483;29,68646
 382,26;  193,488;   41,706;  539,390;30,49773
 382,86;  187,318;   54,003;  516,041;28,85376
 383,45;  203,551;   50,412;  562,105;29,92792
 384,04;  193,159;   38,712;  553,886;29,97956
 384,64;  192,960;   49,014;  566,760;27,80238
 385,23;  205,981;   64,406;  560,509;28,53732
 385,82;  231,214;   59,615;  592,774;32,18525
 386,42;  249,824;   61,024;  659,022;31,57197
 387,01;  237,167;   55,414;  580,541;34,61134
 387,60;  243,958;   69,009;  590,140;33,57113
 388,20;  225,151;   37,712;  590,805;33,88925
 388,79;  264,138;   72,418;  665,563;32,32249
 389,38;  226,588;   32,106;  564,890;36,50303
 389,97;  253,421;   45,415;  640,955;34,92736
 390,57;  266,098;   71,114;  654,038;33,44927
 391,16;  279,498;   62,514;  655,838;36,57088
 391,75;  254,929;   52,713;  638,562;34,51663
 392,34;  289,015;   60,821;  696,694;35,88678
 392,94;  295,030;   44,718;  689,683;38,81014
 393,53;  282,799;   41,016;  666,612;38,64837
 394,12;  312,100;   53,023;  719,105;38,89569
 394,72;  326,075;   54,213;  706,122;41,70240
 395,31;  302,914;   42,115;  694,874;39,95328
 395,90;  326,570;   42,924;  732,881;41,11063
 396,49;  351,017;   58,028;  779,187;40,62750
 397,09;  352,668;   47,417;  749,188;43,49726
 397,68;  369,455;   44,025;  800,719;43,00678
 398,27;  384,801;   54,626;  809,652;43,73027
 398,86;  378,639;   43,125;  807,657;43,88491
 399,45;  422,387;   56,630;  844,037;46,45078
 400,05;  397,846;   23,820;  799,518;48,21797
 400,64;  430,822;   56,419;  831,001;48,33616
 401,23;  427,130;   53,920;  859,956;46,30194
 401,82;  454,630;   67,220;  868,256;48,36366
 402,42;  464,861;   62,921;  873,953;49,55911
 403,01;  500,255;   81,525;  912,919;50,36477
 403,60;  493,456;   68,532;  940,513;48,73096
 404,19;  496,262;   76,024;  931,900;49,10033
 404,78;  507,431;   57,522;  909,929;52,78097
 405,38;  547,087;   68,332;  984,210;52,27280
 405,97;  530,609;   63,226;  953,933;52,47323
 406,56;  573,055;   71,528; 1004,366;53,76362
 407,15;  564,225;   68,829;  989,442;53,81154
 407,74;  588,248;   80,730; 1026,758;53,64725
 408,34;  569,380;   50,933; 1018,629;53,57538
 408,93;  600,518;   59,531; 1016,234;56,54697
 409,52;  609,757;   51,435; 1041,359;56,40048
 410,11;  654,110;   84,931; 1090,453;56,60531
 410,70;  639,840;   54,727; 1027,230;60,16563
 411,29;  634,663;   58,628; 1030,847;59,24953
 411,89;  673,296;   60,535; 1093,938;59,29542
 412,48;  665,409;   48,228; 1051,606;61,51032
 413,07;  691,003;   65,033; 1101,446;60,39774
 413,66;  704,403;   78,135; 1102,119;61,15997
 414,25;  718,596;   63,337; 1142,311;60,72982
 414,84;  729,418;   69,431; 1102,434;63,89009
 415,44;  751,656;   91,530; 1155,939;62,01805
 416,03;  742,111;   76,637; 1161,173;61,36029
 416,62;  754,366;   76,138; 1168,687;62,07753
 417,21;  773,434;   75,334; 1158,843;64,42953
 417,80;  779,442;   65,037; 1162,871;65,07408
 418,39;  800,220;   78,440; 1179,201;65,57099
 418,98;  779,749;   55,634; 1143,405;66,56872
 419,58;  786,564;   64,033; 1142,067;67,02305
 420,17;  788,865;   52,735; 1164,540;66,21032
 420,76;  830,811;   72,537; 1192,873;67,68277
 421,35;  806,542;   60,236; 1155,197;68,15821
 421,94;  846,620;   88,340; 1223,501;66,79932
 422,53;  816,512;   61,540; 1195,320;66,58896
 423,12;  822,704;   64,039; 1190,766;67,33358
 423,71;  819,096;   60,835; 1162,138;68,85123
 424,30;  848,373;   85,236; 1210,695;67,80672
 424,90;  834,727;   39,438; 1163,809;70,73194
 425,49;  841,574;   70,140; 1216,242;67,30938
 426,08;  874,974;   80,240; 1209,641;70,36769
 426,67;  842,188;   57,436; 1168,257;70,64615
 427,26;  860,544;   60,343; 1230,391;68,39043
 427,85;  848,173;   63,238; 1209,968;68,44987
 428,44;  873,213;   68,442; 1218,093;70,00129
 429,03;  905,028;   85,341; 1233,155;71,41284
 429,62;  895,182;   78,941; 1240,296;70,28349
 430,21;  917,167;   81,443; 1277,807;69,85530
 430,80;  910,167;   70,445; 1235,381;72,08315
 431,39;  901,259;   53,344; 1246,926;71,03954
 431,99;  896,796;   78,535; 1206,838;72,52136
 432,58;  926,404;   82,639; 1251,166;72,20762
 433,17;  910,203;   69,735; 1238,319;71,92195
 433,76;  956,714;   71,347; 1288,314;72,75195
 434,35;  973,275;   88,245; 1292,462;73,49425
 434,94;  954,714;   70,849; 1318,887;70,82040
 435,53;  953,582;   78,643; 1278,669;72,91000
 436,12;  963,613;   70,044; 1294,267;72,99074
 436,71;  964,805;   87,740; 1303,239;72,15674
 437,30;  969,189;   76,941; 1299,177;73,00132
 437,89; 1015,229;   76,245; 1320,802;75,44723
 438,48; 1000,297;   65,942; 1305,731;75,36404
 439,07;  998,512;   95,238; 1347,147;72,15173
 439,66; 1028,745;   83,648; 1375,711;73,14635
 440,25; 1023,713;   85,844; 1390,567;71,88265
 440,84; 1035,945;   79,850; 1387,984;73,08847
 441,43; 1047,954;   78,054; 1440,985;71,16280
 442,02; 1049,230;   79,650; 1411,022;72,82561
 442,61; 1072,259;   93,344; 1397,226;75,07697
 443,20; 1092,299;   94,249; 1446,625;73,79976
 443,79; 1055,037;   74,546; 1412,957;73,25785
 444,38; 1101,283;   84,248; 1461,789;73,82975
 444,97; 1110,006;   84,146; 1466,359;74,21866
 445,56; 1142,645;  101,846; 1477,038;75,68389
 446,15; 1129,553;   81,651; 1522,539;72,72617
 446,74; 1116,906;   58,644; 1462,286;75,39399
 447,33; 1142,537;   82,646; 1538,357;72,80917
 447,92; 1178,961;   78,151; 1570,720;73,75273
 448,51; 1186,552;   89,746; 1586,019;73,30256
 449,10; 1207,314;   92,045; 1608,840;73,52796
 449,69; 1193,223;   73,950; 1627,741;72,03493
 450,28; 1235,799;   66,948; 1608,251;75,83521
 450,87; 1247,406;   78,647; 1656,333;74,08062
 451,46; 1275,576;   96,048; 1702,208;73,43773
 452,05; 1264,345;   70,950; 1715,384;72,57179
 452,64; 1291,276;   70,850; 1725,182;73,77155
 453,23; 1356,884;  113,752; 1794,936;73,94386
 453,82; 1343,515;   83,451; 1800,660;73,37859
 454,40; 1348,676;   65,450; 1786,682;74,55278
 454,99; 1426,892;  101,253; 1871,891;74,86791
 455,58; 1418,922;   69,747; 1832,095;76,55554
 456,17; 1444,615;   63,852; 1873,634;76,29447
 456,76; 1461,661;   67,751; 1918,820;75,30298
 457,35; 1500,583;   78,348; 1930,490;76,78870
 457,94; 1542,577;   66,954; 1978,929;77,17797
 458,53; 1555,569;   67,350; 2010,101;76,60368
 459,12; 1647,632;   82,657; 2111,116;77,15092
 459,71; 1621,291;   58,148; 2060,071;78,08210
 460,30; 1677,145;   84,448; 2087,511;79,51307
 460,89; 1683,261;   57,551; 2129,920;78,44696
 461,48; 1738,377;   75,954; 2173,829;79,24321
 462,06; 1785,138;   68,050; 2187,303;81,02324
 462,65; 1765,868;   48,249; 2176,527;80,70464
 463,24; 1883,716;   87,456; 2288,680;81,60278
 463,83; 1881,638;   54,450; 2229,803;83,99498
 464,42; 1926,514;   88,349; 2333,687;81,86587
 465,01; 1959,676;   73,050; 2336,482;83,35246
 465,60; 1971,230;   64,050; 2384,322;82,19639
 466,19; 2034,177;   73,354; 2462,829;82,06085
 466,77; 2046,253;   81,551; 2462,939;82,50242
 467,36; 2087,886;   69,457; 2459,256;84,46018
 467,95; 2109,200;   79,551; 2466,098;85,04540
 468,54; 2162,862;   71,954; 2513,866;85,62583
 469,13; 2175,038;   69,452; 2535,977;85,36651
 469,72; 2204,639;   67,555; 2582,723;84,96784
 470,31; 2264,731;   87,855; 2629,242;85,65701
 470,90; 2267,292;   76,750; 2652,044;85,05987
 471,48; 2288,178;   32,057; 2671,875;85,46501
 472,07; 2383,068;  125,747; 2686,454;88,15225
 472,66; 2364,954;   67,853; 2748,412;85,69484
 473,25; 2407,553;   68,351; 2723,339;88,10596
 473,84; 2416,700;   55,955; 2766,545;87,09342
 474,43; 2437,078;   55,459; 2843,049;85,43651
 475,01; 2494,508;   69,254; 2885,926;86,10353
 475,60; 2479,493;   49,755; 2882,364;85,77738
 476,19; 2547,655;   74,158; 2956,932;85,80267
 476,78; 2549,386;   71,057; 2964,456;85,65457
 477,37; 2576,193;   59,355; 2945,364;87,20825
 477,95; 2562,524;   75,656; 3018,661;84,50096
 478,54; 2590,892;   63,253; 3023,691;85,38060
 479,13; 2615,992;   56,253; 3070,291;84,92726
 479,72; 2637,770;   81,154; 3090,147;84,96581
 480,31; 2627,971;   63,459; 3167,468;82,61935
 480,89; 2630,908;   60,254; 3171,026;82,63717
 481,48; 2640,094;   46,260; 3214,084;81,88062
 482,07; 2648,762;   61,654; 3233,866;81,55532
 482,66; 2663,339;   52,853; 3253,650;81,55736
 483,25; 2706,894;   78,960; 3319,884;81,08596
 483,83; 2680,754;   59,954; 3325,385;80,25893
 484,42; 2658,977;   54,354; 3355,129;78,90945
 485,01; 2702,163;   65,958; 3400,413;79,05954
 485,60; 2713,641;   73,764; 3490,590;77,26109
 486,18; 2665,924;   66,956; 3490,761;75,90875
 486,77; 2665,884;   67,252; 3519,736;75,26848
 487,36; 2708,287;   58,464; 3561,750;75,63823
 487,95; 2704,425;   59,161; 3640,781;73,85663
 488,53; 2674,479;   54,461; 3642,522;73,02044
 489,12; 2670,957;   50,563; 3722,252;71,36751
 489,71; 2632,594;   38,062; 3680,357;71,23345
 490,30; 2660,987;   61,460; 3742,503;70,61929
 490,88; 2678,771;   87,561; 3859,141;68,70357
 491,47; 2624,503;   60,663; 3867,512;67,34808
 492,06; 2663,872;   62,563; 3920,615;67,42546
 492,65; 2674,364;   59,161; 3947,060;67,26519
 493,23; 2656,548;   54,860; 3982,825;66,23502
 493,82; 2698,046;   65,853; 4018,031;66,60108
 494,41; 2691,456;   51,361; 4066,179;65,75877
 494,99; 2732,801;   73,655; 4126,945;65,60463
 495,58; 2745,687;   86,060; 4224,403;64,26790
 496,17; 2765,916;   56,356; 4198,681;65,41159
 496,76; 2773,924;   65,356; 4276,761;64,31506
 497,34; 2759,124;   54,557; 4305,235;63,62673
 497,93; 2769,878;   66,057; 4350,675;63,10529
 498,52; 2799,263;   60,059; 4454,387;62,33500
 499,10; 2825,541;   75,862; 4533,217;61,68858
 499,69; 2804,256;   55,360; 4537,006;61,33675
 500,28; 2803,271;   37,959; 4592,068;60,72125
 500,86; 2822,002;   62,862; 4698,539;59,51969
 501,45; 2858,602;   53,462; 4730,438;59,97765
 502,04; 2879,895;   53,362; 4813,958;59,37351
 502,62; 2927,116;   70,956; 4856,181;59,68707
 503,21; 2906,809;   57,856; 4939,699;58,35813
 503,80; 2933,087;   69,662; 5015,577;57,89475
 504,38; 2948,348;   58,460; 5081,425;57,53351
 504,97; 2971,987;   49,962; 5122,776;57,60165
 505,56; 3014,632;   70,859; 5194,989;57,44923
 506,14; 3007,333;   64,064; 5263,709;56,60520
 506,73; 2964,265;   23,565; 5292,507;55,81196
 507,32; 3001,749;   62,865; 5376,045;55,31309
 507,90; 3002,494;   70,860; 5443,284;54,56818
 508,49; 3013,311;   58,865; 5500,366;54,29468
 509,08; 3066,395;   67,264; 5571,931;54,48343
 509,66; 3029,440;   69,960; 5677,644;52,77545
 510,25; 3045,617;   63,561; 5737,400;52,55800
 510,83; 3030,465;   45,165; 5855,607;51,37819
 511,42; 3091,812;   61,968; 5895,913;51,93473
 512,01; 3052,826;   59,164; 5980,328;50,55867
 512,59; 3059,187;   46,562; 6041,676;50,25134
 513,18; 3063,556;   59,961; 6114,379;49,60997
 513,77; 3057,040;   42,257; 6171,797;49,18449
 514,35; 3006,926;   37,763; 6190,255;48,25952
 514,94; 3060,341;   58,662; 6323,517;47,91298
 515,52; 3043,880;   48,166; 6358,342;47,47433
 516,11; 3074,018;   80,665; 6474,047;46,81956
 516,69; 2983,817;   41,959; 6446,727;45,93231
 517,28; 3041,009;   83,358; 6541,973;45,79389
 517,87; 2956,417;   45,558; 6604,054;44,38302
 518,45; 2981,401;   74,858; 6626,192;44,36567
 519,04; 2984,040;   54,258; 6707,970;44,03229
 519,62; 2967,472;   55,863; 6774,114;43,33879
 520,21; 2927,927;   24,466; 6828,002;42,67576
 520,79; 2971,127;   52,068; 7000,875;42,00806
 521,38; 2950,733;   52,960; 6995,363;41,74019
 521,97; 2990,765;   43,068; 7141,554;41,52572
 522,55; 3016,586;   67,759; 7195,230;41,37270
 523,14; 2996,732;   26,759; 7180,289;41,51759
 523,72; 3079,079;   77,561; 7383,422;41,08370
 524,31; 3077,765;   71,665; 7406,107;40,98607
 524,89; 3092,881;   48,468; 7526,815;40,70970
 525,48; 3115,365;   21,666; 7603,580;40,80366
 526,06; 3133,726;   56,264; 7633,128;40,61656
 526,65; 3204,104;   72,370; 7803,105;40,51017
 527,23; 3172,579;   46,262; 7840,596;40,11013
 527,82; 3240,596;   37,967; 7905,978;40,70443
 528,41; 3280,219;   67,366; 8041,021;40,29335
 528,99; 3302,811;   66,365; 8108,167;40,24528
 529,58; 3316,133;   42,562; 8168,736;40,28428
 530,16; 3379,356;   49,461; 8315,379;40,28463
 530,75; 3493,180;   73,964; 8417,069;40,98253
 531,33; 3478,965;   45,566; 8440,980;40,89612
 531,92; 3556,840;   48,560; 8567,344;41,18288
 532,50; 3679,820;   87,770; 8706,468;41,67741
 533,09; 3705,396;   65,665; 8807,204;41,63718
 533,67; 3788,294;   63,458; 8952,011;41,90598
 534,26; 3860,302;   65,760; 9007,665;42,43550
 534,84; 3921,464;   68,461; 9127,061;42,53420
 535,42; 4016,580;   61,564; 9205,969;43,25066
 536,01; 4149,472;   79,263; 9330,215;43,99773
 536,59; 4231,926;   43,366; 9482,202;44,37581
 537,18; 4361,556;   77,360; 9568,605;45,13839
 537,76; 4448,266;   56,972; 9764,700;45,23504
 538,35; 4550,019;   59,368; 9892,694;45,66767
 538,93; 4660,126;   72,664; 9941,828;46,48278
 539,52; 4729,604;   57,370;10111,405;46,47123
 540,10; 4910,135;   63,269;10309,029;47,30606
 540,69; 4959,449;   68,763;10444,071;47,13774
 541,27; 5045,141;   58,262;10514,917;47,69096
 541,85; 5080,734;   47,366;10658,783;47,43351
 542,44; 5141,394;   56,460;10765,484;47,48270
 543,02; 5273,935;   80,369;10952,729;47,76852
 543,61; 5300,750;   77,067;11102,218;47,37969
 544,19; 5351,688;   55,066;11264,023;47,25348
 544,78; 5405,772;   62,766;11296,562;47,56190
 545,36; 5495,942;   77,469;11521,011;47,34962
 545,94; 5440,180;   54,564;11563,069;46,79683
 546,53; 5524,374;   52,771;11724,882;46,87758
 547,11; 5610,558;   90,668;11879,873;46,82156
 547,70; 5626,355;   75,860;11954,706;46,72588
 548,28; 5659,911;   47,965;12093,066;46,59110
 548,86; 5796,411;   81,365;12327,767;46,66714
 549,45; 5756,365;   33,768;12364,953;46,40752
 550,03; 5832,942;   76,467;12507,537;46,30715
 550,62; 5909,080;   63,566;12662,842;46,39564
 551,20; 5968,950;   61,467;12808,418;46,34428
 551,78; 5964,688;   61,164;12952,850;45,79326
 552,37; 6024,980;   55,864;13112,469;45,71721
 552,95; 6092,218;   56,765;13214,547;45,86984
 553,54; 6181,964;   49,965;13393,207;45,95584
 554,12; 6255,088;   67,167;13498,797;46,06977
 554,70; 6346,058;   67,568;13736,973;45,93096
 555,29; 6379,003;   61,965;13856,285;45,79449
 555,87; 6460,512;   60,170;13987,786;45,95433
 556,45; 6494,794;   57,162;14154,058;45,66702
 557,04; 6545,857;   43,667;14376,600;45,36539
 557,62; 6673,958;   68,867;14525,499;45,68900
 558,20; 6708,020;   42,671;14799,940;45,16655
 558,79; 6854,227;  100,368;14905,875;45,61721
 559,37; 6844,550;   49,867;15000,418;45,44771
 559,95; 6960,750;   46,669;15169,691;45,71891
 560,54; 7013,512;   71,768;15324,613;45,51114
 561,12; 7100,672;   50,866;15485,562;45,67506
 561,70; 7172,896;   50,369;15679,551;45,57198
 562,29; 7257,419;   61,768;15810,994;45,68892
 562,87; 7302,166;   73,168;16023,953;45,32064
 563,45; 7397,666;   71,068;16194,754;45,43997
 564,04; 7403,379;   54,362;16227,195;45,44051
 564,62; 7493,804;   37,769;16438,332;45,46207
 565,20; 7587,002;   59,962;16715,838;45,19150
 565,78; 7607,157;   70,765;16797,326;45,05643
 566,37; 7716,334;   71,066;17011,283;45,13087
 566,95; 7767,335;   52,969;17124,330;45,18893
 567,53; 7853,895;   67,262;17308,857;45,16190
 568,12; 7845,911;   62,265;17367,766;44,97787
 568,70; 7959,972;   85,264;17565,889;45,04821
 569,28; 7992,396;   61,069;17745,252;44,84984
 569,86; 7992,003;   67,767;17910,758;44,41092
 570,45; 8138,981;   78,569;18124,689;44,66562
 571,03; 8124,648;   53,962;18259,898;44,32997
 571,61; 8221,396;   46,571;18424,824;44,48097
 572,19; 8185,218;   54,263;18395,773;44,33089
 572,78; 8261,927;   70,668;18668,975;44,04304
 573,36; 8356,479;   84,264;18797,668;44,20476
 573,94; 8357,688;   44,064;18892,750;44,10718
 574,52; 8398,371;   54,559;19030,768;43,96986
 575,11; 8433,995;   37,264;19159,830;43,91007
 575,69; 8516,965;   53,566;19268,680;44,04553
 576,27; 8510,625;   47,161;19391,381;43,75190
 576,85; 8577,279;   43,264;19549,668;43,74981
 577,44; 8601,494;   30,262;19814,158;43,32429
 578,02; 8601,963;   32,159;19753,887;43,45362
 578,60; 8710,341;   50,464;20073,791;43,24894
 579,18; 8792,156;   51,963;20160,752;43,46454
 579,76; 8791,326;   40,264;20300,129;43,19408
 580,35; 8881,273;   60,170;20436,707;43,29049
 580,93; 8942,435;   59,667;20641,557;43,15817
 581,51; 8993,020;   24,770;20697,168;43,38273
 582,09; 9031,325;   58,663;20755,756;43,35228
 582,67; 9119,149;   49,567;20971,318;43,35002
 583,26; 9171,111;   28,568;21227,014;43,12837
 583,84; 9261,233;   14,164;21413,709;43,21152
 584,42; 9307,172;   48,064;21513,287;43,13539
 585,00; 9445,465;   81,366;21772,180;43,17080
 585,58; 9512,258;   25,167;21912,299;43,34552
 586,17; 9540,679;   46,761;21948,521;43,34774
 586,75; 9476,326;    6,666;22026,902;43,00435
 587,33; 9595,996;   47,767;22191,678;43,11898
 587,91; 9713,526;   74,866;22390,201;43,19299
 588,49; 9705,994;   63,962;22349,758;43,26537
 589,07; 9711,081;   45,468;22403,215;43,23161
 589,65; 9663,711;   28,267;22444,439;42,98434
 590,24; 9673,849;   42,562;22447,799;42,98677
 590,82; 9641,363;   28,261;22484,160;42,80881
 591,40; 9679,934;   41,464;22520,209;42,87815
 591,98; 9672,517;   45,759;22558,227;42,76189
 592,56; 9705,264;   61,161;22699,961;42,59988
 593,14; 9687,617;   43,359;22728,928;42,51275
 593,72; 9767,164;   29,765;22889,107;42,59702
 594,30; 9710,764;   36,759;22797,486;42,50305
 594,89; 9672,326;   41,364;22862,428;42,20207
 595,47; 9739,879;   38,961;22922,623;42,39233
 596,05; 9661,457;   30,267;23003,799;41,92298
 596,63; 9748,058;   31,167;23056,199;42,20142
 597,21; 9750,681;   36,766;23145,441;42,03579
 597,79; 9800,411;   35,467;23166,039;42,21661
 598,37; 9724,728;   36,669;23222,748;41,78394
 598,95; 9714,626;   50,766;23305,301;41,55688
 599,53; 9627,039;   46,757;23207,996;41,36343
 600,11; 9692,118;   48,665;23341,947;41,40015
 600,70; 9541,103;   57,363;23315,111;40,77669
 601,28; 9532,634;   38,564;23424,809;40,59681
 601,86; 9585,326;   61,766;23355,102;40,88534
 602,44; 9550,164;   23,661;23449,660;40,66637
 603,02; 9544,770;   38,656;23576,521;40,38647
 603,60; 9570,155;   54,858;23663,232;40,30475
 604,18; 9521,264;   69,263;23594,734;40,17773
 604,76; 9437,926;   59,263;23642,154;39,76893
 605,34; 9265,142;   27,565;23530,764;39,30349
 605,92; 9288,109;   59,561;23453,719;39,44809
 606,50; 9186,349;   17,662;23498,998;39,04670
 607,08; 9063,465;   31,666;23394,881;38,65820
 607,66; 9047,181;   39,266;23561,643;38,29509
 608,24; 8961,403;   46,067;23522,059;37,97640
 608,82; 8905,195;   26,164;23532,031;37,77368
 609,40; 8703,818;   46,466;23471,021;36,95845
 609,98; 8644,226;   18,864;23505,928;36,72388
 610,56; 8509,533;   43,861;23497,662;36,09510
 611,14; 8328,803;   30,765;23481,086;35,38560
 611,72; 8229,110;   42,665;23572,467;34,79182
 612,30; 8028,379;   24,962;23468,496;34,13912
 612,88; 7931,586;   60,659;23517,730;33,55460
 613,46; 7633,948;   21,862;23505,697;32,41415
 614,04; 7518,358;   30,068;23461,873;31,95780
 614,62; 7344,725;   41,561;23489,982;31,14565
 615,20; 7244,181;   52,768;23402,416;30,79881
 615,78; 7157,535;   25,569;23463,430;30,42925
 616,36; 7087,288;   41,364;23400,150;30,16391
 616,94; 7031,480;    7,666;23272,242;30,19103
 617,52; 7053,134;   24,067;23373,656;30,10360
 618,10; 7091,625;   63,559;23336,107;30,19895
 618,68; 7160,534;   17,966;23253,184;30,74027
 619,26; 7285,773;   39,268;23398,834;31,02157
 619,84; 7268,164;   18,963;23277,133;31,16841
 620,42; 7371,265;   31,165;23313,506;31,52647
 621,00; 7404,064;   28,865;23209,607;31,81606
 621,58; 7518,956;   38,760;23216,406;32,27332
 622,16; 7591,250;   49,270;23335,164;32,38862
 622,74; 7595,080;   47,066;23327,742;32,42180
 623,32; 7624,288;   42,166;23291,223;32,61260
 623,90; 7716,043;   66,971;23311,484;32,90700
 624,48; 7636,249;   32,662;23196,598;32,82511
 625,05; 7674,749;   34,562;23105,098;33,11664
 625,63; 7666,548;   52,962;23188,799;32,90820
 626,21; 7622,879;   38,262;23117,596;32,86324
 626,79; 7634,050;   53,967;23219,719;32,72107
 627,37; 7540,241;   28,162;23090,717;32,57262
 627,95; 7600,381;   72,768;23200,215;32,54840
 628,53; 7504,064;   49,365;23176,607;32,23341
 629,11; 7413,479;   48,259;23043,449;32,02939
 629,69; 7438,804;   53,369;23256,932;31,82889
 630,27; 7417,764;   80,763;23105,434;31,86582
 630,84; 7316,948;   43,862;23021,197;31,65331
 631,42; 7286,634;   54,367;23319,656;31,08608
 632,00; 7308,571;   45,459;23125,768;31,46887
 632,58; 7276,749;   50,263;23105,172;31,34467
 633,16; 7241,604;   49,870;23096,906;31,20459
 633,74; 7220,872;   56,264;23018,488;31,20172
 634,32; 7179,171;   45,661;23007,842;31,06635
 634,90; 7169,458;   51,970;23195,746;30,75336
 635,47; 7178,640;   38,860;23035,645;31,04686
 636,05; 7129,371;   37,461;22989,342;30,89904
 636,63; 7108,064;   45,965;23104,807;30,62643
 637,21; 7134,026;   67,464;23150,529;30,61362
 637,79; 7116,996;   71,465;23192,904;30,47185
 638,37; 7056,685;   54,055;23070,883;30,42396
 638,94; 7036,103;   33,265;23100,686;30,35813
 639,52; 7045,803;   41,665;23195,285;30,25073
 640,10; 7007,906;   64,264;23215,900;29,99202
 640,68; 7022,856;   54,164;23175,334;30,13988
 641,26; 7000,006;   35,864;23250,268;29,99923
 641,84; 6915,556;   39,164;23235,002;29,64494
 642,41; 6919,406;   28,264;23192,936;29,74850
 642,99; 6970,656;   48,464;23145,568;29,96995
 643,57; 6922,305;   22,064;23158,402;29,82426
 644,15; 6883,455;   27,064;23178,035;29,61600
 644,73; 6930,205;   37,564;23277,568;29,65852
 645,30; 6913,955;   55,264;23230,303;29,59517
 645,88; 6879,205;   44,964;23362,635;29,30928
 646,46; 6900,955;   59,264;23447,568;29,25261
 647,04; 6963,404;   51,864;23367,902;29,64286
 647,61; 6995,854;   46,564;23396,336;29,76170
 648,19; 6994,404;   61,664;23433,369;29,66296
 648,77; 7039,454;   26,264;23442,002;29,95075
 649,35; 7034,204;   51,064;23590,137;29,66616
 649,92; 7111,954;   42,464;23596,070;30,01447
 650,50; 7093,903;   30,064;23551,104;30,03200
 651,08; 7105,553;   39,964;23450,537;30,18119
 651,66; 7155,903;   21,864;23534,770;30,34095
 652,23; 7203,653;   39,064;23561,004;30,45917
 652,81; 7233,402;   36,464;23644,137;30,48559
 653,39; 7244,952;   56,164;23647,170;30,47258
 653,97; 7280,802;   37,065;23882,504;30,37787
 654,54; 7223,852;   23,565;23823,137;30,25385
 655,12; 7273,202;   30,965;23831,971;30,42828
 655,70; 7257,151;   42,065;23962,805;30,16247
 656,28; 7308,102;   32,765;23947,037;30,42257
 656,85; 7296,851;   44,065;24051,070;30,21112
 657,43; 7266,201;   -1,035;23831,305;30,49317
 658,01; 7237,351;   21,465;24078,539;29,99486
 658,58; 7333,101;   55,165;24234,371;30,09998
 659,16; 7284,550;   51,965;24154,105;30,00806
 659,74; 7322,900;   59,465;24338,039;29,91706
 660,32; 7346,750;   71,665;24327,672;29,99292
 660,89; 7208,000;   34,265;24347,305;29,50571
 661,47; 7281,250;   51,665;24464,939;29,61334
 662,05; 7314,399;   25,365;24587,373;29,67605
 662,62; 7373,449;   59,665;24584,006;29,82255
 663,20; 7404,999;   80,665;24740,139;29,70191
 663,78; 7460,549;   47,965;24902,773;29,82354
 664,35; 7520,999;   52,465;24921,006;30,03206
 664,93; 7526,849;   64,465;25123,539;29,77917
 665,51; 7606,999;   49,565;25170,973;30,08364
 666,08; 7658,648;   30,165;25185,707;30,32526
 666,66; 7792,398;   47,465;25667,539;30,22994
 667,23; 7871,748;   51,765;25732,773;30,45045
 667,81; 7924,798;   65,865;25889,307;30,43333
 668,39; 7984,948;   43,265;26047,141;30,54038
 668,96; 8148,297;   54,665;26309,074;30,82771
 669,54; 8213,547;   38,765;26408,408;31,00073
 670,12; 8313,997;   51,165;26808,740;30,88035
 670,69; 8409,247;   64,165;26950,674;31,03818
 671,27; 8480,497;   25,565;27096,008;31,23308
 671,84; 8494,446;   40,665;27105,240;31,23559
 672,42; 8580,896;   66,265;27253,875;31,31806
 673,00; 8612,446;   57,165;27531,408;31,13928
 673,57; 8628,896;   59,965;27276,441;31,48435
 674,15; 8743,446;   64,065;27613,475;31,50478
 674,72; 8683,796;   58,565;27536,209;31,38999
 675,30; 8665,646;   69,466;27513,541;31,32253
 675,88; 8699,596;   36,266;27573,176;31,46079
 676,45; 8675,845;   59,466;27677,309;31,19860
 677,03; 8668,695;   67,866;27525,043;31,32452
 677,60; 8652,645;   41,466;27770,576;31,05465
 678,18; 8717,095;   59,466;27877,510;31,12235
 678,76; 8710,944;   40,766;27809,143;31,22321
 679,33; 8748,694;   57,666;27813,176;31,31280
 679,91; 8750,544;   44,266;27813,311;31,35246
 680,48; 8749,394;   28,766;27740,242;31,46937
 681,06; 8775,244;   50,866;27735,176;31,51380
 681,63; 8718,094;   37,566;27736,209;31,33918
 682,21; 8833,943;   67,966;27797,543;31,61237
 682,78; 8758,493;   20,566;27459,576;31,84491
 683,36; 8799,243;   46,966;27565,510;31,80502
 683,93; 8851,893;   30,466;27450,645;32,17130
 684,51; 8851,043;   26,166;27477,277;32,14761
 685,08; 8985,093;   38,966;27733,711;32,30261
 685,66; 9001,842;   53,066;27694,045;32,37503
 686,24; 9097,192;   33,766;27796,578;32,64592
 686,81; 9146,142;   57,666;27899,910;32,64276
 687,39; 9176,592;   38,866;27807,844;32,90624
 687,96; 9245,441;   54,166;27850,479;33,06653
 688,54; 9390,491;   30,866;27984,811;33,48231
 689,11; 9369,642;   26,966;28043,545;33,34695
 689,69; 9386,691;   29,666;28019,279;33,43035
 690,26; 9544,940;   59,466;28289,313;33,60087
 690,84; 9483,990;   50,066;28239,846;33,46576
 691,41; 9662,040;   35,966;28403,879;33,93296
 691,98; 9558,891;   31,466;28427,912;33,55147
 692,56; 9654,140;   32,866;28437,445;33,87226
 693,13; 9767,790;   64,866;28655,080;33,93792
 693,71; 9818,340;   24,466;28657,912;34,20431
 694,28; 9872,390;   41,966;28715,945;34,28343
 694,86; 9850,640;   47,266;28928,879;33,94330
 695,43; 9917,989;   61,366;29100,912;33,94207
 696,01; 9948,739;   36,266;29145,547;34,05262
 696,58; 9881,789;   42,167;29083,879;33,88100
 697,16; 9974,639;   38,067;29126,414;34,15997
 697,73;10045,589;   63,467;29338,246;34,09803
 698,30;10076,538;   51,867;29223,980;34,36388
 698,88;10083,388;   40,467;29558,613;34,02287
 699,45;10137,938;   35,367;29765,848;33,98052
 700,03;10218,088;   56,067;29750,980;34,22142
 700,60;10244,838;   56,267;29850,613;34,19632
 701,18;10365,587;   61,867;29963,947;34,45820
 701,75;10441,137;   74,367;30094,682;34,53252
 702,32;10483,787;   50,367;29901,914;34,95102
 702,90;10571,437;   52,467;30254,148;34,82909
 703,47;10711,187;   51,367;30428,881;35,09115
 704,05;10787,837;   67,767;30546,715;35,17205
 704,62;10815,486;   39,867;30587,848;35,27441
 705,19;10938,736;   43,667;30586,982;35,67088
 705,77;10963,786;   29,967;30618,314;35,74505
 706,34;11116,536;   61,667;30627,049;36,16794
 706,91;11211,186;   46,367;30673,883;36,45356
 707,49;11396,436;   57,267;30976,316;36,67373
 708,06;11410,485;   66,367;31089,049;36,56717
 708,64;11468,435;   25,767;31093,582;36,83126
 709,21;11490,285;   58,167;31179,316;36,73424
 709,78;11602,435;   41,367;31281,150;37,00751
 710,36;11668,685;   61,667;31419,684;37,01451
 710,93;11762,034;   50,567;31562,416;37,16528
 711,50;11794,484;   44,467;31506,049;37,34719
 712,08;11964,534;   76,567;31925,383;37,32625
 712,65;11926,584;   73,667;31775,916;37,38825
 713,22;11940,334;   69,067;31900,250;37,29446
 713,80;12007,184;   84,167;31966,883;37,39649
 714,37;11952,033;   55,767;31827,018;37,44349
 714,94;11971,583;   53,967;31727,551;37,62636
 715,52;11946,333;   47,867;31732,984;37,55222
 716,09;11924,982;   65,467;31891,918;37,26308
 716,66;11998,232;   73,467;31935,051;37,42678
 717,23;11942,282;   66,867;31908,484;37,29526
 717,81;12028,832;   50,168;31812,018;37,71400
 718,38;11877,882;   47,468;31671,252;37,40986
 718,95;11918,032;   59,068;31618,984;37,57603
 719,53;11928,082;   56,568;31661,418;37,56232
 720,10;11946,531;   59,968;31481,252;37,82966
 720,67;11981,682;   35,768;31355,984;38,14122
 721,24;11969,231;   59,468;31256,020;38,17654
 721,82;11987,881;   49,968;31236,053;38,27961
 722,39;12018,230;   64,068;31235,885;38,34927
 722,96;12071,980;   64,968;31261,420;38,48839
 723,53;12100,330;   88,268;31151,953;38,66915
 724,11;12239,681;   61,568;31207,486;39,10019
 724,68;12302,130;   71,568;31242,020;39,23768
 725,25;12344,280;   72,768;31399,953;39,17209
 725,82;12496,630;   96,068;31564,387;39,40650
 726,40;12575,079;   62,668;31714,820;39,53100
 726,97;12635,329;   62,168;31875,354;39,52186
 727,54;12733,979;   46,968;31801,486;39,95341
 728,11;12758,129;   49,568;32045,820;39,71890
 728,69;12763,778;   39,568;31938,953;39,88858
 729,26;12844,129;   53,568;32105,088;39,90625
 729,83;12956,278;   53,268;32264,621;40,05734
 730,40;12997,828;   66,768;32291,754;40,12743
 730,97;13170,878;   44,268;32590,588;40,33209
 731,55;13185,828;   41,468;32755,820;40,17918
 732,12;13302,777;   86,268;32841,656;40,34911
 732,69;13273,228;   66,968;32889,988;40,23475
 733,26;13241,478;   55,168;32930,520;40,11002
 733,83;13361,827;   41,168;32979,055;40,44175
 734,41;13383,277;   65,468;32991,590;40,44755
 734,98;13416,327;   51,368;33155,621;40,37233
 735,55;13565,377;   43,168;33183,656;40,80268
 736,12;13534,927;   65,968;33377,289;40,43358
 736,69;13582,977;   76,968;33377,922;40,55742
 737,26;13686,126;   57,468;33552,254;40,68889
 737,84;13626,376;   70,768;33487,188;40,56571
 738,41;13650,825;   63,168;33492,422;40,64601
 738,98;13702,476;   63,569;33375,055;40,94356
 739,55;13692,025;   49,669;33377,789;40,93347
 740,12;13862,575;   62,969;33678,023;41,05186
 740,69;13833,125;   70,569;33575,656;41,07602
 741,26;13842,774;   56,269;33557,391;41,15237
 741,83;13860,324;   53,869;33719,523;41,01051
 742,41;13954,374;   56,169;33833,055;41,14709
 742,98;14101,324;   91,469;33874,590;41,46999
 743,55;14083,474;   53,569;33836,824;41,52917
 744,12;13996,324;   50,469;33859,855;41,24847
 744,69;14127,374;   59,569;33848,492;41,63437
 745,26;14137,224;   42,169;33677,723;41,90523
 745,83;14264,174;   58,769;33854,355;42,03331
 746,40;14289,823;   57,969;33844,789;42,12250
 746,97;14136,673;   44,769;33828,125;41,71256
 747,55;14216,723;   62,269;33966,957;41,74778
 748,12;14224,673;   57,869;33910,191;41,84884
 748,69;14268,622;   68,769;33877,625;42,00040
 749,26;14271,473;   65,069;33958,559;41,91485
 749,83;14267,022;   42,569;33911,992;41,99792
 750,40;14393,572;   89,669;34158,824;41,98491
 750,97;14376,222;   96,269;34144,160;41,94078
 751,54;14298,172;   40,569;33980,793;42,00798
 752,11;14234,521;   52,969;33874,727;41,93026
 752,68;14198,071;   87,869;33912,859;41,71532
 753,25;14117,621;   60,269;33774,594;41,69549
 753,82;14139,171;   65,069;33810,527;41,70665
 754,39;14191,221;   75,169;33727,160;41,94715
 754,96;14164,971;   60,069;33616,395;42,03351
 755,53;14171,521;   29,469;33796,527;41,88121
 756,10;14199,170;   64,169;33720,961;41,99747
 756,67;14184,620;   73,369;33813,395;41,82347
 757,24;14072,770;   72,769;33740,426;41,58294
 757,81;14055,720;   16,469;33677,762;41,70740
 758,38;14122,869;   54,569;33822,695;41,66148
 758,95;14121,919;   79,469;33743,426;41,71360
 759,52;14199,769;   57,469;33615,859;42,14236
 760,09;14047,319;   68,570;33306,992;42,05600
 760,66;14096,669;   59,570;33309,727;42,21664
 761,23;14110,618;   91,070;33353,961;42,14771
 761,80;14115,868;   56,270;33295,793;42,29783
 762,37;14140,519;   68,970;33167,727;42,51383
 762,94;14309,368;   70,970;33187,461;42,99489
 763,51;14176,817;   36,070;32949,793;42,96308
 764,08;14177,668;   66,270;32998,527;42,84977
 764,65;14141,917;   69,570;32798,961;42,99606
 765,22;14133,667;   54,670;32804,496;42,98953
 765,79;14106,317;   77,370;32691,928;43,01437
 766,36;14121,566;   73,170;32743,063;43,00105
 766,93;14158,917;   68,970;32551,295;43,37727
 767,50;14139,566;   89,470;32828,328;42,91566
 768,07;14157,217;   63,870;32699,262;43,18424
 768,64;14021,666;   86,470;32572,596;42,89584
 769,21;13901,616;   57,970;32359,729;42,85725
 769,78;13847,466;   78,770;32244,963;42,80487
 770,34;13754,216;   45,570;32031,195;42,85877
 770,91;13702,766;   58,470;31921,430;42,82181
 771,48;13636,115;   62,370;31836,863;42,71900
 772,05;13562,665;   66,470;31610,697;42,78499
 772,62;13512,314;   42,670;31443,029;42,89647
 773,19;13477,665;   59,370;31579,764;42,57020
 773,76;13482,814;   71,070;31506,297;42,66470
 774,33;13486,564;   74,170;31447,330;42,75117
 774,90;13414,114;   52,870;31206,064;42,88884
 775,47;13353,264;   59,970;30957,498;43,02381
 776,03;13222,313;   73,470;30984,330;42,53794
 776,60;13215,764;   55,970;30757,863;42,86313
 777,17;13178,813;   65,470;30698,098;42,80842
 777,74;13112,163;   30,870;30522,031;42,90192
 778,31;13142,813;   68,970;30582,064;42,84666
 778,88;13109,463;   30,470;30366,898;43,11316
 779,45;13070,313;   75,770;30358,131;42,91126
 780,01;13110,963;   58,370;30299,664;43,16149
 780,58;13002,813;   60,570;30177,998;42,97260
 781,15;12868,962;   38,771;29979,432;42,85206
 781,72;12867,512;   66,771;29962,266;42,81829
 782,29;12878,762;   51,771;29667,100;43,31200
 782,86;12906,712;   55,571;29617,732;43,47159
 783,42;12903,562;   56,171;29598,166;43,48857
 783,99;12764,312;   66,671;29482,100;43,16660
 784,56;12778,961;   55,171;29320,232;43,47775
 785,13;12700,311;   40,271;29247,266;43,34592
 785,70;12628,161;   49,071;29060,299;43,35939
 786,26;12535,811;   51,671;28910,732;43,25899
 786,83;12525,960;   84,371;28889,166;43,19277
 787,40;12421,610;   57,171;28783,500;43,04218
 787,97;12358,860;   43,971;28581,133;43,15387
 788,54;12345,010;   70,371;28515,268;43,15234
 789,10;12260,760;   57,971;28344,400;43,14008
 789,67;12184,909;   70,371;28245,334;42,99753
 790,24;12227,659;   51,071;28193,768;43,26731
 790,81;12111,109;   88,271;27914,400;43,20701
 791,37;11959,159;   73,671;27872,135;42,75592
 791,94;11957,509;   70,771;27886,367;42,73408
 792,51;11864,158;   46,271;27539,201;42,98519
 793,08;11757,408;   69,771;27555,234;42,52298
 793,64;11654,958;   71,271;27455,168;42,30109
 794,21;11624,708;   69,671;27250,602;42,51156
 794,78;11621,558;   53,071;27147,035;42,69765
 795,35;11580,808;   73,471;27007,969;42,72341
 795,91;11415,758;   48,071;26789,301;42,50996
 796,48;11323,508;   55,771;26710,734;42,27256
 797,05;11288,857;   57,671;26624,369;42,27543
 797,62;11261,807;   41,971;26600,701;42,24538
 798,18;11190,157;   57,471;26410,736;42,24405
 798,75;11176,207;   56,571;26279,770;42,40381
 799,32;11119,057;   60,771;26209,102;42,29060
 799,88;11102,106;   55,971;26051,535;42,49238
 800,45;11073,356;   33,971;25945,270;42,60452
 801,02;11132,206;   65,271;25880,104;42,87045
 801,58;11053,155;   90,872;25660,436;42,87239
 802,15;11016,306;   72,872;25615,270;42,84419
 802,72;10986,755;   66,172;25404,703;43,09872
 803,28;10887,105;   49,172;25288,938;42,93991
 803,85;10820,855;   41,972;25144,871;42,93880
 804,42;10734,104;   77,772;24948,004;42,84774
 804,98;10749,955;  100,672;24935,537;42,88037
 805,55;10649,404;   56,972;24702,371;42,97935
 806,12;10557,454;   83,572;24611,004;42,70273
 806,68;10544,404;   66,472;24493,738;42,89441
 807,25;10594,854;   74,972;24436,271;43,18276
 807,82;10472,204;   86,872;24407,805;42,70121
 808,38;10338,653;   73,672;24367,037;42,25426
 808,95;10346,003;   62,972;24166,971;42,66110
 809,52;10300,953;   50,272;24162,004;42,51325
 810,08;10332,203;   55,172;23994,938;42,92870
 810,65;10308,853;   77,172;24169,672;42,46832
 811,21;10210,203;   69,972;24123,404;42,15711
 811,78;10220,753;   92,472;24337,539;41,77460
 812,35;10221,702;   64,972;24173,871;42,12855
 812,91;10272,353;   90,072;24239,705;42,16329
 813,48;10224,002;   68,172;24202,738;42,08002
 814,04;10138,952;   64,172;24088,373;41,93596
 814,61;10211,502;   77,572;24176,006;42,05223
 815,18;10095,951;   67,772;23892,539;42,09140
 815,74;10030,001;   69,772;23709,172;42,13402
 816,31;10045,451;   83,372;23614,406;42,33592
 816,87; 9976,701;   43,272;23489,641;42,36660
 817,44; 9980,450;   76,972;23452,273;42,36727
 818,00; 9836,601;   43,272;23159,506;42,36559
 818,57; 9826,851;   71,872;23076,340;42,40471
 819,14; 9774,200;   82,872;22924,273;42,42878
 819,70; 9679,450;   72,672;22792,707;42,28329
 820,27; 9615,200;   62,972;22691,941;42,21239
 820,83; 9609,550;   70,072;22541,373;42,45183
 821,40; 9566,899;   98,072;22431,908;42,39678
 821,96; 9535,549;   75,272;22315,541;42,53670
 822,53; 9551,199;   70,973;22257,574;42,72951
 823,09; 9517,349;   81,073;22073,309;42,90731
 823,66; 9466,398;   68,173;21862,541;43,12227
 824,22; 9465,748;   77,173;21851,674;43,11729
 824,79; 9354,099;   75,473;21561,408;43,18465
 825,35; 9298,448;   65,173;21648,041;42,78058
 825,92; 9191,798;   75,173;21398,875;42,75348
 826,48; 9204,848;   87,673;21501,309;42,57649
 827,05; 9070,197;   89,573;21448,242;42,04674
 827,61; 8995,848;   75,273;21249,076;42,13024
 828,18; 8889,797;   60,873;21191,209;41,78317
 828,74; 8848,947;   91,673;21053,543;41,77716
 829,31; 8862,197;   83,373;21002,176;41,96619
 829,87; 8793,946;   73,073;20733,709;42,21009
 830,44; 8758,496;   85,173;20631,443;42,21361
 831,00; 8722,347;   91,273;20673,977;41,93363
 831,57; 8722,196;  101,573;20631,609;41,99030
 832,13; 8580,346;   72,073;20323,344;42,01353
 832,69; 8521,496;   58,173;20309,477;41,79150
 833,26; 8506,146;   85,473;20322,711;41,60979
 833,82; 8411,096;   93,073;20197,744;41,37358
 834,39; 8381,045;   78,773;20137,477;41,38987
 834,95; 8354,795;   57,173;19959,410;41,69191
 835,52; 8357,645;   87,873;19851,744;41,84287
 836,08; 8335,495;   95,573;19951,877;41,49776
 836,64; 8323,444;   76,273;19800,711;41,81195
 837,21; 8262,294;   88,673;19552,443;41,99403
 837,77; 8288,044;   91,873;19491,777;42,24851
 838,34; 8273,294;   67,473;19470,012;42,29251
 838,90; 8202,443;   64,473;19306,045;42,29369
 839,46; 8227,693;   83,873;19312,479;42,35263
 840,03; 8189,644;   76,173;19300,811;42,20350
 840,59; 8102,193;   85,873;19175,645;41,99275
 841,16; 8124,643;  105,173;19156,578;42,09385
 841,72; 8048,493;   59,373;18965,512;42,25675
 842,28; 8105,743;   77,873;18857,246;42,74834
 842,85; 8040,993;   95,573;18812,578;42,45027
 843,41; 7998,842;  105,374;18740,813;42,35730
 843,97; 7979,392;   89,174;18686,846;42,42584
 844,54; 7887,642;  104,774;18624,979;42,02366
 845,10; 7850,192;   89,174;18523,713;42,10042
 845,67; 7750,842;   68,774;18413,445;41,87629
 846,23; 7659,892;   78,674;18361,080;41,46729
 846,79; 7641,341;   90,474;18265,613;41,54503
 847,36; 7550,891;   55,774;18179,047;41,35631
 847,92; 7529,641;   84,874;18034,680;41,47548
 848,48; 7496,991;   41,874;18039,213;41,42344
 849,04; 7456,041;   62,374;17949,447;41,33525
 849,61; 7392,291;   56,274;17918,580;41,06982
 850,17; 7464,640;   68,174;17819,514;41,66709
 850,73; 7364,590;   71,474;17764,848;41,21948
 851,30; 7340,140;   46,074;17669,881;41,38757
 851,86; 7311,690;   75,874;17597,914;41,29551
 852,42; 7263,240;   51,174;17568,348;41,17140
 852,99; 7242,089;   79,274;17583,082;40,92147
 853,55; 7240,539;   83,174;17542,514;40,99448
 854,11; 7221,289;   70,074;17432,049;41,18895
 854,67; 7227,839;   85,474;17420,881;41,20102
 855,24; 7128,889;   51,874;17213,414;41,23764
 855,80; 7101,539;   76,874;17244,848;40,91726
 856,36; 7106,688;   80,574;17175,881;41,09967
 856,92; 7062,338;   54,474;17027,215;41,28893
 857,49; 7086,288;   81,274;17048,248;41,28617
 858,05; 7048,838;   67,274;16968,482;41,30807
 858,61; 7099,888;   65,774;17003,316;41,52972
 859,17; 7004,837;   77,374;16904,250;41,16904
 859,74; 6987,987;   82,074;16836,883;41,21750
 860,30; 6965,737;   93,074;16663,016;41,47669
 860,86; 6872,687;   72,074;16692,350;40,91757
 861,42; 6847,037;   74,674;16545,883;41,11637
 861,99; 6762,586;   54,674;16506,717;40,77252
 862,55; 6718,236;   66,374;16393,051;40,74229
 863,11; 6777,986;   75,174;16437,283;40,96545
 863,67; 6684,536;   61,274;16290,117;40,81167
 864,23; 6623,186;   80,175;16199,351;40,59147
 864,80; 6563,835;   69,175;16081,384;40,56068
 865,36; 6541,186;   71,875;16120,817;40,30989
 865,92; 6521,535;   96,175;16088,751;40,17714
 866,48; 6459,785;   67,375;15987,384;40,15331
 867,04; 6359,735;   60,675;15891,418;39,79005
 867,60; 6405,385;   99,375;15884,451;39,94919
 868,17; 6318,334;   93,675;15884,685;39,41901
 868,73; 6269,184;   82,775;15672,618;39,68231
 869,29; 6205,634;   59,475;15470,151;39,88248
 869,85; 6232,984;  100,475;15369,685;40,16258
 870,41; 6111,834;   80,575;15293,418;39,64584
 870,97; 6147,684;   92,975;15232,252;39,99338
 871,54; 6085,733;   84,175;15178,686;39,75987
 872,10; 6062,583;   84,275;15055,419;39,93221
 872,66; 6014,933;   66,775;14910,652;40,07146
 873,22; 5979,783;   81,975;14890,586;39,82688
 873,78; 5877,233;   65,275;14742,419;39,59870
 874,34; 5865,083;   95,075;14662,652;39,60856
 874,90; 5799,583;  109,775;14536,053;39,44058
 875,46; 5750,583;   96,375;14412,952;39,49413
 876,03; 5697,783;   86,475;14363,353;39,30347
 876,59; 5626,982;   64,475;14153,253;39,48183
 877,15; 5646,882;  101,475;14166,853;39,42594
 877,71; 5658,882;   78,275;14064,652;39,90031
 878,27; 5607,783;   95,675;13910,553;39,89979
 878,83; 5541,583;  114,275;13971,753;39,16519
 879,39; 5499,183;   91,075;14082,753;38,65232
 879,95; 5455,482;   86,275;13964,253;38,68869
 880,51; 5421,183;   75,175;13927,253;38,59354
 881,07; 5432,882;   82,375;13978,753;38,50289
 881,63; 5423,482;   92,575;13971,253;38,41077
 882,19; 5408,482;   82,675;13921,553;38,48439
 882,75; 5389,083;   86,275;14019,553;38,05858
 883,31; 5410,083;   95,575;14187,853;37,71220
 883,88; 5406,982;   96,375;14174,353;37,72280
 884,44; 5376,783;   76,175;14175,753;37,59409
 885,00; 5432,083;  106,075;14266,952;37,61072
 885,56; 5430,083;  101,675;14299,452;37,52987
 886,12; 5457,083;  109,875;14421,152;37,36359
 886,68; 5441,783;   90,775;14436,753;37,29971
 887,24; 5451,083;  102,475;14574,952;36,95710
 887,80; 5443,482;   86,975;14671,753;36,72670
 888,36; 5521,283;  106,275;14715,652;37,06529
 888,92; 5528,382;   98,975;14773,353;36,99923
 889,48; 5624,882;   99,575;14973,853;37,14673
 890,04; 5585,882;   95,275;14803,053;37,33132
 890,60; 5660,583;  117,475;15014,652;37,20911
 891,16; 5636,083;   99,875;15075,853;36,96725
 891,72; 5674,482;  113,275;15058,452;37,21072
 892,28; 5687,083;  112,475;15126,053;37,13044
 892,84; 5629,183;   93,775;15039,853;37,03586
 893,39; 5661,683;  117,575;15112,952;36,97211
 893,95; 5647,183;  112,975;15044,753;37,06329
 894,51; 5519,283;   66,375;14891,253;36,78214
 895,07; 5535,382;  127,375;14906,353;36,59257
 895,63; 5362,183;   74,275;14689,952;36,17970
 896,19; 5341,482;   90,375;14601,952;36,18564
 896,75; 5294,882;  105,175;14460,152;36,15267
 897,31; 5217,382;   82,775;14295,853;36,12594
 897,87; 5167,683;   98,175;14146,853;36,08530
 898,43; 5042,683;   87,775;14075,753;35,42262
 898,99; 4961,283;  109,175;14002,753;34,92339
 899,55; 4954,982;  109,475;13940,652;35,03322
 900,11; 4866,382;  104,975;13747,553;34,90108
 900,67; 4777,283;   91,375;13658,652;34,53831
 901,22; 4729,882;  108,375;13601,952;34,24968
 901,78; 4631,183;   91,275;13560,053;33,70690
 902,34; 4542,583;  103,075;13451,152;33,25953
 902,90; 4497,183;   73,575;13350,652;33,31763
 903,46; 4471,982;   95,775;13236,353;33,30301
 904,02; 4382,583;   88,075;13091,553;33,02584
 904,58; 4273,283;   67,075;12918,152;32,73039
 905,14; 4289,683;   63,975;12874,553;32,98608
 905,70; 4238,583;   66,775;12696,053;33,03283
 906,25; 4251,482;   84,375;12708,452;33,00920
 906,81; 4211,283;   87,675;12732,152;32,61193
 907,37; 4181,683;   79,275;12616,152;32,72272
 907,93; 4137,982;   74,775;12588,152;32,47091
 908,49; 4125,382;  101,875;12497,652;32,45869
 909,05; 4101,083;   89,675;12425,553;32,51822
 909,60; 4096,382;   86,575;12340,452;32,72276
 910,16; 4051,782;   67,675;12291,853;32,59203
 910,72; 4033,183;  100,475;12207,753;32,48218
 911,28; 3953,482;   90,875;12156,053;32,01451
 911,84; 3899,683;   79,575;12106,753;31,76229
 912,39; 3858,883;   73,475;12049,353;31,60860
 912,95; 3798,383;  104,475;12001,452;31,04913
 913,51; 3795,083;   85,375;11945,253;31,27947
 914,07; 3719,782;   83,775;11813,452;30,99836
 914,63; 3707,083;   64,775;11748,053;31,17539
 915,18; 3635,482;   77,475;11617,853;30,83094
 915,74; 3581,782;   63,975;11632,652;30,40804
 916,30; 3535,383;   61,475;11588,553;30,13693
 916,86; 3546,683;   83,575;11514,652;30,29555
 917,42; 3483,083;   82,275;11425,152;29,98188
 917,97; 3380,383;   75,375;11265,452;29,53516
 918,53; 3297,583;   67,775;11196,253;29,02290
 919,09; 3315,583;   88,975;11223,753;28,97774
 919,65; 3218,282;   83,375;11083,452;28,49896
 920,20; 3205,482;   61,875;10983,053;28,78451
 920,76; 3085,883;   65,475;10849,452;28,00829
 921,32; 3059,583;   82,675;10770,952;27,85208
 921,87; 3039,583;   97,475;10670,253;27,82719
 922,43; 2953,183;   64,675;10561,353;27,51830
 922,99; 2898,683;   61,875;10406,753;27,42234
 923,55; 2889,482;   63,775;10357,353;27,45117
 924,10; 2841,083;   73,575;10282,853;27,10777
 924,66; 2799,282;   78,675;10170,152;26,95946
 925,22; 2724,883;   43,275;10093,952;26,68086
 925,77; 2737,383;   66,075; 9927,053;27,08968
 926,33; 2709,083;   90,375; 9903,253;26,68644
 926,89; 2636,883;   71,975; 9692,753;26,66008
 927,44; 2610,782;   52,175; 9580,553;26,85250
 928,00; 2568,982;   66,875; 9533,753;26,43012
 928,56; 2534,683;   80,375; 9372,253;26,41347
 929,12; 2520,183;   72,775; 9275,152;26,59538
 929,67; 2420,883;   67,575; 9091,053;26,07983
 930,23; 2388,383;   50,975; 8915,253;26,36884
 930,78; 2380,883;  100,675; 8842,553;26,08373
 931,34; 2290,482;   61,975; 8632,152;26,00305
 931,90; 2267,482;   61,675; 8494,353;26,15785
 932,45; 2162,083;   78,775; 8290,753;25,36913
 933,01; 2063,083;   52,975; 8024,453;25,21625
 933,57; 2002,282;   72,175; 7753,252;25,12808
 934,12; 1909,682;   70,475; 7399,553;25,09466
 934,68; 1776,483;   59,075; 7020,252;24,67122
 935,24; 1686,882;   67,875; 6614,752;24,72946
 935,79; 1572,083;   72,975; 6254,853;24,25004
 936,35; 1491,282;   91,375; 5812,252;24,47015
 936,90; 1368,182;   80,275; 5348,752;24,44553
 937,46; 1232,782;   72,775; 4956,953;23,75031
 938,02; 1112,483;   63,375; 4549,152;23,38742
 938,57; 1063,182;   73,175; 4265,053;23,61728
 939,13;  990,782;   70,575; 3986,752;23,49759
 939,68;  902,782;   57,375; 3713,452;23,12335
 940,24;  880,682;   68,775; 3504,052;23,63441
 940,79;  847,182;   91,875; 3391,052;22,89381
 941,35;  819,982;   79,675; 3217,552;23,59262
 941,91;  739,482;   71,375; 3122,252;21,89886
 942,46;  748,282;   75,075; 3063,552;22,52677
 943,02;  724,682;   65,375; 3050,752;22,08456
 943,57;  712,583;   61,275; 2982,452;22,29606
 944,13;  713,682;   67,375; 2974,452;22,23221
 944,68;  722,383;   65,975; 3041,752;22,05835
 945,24;  738,182;   82,275; 3060,052;22,02675
 945,79;  718,383;   68,775; 3104,052;21,40191
 946,35;  734,583;   51,775; 3194,752;21,72486
 946,90;  789,383;   98,575; 3283,552;21,68956
 947,46;  768,383;   52,175; 3311,052;21,97712
 948,01;  765,182;   51,575; 3390,052;21,37524
 948,57;  807,383;   86,775; 3552,952;20,78969
 949,12;  806,883;   65,875; 3613,353;20,88829
 949,68;  834,883;   76,275; 3732,653;20,74752
 950,23;  848,182;   70,075; 3833,252;20,67688
 950,79;  862,383;   75,775; 3933,452;20,39070
 951,34;  877,782;   83,275; 4070,952;19,92407
 951,90;  869,883;   57,475; 4140,853;19,89548
 952,45;  888,682;   81,075; 4292,152;19,17817
 953,01;  896,383;   65,975; 4364,252;19,31954
 953,56;  919,583;   87,975; 4500,853;18,84502
 954,12;  905,982;   42,075; 4567,553;19,08986
 954,67;  920,883;   70,875; 4720,453;18,28139
 955,23;  919,883;   61,975; 4804,553;18,08948
 955,78;  930,482;   67,175; 4882,953;17,92665
 956,33;  917,583;   58,575; 4947,252;17,57137
 956,89;  928,083;   53,475; 5038,553;17,54451
 957,44;  928,383;   53,675; 5170,752;17,09389
 958,00;  921,282;   49,475; 5238,353;16,80147
 958,55;  919,782;   70,475; 5313,953;16,19741
 959,10;  926,182;   52,375; 5370,252;16,43151
 959,66;  936,583;   74,275; 5488,752;15,92596
 960,21;  913,182;   78,475; 5567,453;15,20698
 960,77;  908,182;   54,275; 5606,152;15,38052
 961,32;  918,682;   48,375; 5663,453;15,49947
 961,87;  922,682;   79,775; 5738,752;14,89505
 962,43;  928,583;   68,975; 5780,652;15,05000
 962,98;  937,282;   76,175; 5828,652;14,96933
 963,54;  893,282;   27,075; 5820,652;14,95117
 964,09;  931,682;   56,275; 5873,953;15,04737
 964,64;  954,482;   64,975; 5901,053;15,24153
 965,20;  923,782;   44,375; 5966,652;14,84914
 965,75;  948,482;   66,575; 5976,353;14,92285
 966,30;  925,083;   75,275; 6068,553;14,17934
 966,86;  946,282;   62,975; 6121,953;14,57849
 967,41;  954,282;   81,075; 6084,453;14,54527
 967,96;  957,282;   75,175; 6108,953;14,61949
 968,52;  958,282;   81,775; 6126,353;14,50072
 969,07;  935,583;   72,975; 6120,152;14,26463
 969,62;  926,282;   77,175; 6134,953;14,01681
 970,18;  900,482;   57,575; 6147,652;13,84067
 970,73;  923,883;   66,475; 6203,553;13,97094
 971,28;  946,182;   95,775; 6197,053;13,93819
 971,84;  884,083;   55,075; 6118,752;13,67170
 972,39;  922,182;   95,875; 6148,652;13,65171
 972,94;  871,182;   54,975; 6140,652;13,41194
 973,49;  855,083;   64,575; 6141,252;13,00888
 974,05;  856,883;   64,375; 6178,053;12,96286
 974,60;  855,782;   88,575; 6213,252;12,52650
 975,15;  838,182;   77,675; 6231,553;12,35818
 975,71;  815,383;   62,375; 6121,453;12,42776
 976,26;  814,482;   77,575; 6110,252;12,21526
 976,81;  813,383;   90,675; 6134,152;11,95847
 977,36;  796,682;   84,775; 6156,953;11,72409
 977,92;  785,583;   90,175; 6209,353;11,36440
 978,47;  743,182;   77,175; 6060,252;11,13152
 979,02;  751,682;   95,475; 6085,652;10,95473
 979,57;  733,182;   86,775; 6058,453;10,82455
 980,13;  727,383;   76,175; 6038,752;10,92158
 980,68;  706,782;   77,075; 6010,553;10,61279
 981,23;  718,682;   89,175; 6054,652;10,55251
 981,78;  713,982;   82,075; 5974,152;10,72470
 982,33;  693,383;   79,275; 5893,252;10,56261
 982,89;  702,282;   94,375; 5938,152;10,40265
 983,44;  673,282;   65,675; 5935,853;10,35075
 983,99;  712,982;  104,775; 5949,453;10,40618
 984,54;  698,282;   81,475; 5900,053;10,60066
 985,09;  699,782;   87,275; 5873,752;10,58515
 985,65;  690,982;   69,375; 5811,853;10,82473
 986,20;  692,083;  106,575; 5791,152;10,29993
 986,75;  680,383;   95,875; 5823,953;10,20425
 987,30;  674,682;   97,175; 5726,053;10,25973
 987,85;  651,883;   92,475; 5721,353; 9,93817
 988,40;  675,682;   96,675; 5693,953;10,34445
 988,96;  663,383;  114,875; 5666,553; 9,88003
 989,51;  632,282;  108,875; 5644,053; 9,45602
 990,06;  678,482;  128,275; 5680,853; 9,90905
 990,61;  624,782;   93,575; 5569,053; 9,70157
 991,16;  644,583;  104,375; 5558,053; 9,90538
 991,71;  607,583;   79,875; 5505,853; 9,72558
 992,26;  610,583;   93,475; 5457,252; 9,64073
 992,81;  588,682;   75,075; 5427,053; 9,59659
 993,37;  607,083;  113,475; 5390,553; 9,35380
 993,92;  593,782;  108,375; 5368,953; 9,22727
 994,47;  590,782;  117,475; 5329,652; 9,08080
 995,02;  600,982;  118,475; 5313,252; 9,28832
 995,57;  560,282;   90,875; 5274,652; 9,05532
 996,12;  598,182;  133,575; 5247,553; 9,08505
 996,67;  577,182;  132,375; 5191,652; 8,79192
 997,22;  537,482;   99,875; 5128,652; 8,70207
 997,77;  555,182;  115,275; 5110,553; 8,80647
 998,32;  527,583;  103,775; 5015,652; 8,62822
 998,87;  530,982;  114,275; 5018,752; 8,49647
 999,42;  512,482;  101,675; 4972,553; 8,43395
 999,97;  502,783;  109,975; 4956,353; 8,10518
1000,53;  516,482;  123,475; 4993,752; 8,06951
1001,08;  479,483;   98,375; 4879,053; 7,97183
1001,63;  522,383;  144,475; 4878,053; 7,98355
1002,18;  444,983;   85,075; 4777,453; 7,67005
1002,73;  490,983;  131,375; 4813,853; 7,67986
1003,28;  463,883;  103,575; 4811,953; 7,65248
1003,83;  485,682;  119,075; 4691,752; 8,01735
1004,38;  483,983;  137,775; 4703,152; 7,58333
1004,93;  465,483;  114,375; 4680,953; 7,68864
1005,48;  450,682;  104,075; 4573,053; 7,75586
1006,03;  443,582;  112,775; 4525,652; 7,49641
1006,58;  443,082;  111,475; 4486,553; 7,57947
1007,13;  414,483;   94,475; 4466,252; 7,31985
1007,68;  423,483;  104,975; 4462,453; 7,30945
1008,23;  440,983;  114,575; 4425,853; 7,57102
1008,78;  448,783;  107,375; 4384,152; 7,98282
1009,33;  442,783;  121,875; 4307,752; 7,66643
1009,88;  393,383;   84,775; 4329,553; 7,27029
1010,43;  421,983;  118,875; 4320,752; 7,21362
1010,98;  410,483;  100,675; 4310,053; 7,35994
1011,52;  409,082;   97,075; 4264,953; 7,48600
1012,07;  441,582;  144,475; 4319,252; 7,11673
1012,62;  404,682;  103,875; 4259,152; 7,23917
1013,17;  401,582;   97,175; 4172,053; 7,47035
1013,72;  370,983;   94,575; 4143,453; 6,82677
1014,27;  395,283;  100,275; 4105,853; 7,36492
1014,82;  375,682;   86,875; 4042,952; 7,30035
1015,37;  367,483;   84,375; 3964,853; 7,29569
1015,92;  371,682;  109,475; 3894,252; 6,92795
1016,47;  340,783;   90,275; 3819,452; 6,71750
1017,02;  323,983;   81,075; 3732,153; 6,65304
1017,57;  351,582;   96,475; 3718,853; 7,04254
1018,11;  329,383;   77,275; 3656,252; 7,04412
1018,66;  358,783;  120,175; 3636,552; 6,78561
1019,21;  351,383;  109,675; 3579,552; 6,96588
1019,76;  299,082;   77,675; 3497,353; 6,47451
1020,31;  311,883;   71,975; 3446,452; 7,10947
1020,86;  307,682;   96,175; 3448,052; 6,31012
1021,41;  289,682;   80,175; 3387,052; 6,33551
1021,96;  293,582;   83,675; 3385,853; 6,35664
1022,50;  326,182;  105,975; 3332,952; 6,82396
1023,05;  290,682;   94,675; 3288,052; 6,13794
1023,60;  287,483;   97,975; 3251,353; 6,00967
1024,15;  271,783;   81,075; 3184,853; 6,14437
1024,70;  297,783;   95,075; 3176,252; 6,57890
1025,25;  275,883;   81,175; 3127,452; 6,39165
1025,79;  286,182;  101,175; 3110,752; 6,14729
1026,34;  281,383;   83,475; 3044,653; 6,68341
1026,89;  288,682;  102,175; 3039,052; 6,35054
1027,44;  275,283;   95,875; 2952,952; 6,27941
1027,99;  273,983;   93,475; 2944,552; 6,33120
1028,53;  271,682;   89,675; 2900,052; 6,47626
1029,08;  283,283;  114,775; 2876,653; 6,10119
1029,63;  275,682;  114,875; 2854,952; 5,86872
1030,18;  276,783;   92,075; 2788,552; 6,84996
1030,73;  249,783;   91,175; 2739,552; 5,98886
1031,27;  235,783;   85,875; 2715,252; 5,70125
1031,82;  240,083;   81,875; 2686,452; 6,07421
1032,37;  263,082;   98,875; 2688,853; 6,34011
1032,92;  270,682;  100,575; 2675,452; 6,60643
1033,46;  248,583;   99,775; 2599,252; 5,95354
1034,01;  223,283;   78,375; 2582,952; 5,78571
1034,56;  254,083;   98,875; 2559,252; 6,30828
1035,11;  249,982;   92,375; 2523,552; 6,48276
1035,65;  241,482;   87,575; 2478,052; 6,43836
1036,20;  235,783;   99,375; 2454,452; 5,79206
1036,75;  254,083;  118,675; 2446,353; 5,81728
1037,29;  234,383;   90,275; 2398,252; 6,24389
1037,84;  225,383;   78,375; 2347,252; 6,47931
1038,39;  221,982;   91,075; 2329,952; 5,84702
1038,94;  203,182;   73,075; 2277,153; 5,90304
1039,48;  221,283;   83,575; 2278,552; 6,27375
1040,03;  248,383;  102,875; 2245,252; 6,79187
1040,58;  210,982;  101,175; 2194,552; 5,24547
1041,12;  222,783;   91,375; 2191,653; 6,25667
1041,67;  214,482;  101,075; 2166,752; 5,49009
1042,22;  230,083;  118,475; 2145,252; 5,50665
1042,76;  211,083;   99,275; 2118,452; 5,53728
1043,31;  223,883;   90,675; 2060,653; 6,76188
1043,86;  211,682;   98,875; 2044,252; 5,79875
1044,40;  209,883;   92,975; 2018,052; 6,07287
1044,95;  211,682;   94,175; 1988,552; 6,20296
1045,50;  183,682;   75,375; 1934,353; 5,82619
1046,04;  219,583;  114,375; 1930,453; 5,79312
1046,59;  204,982;   96,175; 1878,353; 6,10531
1047,13;  213,783;  121,075; 1879,453; 5,27233
1047,68;  211,383;  115,675; 1860,052; 5,48663
1048,23;  212,682;  118,775; 1866,752; 5,37235
1048,77;  190,682;   90,175; 1784,953; 5,93042
1049,32;  215,283;  104,175; 1785,953; 6,60655
1049,86;  193,982;   92,675; 1760,552; 6,07404
1050,41;  176,883;   82,475; 1735,552; 5,71102
1050,96;  199,182;  100,875; 1698,652; 6,15277
1051,50;  188,083;  101,675; 1663,252; 5,53335
1052,05;  195,182;   94,675; 1664,052; 6,40429
1052,59;  179,383;   82,975; 1624,152; 6,25545
1053,14;  170,682;   84,475; 1582,652; 5,75416
1053,69;  180,083;   98,475; 1571,453; 5,54031
1054,23;  193,682;  104,575; 1569,052; 6,08459
1054,78;  187,682;  100,775; 1550,152; 5,99619
1055,32;  205,783;  123,075; 1550,453; 5,79437
1055,87;  152,982;   68,875; 1491,752; 5,91109
1056,41;  164,783;   78,775; 1469,552; 6,18413
1056,96;  166,383;   96,775; 1451,052; 5,13983
1057,50;  193,583;  113,375; 1470,853; 5,90857
1058,05;  147,482;   82,075; 1401,953; 4,95557
1058,59;  177,283;   95,875; 1396,552; 6,25885
1059,14;  186,083;  103,575; 1370,453; 6,51267
1059,68;  142,783;   75,975; 1329,353; 5,33020
1060,23;  194,883;  126,875; 1383,752; 5,41083
1060,77;  168,283;   97,375; 1317,052; 5,81363
1061,32;  180,682;  108,575; 1320,652; 5,94908
1061,86;  178,482;  111,175; 1289,752; 5,71091
1062,41;  165,783;   93,975; 1242,953; 6,24969
1062,95;  165,283;  109,575; 1230,853; 4,96822
1063,50;  174,883;  111,075; 1230,052; 5,70231
1064,04;  155,682;   90,475; 1197,453; 5,89059
1064,59;  173,383;  114,775; 1210,052; 5,35093
1065,13;  171,982;  103,475; 1170,552; 6,42011
1065,68;  159,682;  107,275; 1161,353; 4,97188
1066,22;  164,682;  115,875; 1166,453; 4,64578
1066,76;  182,982;  130,175; 1145,252; 5,20231
1067,31;  145,482;   99,875; 1110,552; 4,51257
1067,85;  148,083;  100,975; 1090,252; 4,76181
1068,40;  160,482;  110,275; 1095,353; 5,09681
1068,94;  154,383;   99,175; 1079,353; 5,63240
1069,49;  154,583;   98,175; 1041,652; 5,97868
1070,03;  158,482;  111,175; 1034,353; 5,12442
1070,57;  144,883;   88,775; 1012,852; 6,07173
1071,12;  133,083;   75,875;  987,153; 6,27773
1071,66;  193,482;  131,775; 1039,953; 6,79465
1072,21;  160,383;  112,475; 1011,352; 5,32970
1072,75;  155,583;  104,475;  978,552; 5,84702
1073,29;  131,883;   77,075;  942,453; 6,33336
1073,84;  152,182;   95,975;  941,153; 6,65038
1074,38;  141,083;   93,875;  928,253; 5,65781
1074,92;  153,383;  107,275;  940,153; 5,53593
1075,47;  149,383;  112,775;  938,852; 4,43149
1076,01;  172,083;  121,775;  926,253; 6,25344
1076,56;  134,883;   97,275;  891,953; 4,73242
1077,10;  138,083;   86,075;  865,253; 6,67467
1077,64;  135,783;   97,875;  884,453; 4,81930
1078,19;  167,482;  123,175;  887,753; 5,79503
1078,73;  147,583;   98,775;  853,852; 6,46391
1079,27;  156,383;  121,075;  875,552; 4,67973
1079,81;  171,583;  121,375;  860,953; 6,78867
1080,36;  158,283;  105,975;  836,052; 7,16465
1080,90;  143,083;   96,375;  819,753; 6,45686
1081,44;  139,482;   82,475;  789,552; 8,06241
1081,99;  115,982;   70,375;  771,753; 6,50256
1082,53;  150,482;  113,075;  798,653; 5,45635
1083,07;  136,883;  104,175;  791,453; 4,75900
1083,62;  144,982;  101,275;  772,552; 6,51109
1084,16;  144,482;   98,975;  782,453; 6,65823
1084,70;  148,883;  107,475;  767,153; 6,27693
1085,24;  155,583;  108,775;  750,653; 7,29228
1085,79;  144,182;  109,175;  747,552; 5,48382
1086,33;  126,283;   99,075;  711,453; 4,44293
1086,87;  140,682;  102,075;  714,852; 6,30041
1087,41;  136,182;   84,475;  686,852; 8,58390
1087,96;  158,182;  124,575;  732,552; 5,52775
1088,50;  140,083;  112,075;  696,953; 4,78861
1089,04;  161,883;  121,775;  715,153; 6,75919
1089,58;  117,882;   82,375;  655,953; 6,19053
1090,13;  131,583;  102,975;  653,153; 5,19969
1090,67;  138,283;  101,775;  678,753; 6,32737
1091,21;  130,583;   92,075;  651,852; 6,87907
1091,75;  136,083;  106,875;  647,153; 5,40602
1092,29;  144,883;  105,875;  642,552; 7,26833
1092,84;  134,283;  105,975;  628,352; 5,41897
1093,38;  165,283;  128,175;  662,753; 6,94146
1093,92;  158,482;  113,475;  640,052; 8,54717
1094,46;  148,383;  128,175;  638,852; 3,95700
1095,00;  123,982;   93,975;  602,052; 5,90609
1095,54;  120,982;   89,975;  591,352; 6,18446
1096,09;  136,182;  114,975;  597,352; 4,39645
1096,63;  153,783;  117,175;  598,453; 7,60632
1097,17;  128,982;  102,575;  573,052; 5,61291
1097,71;  154,083;  122,875;  582,453; 6,79048
1098,25;  128,182;  103,275;  553,653; 5,53036
1098,79;  141,083;  104,775;  568,753; 7,82527
1099,33;  147,783;  111,975;  572,052; 7,78293
1099,88;  141,083;  110,775;  562,253; 6,71296
1100,42;  108,582;   83,275;  521,253; 5,77826

