PE UV       SUBTECH     SPECTRUM    ASCII       PEDS        4.00        
   -1
ANGSOL0011-3.Sample.ASC
24/03/07
13:52:18.00
24/03/07
13:52:18.00
Vinicio Soto Monge
Chrysina resplendens. Sector Santa Maria, manta #560, crater bosque, sendero adentro/ 8 Abril 2016/ Col: Sergio rios / BioCol-0000415.
250,000000
1
Lambda 1050
1050L1511233
PerkinElmer UV WinLab 6.3.2.0749 / 2.02.05 Lambda 900 UV/VIS/NIR, Aug  7 2015 09:38:08

0
0
3350/servo 860,8/2
0
0
UV/VIS
1
1
1
DoubleDePol,CommonBeamDepol,RBeamAtt,SBeamAtt,60mm sphere, WB InGaAs Detector
0
0
0
0
Program
Program
3350/servo 860,8/2
3350/0,2 860,8/0,2
3350/0,2 860,8/0,2
0
15.00
 
 
 
0
 
860,8
319,2
860,8
Front
100
on
S:100 R:100
0
0
0
0
 
0
 
 
 
0
 
 
0
0
0
0
0
 
 
 
 
0
0


0
0
#HDR
-1
-1
#GR
nm
%R
1.0
0.0
2500,000000
-1,000000
2251
8
22,796100
1,694900
#DATA
250.000000	0.184509
251.000000	0.198109
252.000000	0.178212
253.000000	0.181085
254.000000	0.183222
255.000000	0.127052
256.000000	0.161164
257.000000	0.155109
258.000000	0.142679
259.000000	0.160942
260.000000	0.137468
261.000000	0.157833
262.000000	0.182262
263.000000	0.177644
264.000000	0.158561
265.000000	0.180028
266.000000	0.155536
267.000000	0.161989
268.000000	0.142030
269.000000	0.165222
270.000000	0.182145
271.000000	0.143512
272.000000	0.190268
273.000000	0.159048
274.000000	0.143574
275.000000	0.146347
276.000000	0.174792
277.000000	0.187930
278.000000	0.177255
279.000000	0.166659
280.000000	0.114619
281.000000	0.121157
282.000000	0.172456
283.000000	0.126258
284.000000	0.152683
285.000000	0.097614
286.000000	0.183612
287.000000	0.160147
288.000000	0.169608
289.000000	0.145913
290.000000	0.104564
291.000000	0.155982
292.000000	0.153152
293.000000	0.169405
294.000000	0.084281
295.000000	0.096221
296.000000	0.159219
297.000000	0.150229
298.000000	0.127968
299.000000	0.152475
300.000000	0.138877
301.000000	0.125079
302.000000	0.172642
303.000000	0.190168
304.000000	0.169542
305.000000	0.126349
306.000000	0.151981
307.000000	0.139636
308.000000	0.131334
309.000000	0.099179
310.000000	0.116173
311.000000	0.107846
312.000000	0.173525
313.000000	0.130478
314.000000	0.173071
315.000000	0.149494
316.000000	0.175985
317.000000	0.088818
318.000000	0.156434
319.000000	0.463442
320.000000	0.398972
321.000000	0.175929
322.000000	0.462969
323.000000	0.204538
324.000000	0.161248
325.000000	0.281586
326.000000	0.355151
327.000000	0.209938
328.000000	0.305508
329.000000	0.189791
330.000000	0.236758
331.000000	0.280011
332.000000	0.142786
333.000000	0.119995
334.000000	0.297700
335.000000	0.299888
336.000000	0.262047
337.000000	0.114874
338.000000	0.153769
339.000000	0.045686
340.000000	0.037923
341.000000	0.148932
342.000000	0.099337
343.000000	0.149557
344.000000	0.124689
345.000000	0.138192
346.000000	0.220032
347.000000	0.107428
348.000000	0.180276
349.000000	0.155627
350.000000	0.175754
351.000000	0.184792
352.000000	0.105881
353.000000	0.167519
354.000000	0.103900
355.000000	0.170264
356.000000	0.148186
357.000000	0.129321
358.000000	0.150857
359.000000	0.077756
360.000000	0.088150
361.000000	0.150758
362.000000	0.257656
363.000000	0.135363
364.000000	0.072226
365.000000	0.131183
366.000000	0.150266
367.000000	0.184378
368.000000	0.175906
369.000000	0.148723
370.000000	0.078992
371.000000	0.032781
372.000000	0.113558
373.000000	0.070512
374.000000	0.093914
375.000000	0.024661
376.000000	0.123169
377.000000	0.093079
378.000000	0.095377
379.000000	0.091813
380.000000	0.091951
381.000000	0.097112
382.000000	0.097921
383.000000	0.092681
384.000000	0.093775
385.000000	0.100433
386.000000	0.099022
387.000000	0.086891
388.000000	0.089906
389.000000	0.098131
390.000000	0.099137
391.000000	0.095217
392.000000	0.093551
393.000000	0.101420
394.000000	0.103967
395.000000	0.103272
396.000000	0.105889
397.000000	0.108687
398.000000	0.111845
399.000000	0.115356
400.000000	0.117135
401.000000	0.124802
402.000000	0.135883
403.000000	0.138070
404.000000	0.142667
405.000000	0.144898
406.000000	0.157570
407.000000	0.170215
408.000000	0.175209
409.000000	0.181157
410.000000	0.193728
411.000000	0.207683
412.000000	0.217757
413.000000	0.229084
414.000000	0.245021
415.000000	0.260435
416.000000	0.269802
417.000000	0.283912
418.000000	0.294880
419.000000	0.307127
420.000000	0.320101
421.000000	0.327353
422.000000	0.333926
423.000000	0.343561
424.000000	0.351186
425.000000	0.357413
426.000000	0.365458
427.000000	0.371060
428.000000	0.370516
429.000000	0.366891
430.000000	0.366785
431.000000	0.365173
432.000000	0.361673
433.000000	0.354091
434.000000	0.347508
435.000000	0.345446
436.000000	0.335286
437.000000	0.325280
438.000000	0.312080
439.000000	0.299115
440.000000	0.292611
441.000000	0.285221
442.000000	0.273536
443.000000	0.267151
444.000000	0.261383
445.000000	0.244731
446.000000	0.226712
447.000000	0.224343
448.000000	0.222632
449.000000	0.200093
450.000000	0.186324
451.000000	0.179007
452.000000	0.166016
453.000000	0.163728
454.000000	0.157443
455.000000	0.149571
456.000000	0.143792
457.000000	0.137791
458.000000	0.125504
459.000000	0.115396
460.000000	0.111469
461.000000	0.103466
462.000000	0.100194
463.000000	0.088572
464.000000	0.075831
465.000000	0.074459
466.000000	0.069486
467.000000	0.053614
468.000000	0.039872
469.000000	0.025202
470.000000	0.033671
471.000000	0.035902
472.000000	0.037645
473.000000	0.059008
474.000000	0.076357
475.000000	0.090682
476.000000	0.112180
477.000000	0.124521
478.000000	0.140780
479.000000	0.157025
480.000000	0.174623
481.000000	0.195191
482.000000	0.204010
483.000000	0.217156
484.000000	0.229037
485.000000	0.245531
486.000000	0.250364
487.000000	0.239762
488.000000	0.240110
489.000000	0.235612
490.000000	0.223207
491.000000	0.205739
492.000000	0.198515
493.000000	0.203313
494.000000	0.205531
495.000000	0.214323
496.000000	0.232324
497.000000	0.251035
498.000000	0.278223
499.000000	0.312407
500.000000	0.340661
501.000000	0.365909
502.000000	0.379710
503.000000	0.386997
504.000000	0.395293
505.000000	0.397842
506.000000	0.390020
507.000000	0.384239
508.000000	0.363358
509.000000	0.341966
510.000000	0.316229
511.000000	0.292951
512.000000	0.274774
513.000000	0.249177
514.000000	0.217979
515.000000	0.198050
516.000000	0.176679
517.000000	0.159692
518.000000	0.130547
519.000000	0.121685
520.000000	0.109687
521.000000	0.122785
522.000000	0.147635
523.000000	0.192957
524.000000	0.236735
525.000000	0.290906
526.000000	0.348844
527.000000	0.410403
528.000000	0.464413
529.000000	0.520606
530.000000	0.572645
531.000000	0.634436
532.000000	0.688593
533.000000	0.744837
534.000000	0.795462
535.000000	0.851404
536.000000	0.891477
537.000000	0.940366
538.000000	0.994527
539.000000	1.040034
540.000000	1.075656
541.000000	1.112441
542.000000	1.140569
543.000000	1.165720
544.000000	1.196766
545.000000	1.199220
546.000000	1.189039
547.000000	1.177411
548.000000	1.159412
549.000000	1.130867
550.000000	1.088293
551.000000	1.054669
552.000000	1.007083
553.000000	0.956843
554.000000	0.900758
555.000000	0.859834
556.000000	0.822177
557.000000	0.786894
558.000000	0.756582
559.000000	0.724585
560.000000	0.712057
561.000000	0.692510
562.000000	0.670460
563.000000	0.655591
564.000000	0.668178
565.000000	0.663489
566.000000	0.651035
567.000000	0.652509
568.000000	0.647271
569.000000	0.624778
570.000000	0.639806
571.000000	0.639078
572.000000	0.657546
573.000000	0.660825
574.000000	0.674358
575.000000	0.666759
576.000000	0.658017
577.000000	0.651651
578.000000	0.647520
579.000000	0.658988
580.000000	0.666143
581.000000	0.661812
582.000000	0.655463
583.000000	0.635962
584.000000	0.630835
585.000000	0.616249
586.000000	0.620662
587.000000	0.621238
588.000000	0.628422
589.000000	0.623591
590.000000	0.622062
591.000000	0.609554
592.000000	0.603110
593.000000	0.614803
594.000000	0.618058
595.000000	0.615263
596.000000	0.590057
597.000000	0.578560
598.000000	0.584939
599.000000	0.569787
600.000000	0.558715
601.000000	0.536673
602.000000	0.530617
603.000000	0.514192
604.000000	0.524374
605.000000	0.502899
606.000000	0.496142
607.000000	0.458605
608.000000	0.426610
609.000000	0.435790
610.000000	0.419895
611.000000	0.395942
612.000000	0.372268
613.000000	0.366394
614.000000	0.361030
615.000000	0.330918
616.000000	0.290252
617.000000	0.298068
618.000000	0.283745
619.000000	0.261490
620.000000	0.242764
621.000000	0.244937
622.000000	0.252269
623.000000	0.248880
624.000000	0.239429
625.000000	0.242426
626.000000	0.252071
627.000000	0.254514
628.000000	0.256741
629.000000	0.267562
630.000000	0.279068
631.000000	0.298869
632.000000	0.314842
633.000000	0.322363
634.000000	0.333550
635.000000	0.320461
636.000000	0.330068
637.000000	0.334504
638.000000	0.324235
639.000000	0.320369
640.000000	0.285950
641.000000	0.263494
642.000000	0.214994
643.000000	0.181449
644.000000	0.160604
645.000000	0.146774
646.000000	0.143221
647.000000	0.159645
648.000000	0.205161
649.000000	0.255314
650.000000	0.328690
651.000000	0.368502
652.000000	0.436002
653.000000	0.479044
654.000000	0.560196
655.000000	0.623229
656.000000	0.701087
657.000000	0.779272
658.000000	0.834043
659.000000	0.894436
660.000000	0.957277
661.000000	1.042077
662.000000	1.074466
663.000000	1.106972
664.000000	1.132702
665.000000	1.152733
666.000000	1.153318
667.000000	1.140741
668.000000	1.123963
669.000000	1.097026
670.000000	1.057309
671.000000	1.008923
672.000000	0.956048
673.000000	0.920662
674.000000	0.881993
675.000000	0.848080
676.000000	0.827061
677.000000	0.801272
678.000000	0.779865
679.000000	0.751548
680.000000	0.742710
681.000000	0.734806
682.000000	0.732359
683.000000	0.721695
684.000000	0.714579
685.000000	0.716922
686.000000	0.717397
687.000000	0.711263
688.000000	0.705847
689.000000	0.695000
690.000000	0.703421
691.000000	0.702387
692.000000	0.680905
693.000000	0.679471
694.000000	0.687147
695.000000	0.689149
696.000000	0.687756
697.000000	0.693537
698.000000	0.709715
699.000000	0.730677
700.000000	0.758222
701.000000	0.780668
702.000000	0.813271
703.000000	0.840657
704.000000	0.854750
705.000000	0.882694
706.000000	0.899504
707.000000	0.930085
708.000000	0.955181
709.000000	0.970394
710.000000	0.981516
711.000000	0.997134
712.000000	1.014463
713.000000	1.026379
714.000000	1.024155
715.000000	1.030021
716.000000	1.060502
717.000000	1.090759
718.000000	1.110143
719.000000	1.096640
720.000000	1.107373
721.000000	1.121617
722.000000	1.135843
723.000000	1.164621
724.000000	1.162384
725.000000	1.156047
726.000000	1.148926
727.000000	1.139231
728.000000	1.131761
729.000000	1.108442
730.000000	1.098915
731.000000	1.076743
732.000000	1.040893
733.000000	1.020755
734.000000	0.971392
735.000000	0.954824
736.000000	0.936727
737.000000	0.888034
738.000000	0.831495
739.000000	0.815313
740.000000	0.777880
741.000000	0.729723
742.000000	0.710465
743.000000	0.684372
744.000000	0.656470
745.000000	0.611411
746.000000	0.594772
747.000000	0.584682
748.000000	0.526542
749.000000	0.501340
750.000000	0.486077
751.000000	0.456725
752.000000	0.440542
753.000000	0.430603
754.000000	0.429226
755.000000	0.417395
756.000000	0.400475
757.000000	0.403503
758.000000	0.427759
759.000000	0.422541
760.000000	0.397270
761.000000	0.414215
762.000000	0.447282
763.000000	0.447247
764.000000	0.459201
765.000000	0.478072
766.000000	0.481265
767.000000	0.498680
768.000000	0.519594
769.000000	0.550476
770.000000	0.583030
771.000000	0.591386
772.000000	0.608976
773.000000	0.616935
774.000000	0.619769
775.000000	0.622672
776.000000	0.638337
777.000000	0.644014
778.000000	0.650301
779.000000	0.686963
780.000000	0.660430
781.000000	0.620090
782.000000	0.613414
783.000000	0.612049
784.000000	0.610575
785.000000	0.621174
786.000000	0.614736
787.000000	0.614354
788.000000	0.598459
789.000000	0.572850
790.000000	0.540174
791.000000	0.522155
792.000000	0.523136
793.000000	0.550278
794.000000	0.565022
795.000000	0.577979
796.000000	0.613670
797.000000	0.621217
798.000000	0.588189
799.000000	0.574677
800.000000	0.623251
801.000000	0.617585
802.000000	0.628227
803.000000	0.679284
804.000000	0.726930
805.000000	0.706996
806.000000	0.656711
807.000000	0.646440
808.000000	0.689861
809.000000	0.723174
810.000000	0.689727
811.000000	0.696653
812.000000	0.676284
813.000000	0.631335
814.000000	0.625947
815.000000	0.642087
816.000000	0.640650
817.000000	0.597973
818.000000	0.574698
819.000000	0.549735
820.000000	0.563400
821.000000	0.567628
822.000000	0.527456
823.000000	0.480387
824.000000	0.402728
825.000000	0.400413
826.000000	0.340830
827.000000	0.348238
828.000000	0.356079
829.000000	0.234467
830.000000	0.238717
831.000000	0.300406
832.000000	0.282433
833.000000	0.379378
834.000000	0.372472
835.000000	0.284093
836.000000	0.326774
837.000000	0.357402
838.000000	0.361219
839.000000	0.330184
840.000000	0.367235
841.000000	0.379858
842.000000	0.393589
843.000000	0.543762
844.000000	0.584989
845.000000	0.487738
846.000000	0.511239
847.000000	0.496929
848.000000	0.474918
849.000000	0.573803
850.000000	0.477117
851.000000	0.428454
852.000000	0.659027
853.000000	0.614361
854.000000	0.669460
855.000000	0.568404
856.000000	0.532479
857.000000	0.820532
858.000000	1.533524
859.000000	0.862413
860.000000	0.863797
861.000000	0.866441
862.000000	0.866547
863.000000	0.866445
864.000000	0.883283
865.000000	0.880298
866.000000	0.888695
867.000000	0.894132
868.000000	0.879615
869.000000	0.864857
870.000000	0.874230
871.000000	0.857434
872.000000	0.853819
873.000000	0.855651
874.000000	0.844575
875.000000	0.828152
876.000000	0.824412
877.000000	0.806241
878.000000	0.796282
879.000000	0.769854
880.000000	0.762848
881.000000	0.760176
882.000000	0.747122
883.000000	0.738594
884.000000	0.714246
885.000000	0.702163
886.000000	0.699014
887.000000	0.682536
888.000000	0.690408
889.000000	0.674436
890.000000	0.650939
891.000000	0.629606
892.000000	0.605415
893.000000	0.607248
894.000000	0.621342
895.000000	0.599978
896.000000	0.606678
897.000000	0.586104
898.000000	0.570127
899.000000	0.561068
900.000000	0.560011
901.000000	0.530460
902.000000	0.515038
903.000000	0.521031
904.000000	0.531055
905.000000	0.519964
906.000000	0.500878
907.000000	0.476249
908.000000	0.463324
909.000000	0.448465
910.000000	0.474997
911.000000	0.487587
912.000000	0.488649
913.000000	0.491966
914.000000	0.483622
915.000000	0.495666
916.000000	0.501781
917.000000	0.502723
918.000000	0.501785
919.000000	0.496930
920.000000	0.502262
921.000000	0.531774
922.000000	0.529183
923.000000	0.545192
924.000000	0.545209
925.000000	0.540915
926.000000	0.514483
927.000000	0.534656
928.000000	0.538222
929.000000	0.538148
930.000000	0.543792
931.000000	0.545022
932.000000	0.558858
933.000000	0.537090
934.000000	0.555447
935.000000	0.543867
936.000000	0.536970
937.000000	0.568181
938.000000	0.557184
939.000000	0.562586
940.000000	0.576405
941.000000	0.568077
942.000000	0.558758
943.000000	0.560178
944.000000	0.578753
945.000000	0.569752
946.000000	0.593539
947.000000	0.592575
948.000000	0.595360
949.000000	0.598071
950.000000	0.607645
951.000000	0.598813
952.000000	0.603049
953.000000	0.622650
954.000000	0.616729
955.000000	0.609856
956.000000	0.626634
957.000000	0.631024
958.000000	0.639632
959.000000	0.641048
960.000000	0.650678
961.000000	0.654316
962.000000	0.644114
963.000000	0.658059
964.000000	0.656160
965.000000	0.677713
966.000000	0.697519
967.000000	0.693727
968.000000	0.718974
969.000000	0.731956
970.000000	0.749832
971.000000	0.750657
972.000000	0.763678
973.000000	0.774589
974.000000	0.782341
975.000000	0.798985
976.000000	0.818052
977.000000	0.824576
978.000000	0.834901
979.000000	0.851337
980.000000	0.859535
981.000000	0.868636
982.000000	0.892780
983.000000	0.907286
984.000000	0.895852
985.000000	0.906454
986.000000	0.927268
987.000000	0.953148
988.000000	0.964566
989.000000	0.971456
990.000000	0.978795
991.000000	0.995943
992.000000	1.011381
993.000000	1.023917
994.000000	1.023513
995.000000	1.024861
996.000000	1.034228
997.000000	1.039053
998.000000	1.051244
999.000000	1.046114
1000.000000	1.042805
1001.000000	1.045495
1002.000000	1.044860
1003.000000	1.050292
1004.000000	1.058952
1005.000000	1.068404
1006.000000	1.075271
1007.000000	1.061719
1008.000000	1.043013
1009.000000	1.047801
1010.000000	1.052567
1011.000000	1.055965
1012.000000	1.048559
1013.000000	1.038968
1014.000000	1.044128
1015.000000	1.045214
1016.000000	1.035713
1017.000000	1.043522
1018.000000	1.046624
1019.000000	1.040056
1020.000000	1.043444
1021.000000	1.042439
1022.000000	1.042573
1023.000000	1.039555
1024.000000	1.037182
1025.000000	1.033192
1026.000000	1.036941
1027.000000	1.029929
1028.000000	1.022885
1029.000000	1.025759
1030.000000	1.023853
1031.000000	1.026949
1032.000000	1.040274
1033.000000	1.058086
1034.000000	1.061715
1035.000000	1.064291
1036.000000	1.074913
1037.000000	1.077201
1038.000000	1.080879
1039.000000	1.076039
1040.000000	1.073451
1041.000000	1.079039
1042.000000	1.080072
1043.000000	1.085934
1044.000000	1.093198
1045.000000	1.092207
1046.000000	1.103026
1047.000000	1.111860
1048.000000	1.116294
1049.000000	1.132296
1050.000000	1.139592
1051.000000	1.145602
1052.000000	1.153410
1053.000000	1.158153
1054.000000	1.161377
1055.000000	1.174384
1056.000000	1.180623
1057.000000	1.171995
1058.000000	1.180899
1059.000000	1.188784
1060.000000	1.198592
1061.000000	1.203876
1062.000000	1.205638
1063.000000	1.196138
1064.000000	1.195598
1065.000000	1.213805
1066.000000	1.210750
1067.000000	1.220652
1068.000000	1.216551
1069.000000	1.212384
1070.000000	1.214851
1071.000000	1.208148
1072.000000	1.208114
1073.000000	1.220632
1074.000000	1.208045
1075.000000	1.203545
1076.000000	1.206685
1077.000000	1.191188
1078.000000	1.183317
1079.000000	1.184293
1080.000000	1.179745
1081.000000	1.195197
1082.000000	1.203603
1083.000000	1.199585
1084.000000	1.185343
1085.000000	1.192724
1086.000000	1.184758
1087.000000	1.190099
1088.000000	1.187742
1089.000000	1.190711
1090.000000	1.190490
1091.000000	1.191889
1092.000000	1.176122
1093.000000	1.172939
1094.000000	1.167707
1095.000000	1.177718
1096.000000	1.170376
1097.000000	1.186653
1098.000000	1.174659
1099.000000	1.181787
1100.000000	1.169994
1101.000000	1.175394
1102.000000	1.154197
1103.000000	1.151697
1104.000000	1.155283
1105.000000	1.153692
1106.000000	1.158636
1107.000000	1.145340
1108.000000	1.137491
1109.000000	1.137233
1110.000000	1.151097
1111.000000	1.158688
1112.000000	1.153111
1113.000000	1.153560
1114.000000	1.154121
1115.000000	1.152502
1116.000000	1.149778
1117.000000	1.135651
1118.000000	1.143973
1119.000000	1.151328
1120.000000	1.146098
1121.000000	1.138812
1122.000000	1.132032
1123.000000	1.138763
1124.000000	1.138563
1125.000000	1.130582
1126.000000	1.115040
1127.000000	1.109261
1128.000000	1.098857
1129.000000	1.107344
1130.000000	1.095644
1131.000000	1.097099
1132.000000	1.072064
1133.000000	1.051378
1134.000000	1.058514
1135.000000	1.055259
1136.000000	1.034237
1137.000000	1.028330
1138.000000	1.035218
1139.000000	1.029846
1140.000000	1.010986
1141.000000	0.987458
1142.000000	0.972397
1143.000000	0.964861
1144.000000	0.960051
1145.000000	0.965362
1146.000000	0.954505
1147.000000	0.950155
1148.000000	0.951530
1149.000000	0.940068
1150.000000	0.935453
1151.000000	0.925815
1152.000000	0.922050
1153.000000	0.916342
1154.000000	0.902193
1155.000000	0.898911
1156.000000	0.875935
1157.000000	0.857254
1158.000000	0.868204
1159.000000	0.865250
1160.000000	0.866070
1161.000000	0.847379
1162.000000	0.822399
1163.000000	0.804403
1164.000000	0.804266
1165.000000	0.778254
1166.000000	0.775258
1167.000000	0.755768
1168.000000	0.747351
1169.000000	0.750584
1170.000000	0.728062
1171.000000	0.721997
1172.000000	0.724101
1173.000000	0.709931
1174.000000	0.698936
1175.000000	0.681674
1176.000000	0.686452
1177.000000	0.661799
1178.000000	0.652006
1179.000000	0.635872
1180.000000	0.618957
1181.000000	0.623951
1182.000000	0.620791
1183.000000	0.608215
1184.000000	0.605208
1185.000000	0.605328
1186.000000	0.596955
1187.000000	0.583135
1188.000000	0.575350
1189.000000	0.589035
1190.000000	0.601665
1191.000000	0.598051
1192.000000	0.599238
1193.000000	0.599527
1194.000000	0.602743
1195.000000	0.600801
1196.000000	0.609497
1197.000000	0.613282
1198.000000	0.626295
1199.000000	0.629219
1200.000000	0.642865
1201.000000	0.643911
1202.000000	0.631915
1203.000000	0.654812
1204.000000	0.666616
1205.000000	0.653360
1206.000000	0.664807
1207.000000	0.677697
1208.000000	0.682423
1209.000000	0.682945
1210.000000	0.686475
1211.000000	0.695629
1212.000000	0.691583
1213.000000	0.686772
1214.000000	0.707663
1215.000000	0.698286
1216.000000	0.711222
1217.000000	0.725335
1218.000000	0.721635
1219.000000	0.739962
1220.000000	0.730975
1221.000000	0.727033
1222.000000	0.732378
1223.000000	0.743288
1224.000000	0.749648
1225.000000	0.755034
1226.000000	0.754670
1227.000000	0.752561
1228.000000	0.766223
1229.000000	0.774534
1230.000000	0.771962
1231.000000	0.772725
1232.000000	0.787019
1233.000000	0.790165
1234.000000	0.784033
1235.000000	0.791030
1236.000000	0.799769
1237.000000	0.804733
1238.000000	0.793847
1239.000000	0.794477
1240.000000	0.794633
1241.000000	0.805774
1242.000000	0.818695
1243.000000	0.820511
1244.000000	0.823949
1245.000000	0.822367
1246.000000	0.821916
1247.000000	0.829373
1248.000000	0.813662
1249.000000	0.814700
1250.000000	0.817502
1251.000000	0.820601
1252.000000	0.821587
1253.000000	0.817466
1254.000000	0.820545
1255.000000	0.816006
1256.000000	0.818800
1257.000000	0.822424
1258.000000	0.808954
1259.000000	0.805294
1260.000000	0.806673
1261.000000	0.806285
1262.000000	0.809344
1263.000000	0.799964
1264.000000	0.802878
1265.000000	0.803196
1266.000000	0.785700
1267.000000	0.769233
1268.000000	0.770233
1269.000000	0.774587
1270.000000	0.767017
1271.000000	0.764071
1272.000000	0.765048
1273.000000	0.760278
1274.000000	0.755466
1275.000000	0.751299
1276.000000	0.756341
1277.000000	0.753445
1278.000000	0.749912
1279.000000	0.754546
1280.000000	0.757666
1281.000000	0.751287
1282.000000	0.753312
1283.000000	0.752400
1284.000000	0.751301
1285.000000	0.745734
1286.000000	0.740264
1287.000000	0.749642
1288.000000	0.766510
1289.000000	0.770644
1290.000000	0.757628
1291.000000	0.758638
1292.000000	0.761589
1293.000000	0.765943
1294.000000	0.773317
1295.000000	0.768479
1296.000000	0.768202
1297.000000	0.770896
1298.000000	0.771858
1299.000000	0.771745
1300.000000	0.767572
1301.000000	0.770858
1302.000000	0.769090
1303.000000	0.768094
1304.000000	0.758598
1305.000000	0.754453
1306.000000	0.757912
1307.000000	0.763763
1308.000000	0.767118
1309.000000	0.766983
1310.000000	0.766488
1311.000000	0.758841
1312.000000	0.751234
1313.000000	0.742516
1314.000000	0.744943
1315.000000	0.750016
1316.000000	0.748009
1317.000000	0.743730
1318.000000	0.733671
1319.000000	0.719894
1320.000000	0.714868
1321.000000	0.719489
1322.000000	0.715041
1323.000000	0.713710
1324.000000	0.707969
1325.000000	0.701379
1326.000000	0.695394
1327.000000	0.695156
1328.000000	0.691040
1329.000000	0.686910
1330.000000	0.688174
1331.000000	0.683771
1332.000000	0.670839
1333.000000	0.657264
1334.000000	0.643018
1335.000000	0.637799
1336.000000	0.618800
1337.000000	0.613997
1338.000000	0.603483
1339.000000	0.587945
1340.000000	0.580854
1341.000000	0.572410
1342.000000	0.562285
1343.000000	0.545518
1344.000000	0.534161
1345.000000	0.510994
1346.000000	0.505507
1347.000000	0.483488
1348.000000	0.461534
1349.000000	0.448890
1350.000000	0.450409
1351.000000	0.431260
1352.000000	0.409067
1353.000000	0.378278
1354.000000	0.360074
1355.000000	0.354266
1356.000000	0.348758
1357.000000	0.353381
1358.000000	0.351549
1359.000000	0.338422
1360.000000	0.311988
1361.000000	0.305283
1362.000000	0.316424
1363.000000	0.322679
1364.000000	0.310803
1365.000000	0.319248
1366.000000	0.304484
1367.000000	0.282213
1368.000000	0.277761
1369.000000	0.287547
1370.000000	0.272736
1371.000000	0.271190
1372.000000	0.265995
1373.000000	0.252503
1374.000000	0.243297
1375.000000	0.241761
1376.000000	0.224936
1377.000000	0.221234
1378.000000	0.219019
1379.000000	0.192383
1380.000000	0.185231
1381.000000	0.178425
1382.000000	0.169928
1383.000000	0.173581
1384.000000	0.170181
1385.000000	0.170170
1386.000000	0.148358
1387.000000	0.123282
1388.000000	0.132227
1389.000000	0.132308
1390.000000	0.119454
1391.000000	0.102866
1392.000000	0.104762
1393.000000	0.094844
1394.000000	0.094704
1395.000000	0.106259
1396.000000	0.108850
1397.000000	0.108752
1398.000000	0.105236
1399.000000	0.112802
1400.000000	0.142352
1401.000000	0.128605
1402.000000	0.142912
1403.000000	0.169771
1404.000000	0.204444
1405.000000	0.215504
1406.000000	0.214001
1407.000000	0.235152
1408.000000	0.252854
1409.000000	0.272131
1410.000000	0.284800
1411.000000	0.294773
1412.000000	0.327867
1413.000000	0.337180
1414.000000	0.369297
1415.000000	0.371084
1416.000000	0.383904
1417.000000	0.409593
1418.000000	0.416768
1419.000000	0.432533
1420.000000	0.452619
1421.000000	0.452173
1422.000000	0.488145
1423.000000	0.506546
1424.000000	0.502642
1425.000000	0.521099
1426.000000	0.513881
1427.000000	0.537070
1428.000000	0.543584
1429.000000	0.538260
1430.000000	0.544447
1431.000000	0.561644
1432.000000	0.563841
1433.000000	0.582067
1434.000000	0.582284
1435.000000	0.589420
1436.000000	0.619349
1437.000000	0.628348
1438.000000	0.619283
1439.000000	0.624030
1440.000000	0.635557
1441.000000	0.639045
1442.000000	0.643961
1443.000000	0.648734
1444.000000	0.663377
1445.000000	0.667327
1446.000000	0.668121
1447.000000	0.668495
1448.000000	0.668217
1449.000000	0.682546
1450.000000	0.690015
1451.000000	0.700443
1452.000000	0.705196
1453.000000	0.710151
1454.000000	0.706210
1455.000000	0.720369
1456.000000	0.734889
1457.000000	0.717430
1458.000000	0.722019
1459.000000	0.734964
1460.000000	0.746140
1461.000000	0.749208
1462.000000	0.754035
1463.000000	0.762230
1464.000000	0.751834
1465.000000	0.764888
1466.000000	0.755622
1467.000000	0.764511
1468.000000	0.750650
1469.000000	0.769603
1470.000000	0.769254
1471.000000	0.749959
1472.000000	0.752980
1473.000000	0.753702
1474.000000	0.760610
1475.000000	0.768948
1476.000000	0.769815
1477.000000	0.761132
1478.000000	0.754942
1479.000000	0.762743
1480.000000	0.776731
1481.000000	0.758819
1482.000000	0.755076
1483.000000	0.760290
1484.000000	0.751066
1485.000000	0.759547
1486.000000	0.754836
1487.000000	0.755044
1488.000000	0.763395
1489.000000	0.749346
1490.000000	0.760826
1491.000000	0.753119
1492.000000	0.737580
1493.000000	0.741378
1494.000000	0.764135
1495.000000	0.750192
1496.000000	0.747505
1497.000000	0.745412
1498.000000	0.743493
1499.000000	0.732819
1500.000000	0.733672
1501.000000	0.732888
1502.000000	0.732420
1503.000000	0.731403
1504.000000	0.718167
1505.000000	0.723152
1506.000000	0.714605
1507.000000	0.714678
1508.000000	0.719931
1509.000000	0.718911
1510.000000	0.723136
1511.000000	0.715771
1512.000000	0.699397
1513.000000	0.703505
1514.000000	0.713926
1515.000000	0.705175
1516.000000	0.695848
1517.000000	0.695680
1518.000000	0.707011
1519.000000	0.711791
1520.000000	0.703634
1521.000000	0.712109
1522.000000	0.707397
1523.000000	0.702863
1524.000000	0.699721
1525.000000	0.704294
1526.000000	0.714001
1527.000000	0.715536
1528.000000	0.709398
1529.000000	0.708317
1530.000000	0.709695
1531.000000	0.709612
1532.000000	0.708896
1533.000000	0.715424
1534.000000	0.718718
1535.000000	0.715560
1536.000000	0.713740
1537.000000	0.709036
1538.000000	0.716586
1539.000000	0.722571
1540.000000	0.728438
1541.000000	0.729490
1542.000000	0.729916
1543.000000	0.737357
1544.000000	0.738591
1545.000000	0.739946
1546.000000	0.743457
1547.000000	0.740947
1548.000000	0.739957
1549.000000	0.732570
1550.000000	0.730813
1551.000000	0.725187
1552.000000	0.729893
1553.000000	0.724851
1554.000000	0.721775
1555.000000	0.725831
1556.000000	0.719321
1557.000000	0.719660
1558.000000	0.716752
1559.000000	0.719528
1560.000000	0.729227
1561.000000	0.724833
1562.000000	0.717310
1563.000000	0.728854
1564.000000	0.726456
1565.000000	0.717606
1566.000000	0.723758
1567.000000	0.722986
1568.000000	0.726012
1569.000000	0.722444
1570.000000	0.717309
1571.000000	0.722454
1572.000000	0.721113
1573.000000	0.724362
1574.000000	0.720824
1575.000000	0.719188
1576.000000	0.710057
1577.000000	0.707214
1578.000000	0.703562
1579.000000	0.701966
1580.000000	0.706194
1581.000000	0.700855
1582.000000	0.692195
1583.000000	0.695349
1584.000000	0.690864
1585.000000	0.673497
1586.000000	0.672649
1587.000000	0.675462
1588.000000	0.672235
1589.000000	0.668134
1590.000000	0.663632
1591.000000	0.656744
1592.000000	0.653623
1593.000000	0.648133
1594.000000	0.654171
1595.000000	0.644503
1596.000000	0.636852
1597.000000	0.622801
1598.000000	0.623326
1599.000000	0.622264
1600.000000	0.611428
1601.000000	0.607494
1602.000000	0.604933
1603.000000	0.590957
1604.000000	0.590610
1605.000000	0.584797
1606.000000	0.585026
1607.000000	0.568607
1608.000000	0.550785
1609.000000	0.545191
1610.000000	0.556686
1611.000000	0.555677
1612.000000	0.551306
1613.000000	0.543432
1614.000000	0.535548
1615.000000	0.532484
1616.000000	0.543495
1617.000000	0.544952
1618.000000	0.531365
1619.000000	0.532549
1620.000000	0.539387
1621.000000	0.543469
1622.000000	0.529575
1623.000000	0.534930
1624.000000	0.537607
1625.000000	0.537930
1626.000000	0.542673
1627.000000	0.537673
1628.000000	0.537722
1629.000000	0.538570
1630.000000	0.531202
1631.000000	0.543072
1632.000000	0.526479
1633.000000	0.534668
1634.000000	0.540390
1635.000000	0.542902
1636.000000	0.539359
1637.000000	0.546310
1638.000000	0.558681
1639.000000	0.545361
1640.000000	0.561263
1641.000000	0.551144
1642.000000	0.554814
1643.000000	0.564152
1644.000000	0.567543
1645.000000	0.574065
1646.000000	0.574766
1647.000000	0.573319
1648.000000	0.572376
1649.000000	0.585175
1650.000000	0.590327
1651.000000	0.593564
1652.000000	0.583522
1653.000000	0.594613
1654.000000	0.612120
1655.000000	0.606638
1656.000000	0.611767
1657.000000	0.624526
1658.000000	0.621177
1659.000000	0.626744
1660.000000	0.625515
1661.000000	0.650138
1662.000000	0.657853
1663.000000	0.669919
1664.000000	0.680557
1665.000000	0.685577
1666.000000	0.706426
1667.000000	0.715422
1668.000000	0.703933
1669.000000	0.730757
1670.000000	0.751656
1671.000000	0.746378
1672.000000	0.760997
1673.000000	0.769926
1674.000000	0.784167
1675.000000	0.786887
1676.000000	0.791874
1677.000000	0.809846
1678.000000	0.805749
1679.000000	0.814999
1680.000000	0.807735
1681.000000	0.824703
1682.000000	0.845080
1683.000000	0.830222
1684.000000	0.848438
1685.000000	0.851932
1686.000000	0.852040
1687.000000	0.856074
1688.000000	0.851999
1689.000000	0.869287
1690.000000	0.850583
1691.000000	0.860021
1692.000000	0.841580
1693.000000	0.844510
1694.000000	0.825996
1695.000000	0.827698
1696.000000	0.822720
1697.000000	0.816789
1698.000000	0.804539
1699.000000	0.809627
1700.000000	0.809392
1701.000000	0.802718
1702.000000	0.790972
1703.000000	0.803941
1704.000000	0.774161
1705.000000	0.778738
1706.000000	0.777188
1707.000000	0.781545
1708.000000	0.778635
1709.000000	0.782962
1710.000000	0.779987
1711.000000	0.758568
1712.000000	0.781510
1713.000000	0.774450
1714.000000	0.773983
1715.000000	0.790040
1716.000000	0.792780
1717.000000	0.793476
1718.000000	0.798272
1719.000000	0.803637
1720.000000	0.796823
1721.000000	0.812007
1722.000000	0.791035
1723.000000	0.797154
1724.000000	0.814219
1725.000000	0.793022
1726.000000	0.792310
1727.000000	0.792950
1728.000000	0.791294
1729.000000	0.788023
1730.000000	0.779700
1731.000000	0.763010
1732.000000	0.762130
1733.000000	0.768464
1734.000000	0.776535
1735.000000	0.774054
1736.000000	0.768145
1737.000000	0.750309
1738.000000	0.750394
1739.000000	0.742832
1740.000000	0.760036
1741.000000	0.741445
1742.000000	0.740835
1743.000000	0.746722
1744.000000	0.721159
1745.000000	0.721044
1746.000000	0.720285
1747.000000	0.716106
1748.000000	0.711428
1749.000000	0.708050
1750.000000	0.701503
1751.000000	0.693141
1752.000000	0.703588
1753.000000	0.693336
1754.000000	0.686417
1755.000000	0.695864
1756.000000	0.686915
1757.000000	0.696279
1758.000000	0.700889
1759.000000	0.690065
1760.000000	0.692773
1761.000000	0.685175
1762.000000	0.693407
1763.000000	0.697265
1764.000000	0.687906
1765.000000	0.692078
1766.000000	0.698672
1767.000000	0.691382
1768.000000	0.706671
1769.000000	0.708147
1770.000000	0.711183
1771.000000	0.700879
1772.000000	0.698204
1773.000000	0.696266
1774.000000	0.694092
1775.000000	0.696131
1776.000000	0.704333
1777.000000	0.705562
1778.000000	0.712783
1779.000000	0.716213
1780.000000	0.715500
1781.000000	0.719459
1782.000000	0.726006
1783.000000	0.722237
1784.000000	0.715746
1785.000000	0.724460
1786.000000	0.719288
1787.000000	0.716891
1788.000000	0.733085
1789.000000	0.735695
1790.000000	0.738449
1791.000000	0.745340
1792.000000	0.749139
1793.000000	0.752240
1794.000000	0.748858
1795.000000	0.756943
1796.000000	0.757273
1797.000000	0.759245
1798.000000	0.748200
1799.000000	0.749127
1800.000000	0.764135
1801.000000	0.763011
1802.000000	0.761097
1803.000000	0.767374
1804.000000	0.768442
1805.000000	0.762239
1806.000000	0.768291
1807.000000	0.775891
1808.000000	0.776004
1809.000000	0.773539
1810.000000	0.779052
1811.000000	0.775570
1812.000000	0.772994
1813.000000	0.783884
1814.000000	0.780125
1815.000000	0.779102
1816.000000	0.773568
1817.000000	0.774815
1818.000000	0.776055
1819.000000	0.774530
1820.000000	0.777886
1821.000000	0.778191
1822.000000	0.772178
1823.000000	0.775712
1824.000000	0.783267
1825.000000	0.783067
1826.000000	0.787065
1827.000000	0.773327
1828.000000	0.768339
1829.000000	0.767054
1830.000000	0.756778
1831.000000	0.758775
1832.000000	0.763982
1833.000000	0.755810
1834.000000	0.757625
1835.000000	0.767005
1836.000000	0.761025
1837.000000	0.745682
1838.000000	0.734073
1839.000000	0.730240
1840.000000	0.730319
1841.000000	0.730210
1842.000000	0.707860
1843.000000	0.701479
1844.000000	0.703250
1845.000000	0.712649
1846.000000	0.721071
1847.000000	0.724482
1848.000000	0.714812
1849.000000	0.689384
1850.000000	0.688108
1851.000000	0.697845
1852.000000	0.710890
1853.000000	0.695707
1854.000000	0.685424
1855.000000	0.689860
1856.000000	0.681640
1857.000000	0.684038
1858.000000	0.682638
1859.000000	0.684223
1860.000000	0.685895
1861.000000	0.679806
1862.000000	0.684974
1863.000000	0.681344
1864.000000	0.676715
1865.000000	0.672485
1866.000000	0.667856
1867.000000	0.684765
1868.000000	0.676979
1869.000000	0.667544
1870.000000	0.658550
1871.000000	0.647485
1872.000000	0.637984
1873.000000	0.634937
1874.000000	0.655357
1875.000000	0.666764
1876.000000	0.665753
1877.000000	0.671412
1878.000000	0.679936
1879.000000	0.687941
1880.000000	0.700003
1881.000000	0.716420
1882.000000	0.714607
1883.000000	0.719181
1884.000000	0.729633
1885.000000	0.736462
1886.000000	0.752891
1887.000000	0.747732
1888.000000	0.754243
1889.000000	0.761743
1890.000000	0.779164
1891.000000	0.788543
1892.000000	0.784274
1893.000000	0.790951
1894.000000	0.801548
1895.000000	0.810734
1896.000000	0.826095
1897.000000	0.843665
1898.000000	0.849060
1899.000000	0.842803
1900.000000	0.835858
1901.000000	0.833441
1902.000000	0.836814
1903.000000	0.840687
1904.000000	0.837406
1905.000000	0.845574
1906.000000	0.844015
1907.000000	0.821602
1908.000000	0.844536
1909.000000	0.839111
1910.000000	0.840243
1911.000000	0.841395
1912.000000	0.823928
1913.000000	0.833256
1914.000000	0.814828
1915.000000	0.813032
1916.000000	0.827479
1917.000000	0.823279
1918.000000	0.806537
1919.000000	0.803175
1920.000000	0.798156
1921.000000	0.795479
1922.000000	0.792689
1923.000000	0.783281
1924.000000	0.797003
1925.000000	0.801895
1926.000000	0.788612
1927.000000	0.792307
1928.000000	0.793905
1929.000000	0.777838
1930.000000	0.786434
1931.000000	0.794716
1932.000000	0.797803
1933.000000	0.785772
1934.000000	0.792218
1935.000000	0.780074
1936.000000	0.796465
1937.000000	0.801575
1938.000000	0.795969
1939.000000	0.782518
1940.000000	0.810145
1941.000000	0.807575
1942.000000	0.800193
1943.000000	0.815158
1944.000000	0.814113
1945.000000	0.816618
1946.000000	0.820574
1947.000000	0.824560
1948.000000	0.818847
1949.000000	0.827275
1950.000000	0.828354
1951.000000	0.830462
1952.000000	0.832659
1953.000000	0.844791
1954.000000	0.849076
1955.000000	0.844566
1956.000000	0.846655
1957.000000	0.836275
1958.000000	0.863177
1959.000000	0.859223
1960.000000	0.853539
1961.000000	0.853682
1962.000000	0.843827
1963.000000	0.861848
1964.000000	0.869680
1965.000000	0.877577
1966.000000	0.876846
1967.000000	0.870332
1968.000000	0.889987
1969.000000	0.874173
1970.000000	0.873204
1971.000000	0.868479
1972.000000	0.890259
1973.000000	0.884582
1974.000000	0.892454
1975.000000	0.885176
1976.000000	0.877909
1977.000000	0.885441
1978.000000	0.889500
1979.000000	0.899072
1980.000000	0.896583
1981.000000	0.900205
1982.000000	0.902442
1983.000000	0.903432
1984.000000	0.904155
1985.000000	0.897308
1986.000000	0.894474
1987.000000	0.896632
1988.000000	0.905253
1989.000000	0.903311
1990.000000	0.919608
1991.000000	0.890016
1992.000000	0.906305
1993.000000	0.906232
1994.000000	0.907232
1995.000000	0.908081
1996.000000	0.908422
1997.000000	0.896752
1998.000000	0.893063
1999.000000	0.890334
2000.000000	0.891346
2001.000000	0.887021
2002.000000	0.894292
2003.000000	0.893029
2004.000000	0.888440
2005.000000	0.896464
2006.000000	0.898338
2007.000000	0.897300
2008.000000	0.883129
2009.000000	0.900063
2010.000000	0.900221
2011.000000	0.893908
2012.000000	0.890782
2013.000000	0.896086
2014.000000	0.891851
2015.000000	0.887702
2016.000000	0.885106
2017.000000	0.904621
2018.000000	0.895703
2019.000000	0.896594
2020.000000	0.897003
2021.000000	0.874843
2022.000000	0.871320
2023.000000	0.876817
2024.000000	0.888889
2025.000000	0.880764
2026.000000	0.883350
2027.000000	0.879497
2028.000000	0.883527
2029.000000	0.877716
2030.000000	0.886017
2031.000000	0.886049
2032.000000	0.886873
2033.000000	0.882452
2034.000000	0.874625
2035.000000	0.862707
2036.000000	0.862086
2037.000000	0.871673
2038.000000	0.862611
2039.000000	0.853988
2040.000000	0.856203
2041.000000	0.863443
2042.000000	0.849105
2043.000000	0.850269
2044.000000	0.849516
2045.000000	0.859251
2046.000000	0.848293
2047.000000	0.844643
2048.000000	0.843155
2049.000000	0.836009
2050.000000	0.836733
2051.000000	0.830555
2052.000000	0.825272
2053.000000	0.824800
2054.000000	0.815157
2055.000000	0.823663
2056.000000	0.824893
2057.000000	0.806822
2058.000000	0.803738
2059.000000	0.802675
2060.000000	0.792695
2061.000000	0.790721
2062.000000	0.788811
2063.000000	0.792474
2064.000000	0.801715
2065.000000	0.796190
2066.000000	0.782848
2067.000000	0.781219
2068.000000	0.783901
2069.000000	0.779803
2070.000000	0.766899
2071.000000	0.766487
2072.000000	0.768579
2073.000000	0.764143
2074.000000	0.762070
2075.000000	0.753472
2076.000000	0.753331
2077.000000	0.758287
2078.000000	0.760414
2079.000000	0.764264
2080.000000	0.760239
2081.000000	0.749554
2082.000000	0.747025
2083.000000	0.738678
2084.000000	0.741246
2085.000000	0.752991
2086.000000	0.749836
2087.000000	0.740069
2088.000000	0.743398
2089.000000	0.745646
2090.000000	0.739280
2091.000000	0.730486
2092.000000	0.732298
2093.000000	0.733844
2094.000000	0.720957
2095.000000	0.713933
2096.000000	0.721051
2097.000000	0.722137
2098.000000	0.719712
2099.000000	0.723530
2100.000000	0.725923
2101.000000	0.721575
2102.000000	0.717910
2103.000000	0.723172
2104.000000	0.720237
2105.000000	0.710959
2106.000000	0.709587
2107.000000	0.719068
2108.000000	0.712567
2109.000000	0.704965
2110.000000	0.709042
2111.000000	0.708272
2112.000000	0.699458
2113.000000	0.699006
2114.000000	0.698181
2115.000000	0.697798
2116.000000	0.698063
2117.000000	0.686159
2118.000000	0.683018
2119.000000	0.678438
2120.000000	0.680356
2121.000000	0.686332
2122.000000	0.682022
2123.000000	0.689970
2124.000000	0.691281
2125.000000	0.676477
2126.000000	0.677183
2127.000000	0.691499
2128.000000	0.683857
2129.000000	0.670856
2130.000000	0.677551
2131.000000	0.674652
2132.000000	0.667442
2133.000000	0.669782
2134.000000	0.668249
2135.000000	0.678852
2136.000000	0.671760
2137.000000	0.674843
2138.000000	0.680237
2139.000000	0.670281
2140.000000	0.681247
2141.000000	0.670260
2142.000000	0.678010
2143.000000	0.686532
2144.000000	0.677401
2145.000000	0.685156
2146.000000	0.681774
2147.000000	0.688131
2148.000000	0.680016
2149.000000	0.688787
2150.000000	0.694729
2151.000000	0.687174
2152.000000	0.684673
2153.000000	0.683047
2154.000000	0.686730
2155.000000	0.703093
2156.000000	0.711097
2157.000000	0.707654
2158.000000	0.690541
2159.000000	0.693113
2160.000000	0.711748
2161.000000	0.702901
2162.000000	0.704815
2163.000000	0.709456
2164.000000	0.708896
2165.000000	0.704899
2166.000000	0.700757
2167.000000	0.698737
2168.000000	0.712657
2169.000000	0.724115
2170.000000	0.715336
2171.000000	0.697843
2172.000000	0.710902
2173.000000	0.720660
2174.000000	0.711384
2175.000000	0.713762
2176.000000	0.706202
2177.000000	0.705113
2178.000000	0.706089
2179.000000	0.716266
2180.000000	0.713996
2181.000000	0.701068
2182.000000	0.699238
2183.000000	0.703596
2184.000000	0.695988
2185.000000	0.689595
2186.000000	0.683982
2187.000000	0.692305
2188.000000	0.689680
2189.000000	0.672464
2190.000000	0.658070
2191.000000	0.662471
2192.000000	0.661243
2193.000000	0.647459
2194.000000	0.643511
2195.000000	0.639172
2196.000000	0.619494
2197.000000	0.602832
2198.000000	0.610881
2199.000000	0.590849
2200.000000	0.585338
2201.000000	0.573003
2202.000000	0.560242
2203.000000	0.553764
2204.000000	0.544810
2205.000000	0.522292
2206.000000	0.532535
2207.000000	0.526995
2208.000000	0.523262
2209.000000	0.523428
2210.000000	0.502087
2211.000000	0.501872
2212.000000	0.509320
2213.000000	0.496174
2214.000000	0.496527
2215.000000	0.505874
2216.000000	0.494115
2217.000000	0.515384
2218.000000	0.509809
2219.000000	0.512508
2220.000000	0.518067
2221.000000	0.498680
2222.000000	0.520898
2223.000000	0.515757
2224.000000	0.525477
2225.000000	0.516301
2226.000000	0.526208
2227.000000	0.518549
2228.000000	0.517382
2229.000000	0.527293
2230.000000	0.519137
2231.000000	0.519439
2232.000000	0.529086
2233.000000	0.520965
2234.000000	0.517339
2235.000000	0.521859
2236.000000	0.516707
2237.000000	0.507855
2238.000000	0.522532
2239.000000	0.502373
2240.000000	0.522944
2241.000000	0.515046
2242.000000	0.514127
2243.000000	0.509043
2244.000000	0.501125
2245.000000	0.523847
2246.000000	0.499559
2247.000000	0.486698
2248.000000	0.510760
2249.000000	0.528029
2250.000000	0.511124
2251.000000	0.505414
2252.000000	0.501613
2253.000000	0.500254
2254.000000	0.490016
2255.000000	0.524234
2256.000000	0.514848
2257.000000	0.497311
2258.000000	0.500846
2259.000000	0.501038
2260.000000	0.498840
2261.000000	0.512920
2262.000000	0.500079
2263.000000	0.509628
2264.000000	0.513625
2265.000000	0.499821
2266.000000	0.505206
2267.000000	0.499181
2268.000000	0.516729
2269.000000	0.503765
2270.000000	0.501223
2271.000000	0.495436
2272.000000	0.504381
2273.000000	0.503089
2274.000000	0.503414
2275.000000	0.489595
2276.000000	0.496750
2277.000000	0.492370
2278.000000	0.493478
2279.000000	0.495731
2280.000000	0.511820
2281.000000	0.497769
2282.000000	0.504536
2283.000000	0.492871
2284.000000	0.500312
2285.000000	0.497039
2286.000000	0.494169
2287.000000	0.510203
2288.000000	0.502579
2289.000000	0.501229
2290.000000	0.498609
2291.000000	0.494858
2292.000000	0.496887
2293.000000	0.496503
2294.000000	0.500801
2295.000000	0.491938
2296.000000	0.491516
2297.000000	0.495890
2298.000000	0.492905
2299.000000	0.489917
2300.000000	0.482071
2301.000000	0.487963
2302.000000	0.499415
2303.000000	0.489339
2304.000000	0.488382
2305.000000	0.497101
2306.000000	0.479417
2307.000000	0.475341
2308.000000	0.492628
2309.000000	0.493859
2310.000000	0.482416
2311.000000	0.484228
2312.000000	0.491134
2313.000000	0.483477
2314.000000	0.477277
2315.000000	0.482421
2316.000000	0.471209
2317.000000	0.476787
2318.000000	0.480890
2319.000000	0.490787
2320.000000	0.493668
2321.000000	0.492989
2322.000000	0.489659
2323.000000	0.486434
2324.000000	0.490735
2325.000000	0.479446
2326.000000	0.476705
2327.000000	0.484506
2328.000000	0.478674
2329.000000	0.481419
2330.000000	0.494028
2331.000000	0.481542
2332.000000	0.486766
2333.000000	0.473101
2334.000000	0.472911
2335.000000	0.476786
2336.000000	0.474634
2337.000000	0.471439
2338.000000	0.463659
2339.000000	0.457684
2340.000000	0.471779
2341.000000	0.472883
2342.000000	0.475550
2343.000000	0.472156
2344.000000	0.462383
2345.000000	0.451337
2346.000000	0.453632
2347.000000	0.459028
2348.000000	0.455001
2349.000000	0.453432
2350.000000	0.455096
2351.000000	0.447477
2352.000000	0.436676
2353.000000	0.437628
2354.000000	0.456351
2355.000000	0.458293
2356.000000	0.446959
2357.000000	0.443315
2358.000000	0.443240
2359.000000	0.444792
2360.000000	0.446863
2361.000000	0.441917
2362.000000	0.436696
2363.000000	0.441406
2364.000000	0.442466
2365.000000	0.448599
2366.000000	0.437825
2367.000000	0.422375
2368.000000	0.424819
2369.000000	0.432523
2370.000000	0.428909
2371.000000	0.429037
2372.000000	0.429158
2373.000000	0.426460
2374.000000	0.432402
2375.000000	0.430274
2376.000000	0.427272
2377.000000	0.420186
2378.000000	0.413628
2379.000000	0.407851
2380.000000	0.404507
2381.000000	0.410004
2382.000000	0.407466
2383.000000	0.411825
2384.000000	0.413188
2385.000000	0.409376
2386.000000	0.414328
2387.000000	0.404589
2388.000000	0.403500
2389.000000	0.397727
2390.000000	0.404742
2391.000000	0.414042
2392.000000	0.409632
2393.000000	0.391923
2394.000000	0.391865
2395.000000	0.392350
2396.000000	0.389580
2397.000000	0.390020
2398.000000	0.380247
2399.000000	0.368866
2400.000000	0.366623
2401.000000	0.370911
2402.000000	0.374003
2403.000000	0.374404
2404.000000	0.365437
2405.000000	0.360119
2406.000000	0.349362
2407.000000	0.356323
2408.000000	0.350382
2409.000000	0.354322
2410.000000	0.351123
2411.000000	0.350179
2412.000000	0.343205
2413.000000	0.337952
2414.000000	0.340192
2415.000000	0.331660
2416.000000	0.329511
2417.000000	0.335954
2418.000000	0.334473
2419.000000	0.304464
2420.000000	0.291247
2421.000000	0.282264
2422.000000	0.291941
2423.000000	0.296729
2424.000000	0.282625
2425.000000	0.280797
2426.000000	0.283890
2427.000000	0.292065
2428.000000	0.306676
2429.000000	0.308979
2430.000000	0.295781
2431.000000	0.301540
2432.000000	0.288664
2433.000000	0.297097
2434.000000	0.300554
2435.000000	0.308610
2436.000000	0.300046
2437.000000	0.287020
2438.000000	0.292345
2439.000000	0.303557
2440.000000	0.301372
2441.000000	0.291809
2442.000000	0.306214
2443.000000	0.304817
2444.000000	0.291781
2445.000000	0.313404
2446.000000	0.308366
2447.000000	0.309125
2448.000000	0.291894
2449.000000	0.293352
2450.000000	0.286409
2451.000000	0.289359
2452.000000	0.304263
2453.000000	0.305788
2454.000000	0.300837
2455.000000	0.306446
2456.000000	0.318074
2457.000000	0.302955
2458.000000	0.294977
2459.000000	0.316973
2460.000000	0.305616
2461.000000	0.297301
2462.000000	0.306169
2463.000000	0.291885
2464.000000	0.265137
2465.000000	0.293724
2466.000000	0.242617
2467.000000	0.298350
2468.000000	0.291076
2469.000000	0.279567
2470.000000	0.311268
2471.000000	0.287189
2472.000000	0.278783
2473.000000	0.301481
2474.000000	0.283455
2475.000000	0.287164
2476.000000	0.297259
2477.000000	0.294193
2478.000000	0.271486
2479.000000	0.264286
2480.000000	0.281400
2481.000000	0.300443
2482.000000	0.303640
2483.000000	0.236343
2484.000000	0.253919
2485.000000	0.274647
2486.000000	0.223974
2487.000000	0.244992
2488.000000	0.289138
2489.000000	0.320670
2490.000000	0.252364
2491.000000	0.231721
2492.000000	0.269282
2493.000000	0.327268
2494.000000	0.298180
2495.000000	0.339631
2496.000000	0.293744
2497.000000	0.246125
2498.000000	0.266764
2499.000000	0.384343
2500.000000	0.294540
