PE UV       SUBTECH     SPECTRUM    ASCII       PEDS        4.00        
   -1
INBUCR0112-5.Sample.ASC
24/02/12
13:04:26.00
24/02/12
13:04:26.00
Vinicio Soto Monge
Strigidia belti. Color verde oscuro metálico sin élitro derecho COSTA RICA Prov. Alajuela. Guatuso. P.N V. Tenorio. Laguna La Carmela Finca Juan Jarquín. 700-800 m. 25 ABR 2009. J.A Azofeifa. Tp. Luz Mercurio L_N_298300_425900 #96550 INB0004211063 
250,000000
1
Lambda 1050
1050L1511233
PerkinElmer UV WinLab 6.3.2.0749 / 2.02.05 Lambda 900 UV/VIS/NIR, Aug  7 2015 09:38:08

0
0
3350/servo 860,8/2
0
0
UV/VIS
1
1
1
DoubleDePol,CommonBeamDepol,RBeamAtt,SBeamAtt,60mm sphere, WB InGaAs Detector
0
0
0
0
Program
Program
3350/servo 860,8/2
3350/0,2 860,8/0,2
3350/0,2 860,8/0,2
0
15.00
 
 
 
0
 
860,8
150
860,8
Front
100
on
S:100 R:100
0
0
0
0
 
0
 
 
 
0
 
 
0
0
0
0
0
 
 
 
 
0
0


0
0
#HDR
-1
-1
#GR
nm
%R
1.0
0.0
2500,000000
-1,000000
2251
8
21,717400
1,582400
#DATA

250.000000	5.187289
251.000000	5.170142
252.000000	5.171307
253.000000	5.201662
254.000000	5.204526
255.000000	5.243379
256.000000	5.188713
257.000000	5.157844
258.000000	5.216842
259.000000	5.196127
260.000000	5.236142
261.000000	5.300348
262.000000	5.279765
263.000000	5.297341
264.000000	5.289275
265.000000	5.271055
266.000000	5.355403
267.000000	4.756521
268.000000	5.366888
269.000000	5.367118
270.000000	4.754049
271.000000	4.822991
272.000000	4.766005
273.000000	4.776077
274.000000	5.434541
275.000000	4.818448
276.000000	4.798716
277.000000	4.841788
278.000000	5.438272
279.000000	5.423869
280.000000	5.418542
281.000000	5.435379
282.000000	5.433171
283.000000	5.455655
284.000000	5.468163
285.000000	5.455574
286.000000	5.434256
287.000000	5.448206
288.000000	5.469977
289.000000	5.465688
290.000000	5.449861
291.000000	5.478551
292.000000	5.457906
293.000000	5.462084
294.000000	5.454221
295.000000	5.465276
296.000000	5.450001
297.000000	5.462872
298.000000	5.451685
299.000000	5.483615
300.000000	5.463911
301.000000	5.445704
302.000000	5.454451
303.000000	5.461107
304.000000	5.464447
305.000000	5.462756
306.000000	5.458746
307.000000	5.462808
308.000000	5.477935
309.000000	5.458560
310.000000	5.454202
311.000000	5.439763
312.000000	5.435158
313.000000	5.440106
314.000000	5.443804
315.000000	5.443062
316.000000	5.422952
317.000000	5.140303
318.000000	5.225750
319.000000	5.192042
320.000000	5.122399
321.000000	5.189046
322.000000	5.282139
323.000000	5.296148
324.000000	5.340465
325.000000	5.268799
326.000000	5.287130
327.000000	5.291920
328.000000	5.320212
329.000000	5.299828
330.000000	5.264520
331.000000	5.308414
332.000000	5.314424
333.000000	5.387075
334.000000	5.355898
335.000000	5.330230
336.000000	5.337133
337.000000	5.402823
338.000000	5.389601
339.000000	5.330845
340.000000	5.368019
341.000000	5.409380
342.000000	5.436468
343.000000	5.406364
344.000000	5.384981
345.000000	5.388782
346.000000	5.376198
347.000000	5.368612
348.000000	5.404830
349.000000	5.380293
350.000000	5.429416
351.000000	5.416183
352.000000	5.408194
353.000000	5.400275
354.000000	5.434660
355.000000	5.425595
356.000000	5.422158
357.000000	5.425090
358.000000	5.417960
359.000000	5.431425
360.000000	5.423109
361.000000	5.424187
362.000000	5.458595
363.000000	5.454674
364.000000	5.460135
365.000000	5.427947
366.000000	5.454044
367.000000	5.448885
368.000000	5.484607
369.000000	5.467945
370.000000	5.466731
371.000000	5.497073
372.000000	5.538459
373.000000	5.558416
374.000000	5.580735
375.000000	5.570797
376.000000	5.494308
377.000000	5.536855
378.000000	5.538670
379.000000	5.536954
380.000000	5.537352
381.000000	5.538711
382.000000	5.542067
383.000000	5.538574
384.000000	5.538338
385.000000	5.538730
386.000000	5.541648
387.000000	5.541526
388.000000	5.541196
389.000000	5.543910
390.000000	5.544247
391.000000	5.543361
392.000000	5.541804
393.000000	5.542629
394.000000	5.543080
395.000000	5.540732
396.000000	5.543555
397.000000	5.544881
398.000000	5.544820
399.000000	5.545432
400.000000	5.546005
401.000000	5.545330
402.000000	5.545004
403.000000	5.546010
404.000000	5.545239
405.000000	5.545285
406.000000	5.546307
407.000000	5.546014
408.000000	5.547366
409.000000	5.547981
410.000000	5.546049
411.000000	5.547723
412.000000	5.548180
413.000000	5.547469
414.000000	5.550169
415.000000	5.549014
416.000000	5.546427
417.000000	5.548559
418.000000	5.549127
419.000000	5.549391
420.000000	5.549896
421.000000	5.548903
422.000000	5.548725
423.000000	5.549404
424.000000	5.548499
425.000000	5.548717
426.000000	5.549951
427.000000	5.550495
428.000000	5.551671
429.000000	5.550803
430.000000	5.548883
431.000000	5.549670
432.000000	5.551123
433.000000	5.550150
434.000000	5.548899
435.000000	5.548747
436.000000	5.550109
437.000000	5.550831
438.000000	5.552002
439.000000	5.551030
440.000000	5.549653
441.000000	5.550073
442.000000	5.552212
443.000000	5.552516
444.000000	5.552107
445.000000	5.551331
446.000000	5.550354
447.000000	5.551155
448.000000	5.550053
449.000000	5.548532
450.000000	5.550000
451.000000	5.551995
452.000000	5.552920
453.000000	5.553038
454.000000	5.552193
455.000000	5.552474
456.000000	5.552840
457.000000	5.551973
458.000000	5.551956
459.000000	5.552511
460.000000	5.552216
461.000000	5.551763
462.000000	5.552516
463.000000	5.552811
464.000000	5.550972
465.000000	5.550827
466.000000	5.551745
467.000000	5.550814
468.000000	5.551395
469.000000	5.551846
470.000000	5.551719
471.000000	5.552256
472.000000	5.553016
473.000000	5.553719
474.000000	5.554175
475.000000	5.554848
476.000000	5.555888
477.000000	5.557046
478.000000	5.557349
479.000000	5.558366
480.000000	5.561301
481.000000	5.563626
482.000000	5.565452
483.000000	5.565711
484.000000	5.564697
485.000000	5.562880
486.000000	5.560971
487.000000	5.559210
488.000000	5.557349
489.000000	6.182175
490.000000	6.180513
491.000000	6.177731
492.000000	6.176248
493.000000	6.174180
494.000000	6.173599
495.000000	6.171194
496.000000	6.168962
497.000000	6.167283
498.000000	6.164219
499.000000	6.162313
500.000000	6.158893
501.000000	6.156026
502.000000	6.153206
503.000000	6.149873
504.000000	6.146853
505.000000	6.142359
506.000000	6.136218
507.000000	6.130799
508.000000	6.125689
509.000000	6.118186
510.000000	6.108996
511.000000	6.098744
512.000000	6.088893
513.000000	6.075774
514.000000	6.061221
515.000000	6.045172
516.000000	6.027017
517.000000	6.006433
518.000000	5.983970
519.000000	5.960585
520.000000	5.933439
521.000000	5.903389
522.000000	5.871140
523.000000	5.836388
524.000000	6.424040
525.000000	6.385738
526.000000	6.343265
527.000000	6.298904
528.000000	6.251566
529.000000	6.204326
530.000000	6.156929
531.000000	6.727184
532.000000	6.675577
533.000000	6.622256
534.000000	6.569589
535.000000	6.516207
536.000000	7.087827
537.000000	7.036284
538.000000	6.988849
539.000000	6.941492
540.000000	7.517663
541.000000	7.474831
542.000000	7.433824
543.000000	7.400299
544.000000	7.368147
545.000000	7.341261
546.000000	7.942311
547.000000	7.925897
548.000000	7.914530
549.000000	7.908771
550.000000	7.908586
551.000000	7.913909
552.000000	7.926356
553.000000	7.944816
554.000000	7.970560
555.000000	8.002471
556.000000	8.039629
557.000000	8.082490
558.000000	8.127870
559.000000	8.179169
560.000000	8.281911
561.000000	7.722629
562.000000	7.784524
563.000000	7.841709
564.000000	7.902351
565.000000	7.960701
566.000000	7.389158
567.000000	7.437995
568.000000	7.483871
569.000000	7.525121
570.000000	6.934068
571.000000	6.961781
572.000000	6.982648
573.000000	6.998853
574.000000	7.008065
575.000000	7.009717
576.000000	6.381413
577.000000	6.370439
578.000000	6.355356
579.000000	6.337602
580.000000	6.311991
581.000000	6.287355
582.000000	6.259446
583.000000	6.853393
584.000000	6.823470
585.000000	6.794112
586.000000	6.768627
587.000000	6.746584
588.000000	6.727972
589.000000	6.715853
590.000000	7.331342
591.000000	7.329413
592.000000	7.332252
593.000000	7.340720
594.000000	7.357195
595.000000	7.370740
596.000000	7.390898
597.000000	7.411729
598.000000	7.436676
599.000000	7.460295
600.000000	7.480905
601.000000	7.500478
602.000000	6.893693
603.000000	6.908050
604.000000	6.920066
605.000000	6.925140
606.000000	6.928325
607.000000	6.926431
608.000000	6.917989
609.000000	6.911310
610.000000	6.896201
611.000000	6.880938
612.000000	6.863954
613.000000	6.840404
614.000000	6.821126
615.000000	6.801086
616.000000	6.779528
617.000000	6.761353
618.000000	6.745299
619.000000	7.355741
620.000000	7.342994
621.000000	7.338110
622.000000	7.333921
623.000000	7.329904
624.000000	7.331136
625.000000	7.335340
626.000000	7.341437
627.000000	7.345188
628.000000	7.351524
629.000000	7.355583
630.000000	7.359073
631.000000	7.363113
632.000000	7.364943
633.000000	7.363037
634.000000	7.360183
635.000000	7.350433
636.000000	7.342316
637.000000	7.329383
638.000000	7.320659
639.000000	7.304082
640.000000	7.290168
641.000000	7.273087
642.000000	7.256093
643.000000	7.237584
644.000000	7.222707
645.000000	7.206712
646.000000	7.189841
647.000000	7.174953
648.000000	7.789754
649.000000	7.774520
650.000000	7.765190
651.000000	7.755054
652.000000	7.746475
653.000000	7.737888
654.000000	7.731130
655.000000	7.724531
656.000000	7.719301
657.000000	7.714175
658.000000	7.706783
659.000000	7.695054
660.000000	7.689203
661.000000	7.683336
662.000000	7.672426
663.000000	7.661452
664.000000	7.648851
665.000000	7.635417
666.000000	7.622166
667.000000	7.610527
668.000000	7.597752
669.000000	7.581380
670.000000	7.568313
671.000000	7.555854
672.000000	8.168768
673.000000	8.154637
674.000000	8.139959
675.000000	8.123550
676.000000	8.108069
677.000000	8.095114
678.000000	8.079310
679.000000	8.061689
680.000000	8.049257
681.000000	8.034685
682.000000	8.019111
683.000000	8.002851
684.000000	7.990614
685.000000	8.599549
686.000000	8.585451
687.000000	8.571274
688.000000	8.557506
689.000000	8.541783
690.000000	8.525866
691.000000	8.512061
692.000000	8.492679
693.000000	8.474722
694.000000	8.454947
695.000000	8.435770
696.000000	8.415186
697.000000	8.398710
698.000000	8.380244
699.000000	8.983718
700.000000	8.966396
701.000000	8.943311
702.000000	8.921260
703.000000	8.897988
704.000000	8.874596
705.000000	8.859157
706.000000	8.835704
707.000000	8.814830
708.000000	8.794838
709.000000	9.398289
710.000000	9.379405
711.000000	9.357538
712.000000	9.338717
713.000000	9.316883
714.000000	9.300281
715.000000	9.281389
716.000000	9.263884
717.000000	9.246733
718.000000	9.229699
719.000000	9.205504
720.000000	9.183338
721.000000	9.160957
722.000000	9.767107
723.000000	9.747233
724.000000	9.729630
725.000000	9.709418
726.000000	9.687006
727.000000	9.661239
728.000000	9.641757
729.000000	9.624810
730.000000	9.600597
731.000000	10.204281
732.000000	10.186029
733.000000	10.166191
734.000000	10.142943
735.000000	10.125553
736.000000	10.107739
737.000000	10.085786
738.000000	10.070331
739.000000	10.048895
740.000000	10.027560
741.000000	10.012729
742.000000	9.994196
743.000000	10.593805
744.000000	10.574395
745.000000	10.556105
746.000000	10.537325
747.000000	10.518126
748.000000	10.498431
749.000000	10.479860
750.000000	10.457298
751.000000	10.437965
752.000000	10.413525
753.000000	11.010955
754.000000	10.996280
755.000000	10.981129
756.000000	10.959556
757.000000	10.945053
758.000000	10.923888
759.000000	10.896451
760.000000	10.876874
761.000000	10.854671
762.000000	10.832861
763.000000	11.438045
764.000000	11.416135
765.000000	11.395549
766.000000	11.379433
767.000000	11.360640
768.000000	11.334868
769.000000	11.317617
770.000000	11.292204
771.000000	11.264198
772.000000	11.254473
773.000000	11.853331
774.000000	11.828283
775.000000	11.799801
776.000000	11.785140
777.000000	11.772534
778.000000	11.746557
779.000000	11.717832
780.000000	11.692103
781.000000	11.674266
782.000000	12.271509
783.000000	12.247440
784.000000	12.232351
785.000000	12.212871
786.000000	12.183825
787.000000	12.161566
788.000000	12.146446
789.000000	12.123495
790.000000	12.099119
791.000000	12.073228
792.000000	12.060894
793.000000	12.655582
794.000000	12.639088
795.000000	12.612568
796.000000	12.590988
797.000000	12.569530
798.000000	12.545911
799.000000	12.529486
800.000000	12.505498
801.000000	13.095837
802.000000	13.068318
803.000000	13.048821
804.000000	13.035640
805.000000	13.009307
806.000000	12.975835
807.000000	12.958575
808.000000	12.921656
809.000000	12.891072
810.000000	12.874240
811.000000	13.477194
812.000000	13.463842
813.000000	13.434754
814.000000	13.397340
815.000000	13.395204
816.000000	13.362557
817.000000	13.345098
818.000000	13.329100
819.000000	13.308951
820.000000	13.903319
821.000000	13.871091
822.000000	13.859735
823.000000	13.857970
824.000000	13.816033
825.000000	13.791028
826.000000	13.768508
827.000000	13.757601
828.000000	13.747097
829.000000	13.731215
830.000000	14.326644
831.000000	14.302065
832.000000	14.290566
833.000000	14.286634
834.000000	14.244745
835.000000	14.236351
836.000000	14.239341
837.000000	14.227081
838.000000	14.199356
839.000000	14.193866
840.000000	14.798511
841.000000	14.165302
842.000000	14.766175
843.000000	14.734808
844.000000	14.771975
845.000000	14.689130
846.000000	14.725013
847.000000	14.738100
848.000000	14.748150
849.000000	14.683235
850.000000	14.680579
851.000000	14.704477
852.000000	14.689841
853.000000	14.672081
854.000000	15.348897
855.000000	15.310754
856.000000	15.277982
857.000000	15.147994
858.000000	21.080390
859.000000	15.357217
860.000000	15.337842
861.000000	14.813271
862.000000	15.774693
863.000000	15.249658
864.000000	15.218893
865.000000	14.701342
866.000000	14.673712
867.000000	14.155496
868.000000	14.627611
869.000000	14.604841
870.000000	14.590887
871.000000	14.575703
872.000000	14.549234
873.000000	14.526405
874.000000	14.990922
875.000000	14.484803
876.000000	13.973027
877.000000	13.955986
878.000000	13.936651
879.000000	14.405040
880.000000	13.889608
881.000000	14.356117
882.000000	13.851161
883.000000	14.326559
884.000000	13.813932
885.000000	13.794606
886.000000	14.272110
887.000000	14.247453
888.000000	13.736168
889.000000	13.722282
890.000000	13.706450
891.000000	13.685721
892.000000	13.668814
893.000000	13.646028
894.000000	13.628870
895.000000	13.608200
896.000000	13.581579
897.000000	13.566490
898.000000	13.546271
899.000000	13.533368
900.000000	13.514880
901.000000	13.486630
902.000000	13.471534
903.000000	13.445902
904.000000	13.432460
905.000000	13.413158
906.000000	13.396021
907.000000	13.366111
908.000000	13.349781
909.000000	13.333886
910.000000	13.309217
911.000000	13.280268
912.000000	13.255998
913.000000	13.245424
914.000000	13.218398
915.000000	13.205392
916.000000	13.181013
917.000000	13.168191
918.000000	13.148182
919.000000	13.123996
920.000000	13.099374
921.000000	13.091843
922.000000	13.068578
923.000000	13.056773
924.000000	13.032454
925.000000	13.024787
926.000000	13.001815
927.000000	12.997658
928.000000	12.979074
929.000000	12.961811
930.000000	12.957557
931.000000	12.936208
932.000000	12.919253
933.000000	12.896659
934.000000	12.877670
935.000000	12.861698
936.000000	12.846393
937.000000	12.834303
938.000000	12.814344
939.000000	12.808543
940.000000	12.799835
941.000000	12.796295
942.000000	12.781657
943.000000	12.768083
944.000000	12.756193
945.000000	12.736628
946.000000	12.721479
947.000000	12.708161
948.000000	13.187897
949.000000	13.168950
950.000000	13.165056
951.000000	13.146800
952.000000	13.129440
953.000000	13.129412
954.000000	13.113975
955.000000	13.105925
956.000000	13.095932
957.000000	13.080097
958.000000	13.073565
959.000000	13.063720
960.000000	13.041631
961.000000	13.035233
962.000000	13.026574
963.000000	13.014587
964.000000	13.005650
965.000000	12.994745
966.000000	12.983476
967.000000	12.977890
968.000000	12.969401
969.000000	12.964790
970.000000	12.951741
971.000000	12.937838
972.000000	12.934692
973.000000	12.922347
974.000000	12.911791
975.000000	12.901684
976.000000	12.896292
977.000000	12.888737
978.000000	12.880017
979.000000	12.874820
980.000000	12.866579
981.000000	12.860432
982.000000	12.841910
983.000000	12.838784
984.000000	12.833333
985.000000	12.825329
986.000000	12.819682
987.000000	12.817637
988.000000	12.807709
989.000000	13.286555
990.000000	12.790127
991.000000	13.271753
992.000000	13.268447
993.000000	13.262469
994.000000	13.256267
995.000000	13.249341
996.000000	13.235951
997.000000	13.236059
998.000000	13.234723
999.000000	13.217255
1000.000000	13.209499
1001.000000	13.206976
1002.000000	13.194178
1003.000000	13.190771
1004.000000	13.187192
1005.000000	13.177302
1006.000000	13.176349
1007.000000	13.170742
1008.000000	13.163822
1009.000000	13.158583
1010.000000	13.151064
1011.000000	13.146256
1012.000000	13.143265
1013.000000	13.136396
1014.000000	13.132795
1015.000000	13.132795
1016.000000	13.119851
1017.000000	13.107334
1018.000000	13.103761
1019.000000	13.099544
1020.000000	13.094229
1021.000000	13.086347
1022.000000	13.077889
1023.000000	13.065046
1024.000000	13.056829
1025.000000	13.049417
1026.000000	13.041215
1027.000000	13.037703
1028.000000	13.033978
1029.000000	13.024723
1030.000000	13.020132
1031.000000	13.012659
1032.000000	13.006501
1033.000000	13.003334
1034.000000	12.991943
1035.000000	12.990798
1036.000000	12.991642
1037.000000	12.985532
1038.000000	13.458981
1039.000000	13.452049
1040.000000	13.452488
1041.000000	13.444723
1042.000000	13.436137
1043.000000	13.429593
1044.000000	13.425692
1045.000000	13.420754
1046.000000	13.417856
1047.000000	13.412077
1048.000000	13.399030
1049.000000	13.393146
1050.000000	13.391972
1051.000000	13.390108
1052.000000	13.385934
1053.000000	13.376258
1054.000000	13.370686
1055.000000	13.363410
1056.000000	13.355373
1057.000000	13.352275
1058.000000	13.351508
1059.000000	13.344543
1060.000000	13.337031
1061.000000	13.332350
1062.000000	13.330284
1063.000000	13.320942
1064.000000	13.316370
1065.000000	13.309376
1066.000000	13.299976
1067.000000	13.291241
1068.000000	13.285752
1069.000000	13.281109
1070.000000	13.275439
1071.000000	13.273867
1072.000000	13.276490
1073.000000	13.270418
1074.000000	13.259349
1075.000000	13.251768
1076.000000	13.251890
1077.000000	13.248661
1078.000000	13.237769
1079.000000	13.227144
1080.000000	13.229593
1081.000000	13.225493
1082.000000	13.217909
1083.000000	13.214016
1084.000000	13.208197
1085.000000	13.206944
1086.000000	13.207518
1087.000000	13.206819
1088.000000	13.199606
1089.000000	13.189550
1090.000000	13.674268
1091.000000	13.183547
1092.000000	13.665200
1093.000000	13.664407
1094.000000	13.662172
1095.000000	13.656381
1096.000000	13.658806
1097.000000	13.659489
1098.000000	13.650842
1099.000000	13.651761
1100.000000	13.652952
1101.000000	13.647445
1102.000000	13.637562
1103.000000	13.633669
1104.000000	13.635808
1105.000000	13.634674
1106.000000	13.633144
1107.000000	13.637613
1108.000000	13.643163
1109.000000	13.643864
1110.000000	13.643501
1111.000000	13.644061
1112.000000	13.644963
1113.000000	13.647012
1114.000000	13.651521
1115.000000	13.645617
1116.000000	13.647270
1117.000000	13.651838
1118.000000	13.644639
1119.000000	13.651158
1120.000000	13.649410
1121.000000	13.643500
1122.000000	13.644059
1123.000000	13.640748
1124.000000	13.638712
1125.000000	13.645096
1126.000000	13.649492
1127.000000	13.651536
1128.000000	13.651964
1129.000000	13.652535
1130.000000	13.177010
1131.000000	13.201455
1132.000000	13.218069
1133.000000	13.213354
1134.000000	13.195394
1135.000000	13.190883
1136.000000	13.213020
1137.000000	13.223108
1138.000000	13.238725
1139.000000	13.249418
1140.000000	13.254026
1141.000000	13.252775
1142.000000	13.262899
1143.000000	13.279332
1144.000000	13.275850
1145.000000	13.281697
1146.000000	13.277436
1147.000000	13.286575
1148.000000	13.288541
1149.000000	13.290136
1150.000000	13.298846
1151.000000	13.307808
1152.000000	13.307186
1153.000000	13.314505
1154.000000	13.330125
1155.000000	13.332888
1156.000000	13.343477
1157.000000	13.359653
1158.000000	12.882266
1159.000000	12.906345
1160.000000	12.916104
1161.000000	12.931006
1162.000000	12.942181
1163.000000	12.964529
1164.000000	12.981178
1165.000000	12.993481
1166.000000	13.006961
1167.000000	13.030331
1168.000000	13.030424
1169.000000	13.037756
1170.000000	13.059056
1171.000000	13.066264
1172.000000	13.074002
1173.000000	13.088998
1174.000000	13.088351
1175.000000	13.092884
1176.000000	13.089451
1177.000000	13.098197
1178.000000	13.106326
1179.000000	13.113172
1180.000000	13.123636
1181.000000	13.128207
1182.000000	13.128821
1183.000000	13.129842
1184.000000	13.135365
1185.000000	13.136690
1186.000000	13.138342
1187.000000	13.132598
1188.000000	13.131366
1189.000000	13.130473
1190.000000	13.124903
1191.000000	13.114621
1192.000000	13.117151
1193.000000	13.113379
1194.000000	13.104016
1195.000000	13.097244
1196.000000	13.095288
1197.000000	13.085511
1198.000000	13.083313
1199.000000	13.082952
1200.000000	13.078265
1201.000000	13.076321
1202.000000	13.064963
1203.000000	13.063669
1204.000000	13.063952
1205.000000	13.060936
1206.000000	13.050279
1207.000000	13.039291
1208.000000	13.039002
1209.000000	13.030589
1210.000000	13.029483
1211.000000	13.018936
1212.000000	13.013166
1213.000000	13.008787
1214.000000	13.001766
1215.000000	13.001064
1216.000000	12.999798
1217.000000	12.992619
1218.000000	12.985165
1219.000000	12.984153
1220.000000	12.983335
1221.000000	12.979552
1222.000000	12.974307
1223.000000	12.975586
1224.000000	12.979664
1225.000000	12.977130
1226.000000	12.969621
1227.000000	12.969695
1228.000000	13.456298
1229.000000	13.457937
1230.000000	13.466571
1231.000000	13.467539
1232.000000	13.468181
1233.000000	13.476198
1234.000000	13.469982
1235.000000	13.470280
1236.000000	13.469162
1237.000000	13.473058
1238.000000	13.476167
1239.000000	13.472371
1240.000000	13.467432
1241.000000	13.462263
1242.000000	13.462044
1243.000000	13.463113
1244.000000	13.456124
1245.000000	13.452822
1246.000000	13.447924
1247.000000	13.439481
1248.000000	13.434231
1249.000000	13.430223
1250.000000	13.427751
1251.000000	13.423762
1252.000000	13.421936
1253.000000	13.420605
1254.000000	13.418485
1255.000000	13.410064
1256.000000	13.403383
1257.000000	13.402657
1258.000000	13.405748
1259.000000	13.399673
1260.000000	13.395188
1261.000000	13.392392
1262.000000	13.387429
1263.000000	13.390507
1264.000000	13.385048
1265.000000	13.383378
1266.000000	13.382743
1267.000000	13.382396
1268.000000	13.384978
1269.000000	13.389171
1270.000000	13.390837
1271.000000	13.390641
1272.000000	13.389580
1273.000000	13.391197
1274.000000	13.393549
1275.000000	13.393252
1276.000000	13.389504
1277.000000	13.390951
1278.000000	13.390617
1279.000000	13.389150
1280.000000	13.389557
1281.000000	13.385193
1282.000000	13.384596
1283.000000	13.383494
1284.000000	13.383107
1285.000000	13.385217
1286.000000	13.381083
1287.000000	13.376948
1288.000000	13.376063
1289.000000	13.373136
1290.000000	13.368181
1291.000000	13.366653
1292.000000	13.367378
1293.000000	13.362920
1294.000000	13.360451
1295.000000	13.366387
1296.000000	13.365835
1297.000000	13.361075
1298.000000	13.361155
1299.000000	13.361687
1300.000000	13.359415
1301.000000	13.358089
1302.000000	13.356916
1303.000000	13.359134
1304.000000	13.363839
1305.000000	13.361819
1306.000000	13.361948
1307.000000	13.366091
1308.000000	13.369241
1309.000000	13.371376
1310.000000	13.376281
1311.000000	13.380578
1312.000000	13.383713
1313.000000	13.385828
1314.000000	13.388756
1315.000000	13.397947
1316.000000	13.407989
1317.000000	13.416167
1318.000000	13.417104
1319.000000	13.422393
1320.000000	13.428849
1321.000000	13.439831
1322.000000	13.446151
1323.000000	13.452564
1324.000000	13.462561
1325.000000	13.469730
1326.000000	13.477253
1327.000000	13.488256
1328.000000	13.496088
1329.000000	13.508012
1330.000000	13.523022
1331.000000	13.529779
1332.000000	13.536434
1333.000000	13.057474
1334.000000	13.073510
1335.000000	13.085990
1336.000000	13.099026
1337.000000	13.114923
1338.000000	13.123815
1339.000000	13.136026
1340.000000	13.150064
1341.000000	13.166555
1342.000000	13.186043
1343.000000	13.203308
1344.000000	13.224827
1345.000000	13.252486
1346.000000	13.268717
1347.000000	13.280006
1348.000000	13.298854
1349.000000	13.326871
1350.000000	12.860889
1351.000000	12.882780
1352.000000	12.906330
1353.000000	12.917766
1354.000000	12.907599
1355.000000	12.913465
1356.000000	12.938317
1357.000000	12.962519
1358.000000	12.983448
1359.000000	13.015404
1360.000000	13.003804
1361.000000	12.967375
1362.000000	12.491011
1363.000000	12.520310
1364.000000	12.523872
1365.000000	12.544494
1366.000000	12.576463
1367.000000	12.587081
1368.000000	12.119073
1369.000000	12.168582
1370.000000	12.202607
1371.000000	12.229495
1372.000000	12.288960
1373.000000	11.879815
1374.000000	11.947882
1375.000000	12.013991
1376.000000	12.098635
1377.000000	12.175072
1378.000000	11.771318
1379.000000	11.832672
1380.000000	11.877776
1381.000000	11.861920
1382.000000	11.868997
1383.000000	11.859874
1384.000000	11.394112
1385.000000	11.420819
1386.000000	11.440749
1387.000000	11.425961
1388.000000	11.407249
1389.000000	11.431262
1390.000000	11.457586
1391.000000	11.445146
1392.000000	11.439176
1393.000000	11.454776
1394.000000	11.441014
1395.000000	11.387793
1396.000000	11.397257
1397.000000	11.448757
1398.000000	11.498197
1399.000000	11.464163
1400.000000	11.417719
1401.000000	11.438691
1402.000000	11.511310
1403.000000	11.058222
1404.000000	11.049656
1405.000000	11.064535
1406.000000	11.102640
1407.000000	11.122009
1408.000000	11.141632
1409.000000	11.159784
1410.000000	11.200368
1411.000000	11.256486
1412.000000	11.285043
1413.000000	10.802288
1414.000000	10.800026
1415.000000	10.843252
1416.000000	10.891421
1417.000000	10.907393
1418.000000	10.913209
1419.000000	10.928929
1420.000000	10.958857
1421.000000	11.003974
1422.000000	11.027542
1423.000000	10.545214
1424.000000	10.562225
1425.000000	10.588615
1426.000000	10.612267
1427.000000	10.630563
1428.000000	10.635973
1429.000000	10.664136
1430.000000	10.685959
1431.000000	10.686790
1432.000000	10.694704
1433.000000	10.711791
1434.000000	10.728526
1435.000000	10.745718
1436.000000	10.757440
1437.000000	10.270621
1438.000000	10.276020
1439.000000	10.298558
1440.000000	10.309358
1441.000000	10.315051
1442.000000	10.327344
1443.000000	10.343457
1444.000000	10.352120
1445.000000	10.352548
1446.000000	10.360526
1447.000000	10.380399
1448.000000	10.404462
1449.000000	10.407609
1450.000000	10.407258
1451.000000	10.412694
1452.000000	10.431328
1453.000000	10.445228
1454.000000	10.448264
1455.000000	10.458185
1456.000000	9.972032
1457.000000	9.987425
1458.000000	10.001966
1459.000000	10.012616
1460.000000	10.022043
1461.000000	10.037197
1462.000000	10.048305
1463.000000	10.056603
1464.000000	10.071291
1465.000000	10.078270
1466.000000	10.092214
1467.000000	10.101745
1468.000000	10.113807
1469.000000	10.126078
1470.000000	10.130370
1471.000000	10.137662
1472.000000	10.150035
1473.000000	10.161722
1474.000000	10.182062
1475.000000	10.190191
1476.000000	10.199132
1477.000000	10.200476
1478.000000	9.709128
1479.000000	9.718224
1480.000000	9.715932
1481.000000	9.717333
1482.000000	9.726780
1483.000000	9.740995
1484.000000	9.743100
1485.000000	9.743633
1486.000000	9.744429
1487.000000	9.748353
1488.000000	9.754594
1489.000000	9.760446
1490.000000	9.764089
1491.000000	9.764392
1492.000000	9.767331
1493.000000	9.769572
1494.000000	9.774052
1495.000000	9.768156
1496.000000	9.760389
1497.000000	9.760589
1498.000000	9.758314
1499.000000	9.756536
1500.000000	9.747823
1501.000000	9.734382
1502.000000	9.725260
1503.000000	9.721306
1504.000000	10.211036
1505.000000	10.202379
1506.000000	10.195275
1507.000000	10.187553
1508.000000	10.178257
1509.000000	10.165295
1510.000000	10.157145
1511.000000	10.140850
1512.000000	10.134321
1513.000000	10.121580
1514.000000	10.107785
1515.000000	10.100252
1516.000000	10.092813
1517.000000	10.082998
1518.000000	10.075276
1519.000000	10.065689
1520.000000	10.051289
1521.000000	10.041672
1522.000000	10.036091
1523.000000	10.023139
1524.000000	10.011156
1525.000000	10.006242
1526.000000	9.992961
1527.000000	9.983433
1528.000000	9.980310
1529.000000	10.474002
1530.000000	10.463823
1531.000000	10.456112
1532.000000	10.446872
1533.000000	10.444566
1534.000000	10.439554
1535.000000	10.433748
1536.000000	10.433532
1537.000000	10.431284
1538.000000	10.427652
1539.000000	10.422290
1540.000000	10.413706
1541.000000	10.408445
1542.000000	10.403257
1543.000000	10.393964
1544.000000	10.389257
1545.000000	10.387998
1546.000000	10.381785
1547.000000	10.373250
1548.000000	10.368556
1549.000000	10.360659
1550.000000	10.351486
1551.000000	10.346232
1552.000000	10.335437
1553.000000	10.325321
1554.000000	10.318530
1555.000000	10.313168
1556.000000	10.307803
1557.000000	10.303728
1558.000000	10.301330
1559.000000	10.299540
1560.000000	10.300844
1561.000000	10.303562
1562.000000	10.303375
1563.000000	10.304214
1564.000000	10.311488
1565.000000	10.309337
1566.000000	10.306072
1567.000000	10.310605
1568.000000	10.312023
1569.000000	10.313951
1570.000000	10.317248
1571.000000	10.317416
1572.000000	10.316685
1573.000000	10.319133
1574.000000	10.317415
1575.000000	10.313724
1576.000000	10.314851
1577.000000	10.315833
1578.000000	10.312239
1579.000000	10.309227
1580.000000	10.307658
1581.000000	10.800157
1582.000000	10.794147
1583.000000	10.786978
1584.000000	10.784348
1585.000000	10.780886
1586.000000	10.775175
1587.000000	10.764917
1588.000000	10.759010
1589.000000	10.760301
1590.000000	10.756931
1591.000000	10.750342
1592.000000	10.740764
1593.000000	10.734187
1594.000000	10.733304
1595.000000	10.724215
1596.000000	10.714270
1597.000000	10.707215
1598.000000	10.701462
1599.000000	10.693717
1600.000000	10.685411
1601.000000	10.676633
1602.000000	10.667512
1603.000000	10.657937
1604.000000	10.646646
1605.000000	10.647429
1606.000000	10.639168
1607.000000	10.627201
1608.000000	10.620086
1609.000000	10.616045
1610.000000	10.610371
1611.000000	10.603371
1612.000000	10.603297
1613.000000	10.603336
1614.000000	10.595834
1615.000000	10.590246
1616.000000	11.079713
1617.000000	11.078800
1618.000000	11.077611
1619.000000	11.075019
1620.000000	11.071094
1621.000000	11.067918
1622.000000	11.064895
1623.000000	11.061987
1624.000000	11.059297
1625.000000	11.059258
1626.000000	11.052897
1627.000000	11.050301
1628.000000	11.050922
1629.000000	11.047072
1630.000000	11.041408
1631.000000	11.035213
1632.000000	11.031416
1633.000000	11.031571
1634.000000	11.029936
1635.000000	11.024612
1636.000000	11.021381
1637.000000	11.020751
1638.000000	11.022242
1639.000000	11.022237
1640.000000	11.020358
1641.000000	11.019617
1642.000000	11.015931
1643.000000	11.008077
1644.000000	11.008683
1645.000000	11.008059
1646.000000	11.003416
1647.000000	11.006828
1648.000000	11.010352
1649.000000	11.003077
1650.000000	11.004437
1651.000000	11.011313
1652.000000	11.018478
1653.000000	11.022552
1654.000000	11.028831
1655.000000	11.038124
1656.000000	11.044064
1657.000000	11.046668
1658.000000	11.065890
1659.000000	11.078016
1660.000000	10.598612
1661.000000	10.612066
1662.000000	10.627296
1663.000000	10.634582
1664.000000	10.651787
1665.000000	10.672851
1666.000000	10.687084
1667.000000	10.700928
1668.000000	10.752103
1669.000000	10.774647
1670.000000	10.795353
1671.000000	10.814088
1672.000000	10.836455
1673.000000	10.360922
1674.000000	10.385295
1675.000000	10.403694
1676.000000	10.425164
1677.000000	10.444177
1678.000000	10.466770
1679.000000	10.487504
1680.000000	10.516100
1681.000000	10.540783
1682.000000	10.572262
1683.000000	10.593549
1684.000000	10.120247
1685.000000	10.136463
1686.000000	10.151061
1687.000000	10.157339
1688.000000	10.157067
1689.000000	10.156649
1690.000000	10.145393
1691.000000	10.131200
1692.000000	10.116152
1693.000000	10.113002
1694.000000	10.104170
1695.000000	10.086901
1696.000000	10.085242
1697.000000	10.091242
1698.000000	10.078955
1699.000000	10.080787
1700.000000	10.085474
1701.000000	10.090099
1702.000000	10.094848
1703.000000	10.100841
1704.000000	10.110385
1705.000000	10.117632
1706.000000	10.127590
1707.000000	10.136464
1708.000000	10.143167
1709.000000	10.159296
1710.000000	10.181228
1711.000000	10.198878
1712.000000	10.217919
1713.000000	10.244137
1714.000000	9.759139
1715.000000	9.795768
1716.000000	9.820480
1717.000000	9.861785
1718.000000	9.884172
1719.000000	9.907047
1720.000000	9.925448
1721.000000	9.939759
1722.000000	9.946658
1723.000000	9.946648
1724.000000	9.946604
1725.000000	9.948360
1726.000000	9.940610
1727.000000	9.937570
1728.000000	9.921026
1729.000000	9.924261
1730.000000	9.912228
1731.000000	9.898960
1732.000000	9.883631
1733.000000	9.880102
1734.000000	9.874498
1735.000000	9.863746
1736.000000	9.845596
1737.000000	9.832867
1738.000000	9.827594
1739.000000	9.812404
1740.000000	9.797044
1741.000000	9.784943
1742.000000	9.772018
1743.000000	9.753609
1744.000000	10.246546
1745.000000	10.240764
1746.000000	10.230217
1747.000000	10.223381
1748.000000	10.217983
1749.000000	10.213675
1750.000000	10.206936
1751.000000	10.208360
1752.000000	10.208470
1753.000000	10.211051
1754.000000	10.207923
1755.000000	10.203868
1756.000000	10.203798
1757.000000	10.204352
1758.000000	10.207047
1759.000000	10.203032
1760.000000	10.201201
1761.000000	10.208008
1762.000000	10.199986
1763.000000	10.191881
1764.000000	10.184765
1765.000000	10.186004
1766.000000	10.178293
1767.000000	10.170420
1768.000000	10.158788
1769.000000	10.155860
1770.000000	10.154259
1771.000000	10.147214
1772.000000	10.139164
1773.000000	10.135249
1774.000000	10.126883
1775.000000	10.119222
1776.000000	10.110589
1777.000000	10.097102
1778.000000	10.092570
1779.000000	10.085824
1780.000000	10.078908
1781.000000	10.072869
1782.000000	10.079177
1783.000000	10.076762
1784.000000	10.069830
1785.000000	10.074253
1786.000000	10.074701
1787.000000	10.068739
1788.000000	10.565234
1789.000000	10.570873
1790.000000	10.565537
1791.000000	10.563849
1792.000000	10.566580
1793.000000	10.561035
1794.000000	10.560247
1795.000000	10.555605
1796.000000	10.556209
1797.000000	10.564844
1798.000000	10.569362
1799.000000	10.566679
1800.000000	10.549892
1801.000000	10.539658
1802.000000	10.543848
1803.000000	10.552993
1804.000000	10.557577
1805.000000	10.542812
1806.000000	10.527973
1807.000000	10.528861
1808.000000	10.548252
1809.000000	10.558005
1810.000000	10.551779
1811.000000	10.537015
1812.000000	10.531221
1813.000000	10.538605
1814.000000	10.533090
1815.000000	10.529721
1816.000000	10.544637
1817.000000	10.582208
1818.000000	10.608962
1819.000000	10.584143
1820.000000	10.525437
1821.000000	10.481025
1822.000000	10.499877
1823.000000	10.556362
1824.000000	10.589846
1825.000000	10.591858
1826.000000	10.577408
1827.000000	10.564336
1828.000000	10.559924
1829.000000	10.548225
1830.000000	10.526649
1831.000000	10.529514
1832.000000	10.559848
1833.000000	10.599673
1834.000000	10.616733
1835.000000	10.594816
1836.000000	10.556183
1837.000000	10.542617
1838.000000	10.548264
1839.000000	10.538118
1840.000000	10.998959
1841.000000	10.945314
1842.000000	10.933005
1843.000000	10.990654
1844.000000	11.074738
1845.000000	10.628233
1846.000000	11.090812
1847.000000	10.992476
1848.000000	10.921835
1849.000000	10.937106
1850.000000	10.997876
1851.000000	11.044265
1852.000000	10.555530
1853.000000	10.541855
1854.000000	11.029071
1855.000000	11.029045
1856.000000	11.054825
1857.000000	11.076187
1858.000000	10.564979
1859.000000	11.030356
1860.000000	10.519835
1861.000000	10.527841
1862.000000	10.557316
1863.000000	10.615646
1864.000000	10.673143
1865.000000	10.717443
1866.000000	10.751611
1867.000000	10.777657
1868.000000	10.796972
1869.000000	10.778198
1870.000000	10.744843
1871.000000	10.726287
1872.000000	10.709053
1873.000000	10.212542
1874.000000	10.234898
1875.000000	10.243859
1876.000000	10.269471
1877.000000	10.310199
1878.000000	9.860159
1879.000000	9.913873
1880.000000	9.981351
1881.000000	10.037042
1882.000000	10.070785
1883.000000	10.098549
1884.000000	10.137281
1885.000000	9.684832
1886.000000	9.747365
1887.000000	9.828106
1888.000000	9.911100
1889.000000	9.474707
1890.000000	9.523562
1891.000000	9.559289
1892.000000	9.609105
1893.000000	9.184826
1894.000000	9.273305
1895.000000	9.373718
1896.000000	9.476458
1897.000000	9.058855
1898.000000	9.111847
1899.000000	9.149912
1900.000000	8.699503
1901.000000	8.772927
1902.000000	8.847732
1903.000000	8.913411
1904.000000	8.451557
1905.000000	8.470059
1906.000000	8.512729
1907.000000	8.560506
1908.000000	8.126462
1909.000000	8.198109
1910.000000	8.257401
1911.000000	8.292513
1912.000000	8.311722
1913.000000	7.804973
1914.000000	7.826946
1915.000000	7.863391
1916.000000	7.908157
1917.000000	7.960219
1918.000000	7.999297
1919.000000	8.001602
1920.000000	8.004117
1921.000000	7.502360
1922.000000	7.515601
1923.000000	7.538479
1924.000000	7.569105
1925.000000	7.582684
1926.000000	7.585529
1927.000000	7.587889
1928.000000	7.574641
1929.000000	7.571963
1930.000000	7.574796
1931.000000	7.587028
1932.000000	7.596526
1933.000000	7.600234
1934.000000	7.604849
1935.000000	7.611518
1936.000000	7.604532
1937.000000	7.600185
1938.000000	7.579287
1939.000000	7.565546
1940.000000	7.560168
1941.000000	7.555268
1942.000000	7.556326
1943.000000	7.547421
1944.000000	7.544926
1945.000000	7.531289
1946.000000	7.518153
1947.000000	7.510587
1948.000000	7.497842
1949.000000	7.491019
1950.000000	7.484612
1951.000000	7.475227
1952.000000	7.459713
1953.000000	7.445416
1954.000000	7.429596
1955.000000	7.411329
1956.000000	7.407044
1957.000000	7.395176
1958.000000	7.890943
1959.000000	7.877016
1960.000000	7.862448
1961.000000	7.853520
1962.000000	7.844861
1963.000000	7.833890
1964.000000	7.817557
1965.000000	7.814581
1966.000000	7.807743
1967.000000	7.789319
1968.000000	7.790612
1969.000000	7.775493
1970.000000	7.764045
1971.000000	7.752938
1972.000000	7.748761
1973.000000	7.735386
1974.000000	7.721807
1975.000000	7.720699
1976.000000	8.213684
1977.000000	8.208604
1978.000000	8.193662
1979.000000	8.179797
1980.000000	8.165121
1981.000000	8.159481
1982.000000	8.142089
1983.000000	8.139287
1984.000000	8.131292
1985.000000	8.122490
1986.000000	8.110137
1987.000000	8.105925
1988.000000	8.091184
1989.000000	8.079856
1990.000000	8.078772
1991.000000	8.073889
1992.000000	8.069956
1993.000000	8.057841
1994.000000	8.547766
1995.000000	8.540372
1996.000000	8.534612
1997.000000	8.534672
1998.000000	8.524531
1999.000000	8.520207
2000.000000	8.514310
2001.000000	8.511544
2002.000000	8.510722
2003.000000	8.505176
2004.000000	8.498487
2005.000000	8.497290
2006.000000	8.496991
2007.000000	8.501520
2008.000000	8.503729
2009.000000	8.505939
2010.000000	8.510470
2011.000000	8.515603
2012.000000	8.517992
2013.000000	8.524783
2014.000000	8.533262
2015.000000	8.543187
2016.000000	8.549055
2017.000000	8.556860
2018.000000	8.568770
2019.000000	8.584114
2020.000000	8.593405
2021.000000	8.604773
2022.000000	8.616795
2023.000000	8.628723
2024.000000	8.641311
2025.000000	8.656626
2026.000000	8.171783
2027.000000	8.189998
2028.000000	8.704756
2029.000000	8.225443
2030.000000	8.243006
2031.000000	8.259332
2032.000000	8.282679
2033.000000	8.302503
2034.000000	8.323508
2035.000000	8.340235
2036.000000	8.367378
2037.000000	8.390228
2038.000000	8.410557
2039.000000	8.435274
2040.000000	8.460888
2041.000000	8.485397
2042.000000	8.507127
2043.000000	8.029411
2044.000000	8.050073
2045.000000	8.073775
2046.000000	8.096041
2047.000000	8.113068
2048.000000	8.123993
2049.000000	8.134725
2050.000000	8.144265
2051.000000	8.151118
2052.000000	8.155989
2053.000000	8.158818
2054.000000	8.162269
2055.000000	8.158015
2056.000000	8.153057
2057.000000	8.139534
2058.000000	8.129433
2059.000000	8.115925
2060.000000	8.104207
2061.000000	8.096146
2062.000000	8.081753
2063.000000	8.069124
2064.000000	8.051685
2065.000000	8.041102
2066.000000	8.028693
2067.000000	8.013398
2068.000000	8.501122
2069.000000	8.486065
2070.000000	8.474445
2071.000000	8.472337
2072.000000	8.464256
2073.000000	8.450244
2074.000000	8.440925
2075.000000	8.435714
2076.000000	8.430445
2077.000000	8.424657
2078.000000	8.422360
2079.000000	8.422588
2080.000000	8.416470
2081.000000	8.410043
2082.000000	8.408819
2083.000000	8.913035
2084.000000	8.915916
2085.000000	8.911317
2086.000000	8.911312
2087.000000	8.919961
2088.000000	8.926479
2089.000000	8.929082
2090.000000	8.934354
2091.000000	8.936334
2092.000000	8.938743
2093.000000	8.941026
2094.000000	8.945490
2095.000000	8.953951
2096.000000	8.957527
2097.000000	8.958113
2098.000000	8.962253
2099.000000	8.967529
2100.000000	8.965663
2101.000000	8.969562
2102.000000	8.974187
2103.000000	8.979526
2104.000000	8.982010
2105.000000	8.981986
2106.000000	8.983330
2107.000000	8.989616
2108.000000	8.993417
2109.000000	8.993213
2110.000000	9.000181
2111.000000	9.004359
2112.000000	9.008460
2113.000000	9.017363
2114.000000	9.027651
2115.000000	9.032306
2116.000000	9.034064
2117.000000	9.042027
2118.000000	9.050378
2119.000000	9.057177
2120.000000	9.064777
2121.000000	9.072922
2122.000000	9.082221
2123.000000	9.085899
2124.000000	9.091708
2125.000000	9.103280
2126.000000	9.110406
2127.000000	9.119436
2128.000000	9.131246
2129.000000	8.646636
2130.000000	9.156748
2131.000000	9.168262
2132.000000	9.179159
2133.000000	8.693219
2134.000000	8.704599
2135.000000	9.215147
2136.000000	9.232212
2137.000000	9.244501
2138.000000	8.758355
2139.000000	8.774794
2140.000000	8.790443
2141.000000	8.804325
2142.000000	9.317162
2143.000000	8.829693
2144.000000	8.350979
2145.000000	8.866075
2146.000000	8.877448
2147.000000	8.893766
2148.000000	8.412539
2149.000000	8.424767
2150.000000	8.439688
2151.000000	8.951423
2152.000000	8.463073
2153.000000	8.475496
2154.000000	8.489556
2155.000000	8.503530
2156.000000	8.511180
2157.000000	8.521524
2158.000000	8.531679
2159.000000	8.534058
2160.000000	8.543727
2161.000000	8.548850
2162.000000	8.052471
2163.000000	8.062415
2164.000000	8.064085
2165.000000	8.075722
2166.000000	8.081349
2167.000000	8.084939
2168.000000	8.093130
2169.000000	8.101463
2170.000000	8.104070
2171.000000	8.109113
2172.000000	8.113053
2173.000000	8.118738
2174.000000	8.119499
2175.000000	8.131812
2176.000000	7.640588
2177.000000	8.138231
2178.000000	7.644745
2179.000000	7.650943
2180.000000	7.659910
2181.000000	7.667842
2182.000000	7.671165
2183.000000	7.679900
2184.000000	7.693707
2185.000000	7.702479
2186.000000	7.719571
2187.000000	7.737219
2188.000000	7.753950
2189.000000	7.278002
2190.000000	7.296617
2191.000000	7.322734
2192.000000	7.349151
2193.000000	7.370552
2194.000000	7.405205
2195.000000	6.936665
2196.000000	6.967900
2197.000000	6.993669
2198.000000	7.016957
2199.000000	6.545186
2200.000000	7.073278
2201.000000	7.098711
2202.000000	7.114840
2203.000000	6.640184
2204.000000	6.656066
2205.000000	6.659870
2206.000000	6.167021
2207.000000	6.178880
2208.000000	6.180169
2209.000000	6.174760
2210.000000	6.667793
2211.000000	6.656157
2212.000000	6.154849
2213.000000	6.634733
2214.000000	6.626766
2215.000000	6.612110
2216.000000	6.595300
2217.000000	6.577909
2218.000000	6.565947
2219.000000	6.546869
2220.000000	6.533463
2221.000000	6.516694
2222.000000	6.501862
2223.000000	6.990586
2224.000000	6.972560
2225.000000	6.961920
2226.000000	6.953229
2227.000000	6.942906
2228.000000	6.935485
2229.000000	6.932893
2230.000000	6.924748
2231.000000	6.916679
2232.000000	6.915761
2233.000000	6.919481
2234.000000	6.913557
2235.000000	6.921259
2236.000000	6.923082
2237.000000	6.924662
2238.000000	6.928276
2239.000000	6.937515
2240.000000	7.447636
2241.000000	7.442517
2242.000000	6.954748
2243.000000	6.965617
2244.000000	6.973155
2245.000000	6.989905
2246.000000	6.997051
2247.000000	7.012088
2248.000000	7.024923
2249.000000	7.027989
2250.000000	7.048254
2251.000000	7.057009
2252.000000	7.065807
2253.000000	7.075115
2254.000000	7.087314
2255.000000	7.096957
2256.000000	7.103147
2257.000000	7.110308
2258.000000	7.122751
2259.000000	7.122301
2260.000000	7.133887
2261.000000	7.137727
2262.000000	7.135518
2263.000000	7.134032
2264.000000	7.135019
2265.000000	7.633116
2266.000000	7.636966
2267.000000	7.625514
2268.000000	7.626731
2269.000000	7.119607
2270.000000	7.118622
2271.000000	7.112054
2272.000000	7.108431
2273.000000	7.610342
2274.000000	7.607825
2275.000000	7.598896
2276.000000	7.602152
2277.000000	7.598973
2278.000000	7.590916
2279.000000	7.594838
2280.000000	7.589203
2281.000000	7.589401
2282.000000	7.590594
2283.000000	7.589960
2284.000000	7.588576
2285.000000	8.086876
2286.000000	7.588385
2287.000000	7.582630
2288.000000	8.084217
2289.000000	8.080873
2290.000000	7.576571
2291.000000	7.573246
2292.000000	7.570090
2293.000000	8.066417
2294.000000	7.563058
2295.000000	8.064757
2296.000000	8.059333
2297.000000	8.058303
2298.000000	8.049945
2299.000000	8.053078
2300.000000	8.042286
2301.000000	8.040669
2302.000000	8.036150
2303.000000	8.029743
2304.000000	8.027231
2305.000000	8.016884
2306.000000	8.011477
2307.000000	8.500624
2308.000000	8.495596
2309.000000	8.490535
2310.000000	8.478534
2311.000000	8.468390
2312.000000	8.462384
2313.000000	8.466092
2314.000000	8.458862
2315.000000	8.453329
2316.000000	8.444199
2317.000000	8.448702
2318.000000	8.447171
2319.000000	8.947318
2320.000000	8.943506
2321.000000	8.942210
2322.000000	8.950818
2323.000000	8.452798
2324.000000	8.454416
2325.000000	8.459795
2326.000000	8.461844
2327.000000	8.963680
2328.000000	8.961426
2329.000000	8.966983
2330.000000	8.964463
2331.000000	8.967153
2332.000000	8.967537
2333.000000	8.961384
2334.000000	8.961286
2335.000000	8.968782
2336.000000	9.466823
2337.000000	8.960093
2338.000000	8.956439
2339.000000	8.959239
2340.000000	9.455188
2341.000000	9.449434
2342.000000	8.944423
2343.000000	8.940609
2344.000000	9.435835
2345.000000	9.434085
2346.000000	9.435088
2347.000000	8.929507
2348.000000	8.925330
2349.000000	8.921534
2350.000000	9.416195
2351.000000	9.409718
2352.000000	9.403714
2353.000000	9.403123
2354.000000	9.400128
2355.000000	9.397174
2356.000000	9.395593
2357.000000	9.394136
2358.000000	9.393259
2359.000000	9.894571
2360.000000	9.892201
2361.000000	9.887614
2362.000000	9.886561
2363.000000	9.886627
2364.000000	9.388239
2365.000000	9.389515
2366.000000	9.885998
2367.000000	9.885662
2368.000000	9.387749
2369.000000	9.883122
2370.000000	9.878067
2371.000000	9.877294
2372.000000	9.872921
2373.000000	9.370427
2374.000000	9.371635
2375.000000	9.871792
2376.000000	9.869317
2377.000000	9.865140
2378.000000	10.360340
2379.000000	10.362936
2380.000000	9.869536
2381.000000	9.866009
2382.000000	9.866294
2383.000000	10.368837
2384.000000	10.367481
2385.000000	10.370280
2386.000000	9.876448
2387.000000	9.872741
2388.000000	9.874218
2389.000000	10.376513
2390.000000	9.878936
2391.000000	9.883800
2392.000000	9.886672
2393.000000	10.392299
2394.000000	10.393937
2395.000000	10.401471
2396.000000	10.405576
2397.000000	10.410340
2398.000000	10.414126
2399.000000	10.415905
2400.000000	10.423639
2401.000000	10.430099
2402.000000	9.937996
2403.000000	9.937068
2404.000000	9.942753
2405.000000	10.451162
2406.000000	10.960243
2407.000000	10.464851
2408.000000	10.970238
2409.000000	10.480504
2410.000000	10.486384
2411.000000	10.996883
2412.000000	10.503798
2413.000000	10.017221
2414.000000	10.030988
2415.000000	10.038032
2416.000000	10.052721
2417.000000	10.567852
2418.000000	10.080113
2419.000000	10.591006
2420.000000	10.605497
2421.000000	10.617565
2422.000000	10.625393
2423.000000	10.643650
2424.000000	11.160259
2425.000000	10.675199
2426.000000	10.688823
2427.000000	10.700319
2428.000000	10.717935
2429.000000	10.731039
2430.000000	10.741467
2431.000000	10.259279
2432.000000	10.774930
2433.000000	10.286769
2434.000000	10.798937
2435.000000	10.306877
2436.000000	10.822753
2437.000000	11.341480
2438.000000	11.355380
2439.000000	11.867367
2440.000000	10.884557
2441.000000	10.888875
2442.000000	10.908040
2443.000000	11.921285
2444.000000	10.939353
2445.000000	10.950239
2446.000000	11.468571
2447.000000	11.485595
2448.000000	11.484559
2449.000000	11.500873
2450.000000	11.510550
2451.000000	12.028556
2452.000000	12.043933
2453.000000	12.049646
2454.000000	12.060164
2455.000000	12.063369
2456.000000	12.574565
2457.000000	12.089030
2458.000000	12.091424
2459.000000	12.603219
2460.000000	13.113408
2461.000000	12.124496
2462.000000	12.136033
2463.000000	11.644202
2464.000000	13.147716
2465.000000	13.154715
2466.000000	13.655398
2467.000000	13.668103
2468.000000	12.670192
2469.000000	12.668831
2470.000000	13.686020
2471.000000	14.687807
2472.000000	14.673113
2473.000000	15.682992
2474.000000	14.683224
2475.000000	15.177640
2476.000000	14.687810
2477.000000	16.189312
2478.000000	17.199600
2479.000000	16.708795
2480.000000	15.693013
2481.000000	15.691688
2482.000000	16.713057
2483.000000	17.192133
2484.000000	16.694558
2485.000000	17.694046
2486.000000	18.179746
2487.000000	18.205632
2488.000000	18.179057
2489.000000	18.179727
2490.000000	19.184989
2491.000000	21.163526
2492.000000	20.178305
2493.000000	21.168494
2494.000000	22.142498
2495.000000	22.120536
2496.000000	21.622940
2497.000000	20.630148
2498.000000	21.138755
2499.000000	20.639451
2500.000000	22.099262
2501.000000	nan
2502.000000	nan
2503.000000	nan
2504.000000	nan
2505.000000	nan
2506.000000	nan
2507.000000	nan
2508.000000	nan
2509.000000	nan
2510.000000	nan
2511.000000	nan
2512.000000	nan
2513.000000	nan
2514.000000	nan
2515.000000	nan
2516.000000	nan
2517.000000	nan
2518.000000	nan
2519.000000	nan
2520.000000	nan
2521.000000	nan
2522.000000	nan
2523.000000	nan
2524.000000	nan
2525.000000	nan
2526.000000	nan
2527.000000	nan
2528.000000	nan
2529.000000	nan
2530.000000	nan
2531.000000	nan
2532.000000	nan
2533.000000	nan
2534.000000	nan
2535.000000	nan
2536.000000	nan
2537.000000	nan
2538.000000	nan
2539.000000	nan
2540.000000	nan
2541.000000	nan
2542.000000	nan
2543.000000	nan
2544.000000	nan
2545.000000	nan
2546.000000	nan
2547.000000	nan
2548.000000	nan
2549.000000	nan
2550.000000	nan
2551.000000	nan
2552.000000	nan
2553.000000	nan
2554.000000	nan
2555.000000	nan
2556.000000	nan
2557.000000	nan
2558.000000	nan
2559.000000	nan
2560.000000	nan
2561.000000	nan
2562.000000	nan
2563.000000	nan
2564.000000	nan
2565.000000	nan
2566.000000	nan
2567.000000	nan
2568.000000	nan
2569.000000	nan
2570.000000	nan
2571.000000	nan
2572.000000	nan
2573.000000	nan
2574.000000	nan
2575.000000	nan
2576.000000	nan
2577.000000	nan
2578.000000	nan
2579.000000	nan
2580.000000	nan
2581.000000	nan
2582.000000	nan
2583.000000	nan
2584.000000	nan
2585.000000	nan
2586.000000	nan
2587.000000	nan
2588.000000	nan
2589.000000	nan
2590.000000	nan
2591.000000	nan
2592.000000	nan
2593.000000	nan
2594.000000	nan
2595.000000	nan
2596.000000	nan
2597.000000	nan
2598.000000	nan
2599.000000	nan
2600.000000	nan
2601.000000	nan
2602.000000	nan
2603.000000	nan
2604.000000	nan
2605.000000	nan
2606.000000	nan
2607.000000	nan
2608.000000	nan
2609.000000	nan
2610.000000	nan
2611.000000	nan
2612.000000	nan
2613.000000	nan
2614.000000	nan
2615.000000	nan
2616.000000	nan
2617.000000	nan
2618.000000	nan
2619.000000	nan
2620.000000	nan
2621.000000	nan
2622.000000	nan
2623.000000	nan
2624.000000	nan
2625.000000	nan
2626.000000	nan
2627.000000	nan
2628.000000	nan
2629.000000	nan
2630.000000	nan
2631.000000	nan
2632.000000	nan
2633.000000	nan
2634.000000	nan
2635.000000	nan
2636.000000	nan
2637.000000	nan
2638.000000	nan
2639.000000	nan
2640.000000	nan
2641.000000	nan
2642.000000	nan
2643.000000	nan
2644.000000	nan
2645.000000	nan
2646.000000	nan
2647.000000	nan
2648.000000	nan
2649.000000	nan
2650.000000	nan
2651.000000	nan
2652.000000	nan
2653.000000	nan
2654.000000	nan
2655.000000	nan
2656.000000	nan
2657.000000	nan
2658.000000	nan
2659.000000	nan
2660.000000	nan
2661.000000	nan
2662.000000	nan
2663.000000	nan
2664.000000	nan
2665.000000	nan
2666.000000	nan
2667.000000	nan
2668.000000	nan
2669.000000	nan
2670.000000	nan
2671.000000	nan
2672.000000	nan
2673.000000	nan
2674.000000	nan
2675.000000	nan
2676.000000	nan
2677.000000	nan
2678.000000	nan
2679.000000	nan
2680.000000	nan
2681.000000	nan
2682.000000	nan
2683.000000	nan
2684.000000	nan
2685.000000	nan
2686.000000	nan
2687.000000	nan
2688.000000	nan
2689.000000	nan
2690.000000	nan
2691.000000	nan
2692.000000	nan
2693.000000	nan
2694.000000	nan
2695.000000	nan
2696.000000	nan
2697.000000	nan
2698.000000	nan
2699.000000	nan
2700.000000	nan
2701.000000	nan
2702.000000	nan
2703.000000	nan
2704.000000	nan
2705.000000	nan
2706.000000	nan
2707.000000	nan
2708.000000	nan
2709.000000	nan
2710.000000	nan
2711.000000	nan
2712.000000	nan
2713.000000	nan
2714.000000	nan
2715.000000	nan
2716.000000	nan
2717.000000	nan
2718.000000	nan
2719.000000	nan
2720.000000	nan
2721.000000	nan
2722.000000	nan
2723.000000	nan
2724.000000	nan
2725.000000	nan
2726.000000	nan
2727.000000	nan
2728.000000	nan
2729.000000	nan
2730.000000	nan
2731.000000	nan
2732.000000	nan
2733.000000	nan
2734.000000	nan
2735.000000	nan
2736.000000	nan
2737.000000	nan
2738.000000	nan
2739.000000	nan
2740.000000	nan
2741.000000	nan
2742.000000	nan
2743.000000	nan
2744.000000	nan
2745.000000	nan
2746.000000	nan
2747.000000	nan
2748.000000	nan
2749.000000	nan
2750.000000	nan
2751.000000	nan
2752.000000	nan
2753.000000	nan
2754.000000	nan
2755.000000	nan
2756.000000	nan
2757.000000	nan
2758.000000	nan
2759.000000	nan
2760.000000	nan
2761.000000	nan
2762.000000	nan
2763.000000	nan
2764.000000	nan
2765.000000	nan
2766.000000	nan
2767.000000	nan
2768.000000	nan
2769.000000	nan
2770.000000	nan
2771.000000	nan
2772.000000	nan
2773.000000	nan
2774.000000	nan
2775.000000	nan
2776.000000	nan
2777.000000	nan
2778.000000	nan
2779.000000	nan
2780.000000	nan
2781.000000	nan
2782.000000	nan
2783.000000	nan
2784.000000	nan
2785.000000	nan
2786.000000	nan
2787.000000	nan
2788.000000	nan
2789.000000	nan
2790.000000	nan
2791.000000	nan
2792.000000	nan
2793.000000	nan
2794.000000	nan
2795.000000	nan
2796.000000	nan
2797.000000	nan
2798.000000	nan
2799.000000	nan
2800.000000	nan
2801.000000	nan
2802.000000	nan
2803.000000	nan
2804.000000	nan
2805.000000	nan
2806.000000	nan
2807.000000	nan
2808.000000	nan
2809.000000	nan
2810.000000	nan
2811.000000	nan
2812.000000	nan
2813.000000	nan
2814.000000	nan
2815.000000	nan
2816.000000	nan
2817.000000	nan
2818.000000	nan
2819.000000	nan
2820.000000	nan
2821.000000	nan
2822.000000	nan
2823.000000	nan
2824.000000	nan
2825.000000	nan
2826.000000	nan
2827.000000	nan
2828.000000	nan
2829.000000	nan
2830.000000	nan
2831.000000	nan
2832.000000	nan
2833.000000	nan
2834.000000	nan
2835.000000	nan
2836.000000	nan
2837.000000	nan
2838.000000	nan
2839.000000	nan
2840.000000	nan
2841.000000	nan
2842.000000	nan
2843.000000	nan
2844.000000	nan
2845.000000	nan
2846.000000	nan
2847.000000	nan
2848.000000	nan
2849.000000	nan
2850.000000	nan
2851.000000	nan
2852.000000	nan
2853.000000	nan
2854.000000	nan
2855.000000	nan
2856.000000	nan
2857.000000	nan
2858.000000	nan
2859.000000	nan
2860.000000	nan
2861.000000	nan
2862.000000	nan
2863.000000	nan
2864.000000	nan
2865.000000	nan
2866.000000	nan
2867.000000	nan
2868.000000	nan
2869.000000	nan
2870.000000	nan
2871.000000	nan
2872.000000	nan
2873.000000	nan
2874.000000	nan
2875.000000	nan
2876.000000	nan
2877.000000	nan
2878.000000	nan
2879.000000	nan
2880.000000	nan
2881.000000	nan
2882.000000	nan
2883.000000	nan
2884.000000	nan
2885.000000	nan
2886.000000	nan
2887.000000	nan
2888.000000	nan
2889.000000	nan
2890.000000	nan
2891.000000	nan
2892.000000	nan
2893.000000	nan
2894.000000	nan
2895.000000	nan
2896.000000	nan
2897.000000	nan
2898.000000	nan
2899.000000	nan
2900.000000	nan
2901.000000	nan
2902.000000	nan
2903.000000	nan
2904.000000	nan
2905.000000	nan
2906.000000	nan
2907.000000	nan
2908.000000	nan
2909.000000	nan
2910.000000	nan
2911.000000	nan
2912.000000	nan
2913.000000	nan
2914.000000	nan
2915.000000	nan
2916.000000	nan
2917.000000	nan
2918.000000	nan
2919.000000	nan
2920.000000	nan
2921.000000	nan
2922.000000	nan
2923.000000	nan
2924.000000	nan
2925.000000	nan
2926.000000	nan
2927.000000	nan
2928.000000	nan
2929.000000	nan
2930.000000	nan
2931.000000	nan
2932.000000	nan
2933.000000	nan
2934.000000	nan
2935.000000	nan
2936.000000	nan
2937.000000	nan
2938.000000	nan
2939.000000	nan
2940.000000	nan
2941.000000	nan
2942.000000	nan
2943.000000	nan
2944.000000	nan
2945.000000	nan
2946.000000	nan
2947.000000	nan
2948.000000	nan
2949.000000	nan
2950.000000	nan
2951.000000	nan
2952.000000	nan
2953.000000	nan
2954.000000	nan
2955.000000	nan
2956.000000	nan
2957.000000	nan
2958.000000	nan
2959.000000	nan
2960.000000	nan
2961.000000	nan
2962.000000	nan
2963.000000	nan
2964.000000	nan
2965.000000	nan
2966.000000	nan
2967.000000	nan
2968.000000	nan
2969.000000	nan
2970.000000	nan
2971.000000	nan
2972.000000	nan
2973.000000	nan
2974.000000	nan
2975.000000	nan
2976.000000	nan
2977.000000	nan
2978.000000	nan
2979.000000	nan
2980.000000	nan
2981.000000	nan
2982.000000	nan
2983.000000	nan
2984.000000	nan
2985.000000	nan
2986.000000	nan
2987.000000	nan
2988.000000	nan
2989.000000	nan
2990.000000	nan
2991.000000	nan
2992.000000	nan
2993.000000	nan
2994.000000	nan
2995.000000	nan
2996.000000	nan
2997.000000	nan
2998.000000	nan
2999.000000	nan
3000.000000	nan
