PE UV       SUBTECH     SPECTRUM    ASCII       PEDS        4.00        
   -1
INBUCR0115-5.Sample.ASC
24/02/12
13:44:21.00
24/02/12
13:44:21.00
Vinicio Soto Monge
Strigidia pubes. Color café con ambos élitros (Det: A. Solís) COSTA RICA Prov. Limón. Estación R. B. Hitoy Cerere. 160m AGO 1998 E. Rojas. Tp. Luz L_N_184120_643471 #51622 INB0003055960 INBIOCRI COSTA RICA 
250,000000
1
Lambda 1050
1050L1511233
PerkinElmer UV WinLab 6.3.2.0749 / 2.02.05 Lambda 900 UV/VIS/NIR, Aug  7 2015 09:38:08

0
0
3350/servo 860,8/2
0
0
UV/VIS
1
1
1
DoubleDePol,CommonBeamDepol,RBeamAtt,SBeamAtt,60mm sphere, WB InGaAs Detector
0
0
0
0
Program
Program
3350/servo 860,8/2
3350/0,2 860,8/0,2
3350/0,2 860,8/0,2
0
15.00
 
 
 
0
 
860,8
150
860,8
Front
100
on
S:100 R:100
0
0
0
0
 
0
 
 
 
0
 
 
0
0
0
0
0
 
 
 
 
0
0


0
0
#HDR
-1
-1
#GR
nm
%R
1.0
0.0
2500,000000
-1,000000
2251
8
22,631900
1,381700
#DATA

250.000000	4.283701
251.000000	4.288244
252.000000	4.391960
253.000000	4.413187
254.000000	4.384296
255.000000	4.447231
256.000000	4.534458
257.000000	4.446658
258.000000	4.424386
259.000000	4.473440
260.000000	4.467800
261.000000	4.418943
262.000000	4.370207
263.000000	4.408752
264.000000	4.389368
265.000000	4.366575
266.000000	4.398598
267.000000	4.421287
268.000000	4.389174
269.000000	4.420296
270.000000	4.432599
271.000000	4.464370
272.000000	4.398456
273.000000	4.453314
274.000000	4.451706
275.000000	4.474494
276.000000	4.443660
277.000000	4.448347
278.000000	4.459014
279.000000	4.397344
280.000000	4.471182
281.000000	4.477598
282.000000	4.454910
283.000000	4.467892
284.000000	4.451760
285.000000	4.491007
286.000000	4.482145
287.000000	4.451846
288.000000	4.504210
289.000000	4.457745
290.000000	4.469407
291.000000	4.458462
292.000000	4.489677
293.000000	4.496295
294.000000	4.528761
295.000000	4.493880
296.000000	4.471526
297.000000	4.463432
298.000000	4.502017
299.000000	4.509880
300.000000	4.485213
301.000000	4.512829
302.000000	4.503773
303.000000	4.521218
304.000000	4.536446
305.000000	4.527472
306.000000	4.541237
307.000000	4.520690
308.000000	4.550929
309.000000	4.527107
310.000000	4.559736
311.000000	4.561126
312.000000	4.549869
313.000000	4.562177
314.000000	4.568834
315.000000	4.526047
316.000000	4.561028
317.000000	4.566841
318.000000	4.468750
319.000000	4.419410
320.000000	4.444898
321.000000	4.414395
322.000000	4.493524
323.000000	4.529604
324.000000	4.529244
325.000000	4.523906
326.000000	4.528757
327.000000	4.452825
328.000000	4.529808
329.000000	4.493568
330.000000	4.468026
331.000000	4.551000
332.000000	4.507644
333.000000	4.546454
334.000000	4.597607
335.000000	4.516620
336.000000	4.544754
337.000000	4.572329
338.000000	4.513100
339.000000	4.555529
340.000000	4.577514
341.000000	4.626105
342.000000	4.606481
343.000000	4.561470
344.000000	4.591752
345.000000	4.584491
346.000000	4.602817
347.000000	4.575124
348.000000	4.546082
349.000000	4.595361
350.000000	4.584540
351.000000	4.618199
352.000000	4.629969
353.000000	4.610040
354.000000	4.636866
355.000000	4.597650
356.000000	4.610689
357.000000	4.609062
358.000000	4.602297
359.000000	4.621772
360.000000	4.646076
361.000000	4.627131
362.000000	4.641845
363.000000	4.629218
364.000000	4.619277
365.000000	4.608207
366.000000	4.628772
367.000000	4.624554
368.000000	4.681748
369.000000	4.660512
370.000000	4.676072
371.000000	4.684753
372.000000	4.635912
373.000000	4.705219
374.000000	4.721204
375.000000	4.689498
376.000000	4.683838
377.000000	4.739532
378.000000	4.748975
379.000000	4.756290
380.000000	4.748582
381.000000	4.748078
382.000000	4.745577
383.000000	4.753317
384.000000	4.750429
385.000000	4.757959
386.000000	4.758977
387.000000	4.765357
388.000000	4.771808
389.000000	4.769991
390.000000	4.767068
391.000000	4.772221
392.000000	4.773748
393.000000	4.776910
394.000000	4.781359
395.000000	4.782915
396.000000	4.782686
397.000000	4.788130
398.000000	4.786082
399.000000	4.788935
400.000000	4.797000
401.000000	4.792788
402.000000	4.798565
403.000000	4.803991
404.000000	4.807568
405.000000	4.803430
406.000000	4.804912
407.000000	4.803282
408.000000	4.807846
409.000000	4.812358
410.000000	4.808869
411.000000	4.814975
412.000000	4.814752
413.000000	4.816738
414.000000	4.815771
415.000000	4.821815
416.000000	4.827901
417.000000	4.829807
418.000000	4.829213
419.000000	4.828251
420.000000	4.838097
421.000000	4.841583
422.000000	4.840781
423.000000	4.836989
424.000000	4.845044
425.000000	4.846427
426.000000	4.844498
427.000000	4.848451
428.000000	4.852326
429.000000	4.854502
430.000000	4.848074
431.000000	4.850126
432.000000	4.852459
433.000000	4.850912
434.000000	4.858184
435.000000	4.863366
436.000000	4.865389
437.000000	4.870433
438.000000	4.870933
439.000000	4.872150
440.000000	4.873839
441.000000	4.875295
442.000000	4.881152
443.000000	4.881306
444.000000	4.883508
445.000000	4.887863
446.000000	4.889354
447.000000	4.895604
448.000000	4.895497
449.000000	4.898097
450.000000	4.902416
451.000000	4.902961
452.000000	4.904821
453.000000	4.906286
454.000000	4.912233
455.000000	4.912716
456.000000	4.912871
457.000000	4.918150
458.000000	4.919853
459.000000	4.924129
460.000000	4.933146
461.000000	4.931540
462.000000	4.933994
463.000000	4.940105
464.000000	4.938877
465.000000	4.937568
466.000000	4.940091
467.000000	4.944346
468.000000	4.947411
469.000000	4.948448
470.000000	4.943760
471.000000	4.943738
472.000000	4.944681
473.000000	4.938521
474.000000	4.935048
475.000000	4.930448
476.000000	4.928030
477.000000	4.928376
478.000000	4.919258
479.000000	4.911009
480.000000	4.913345
481.000000	4.914594
482.000000	4.918126
483.000000	4.927262
484.000000	4.937775
485.000000	4.945192
486.000000	4.956251
487.000000	4.968531
488.000000	4.980779
489.000000	4.988673
490.000000	4.993564
491.000000	5.003097
492.000000	5.017406
493.000000	5.024797
494.000000	5.032354
495.000000	5.038765
496.000000	5.049905
497.000000	5.056309
498.000000	5.062673
499.000000	5.067396
500.000000	5.078555
501.000000	5.083954
502.000000	5.091315
503.000000	5.099154
504.000000	5.106870
505.000000	5.114668
506.000000	5.120617
507.000000	5.126054
508.000000	5.134822
509.000000	5.134327
510.000000	5.137335
511.000000	5.140261
512.000000	5.139626
513.000000	5.138486
514.000000	5.140473
515.000000	5.145306
516.000000	5.146596
517.000000	5.142161
518.000000	5.135207
519.000000	5.139414
520.000000	5.134337
521.000000	5.133531
522.000000	5.139234
523.000000	5.141671
524.000000	5.142349
525.000000	5.146325
526.000000	5.151622
527.000000	5.157383
528.000000	5.160952
529.000000	5.163940
530.000000	5.175339
531.000000	5.184658
532.000000	5.193827
533.000000	5.201597
534.000000	5.213473
535.000000	5.226885
536.000000	5.237639
537.000000	5.248511
538.000000	5.258763
539.000000	5.275016
540.000000	5.292532
541.000000	5.302120
542.000000	5.317084
543.000000	5.335329
544.000000	5.348148
545.000000	5.366764
546.000000	5.382202
547.000000	5.400466
548.000000	5.414360
549.000000	5.435419
550.000000	5.447587
551.000000	5.466842
552.000000	5.480408
553.000000	5.507404
554.000000	5.522188
555.000000	5.540096
556.000000	5.564757
557.000000	5.582943
558.000000	5.603956
559.000000	5.625597
560.000000	5.680846
561.000000	5.710252
562.000000	5.733978
563.000000	5.756102
564.000000	5.782672
565.000000	5.810020
566.000000	5.834748
567.000000	5.855339
568.000000	5.882517
569.000000	5.904997
570.000000	5.936582
571.000000	5.964621
572.000000	5.991305
573.000000	6.018970
574.000000	6.052181
575.000000	6.076663
576.000000	6.109550
577.000000	6.139982
578.000000	6.171482
579.000000	6.198554
580.000000	6.233511
581.000000	6.259636
582.000000	6.300025
583.000000	6.331569
584.000000	6.372948
585.000000	6.402252
586.000000	6.437361
587.000000	6.473916
588.000000	6.506525
589.000000	6.554314
590.000000	6.584075
591.000000	6.618011
592.000000	6.662926
593.000000	6.703230
594.000000	6.749379
595.000000	6.788600
596.000000	6.822454
597.000000	6.865657
598.000000	6.906627
599.000000	6.941165
600.000000	6.995022
601.000000	7.039613
602.000000	7.086421
603.000000	7.125316
604.000000	7.179318
605.000000	7.220990
606.000000	7.271638
607.000000	7.314040
608.000000	7.360008
609.000000	7.403349
610.000000	7.460440
611.000000	7.512986
612.000000	7.557307
613.000000	7.607724
614.000000	7.668109
615.000000	7.709784
616.000000	7.767351
617.000000	7.815476
618.000000	7.876487
619.000000	7.924785
620.000000	7.982085
621.000000	8.037191
622.000000	8.099884
623.000000	8.158716
624.000000	8.214874
625.000000	8.277168
626.000000	8.328887
627.000000	8.382248
628.000000	8.447236
629.000000	8.513696
630.000000	8.574898
631.000000	8.633344
632.000000	8.700174
633.000000	8.766990
634.000000	8.836406
635.000000	8.896949
636.000000	8.960565
637.000000	9.027878
638.000000	9.094201
639.000000	9.168372
640.000000	9.237260
641.000000	9.310798
642.000000	9.380953
643.000000	9.460673
644.000000	9.525484
645.000000	9.600959
646.000000	9.669408
647.000000	9.744348
648.000000	9.819261
649.000000	9.901252
650.000000	9.974878
651.000000	10.058193
652.000000	10.144799
653.000000	10.214162
654.000000	10.289708
655.000000	10.372685
656.000000	10.456115
657.000000	10.531216
658.000000	10.615193
659.000000	10.689621
660.000000	10.776045
661.000000	10.861076
662.000000	10.934670
663.000000	11.016563
664.000000	11.106745
665.000000	11.185835
666.000000	11.271261
667.000000	11.355023
668.000000	11.448015
669.000000	11.532701
670.000000	11.613608
671.000000	11.690903
672.000000	11.779655
673.000000	11.882534
674.000000	11.968635
675.000000	12.050844
676.000000	12.126876
677.000000	12.213401
678.000000	12.303590
679.000000	12.391211
680.000000	12.472710
681.000000	12.563672
682.000000	12.656961
683.000000	12.743827
684.000000	12.835637
685.000000	12.924050
686.000000	13.014995
687.000000	13.103391
688.000000	13.187688
689.000000	13.281865
690.000000	13.379648
691.000000	13.466392
692.000000	13.558056
693.000000	13.643257
694.000000	13.734375
695.000000	13.833213
696.000000	13.927294
697.000000	14.021677
698.000000	14.117591
699.000000	14.211794
700.000000	14.293809
701.000000	14.396423
702.000000	14.501839
703.000000	14.592891
704.000000	14.682979
705.000000	14.782433
706.000000	14.876124
707.000000	14.974008
708.000000	15.067657
709.000000	15.162711
710.000000	15.257263
711.000000	15.360718
712.000000	15.464018
713.000000	15.562253
714.000000	15.660451
715.000000	15.765966
716.000000	15.873992
717.000000	15.973744
718.000000	16.065858
719.000000	16.173467
720.000000	16.270001
721.000000	16.360310
722.000000	16.471024
723.000000	16.580264
724.000000	16.686970
725.000000	16.794838
726.000000	16.899862
727.000000	17.008375
728.000000	17.128750
729.000000	17.244461
730.000000	17.349119
731.000000	17.451205
732.000000	17.553634
733.000000	17.660181
734.000000	17.759581
735.000000	17.872946
736.000000	17.983685
737.000000	18.092713
738.000000	18.204665
739.000000	18.313230
740.000000	18.412839
741.000000	18.532433
742.000000	18.651287
743.000000	18.746798
744.000000	18.849660
745.000000	18.970133
746.000000	19.101896
747.000000	19.202970
748.000000	19.312154
749.000000	19.435117
750.000000	19.565216
751.000000	19.654535
752.000000	19.758582
753.000000	19.896131
754.000000	19.978319
755.000000	20.067552
756.000000	20.204118
757.000000	20.313713
758.000000	20.414179
759.000000	20.516724
760.000000	20.643510
761.000000	20.746313
762.000000	20.856511
763.000000	21.003119
764.000000	21.092923
765.000000	21.178665
766.000000	21.303369
767.000000	21.403878
768.000000	21.508170
769.000000	21.593563
770.000000	21.721394
771.000000	21.835894
772.000000	21.931540
773.000000	22.029433
774.000000	22.095888
775.000000	22.215453
776.000000	22.346476
777.000000	22.438127
778.000000	22.536780
779.000000	22.627392
780.000000	22.708292
781.000000	22.815910
782.000000	22.924239
783.000000	23.033668
784.000000	23.112957
785.000000	23.222932
786.000000	23.360756
787.000000	23.425584
788.000000	23.471016
789.000000	23.575203
790.000000	23.670639
791.000000	23.798915
792.000000	23.881296
793.000000	23.939577
794.000000	24.035706
795.000000	24.140422
796.000000	24.197531
797.000000	24.271601
798.000000	24.393432
799.000000	24.445132
800.000000	24.531328
801.000000	24.634725
802.000000	24.714487
803.000000	24.833900
804.000000	24.937319
805.000000	24.996887
806.000000	25.030890
807.000000	25.141917
808.000000	25.201391
809.000000	25.289298
810.000000	25.364971
811.000000	25.437850
812.000000	25.536104
813.000000	25.601642
814.000000	25.722731
815.000000	25.784319
816.000000	25.920118
817.000000	25.970081
818.000000	26.030634
819.000000	26.129128
820.000000	26.245677
821.000000	26.285846
822.000000	26.334472
823.000000	26.411406
824.000000	26.495321
825.000000	26.605094
826.000000	26.618037
827.000000	26.743395
828.000000	26.802542
829.000000	26.919059
830.000000	26.914164
831.000000	27.023331
832.000000	27.071771
833.000000	27.144563
834.000000	27.256931
835.000000	27.265431
836.000000	27.361110
837.000000	27.471157
838.000000	27.585890
839.000000	27.618890
840.000000	27.691542
841.000000	27.860713
842.000000	27.774958
843.000000	27.882410
844.000000	27.945039
845.000000	28.105082
846.000000	28.018042
847.000000	28.218530
848.000000	28.359571
849.000000	28.256585
850.000000	28.394296
851.000000	28.480663
852.000000	28.400658
853.000000	28.499075
854.000000	28.597462
855.000000	28.552874
856.000000	28.609018
857.000000	28.636923
858.000000	31.172806
859.000000	29.172279
860.000000	29.297870
861.000000	29.212348
862.000000	29.152326
863.000000	29.002738
864.000000	29.166976
865.000000	28.900890
866.000000	29.015158
867.000000	28.958281
868.000000	28.956772
869.000000	29.220808
870.000000	29.199832
871.000000	28.734440
872.000000	28.743263
873.000000	29.010059
874.000000	29.056115
875.000000	29.079805
876.000000	29.251165
877.000000	28.998830
878.000000	28.948543
879.000000	28.861364
880.000000	28.879714
881.000000	28.947645
882.000000	29.040408
883.000000	28.989902
884.000000	29.003778
885.000000	28.845750
886.000000	28.901030
887.000000	28.908308
888.000000	28.909377
889.000000	28.891388
890.000000	28.935701
891.000000	28.973216
892.000000	28.877546
893.000000	28.817326
894.000000	28.989822
895.000000	28.930522
896.000000	28.836955
897.000000	28.963907
898.000000	28.893020
899.000000	28.857669
900.000000	28.894052
901.000000	28.901442
902.000000	28.872398
903.000000	28.779293
904.000000	28.858461
905.000000	28.967695
906.000000	28.912714
907.000000	28.894297
908.000000	28.832000
909.000000	28.890349
910.000000	28.882289
911.000000	28.905571
912.000000	28.886830
913.000000	28.840432
914.000000	28.838033
915.000000	28.861391
916.000000	28.886314
917.000000	28.890001
918.000000	28.949143
919.000000	28.945316
920.000000	28.933698
921.000000	28.938255
922.000000	28.942133
923.000000	28.912339
924.000000	28.952234
925.000000	28.975160
926.000000	29.041269
927.000000	28.997720
928.000000	28.999044
929.000000	29.065410
930.000000	29.114905
931.000000	29.084481
932.000000	29.095590
933.000000	29.041572
934.000000	29.035955
935.000000	29.087674
936.000000	29.121611
937.000000	29.074645
938.000000	29.087336
939.000000	29.109047
940.000000	29.179670
941.000000	29.197714
942.000000	29.166874
943.000000	29.170297
944.000000	29.156580
945.000000	29.155413
946.000000	29.190675
947.000000	29.216966
948.000000	29.248048
949.000000	29.208107
950.000000	29.202570
951.000000	29.215287
952.000000	29.236479
953.000000	29.242806
954.000000	29.236720
955.000000	29.233953
956.000000	29.246323
957.000000	29.291290
958.000000	29.300453
959.000000	29.256131
960.000000	29.230239
961.000000	29.258536
962.000000	29.286526
963.000000	29.275392
964.000000	29.274189
965.000000	29.287258
966.000000	29.299347
967.000000	29.312489
968.000000	29.308822
969.000000	29.315276
970.000000	29.329875
971.000000	29.344462
972.000000	29.355537
973.000000	29.346845
974.000000	29.318496
975.000000	29.320595
976.000000	29.358571
977.000000	29.365761
978.000000	29.382058
979.000000	29.392050
980.000000	29.365036
981.000000	29.353146
982.000000	29.375432
983.000000	29.381059
984.000000	29.375738
985.000000	29.390656
986.000000	29.408659
987.000000	29.391368
988.000000	29.386208
989.000000	29.410702
990.000000	29.419208
991.000000	29.418376
992.000000	29.418959
993.000000	29.421864
994.000000	29.426069
995.000000	29.417969
996.000000	29.405565
997.000000	29.415210
998.000000	29.421294
999.000000	29.427705
1000.000000	29.448822
1001.000000	29.453492
1002.000000	29.440480
1003.000000	29.449949
1004.000000	29.449902
1005.000000	29.459785
1006.000000	29.490187
1007.000000	29.489406
1008.000000	29.478230
1009.000000	29.480674
1010.000000	29.489999
1011.000000	29.497183
1012.000000	29.505844
1013.000000	29.506159
1014.000000	29.499293
1015.000000	29.506667
1016.000000	29.527503
1017.000000	29.545282
1018.000000	29.561567
1019.000000	29.585186
1020.000000	29.580104
1021.000000	29.583766
1022.000000	29.595759
1023.000000	29.602059
1024.000000	29.599993
1025.000000	29.625059
1026.000000	29.640046
1027.000000	29.654494
1028.000000	29.669069
1029.000000	29.671933
1030.000000	29.680482
1031.000000	29.684202
1032.000000	29.699846
1033.000000	29.728157
1034.000000	29.742193
1035.000000	29.761072
1036.000000	29.770217
1037.000000	29.781623
1038.000000	29.783161
1039.000000	29.807186
1040.000000	29.822010
1041.000000	29.829601
1042.000000	29.838170
1043.000000	29.851836
1044.000000	29.863449
1045.000000	29.876405
1046.000000	29.879990
1047.000000	29.891153
1048.000000	29.899164
1049.000000	29.918286
1050.000000	29.922274
1051.000000	29.932889
1052.000000	29.949548
1053.000000	29.958041
1054.000000	29.979545
1055.000000	30.001283
1056.000000	30.006672
1057.000000	30.025295
1058.000000	30.038898
1059.000000	30.048669
1060.000000	30.064744
1061.000000	30.081799
1062.000000	30.081786
1063.000000	30.104054
1064.000000	30.110252
1065.000000	30.135894
1066.000000	30.142326
1067.000000	30.145640
1068.000000	30.157730
1069.000000	30.157948
1070.000000	30.170235
1071.000000	30.191975
1072.000000	30.213225
1073.000000	30.220434
1074.000000	30.221218
1075.000000	30.230026
1076.000000	30.240785
1077.000000	30.256487
1078.000000	30.259541
1079.000000	30.257125
1080.000000	30.257057
1081.000000	30.267353
1082.000000	30.290126
1083.000000	30.293828
1084.000000	30.311648
1085.000000	30.315277
1086.000000	30.305296
1087.000000	30.311356
1088.000000	30.324711
1089.000000	30.335268
1090.000000	30.344633
1091.000000	30.341888
1092.000000	30.334316
1093.000000	30.349928
1094.000000	30.366335
1095.000000	30.370072
1096.000000	30.371013
1097.000000	30.369496
1098.000000	30.369867
1099.000000	30.379169
1100.000000	30.366250
1101.000000	30.373344
1102.000000	30.374802
1103.000000	30.390481
1104.000000	30.381335
1105.000000	30.365592
1106.000000	30.367665
1107.000000	30.363306
1108.000000	30.362087
1109.000000	30.368152
1110.000000	30.373808
1111.000000	30.377870
1112.000000	30.362336
1113.000000	30.355696
1114.000000	30.362061
1115.000000	30.346660
1116.000000	30.329616
1117.000000	30.305175
1118.000000	30.294785
1119.000000	30.278485
1120.000000	30.280204
1121.000000	30.257273
1122.000000	30.218166
1123.000000	30.186383
1124.000000	30.163925
1125.000000	30.127637
1126.000000	30.086735
1127.000000	30.073152
1128.000000	30.017461
1129.000000	29.982396
1130.000000	29.955897
1131.000000	29.923646
1132.000000	29.885366
1133.000000	29.828896
1134.000000	29.772917
1135.000000	29.718882
1136.000000	29.683492
1137.000000	29.644803
1138.000000	29.599810
1139.000000	29.542112
1140.000000	29.489596
1141.000000	29.447520
1142.000000	29.405208
1143.000000	29.351407
1144.000000	29.295960
1145.000000	29.233677
1146.000000	29.185132
1147.000000	29.117044
1148.000000	29.056295
1149.000000	29.004695
1150.000000	28.949915
1151.000000	28.874774
1152.000000	28.822434
1153.000000	28.757793
1154.000000	28.697108
1155.000000	28.635566
1156.000000	28.570273
1157.000000	28.496969
1158.000000	28.448558
1159.000000	28.402909
1160.000000	28.321645
1161.000000	28.258700
1162.000000	28.184872
1163.000000	28.124766
1164.000000	28.050165
1165.000000	28.003888
1166.000000	27.939181
1167.000000	27.884068
1168.000000	27.820377
1169.000000	27.765021
1170.000000	27.710294
1171.000000	27.647995
1172.000000	27.603104
1173.000000	27.539724
1174.000000	27.482083
1175.000000	27.432332
1176.000000	27.399854
1177.000000	27.369814
1178.000000	27.329021
1179.000000	27.303895
1180.000000	27.281393
1181.000000	27.256328
1182.000000	27.238635
1183.000000	27.238801
1184.000000	27.232046
1185.000000	27.222051
1186.000000	27.209564
1187.000000	27.207085
1188.000000	27.213073
1189.000000	27.219113
1190.000000	27.221424
1191.000000	27.227743
1192.000000	27.237067
1193.000000	27.251750
1194.000000	27.261200
1195.000000	27.273270
1196.000000	27.286097
1197.000000	27.309782
1198.000000	27.332244
1199.000000	27.352030
1200.000000	27.364213
1201.000000	27.386279
1202.000000	27.403772
1203.000000	27.425317
1204.000000	27.443527
1205.000000	27.465745
1206.000000	27.487964
1207.000000	27.499602
1208.000000	27.517259
1209.000000	27.540040
1210.000000	27.554584
1211.000000	27.585162
1212.000000	27.604994
1213.000000	27.614912
1214.000000	27.639980
1215.000000	27.661675
1216.000000	27.687054
1217.000000	27.715559
1218.000000	27.735010
1219.000000	27.760620
1220.000000	27.785244
1221.000000	27.809873
1222.000000	27.841803
1223.000000	27.877546
1224.000000	27.900705
1225.000000	27.931579
1226.000000	27.962677
1227.000000	28.002677
1228.000000	28.019569
1229.000000	28.050574
1230.000000	28.082878
1231.000000	28.115802
1232.000000	28.141342
1233.000000	28.167043
1234.000000	28.198683
1235.000000	28.228120
1236.000000	28.255440
1237.000000	28.289274
1238.000000	28.305761
1239.000000	28.324151
1240.000000	28.349419
1241.000000	28.375158
1242.000000	28.398909
1243.000000	28.414995
1244.000000	28.431416
1245.000000	28.443869
1246.000000	28.467702
1247.000000	28.477320
1248.000000	28.477534
1249.000000	28.493369
1250.000000	28.510778
1251.000000	28.519367
1252.000000	28.519911
1253.000000	28.522945
1254.000000	28.530132
1255.000000	28.539197
1256.000000	28.541244
1257.000000	28.549190
1258.000000	28.558936
1259.000000	28.564902
1260.000000	28.573019
1261.000000	28.576586
1262.000000	28.583939
1263.000000	28.580688
1264.000000	28.580371
1265.000000	28.585783
1266.000000	28.589429
1267.000000	28.603669
1268.000000	28.606846
1269.000000	28.604658
1270.000000	28.607427
1271.000000	28.615395
1272.000000	28.627057
1273.000000	28.637218
1274.000000	28.643088
1275.000000	28.650543
1276.000000	28.650611
1277.000000	28.661067
1278.000000	28.675545
1279.000000	28.680145
1280.000000	28.683619
1281.000000	28.696297
1282.000000	28.701809
1283.000000	28.706236
1284.000000	28.710778
1285.000000	28.712292
1286.000000	28.709074
1287.000000	28.713978
1288.000000	28.727952
1289.000000	28.732145
1290.000000	28.739230
1291.000000	28.748736
1292.000000	28.752372
1293.000000	28.758265
1294.000000	28.760132
1295.000000	28.758981
1296.000000	28.757321
1297.000000	28.757314
1298.000000	28.760372
1299.000000	28.756350
1300.000000	28.755499
1301.000000	28.755210
1302.000000	28.747402
1303.000000	28.738688
1304.000000	28.738080
1305.000000	28.737505
1306.000000	28.735867
1307.000000	28.727218
1308.000000	28.717398
1309.000000	28.703039
1310.000000	28.702680
1311.000000	28.696459
1312.000000	28.684317
1313.000000	28.666751
1314.000000	28.653768
1315.000000	28.636207
1316.000000	28.622635
1317.000000	28.605151
1318.000000	28.592493
1319.000000	28.569071
1320.000000	28.541015
1321.000000	28.518628
1322.000000	28.490514
1323.000000	28.455837
1324.000000	28.426500
1325.000000	28.396378
1326.000000	28.361668
1327.000000	28.328966
1328.000000	28.283545
1329.000000	28.239802
1330.000000	28.187774
1331.000000	28.147510
1332.000000	28.104701
1333.000000	28.048894
1334.000000	27.995117
1335.000000	27.934399
1336.000000	27.877600
1337.000000	27.818654
1338.000000	27.752021
1339.000000	27.687183
1340.000000	27.631081
1341.000000	27.565940
1342.000000	27.497487
1343.000000	27.443525
1344.000000	27.390415
1345.000000	27.331434
1346.000000	27.280113
1347.000000	27.210655
1348.000000	27.164087
1349.000000	27.113223
1350.000000	27.068292
1351.000000	27.017463
1352.000000	26.965294
1353.000000	26.896748
1354.000000	26.803759
1355.000000	26.709446
1356.000000	26.638074
1357.000000	26.587725
1358.000000	26.519970
1359.000000	26.460339
1360.000000	26.371784
1361.000000	26.238804
1362.000000	26.156875
1363.000000	26.104594
1364.000000	26.019286
1365.000000	25.958356
1366.000000	25.924665
1367.000000	25.862000
1368.000000	25.789389
1369.000000	25.752760
1370.000000	25.712585
1371.000000	25.640664
1372.000000	25.608352
1373.000000	25.596225
1374.000000	25.588214
1375.000000	25.564631
1376.000000	25.542604
1377.000000	25.525820
1378.000000	25.518404
1379.000000	25.486090
1380.000000	25.412137
1381.000000	25.293932
1382.000000	25.176363
1383.000000	25.042877
1384.000000	24.946605
1385.000000	24.836366
1386.000000	24.727054
1387.000000	24.571183
1388.000000	24.407527
1389.000000	24.287375
1390.000000	24.169799
1391.000000	24.003710
1392.000000	23.844707
1393.000000	23.702388
1394.000000	23.545577
1395.000000	23.312265
1396.000000	23.139815
1397.000000	23.017040
1398.000000	22.897848
1399.000000	22.713746
1400.000000	22.483988
1401.000000	22.319521
1402.000000	22.218824
1403.000000	22.083479
1404.000000	21.896506
1405.000000	21.718776
1406.000000	21.557918
1407.000000	21.395103
1408.000000	21.226748
1409.000000	21.038295
1410.000000	20.896370
1411.000000	20.773423
1412.000000	20.625717
1413.000000	20.459463
1414.000000	20.286184
1415.000000	20.149821
1416.000000	20.037962
1417.000000	19.901929
1418.000000	19.761137
1419.000000	19.613553
1420.000000	19.501531
1421.000000	19.396872
1422.000000	19.280961
1423.000000	19.171993
1424.000000	19.080809
1425.000000	18.977335
1426.000000	18.879468
1427.000000	18.786618
1428.000000	18.685407
1429.000000	18.609655
1430.000000	18.523050
1431.000000	18.430913
1432.000000	18.352112
1433.000000	18.291213
1434.000000	18.209011
1435.000000	18.138918
1436.000000	18.082199
1437.000000	18.015356
1438.000000	17.954743
1439.000000	17.887324
1440.000000	17.831205
1441.000000	17.768950
1442.000000	17.704035
1443.000000	17.655877
1444.000000	17.612129
1445.000000	17.537455
1446.000000	17.470668
1447.000000	17.433371
1448.000000	17.391812
1449.000000	17.338434
1450.000000	17.269277
1451.000000	17.227422
1452.000000	17.177226
1453.000000	17.134211
1454.000000	17.086568
1455.000000	17.030835
1456.000000	16.989710
1457.000000	16.947611
1458.000000	16.900559
1459.000000	16.851060
1460.000000	16.798755
1461.000000	16.751659
1462.000000	16.701880
1463.000000	16.656881
1464.000000	16.621159
1465.000000	16.565580
1466.000000	16.528313
1467.000000	16.502622
1468.000000	16.460159
1469.000000	16.414701
1470.000000	16.363324
1471.000000	16.338970
1472.000000	16.294640
1473.000000	16.270904
1474.000000	16.246514
1475.000000	16.215066
1476.000000	16.176179
1477.000000	16.142336
1478.000000	16.123406
1479.000000	16.103011
1480.000000	16.062888
1481.000000	16.046551
1482.000000	16.028549
1483.000000	16.008662
1484.000000	15.997486
1485.000000	15.984785
1486.000000	15.974332
1487.000000	15.959157
1488.000000	15.962738
1489.000000	15.960871
1490.000000	15.947504
1491.000000	15.946516
1492.000000	15.948879
1493.000000	15.960118
1494.000000	15.977604
1495.000000	15.980718
1496.000000	15.980595
1497.000000	15.995913
1498.000000	16.012740
1499.000000	16.031468
1500.000000	16.052388
1501.000000	16.077286
1502.000000	16.107901
1503.000000	16.121929
1504.000000	16.146819
1505.000000	16.173372
1506.000000	16.205042
1507.000000	16.234826
1508.000000	16.268819
1509.000000	16.301468
1510.000000	16.332717
1511.000000	16.371853
1512.000000	16.409420
1513.000000	16.449620
1514.000000	16.471211
1515.000000	16.505144
1516.000000	16.548006
1517.000000	16.583785
1518.000000	16.623430
1519.000000	16.655237
1520.000000	16.694206
1521.000000	16.730532
1522.000000	16.760446
1523.000000	16.802963
1524.000000	16.836892
1525.000000	16.873002
1526.000000	16.897174
1527.000000	16.933438
1528.000000	16.965740
1529.000000	16.995834
1530.000000	17.023120
1531.000000	17.044290
1532.000000	17.074358
1533.000000	17.104358
1534.000000	17.133009
1535.000000	17.168985
1536.000000	17.201517
1537.000000	17.231841
1538.000000	17.265529
1539.000000	17.299206
1540.000000	17.321331
1541.000000	17.346890
1542.000000	17.376013
1543.000000	17.414987
1544.000000	17.446788
1545.000000	17.474210
1546.000000	17.503606
1547.000000	17.526065
1548.000000	17.552279
1549.000000	17.573853
1550.000000	17.593505
1551.000000	17.614643
1552.000000	17.640298
1553.000000	17.658879
1554.000000	17.677500
1555.000000	17.691590
1556.000000	17.708364
1557.000000	17.730830
1558.000000	17.748039
1559.000000	17.762778
1560.000000	17.772765
1561.000000	17.777065
1562.000000	17.790608
1563.000000	17.794695
1564.000000	17.789824
1565.000000	17.802086
1566.000000	17.817046
1567.000000	17.814330
1568.000000	17.813581
1569.000000	17.814682
1570.000000	17.816356
1571.000000	17.823385
1572.000000	17.819959
1573.000000	17.819861
1574.000000	17.830084
1575.000000	17.837972
1576.000000	17.840152
1577.000000	17.849740
1578.000000	17.849162
1579.000000	17.848867
1580.000000	17.863159
1581.000000	17.882357
1582.000000	17.886692
1583.000000	17.902196
1584.000000	17.925810
1585.000000	17.945407
1586.000000	17.962286
1587.000000	17.992835
1588.000000	18.010632
1589.000000	18.033541
1590.000000	18.060096
1591.000000	18.074176
1592.000000	18.109586
1593.000000	18.152288
1594.000000	18.182870
1595.000000	18.216126
1596.000000	18.245495
1597.000000	18.274745
1598.000000	18.314893
1599.000000	18.356714
1600.000000	18.385667
1601.000000	18.413565
1602.000000	18.445081
1603.000000	18.462787
1604.000000	18.504020
1605.000000	18.545906
1606.000000	18.584280
1607.000000	18.630129
1608.000000	18.664194
1609.000000	18.698114
1610.000000	18.731369
1611.000000	18.757018
1612.000000	18.783041
1613.000000	18.815809
1614.000000	18.848338
1615.000000	18.884070
1616.000000	18.902557
1617.000000	18.927319
1618.000000	18.974582
1619.000000	19.009489
1620.000000	19.018985
1621.000000	19.049154
1622.000000	19.063155
1623.000000	19.078972
1624.000000	19.112466
1625.000000	19.128602
1626.000000	19.144047
1627.000000	19.166482
1628.000000	19.194948
1629.000000	19.204945
1630.000000	19.221484
1631.000000	19.248421
1632.000000	19.262813
1633.000000	19.269078
1634.000000	19.287452
1635.000000	19.309977
1636.000000	19.329166
1637.000000	19.334219
1638.000000	19.341643
1639.000000	19.353185
1640.000000	19.365376
1641.000000	19.365942
1642.000000	19.389611
1643.000000	19.388633
1644.000000	19.368382
1645.000000	19.369031
1646.000000	19.362130
1647.000000	19.344022
1648.000000	19.335871
1649.000000	19.335065
1650.000000	19.312149
1651.000000	19.288475
1652.000000	19.262240
1653.000000	19.254526
1654.000000	19.215876
1655.000000	19.177756
1656.000000	19.143235
1657.000000	19.103165
1658.000000	19.048808
1659.000000	19.002900
1660.000000	18.956479
1661.000000	18.896518
1662.000000	18.839388
1663.000000	18.775827
1664.000000	18.720582
1665.000000	18.660356
1666.000000	18.575781
1667.000000	18.502948
1668.000000	18.439466
1669.000000	18.363526
1670.000000	18.270952
1671.000000	18.185596
1672.000000	18.080494
1673.000000	17.982271
1674.000000	17.911802
1675.000000	17.788493
1676.000000	17.700423
1677.000000	17.610570
1678.000000	17.519638
1679.000000	17.455784
1680.000000	17.378905
1681.000000	17.329845
1682.000000	17.276866
1683.000000	17.234676
1684.000000	17.186132
1685.000000	17.139881
1686.000000	17.089076
1687.000000	17.045932
1688.000000	16.991603
1689.000000	16.947981
1690.000000	16.899102
1691.000000	16.846276
1692.000000	16.801650
1693.000000	16.758813
1694.000000	16.734935
1695.000000	16.730074
1696.000000	16.716853
1697.000000	16.703369
1698.000000	16.695080
1699.000000	16.666669
1700.000000	16.658510
1701.000000	16.633448
1702.000000	16.613709
1703.000000	16.569962
1704.000000	16.524009
1705.000000	16.487003
1706.000000	16.423236
1707.000000	16.388277
1708.000000	16.320929
1709.000000	16.269571
1710.000000	16.203745
1711.000000	16.125635
1712.000000	16.072248
1713.000000	16.014680
1714.000000	15.954937
1715.000000	15.906420
1716.000000	15.847803
1717.000000	15.776855
1718.000000	15.743996
1719.000000	15.696709
1720.000000	15.662589
1721.000000	15.601825
1722.000000	15.578894
1723.000000	15.531967
1724.000000	15.500081
1725.000000	15.474148
1726.000000	15.451847
1727.000000	15.426228
1728.000000	15.430405
1729.000000	15.421216
1730.000000	15.438885
1731.000000	15.453161
1732.000000	15.486392
1733.000000	15.526506
1734.000000	15.563065
1735.000000	15.603415
1736.000000	15.649298
1737.000000	15.699257
1738.000000	15.750637
1739.000000	15.777508
1740.000000	15.819355
1741.000000	15.879972
1742.000000	15.925798
1743.000000	15.954229
1744.000000	15.995313
1745.000000	16.039822
1746.000000	16.074816
1747.000000	16.107922
1748.000000	16.140735
1749.000000	16.178884
1750.000000	16.211941
1751.000000	16.247034
1752.000000	16.270237
1753.000000	16.283600
1754.000000	16.315672
1755.000000	16.331385
1756.000000	16.340701
1757.000000	16.364864
1758.000000	16.384400
1759.000000	16.398579
1760.000000	16.430984
1761.000000	16.450094
1762.000000	16.463781
1763.000000	16.472314
1764.000000	16.492435
1765.000000	16.523810
1766.000000	16.537309
1767.000000	16.562932
1768.000000	16.579911
1769.000000	16.598471
1770.000000	16.613483
1771.000000	16.613871
1772.000000	16.646944
1773.000000	16.684891
1774.000000	16.709742
1775.000000	16.725989
1776.000000	16.744479
1777.000000	16.769103
1778.000000	16.780516
1779.000000	16.799388
1780.000000	16.817867
1781.000000	16.840648
1782.000000	16.873043
1783.000000	16.892404
1784.000000	16.902464
1785.000000	16.917729
1786.000000	16.939795
1787.000000	16.952971
1788.000000	16.967049
1789.000000	16.979657
1790.000000	16.994438
1791.000000	17.012372
1792.000000	17.026185
1793.000000	17.048541
1794.000000	17.061342
1795.000000	17.067805
1796.000000	17.082528
1797.000000	17.103477
1798.000000	17.121987
1799.000000	17.136678
1800.000000	17.138555
1801.000000	17.149589
1802.000000	17.166354
1803.000000	17.198370
1804.000000	17.229128
1805.000000	17.230961
1806.000000	17.231105
1807.000000	17.256456
1808.000000	17.288704
1809.000000	17.313876
1810.000000	17.315961
1811.000000	17.302710
1812.000000	17.317382
1813.000000	17.368497
1814.000000	17.385772
1815.000000	17.386080
1816.000000	17.403949
1817.000000	17.456438
1818.000000	17.510776
1819.000000	17.500497
1820.000000	17.446352
1821.000000	17.402533
1822.000000	17.429973
1823.000000	17.511695
1824.000000	17.574208
1825.000000	17.589864
1826.000000	17.590787
1827.000000	17.589317
1828.000000	17.602172
1829.000000	17.587536
1830.000000	17.587087
1831.000000	17.615174
1832.000000	17.662295
1833.000000	17.748599
1834.000000	17.778250
1835.000000	17.777831
1836.000000	17.767246
1837.000000	17.758285
1838.000000	17.795641
1839.000000	17.833110
1840.000000	17.806022
1841.000000	17.766560
1842.000000	17.775631
1843.000000	17.824555
1844.000000	17.935335
1845.000000	18.018059
1846.000000	17.987290
1847.000000	17.886638
1848.000000	17.810254
1849.000000	17.817406
1850.000000	17.860451
1851.000000	17.925226
1852.000000	17.929106
1853.000000	17.910789
1854.000000	17.876198
1855.000000	17.885051
1856.000000	17.921931
1857.000000	17.923256
1858.000000	17.874398
1859.000000	17.850440
1860.000000	17.830485
1861.000000	17.808602
1862.000000	17.791426
1863.000000	17.784504
1864.000000	17.749870
1865.000000	17.758846
1866.000000	17.778932
1867.000000	17.708466
1868.000000	17.637500
1869.000000	17.519563
1870.000000	17.373738
1871.000000	17.210390
1872.000000	17.044539
1873.000000	16.939989
1874.000000	16.801020
1875.000000	16.651041
1876.000000	16.517123
1877.000000	16.389123
1878.000000	16.252417
1879.000000	16.127473
1880.000000	16.002621
1881.000000	15.844864
1882.000000	15.675157
1883.000000	15.502832
1884.000000	15.358821
1885.000000	15.173581
1886.000000	15.012563
1887.000000	14.862773
1888.000000	14.737486
1889.000000	14.539374
1890.000000	14.366340
1891.000000	14.149875
1892.000000	13.960271
1893.000000	13.769949
1894.000000	13.548004
1895.000000	13.343669
1896.000000	13.198876
1897.000000	13.003559
1898.000000	12.778591
1899.000000	12.560184
1900.000000	12.340755
1901.000000	12.098211
1902.000000	11.953109
1903.000000	11.733802
1904.000000	11.511880
1905.000000	11.334963
1906.000000	11.092607
1907.000000	10.907777
1908.000000	10.761826
1909.000000	10.625306
1910.000000	10.465410
1911.000000	10.367388
1912.000000	10.187723
1913.000000	10.074738
1914.000000	9.903772
1915.000000	9.820869
1916.000000	9.758500
1917.000000	9.699320
1918.000000	9.603880
1919.000000	9.498063
1920.000000	9.433820
1921.000000	9.310283
1922.000000	9.240111
1923.000000	9.212384
1924.000000	9.205798
1925.000000	9.129302
1926.000000	9.063956
1927.000000	9.051297
1928.000000	9.001759
1929.000000	8.974259
1930.000000	8.910715
1931.000000	8.922020
1932.000000	8.894808
1933.000000	8.895417
1934.000000	8.879858
1935.000000	8.901121
1936.000000	8.900759
1937.000000	8.908846
1938.000000	8.861982
1939.000000	8.861391
1940.000000	8.890451
1941.000000	8.872723
1942.000000	8.925215
1943.000000	8.943011
1944.000000	8.933284
1945.000000	8.975764
1946.000000	8.967918
1947.000000	8.980790
1948.000000	9.049353
1949.000000	9.080177
1950.000000	9.122743
1951.000000	9.134564
1952.000000	9.180635
1953.000000	9.206114
1954.000000	9.208635
1955.000000	9.257832
1956.000000	9.275899
1957.000000	9.323957
1958.000000	9.334053
1959.000000	9.404461
1960.000000	9.433407
1961.000000	9.500542
1962.000000	9.538574
1963.000000	9.560224
1964.000000	9.565471
1965.000000	9.645088
1966.000000	9.663036
1967.000000	9.665456
1968.000000	9.714016
1969.000000	9.777328
1970.000000	9.815715
1971.000000	9.882083
1972.000000	9.939219
1973.000000	9.972737
1974.000000	9.986335
1975.000000	10.054527
1976.000000	10.065167
1977.000000	10.081176
1978.000000	10.174853
1979.000000	10.205713
1980.000000	10.239962
1981.000000	10.284395
1982.000000	10.339403
1983.000000	10.369317
1984.000000	10.408258
1985.000000	10.481451
1986.000000	10.518841
1987.000000	10.567104
1988.000000	10.610707
1989.000000	10.648966
1990.000000	10.677839
1991.000000	10.692440
1992.000000	10.735050
1993.000000	10.833411
1994.000000	10.789502
1995.000000	10.838721
1996.000000	10.863231
1997.000000	10.863211
1998.000000	10.903766
1999.000000	10.975141
2000.000000	10.971546
2001.000000	11.012578
2002.000000	11.035610
2003.000000	11.058092
2004.000000	11.040330
2005.000000	11.056762
2006.000000	11.088173
2007.000000	11.088200
2008.000000	11.089264
2009.000000	11.114728
2010.000000	11.125655
2011.000000	11.129993
2012.000000	11.155869
2013.000000	11.151651
2014.000000	11.097638
2015.000000	11.109976
2016.000000	11.044583
2017.000000	11.034916
2018.000000	11.046868
2019.000000	11.082765
2020.000000	10.986604
2021.000000	10.957401
2022.000000	10.939165
2023.000000	10.873264
2024.000000	10.863157
2025.000000	10.855123
2026.000000	10.771747
2027.000000	10.751265
2028.000000	10.695671
2029.000000	10.666545
2030.000000	10.660282
2031.000000	10.591546
2032.000000	10.507387
2033.000000	10.473257
2034.000000	10.422843
2035.000000	10.401878
2036.000000	10.333572
2037.000000	10.222959
2038.000000	10.220061
2039.000000	10.189742
2040.000000	10.142193
2041.000000	10.092884
2042.000000	9.959177
2043.000000	9.893922
2044.000000	9.916464
2045.000000	9.916743
2046.000000	9.841147
2047.000000	9.836911
2048.000000	9.804160
2049.000000	9.693151
2050.000000	9.673869
2051.000000	9.643153
2052.000000	9.676865
2053.000000	9.690114
2054.000000	9.675602
2055.000000	9.702305
2056.000000	9.663201
2057.000000	9.596312
2058.000000	9.696832
2059.000000	9.800454
2060.000000	9.792365
2061.000000	9.800915
2062.000000	9.786515
2063.000000	9.838088
2064.000000	9.886113
2065.000000	9.927045
2066.000000	10.033033
2067.000000	10.115001
2068.000000	10.134477
2069.000000	10.168488
2070.000000	10.287232
2071.000000	10.282672
2072.000000	10.290677
2073.000000	10.356390
2074.000000	10.379349
2075.000000	10.398798
2076.000000	10.404284
2077.000000	10.475575
2078.000000	10.585395
2079.000000	10.674030
2080.000000	10.694446
2081.000000	10.722054
2082.000000	10.788354
2083.000000	10.762366
2084.000000	10.737211
2085.000000	10.714551
2086.000000	10.732976
2087.000000	10.777978
2088.000000	10.778822
2089.000000	10.830522
2090.000000	10.862103
2091.000000	10.827338
2092.000000	10.875657
2093.000000	10.864805
2094.000000	10.907633
2095.000000	10.943390
2096.000000	10.903715
2097.000000	10.913873
2098.000000	10.898292
2099.000000	10.941213
2100.000000	10.943324
2101.000000	10.888531
2102.000000	10.902051
2103.000000	10.969108
2104.000000	10.998573
2105.000000	10.966617
2106.000000	10.977119
2107.000000	10.999558
2108.000000	11.013741
2109.000000	10.920262
2110.000000	10.916404
2111.000000	11.007718
2112.000000	11.100170
2113.000000	11.100753
2114.000000	11.115820
2115.000000	11.187564
2116.000000	11.159698
2117.000000	11.072387
2118.000000	11.046490
2119.000000	11.097748
2120.000000	11.105082
2121.000000	11.154398
2122.000000	11.113518
2123.000000	11.082839
2124.000000	11.102375
2125.000000	11.127035
2126.000000	11.108611
2127.000000	11.143460
2128.000000	11.068258
2129.000000	11.070633
2130.000000	11.052053
2131.000000	11.039113
2132.000000	10.956783
2133.000000	10.996700
2134.000000	10.889247
2135.000000	10.951331
2136.000000	10.819182
2137.000000	10.849078
2138.000000	10.857058
2139.000000	10.723561
2140.000000	10.581991
2141.000000	10.544861
2142.000000	10.620013
2143.000000	10.553165
2144.000000	10.397718
2145.000000	10.589763
2146.000000	10.531173
2147.000000	10.324534
2148.000000	10.345463
2149.000000	10.169410
2150.000000	10.138807
2151.000000	10.147224
2152.000000	10.118554
2153.000000	10.134796
2154.000000	10.011250
2155.000000	10.002955
2156.000000	9.831278
2157.000000	9.706719
2158.000000	9.741154
2159.000000	9.653635
2160.000000	9.650656
2161.000000	9.625119
2162.000000	9.663891
2163.000000	9.774666
2164.000000	9.675503
2165.000000	9.530602
2166.000000	9.604046
2167.000000	9.515395
2168.000000	9.569318
2169.000000	9.522158
2170.000000	9.602375
2171.000000	9.418793
2172.000000	9.443976
2173.000000	9.438125
2174.000000	9.357559
2175.000000	9.366643
2176.000000	9.378627
2177.000000	9.418565
2178.000000	9.379839
2179.000000	9.223084
2180.000000	9.251186
2181.000000	9.183187
2182.000000	9.318473
2183.000000	9.323648
2184.000000	9.347309
2185.000000	9.396537
2186.000000	9.418398
2187.000000	9.322617
2188.000000	9.405917
2189.000000	9.295479
2190.000000	9.300195
2191.000000	9.276638
2192.000000	9.300838
2193.000000	9.134782
2194.000000	9.250605
2195.000000	9.371672
2196.000000	9.281976
2197.000000	9.237241
2198.000000	9.235929
2199.000000	9.281511
2200.000000	9.325363
2201.000000	9.391140
2202.000000	9.363516
2203.000000	9.396871
2204.000000	9.316967
2205.000000	9.334684
2206.000000	9.438370
2207.000000	9.529123
2208.000000	9.443589
2209.000000	9.554176
2210.000000	9.496663
2211.000000	9.508826
2212.000000	9.577984
2213.000000	9.523298
2214.000000	9.640829
2215.000000	9.762251
2216.000000	9.723323
2217.000000	9.744006
2218.000000	9.613599
2219.000000	9.670184
2220.000000	9.801925
2221.000000	9.751351
2222.000000	9.693613
2223.000000	9.789712
2224.000000	9.792497
2225.000000	9.840862
2226.000000	9.839854
2227.000000	10.024143
2228.000000	9.976448
2229.000000	9.885997
2230.000000	10.005691
2231.000000	10.052220
2232.000000	10.003038
2233.000000	10.024212
2234.000000	10.011559
2235.000000	9.902572
2236.000000	9.918103
2237.000000	9.921686
2238.000000	9.772221
2239.000000	9.844379
2240.000000	9.947244
2241.000000	9.845916
2242.000000	9.945219
2243.000000	9.881200
2244.000000	9.876832
2245.000000	9.798322
2246.000000	9.669588
2247.000000	9.570789
2248.000000	9.574937
2249.000000	9.415681
2250.000000	9.536993
2251.000000	9.476182
2252.000000	9.401297
2253.000000	9.465664
2254.000000	9.291311
2255.000000	9.203325
2256.000000	9.223831
2257.000000	9.206108
2258.000000	9.058209
2259.000000	9.022814
2260.000000	8.883928
2261.000000	9.008860
2262.000000	8.882286
2263.000000	8.712235
2264.000000	8.750766
2265.000000	8.885331
2266.000000	8.662179
2267.000000	8.747013
2268.000000	8.849551
2269.000000	8.716214
2270.000000	8.669625
2271.000000	8.856990
2272.000000	8.845481
2273.000000	8.813557
2274.000000	8.847528
2275.000000	8.715792
2276.000000	8.574968
2277.000000	8.707620
2278.000000	8.747267
2279.000000	8.759423
2280.000000	8.714082
2281.000000	8.790761
2282.000000	8.952653
2283.000000	8.813974
2284.000000	8.712728
2285.000000	8.768093
2286.000000	8.670776
2287.000000	8.759242
2288.000000	8.883862
2289.000000	8.813736
2290.000000	8.799024
2291.000000	8.677405
2292.000000	8.703832
2293.000000	8.796794
2294.000000	8.870694
2295.000000	8.961832
2296.000000	8.865603
2297.000000	8.713661
2298.000000	8.840891
2299.000000	8.837011
2300.000000	8.821209
2301.000000	8.890234
2302.000000	8.931848
2303.000000	9.089179
2304.000000	8.985883
2305.000000	9.044241
2306.000000	9.024574
2307.000000	8.969269
2308.000000	8.968278
2309.000000	8.994041
2310.000000	8.961697
2311.000000	8.929288
2312.000000	9.124429
2313.000000	9.230444
2314.000000	9.110439
2315.000000	9.262366
2316.000000	9.259908
2317.000000	9.238120
2318.000000	9.226761
2319.000000	9.241212
2320.000000	9.276623
2321.000000	9.353884
2322.000000	9.443325
2323.000000	9.350303
2324.000000	9.524983
2325.000000	9.560250
2326.000000	9.698602
2327.000000	9.729979
2328.000000	9.490041
2329.000000	9.452389
2330.000000	9.547619
2331.000000	9.590691
2332.000000	9.599655
2333.000000	9.755507
2334.000000	9.729020
2335.000000	9.606018
2336.000000	9.652186
2337.000000	9.726683
2338.000000	9.504098
2339.000000	9.459347
2340.000000	9.630389
2341.000000	9.687571
2342.000000	9.722454
2343.000000	9.642949
2344.000000	9.487032
2345.000000	9.458946
2346.000000	9.703748
2347.000000	9.920024
2348.000000	9.905960
2349.000000	9.710788
2350.000000	9.649321
2351.000000	9.753113
2352.000000	9.979591
2353.000000	10.146505
2354.000000	9.958400
2355.000000	10.079990
2356.000000	10.291702
2357.000000	10.127093
2358.000000	10.146050
2359.000000	10.055852
2360.000000	10.119615
2361.000000	10.284568
2362.000000	10.151021
2363.000000	10.058105
2364.000000	10.150052
2365.000000	10.144399
2366.000000	10.110301
2367.000000	10.267118
2368.000000	10.508812
2369.000000	10.492257
2370.000000	10.379142
2371.000000	10.291288
2372.000000	10.187222
2373.000000	10.211278
2374.000000	10.392629
2375.000000	10.506123
2376.000000	10.369473
2377.000000	10.405944
2378.000000	10.547984
2379.000000	10.375446
2380.000000	10.306563
2381.000000	10.554196
2382.000000	10.548670
2383.000000	10.333981
2384.000000	10.450290
2385.000000	10.627258
2386.000000	10.516801
2387.000000	10.280049
2388.000000	10.238043
2389.000000	10.483710
2390.000000	10.758024
2391.000000	10.733781
2392.000000	10.875834
2393.000000	10.788268
2394.000000	10.652813
2395.000000	10.676443
2396.000000	10.655649
2397.000000	10.244769
2398.000000	10.538645
2399.000000	10.487294
2400.000000	10.511909
2401.000000	10.692165
2402.000000	10.805313
2403.000000	10.705765
2404.000000	10.694460
2405.000000	10.499169
2406.000000	10.632249
2407.000000	10.765342
2408.000000	10.955886
2409.000000	11.041870
2410.000000	11.017312
2411.000000	10.661610
2412.000000	10.565428
2413.000000	10.359260
2414.000000	10.370000
2415.000000	10.559386
2416.000000	10.865483
2417.000000	10.734343
2418.000000	10.700093
2419.000000	10.969912
2420.000000	10.422575
2421.000000	10.464917
2422.000000	10.624897
2423.000000	10.557298
2424.000000	10.478317
2425.000000	10.586470
2426.000000	10.867626
2427.000000	10.630018
2428.000000	10.888130
2429.000000	10.803875
2430.000000	10.353905
2431.000000	10.375176
2432.000000	10.316476
2433.000000	10.392069
2434.000000	10.114155
2435.000000	10.203056
2436.000000	10.391037
2437.000000	10.258427
2438.000000	10.038551
2439.000000	10.801790
2440.000000	10.502204
2441.000000	10.819324
2442.000000	10.546639
2443.000000	10.546552
2444.000000	10.208938
2445.000000	9.861512
2446.000000	10.523233
2447.000000	10.366350
2448.000000	10.369049
2449.000000	10.844148
2450.000000	10.825813
2451.000000	10.673175
2452.000000	10.087479
2453.000000	10.590262
2454.000000	10.818897
2455.000000	10.662573
2456.000000	10.749017
2457.000000	10.758376
2458.000000	10.369558
2459.000000	11.667296
2460.000000	11.973268
2461.000000	10.878279
2462.000000	11.413209
2463.000000	10.699908
2464.000000	11.175016
2465.000000	11.463251
2466.000000	11.415709
2467.000000	12.404641
2468.000000	12.124371
2469.000000	12.154623
2470.000000	13.147199
2471.000000	13.457207
2472.000000	12.758232
2473.000000	14.049858
2474.000000	13.811057
2475.000000	13.706565
2476.000000	15.017159
2477.000000	14.193737
2478.000000	14.368507
2479.000000	15.592285
2480.000000	16.071999
2481.000000	17.312756
2482.000000	17.399758
2483.000000	16.825685
2484.000000	19.428274
2485.000000	21.959770
2486.000000	24.234240
2487.000000	21.165757
2488.000000	24.937127
2489.000000	25.267465
2490.000000	29.225990
2491.000000	30.153486
2492.000000	32.175146
2493.000000	36.779924
2494.000000	40.161022
2495.000000	50.237217
2496.000000	44.884445
2497.000000	44.699908
2498.000000	66.931204
2499.000000	81.508616
2500.000000	109.790652
2501.000000	nan
2502.000000	nan
2503.000000	nan
2504.000000	nan
2505.000000	nan
2506.000000	nan
2507.000000	nan
2508.000000	nan
2509.000000	nan
2510.000000	nan
2511.000000	nan
2512.000000	nan
2513.000000	nan
2514.000000	nan
2515.000000	nan
2516.000000	nan
2517.000000	nan
2518.000000	nan
2519.000000	nan
2520.000000	nan
2521.000000	nan
2522.000000	nan
2523.000000	nan
2524.000000	nan
2525.000000	nan
2526.000000	nan
2527.000000	nan
2528.000000	nan
2529.000000	nan
2530.000000	nan
2531.000000	nan
2532.000000	nan
2533.000000	nan
2534.000000	nan
2535.000000	nan
2536.000000	nan
2537.000000	nan
2538.000000	nan
2539.000000	nan
2540.000000	nan
2541.000000	nan
2542.000000	nan
2543.000000	nan
2544.000000	nan
2545.000000	nan
2546.000000	nan
2547.000000	nan
2548.000000	nan
2549.000000	nan
2550.000000	nan
2551.000000	nan
2552.000000	nan
2553.000000	nan
2554.000000	nan
2555.000000	nan
2556.000000	nan
2557.000000	nan
2558.000000	nan
2559.000000	nan
2560.000000	nan
2561.000000	nan
2562.000000	nan
2563.000000	nan
2564.000000	nan
2565.000000	nan
2566.000000	nan
2567.000000	nan
2568.000000	nan
2569.000000	nan
2570.000000	nan
2571.000000	nan
2572.000000	nan
2573.000000	nan
2574.000000	nan
2575.000000	nan
2576.000000	nan
2577.000000	nan
2578.000000	nan
2579.000000	nan
2580.000000	nan
2581.000000	nan
2582.000000	nan
2583.000000	nan
2584.000000	nan
2585.000000	nan
2586.000000	nan
2587.000000	nan
2588.000000	nan
2589.000000	nan
2590.000000	nan
2591.000000	nan
2592.000000	nan
2593.000000	nan
2594.000000	nan
2595.000000	nan
2596.000000	nan
2597.000000	nan
2598.000000	nan
2599.000000	nan
2600.000000	nan
2601.000000	nan
2602.000000	nan
2603.000000	nan
2604.000000	nan
2605.000000	nan
2606.000000	nan
2607.000000	nan
2608.000000	nan
2609.000000	nan
2610.000000	nan
2611.000000	nan
2612.000000	nan
2613.000000	nan
2614.000000	nan
2615.000000	nan
2616.000000	nan
2617.000000	nan
2618.000000	nan
2619.000000	nan
2620.000000	nan
2621.000000	nan
2622.000000	nan
2623.000000	nan
2624.000000	nan
2625.000000	nan
2626.000000	nan
2627.000000	nan
2628.000000	nan
2629.000000	nan
2630.000000	nan
2631.000000	nan
2632.000000	nan
2633.000000	nan
2634.000000	nan
2635.000000	nan
2636.000000	nan
2637.000000	nan
2638.000000	nan
2639.000000	nan
2640.000000	nan
2641.000000	nan
2642.000000	nan
2643.000000	nan
2644.000000	nan
2645.000000	nan
2646.000000	nan
2647.000000	nan
2648.000000	nan
2649.000000	nan
2650.000000	nan
2651.000000	nan
2652.000000	nan
2653.000000	nan
2654.000000	nan
2655.000000	nan
2656.000000	nan
2657.000000	nan
2658.000000	nan
2659.000000	nan
2660.000000	nan
2661.000000	nan
2662.000000	nan
2663.000000	nan
2664.000000	nan
2665.000000	nan
2666.000000	nan
2667.000000	nan
2668.000000	nan
2669.000000	nan
2670.000000	nan
2671.000000	nan
2672.000000	nan
2673.000000	nan
2674.000000	nan
2675.000000	nan
2676.000000	nan
2677.000000	nan
2678.000000	nan
2679.000000	nan
2680.000000	nan
2681.000000	nan
2682.000000	nan
2683.000000	nan
2684.000000	nan
2685.000000	nan
2686.000000	nan
2687.000000	nan
2688.000000	nan
2689.000000	nan
2690.000000	nan
2691.000000	nan
2692.000000	nan
2693.000000	nan
2694.000000	nan
2695.000000	nan
2696.000000	nan
2697.000000	nan
2698.000000	nan
2699.000000	nan
2700.000000	nan
2701.000000	nan
2702.000000	nan
2703.000000	nan
2704.000000	nan
2705.000000	nan
2706.000000	nan
2707.000000	nan
2708.000000	nan
2709.000000	nan
2710.000000	nan
2711.000000	nan
2712.000000	nan
2713.000000	nan
2714.000000	nan
2715.000000	nan
2716.000000	nan
2717.000000	nan
2718.000000	nan
2719.000000	nan
2720.000000	nan
2721.000000	nan
2722.000000	nan
2723.000000	nan
2724.000000	nan
2725.000000	nan
2726.000000	nan
2727.000000	nan
2728.000000	nan
2729.000000	nan
2730.000000	nan
2731.000000	nan
2732.000000	nan
2733.000000	nan
2734.000000	nan
2735.000000	nan
2736.000000	nan
2737.000000	nan
2738.000000	nan
2739.000000	nan
2740.000000	nan
2741.000000	nan
2742.000000	nan
2743.000000	nan
2744.000000	nan
2745.000000	nan
2746.000000	nan
2747.000000	nan
2748.000000	nan
2749.000000	nan
2750.000000	nan
2751.000000	nan
2752.000000	nan
2753.000000	nan
2754.000000	nan
2755.000000	nan
2756.000000	nan
2757.000000	nan
2758.000000	nan
2759.000000	nan
2760.000000	nan
2761.000000	nan
2762.000000	nan
2763.000000	nan
2764.000000	nan
2765.000000	nan
2766.000000	nan
2767.000000	nan
2768.000000	nan
2769.000000	nan
2770.000000	nan
2771.000000	nan
2772.000000	nan
2773.000000	nan
2774.000000	nan
2775.000000	nan
2776.000000	nan
2777.000000	nan
2778.000000	nan
2779.000000	nan
2780.000000	nan
2781.000000	nan
2782.000000	nan
2783.000000	nan
2784.000000	nan
2785.000000	nan
2786.000000	nan
2787.000000	nan
2788.000000	nan
2789.000000	nan
2790.000000	nan
2791.000000	nan
2792.000000	nan
2793.000000	nan
2794.000000	nan
2795.000000	nan
2796.000000	nan
2797.000000	nan
2798.000000	nan
2799.000000	nan
2800.000000	nan
2801.000000	nan
2802.000000	nan
2803.000000	nan
2804.000000	nan
2805.000000	nan
2806.000000	nan
2807.000000	nan
2808.000000	nan
2809.000000	nan
2810.000000	nan
2811.000000	nan
2812.000000	nan
2813.000000	nan
2814.000000	nan
2815.000000	nan
2816.000000	nan
2817.000000	nan
2818.000000	nan
2819.000000	nan
2820.000000	nan
2821.000000	nan
2822.000000	nan
2823.000000	nan
2824.000000	nan
2825.000000	nan
2826.000000	nan
2827.000000	nan
2828.000000	nan
2829.000000	nan
2830.000000	nan
2831.000000	nan
2832.000000	nan
2833.000000	nan
2834.000000	nan
2835.000000	nan
2836.000000	nan
2837.000000	nan
2838.000000	nan
2839.000000	nan
2840.000000	nan
2841.000000	nan
2842.000000	nan
2843.000000	nan
2844.000000	nan
2845.000000	nan
2846.000000	nan
2847.000000	nan
2848.000000	nan
2849.000000	nan
2850.000000	nan
2851.000000	nan
2852.000000	nan
2853.000000	nan
2854.000000	nan
2855.000000	nan
2856.000000	nan
2857.000000	nan
2858.000000	nan
2859.000000	nan
2860.000000	nan
2861.000000	nan
2862.000000	nan
2863.000000	nan
2864.000000	nan
2865.000000	nan
2866.000000	nan
2867.000000	nan
2868.000000	nan
2869.000000	nan
2870.000000	nan
2871.000000	nan
2872.000000	nan
2873.000000	nan
2874.000000	nan
2875.000000	nan
2876.000000	nan
2877.000000	nan
2878.000000	nan
2879.000000	nan
2880.000000	nan
2881.000000	nan
2882.000000	nan
2883.000000	nan
2884.000000	nan
2885.000000	nan
2886.000000	nan
2887.000000	nan
2888.000000	nan
2889.000000	nan
2890.000000	nan
2891.000000	nan
2892.000000	nan
2893.000000	nan
2894.000000	nan
2895.000000	nan
2896.000000	nan
2897.000000	nan
2898.000000	nan
2899.000000	nan
2900.000000	nan
2901.000000	nan
2902.000000	nan
2903.000000	nan
2904.000000	nan
2905.000000	nan
2906.000000	nan
2907.000000	nan
2908.000000	nan
2909.000000	nan
2910.000000	nan
2911.000000	nan
2912.000000	nan
2913.000000	nan
2914.000000	nan
2915.000000	nan
2916.000000	nan
2917.000000	nan
2918.000000	nan
2919.000000	nan
2920.000000	nan
2921.000000	nan
2922.000000	nan
2923.000000	nan
2924.000000	nan
2925.000000	nan
2926.000000	nan
2927.000000	nan
2928.000000	nan
2929.000000	nan
2930.000000	nan
2931.000000	nan
2932.000000	nan
2933.000000	nan
2934.000000	nan
2935.000000	nan
2936.000000	nan
2937.000000	nan
2938.000000	nan
2939.000000	nan
2940.000000	nan
2941.000000	nan
2942.000000	nan
2943.000000	nan
2944.000000	nan
2945.000000	nan
2946.000000	nan
2947.000000	nan
2948.000000	nan
2949.000000	nan
2950.000000	nan
2951.000000	nan
2952.000000	nan
2953.000000	nan
2954.000000	nan
2955.000000	nan
2956.000000	nan
2957.000000	nan
2958.000000	nan
2959.000000	nan
2960.000000	nan
2961.000000	nan
2962.000000	nan
2963.000000	nan
2964.000000	nan
2965.000000	nan
2966.000000	nan
2967.000000	nan
2968.000000	nan
2969.000000	nan
2970.000000	nan
2971.000000	nan
2972.000000	nan
2973.000000	nan
2974.000000	nan
2975.000000	nan
2976.000000	nan
2977.000000	nan
2978.000000	nan
2979.000000	nan
2980.000000	nan
2981.000000	nan
2982.000000	nan
2983.000000	nan
2984.000000	nan
2985.000000	nan
2986.000000	nan
2987.000000	nan
2988.000000	nan
2989.000000	nan
2990.000000	nan
2991.000000	nan
2992.000000	nan
2993.000000	nan
2994.000000	nan
2995.000000	nan
2996.000000	nan
2997.000000	nan
2998.000000	nan
2999.000000	nan
3000.000000	nan
