PE UV       SUBTECH     SPECTRUM    ASCII       PEDS        4.00        
   -1
INBUCR0311-4.Sample.ASC
24/02/08
15:44:45.00
24/02/08
15:44:45.00
Vinicio Soto Monge
COSTA RICA. Prov. Limón. Veragua Rainforest, carretera. 429 m. 26-28 JUL 2010. R. Villalobos. Colecta Libre. L_N_212301_624710 #101098 INB0004275186 INBIOCRI COSTA RICA
250,000000
1
Lambda 1050
1050L1511233
PerkinElmer UV WinLab 6.3.2.0749 / 2.02.05 Lambda 900 UV/VIS/NIR, Aug  7 2015 09:38:08

0
0
3350/servo 860,8/2
0
0
UV/VIS
1
1
1
DoubleDePol,CommonBeamDepol,RBeamAtt,SBeamAtt,60mm sphere, WB InGaAs Detector
0
0
0
0
Program
Program
3350/servo 860,8/2
3350/0,2 860,8/0,2
3350/0,2 860,8/0,2
0
15.00
 
 
 
0
 
860,8
319,2
860,8
Front
100
on
S:100 R:100
0
0
0
0
 
0
 
 
 
0
 
 
0
0
0
0
0
 
 
 
 
0
0


0
0
#HDR
-1
-1
#GR
nm
%R
1.0
0.0
2500,000000
-1,000000
2251
8
7,048300
0,490200
#DATA

250.000000	3.103524
251.000000	3.167814
252.000000	3.126197
253.000000	3.141711
254.000000	3.115046
255.000000	3.140081
256.000000	3.107634
257.000000	3.153663
258.000000	3.140124
259.000000	3.161025
260.000000	3.139081
261.000000	3.143448
262.000000	3.153652
263.000000	3.138716
264.000000	3.158839
265.000000	3.109201
266.000000	3.103911
267.000000	3.082727
268.000000	3.102161
269.000000	3.083287
270.000000	3.094575
271.000000	3.063390
272.000000	3.049170
273.000000	3.062084
274.000000	3.070674
275.000000	3.082902
276.000000	3.048359
277.000000	3.043386
278.000000	3.073005
279.000000	3.052348
280.000000	3.060296
281.000000	3.012047
282.000000	2.991739
283.000000	3.023904
284.000000	3.062548
285.000000	3.022103
286.000000	2.994907
287.000000	2.991361
288.000000	2.983618
289.000000	2.990694
290.000000	2.968956
291.000000	3.042413
292.000000	3.045765
293.000000	3.028785
294.000000	3.012316
295.000000	3.020482
296.000000	3.041481
297.000000	3.045941
298.000000	3.026766
299.000000	3.022491
300.000000	3.041825
301.000000	3.042693
302.000000	3.045813
303.000000	3.063395
304.000000	3.082149
305.000000	3.123964
306.000000	3.171155
307.000000	3.192448
308.000000	3.263143
309.000000	3.287262
310.000000	3.352997
311.000000	3.383016
312.000000	3.524791
313.000000	3.513517
314.000000	3.627747
315.000000	3.704576
316.000000	3.755899
317.000000	3.637167
318.000000	3.590486
319.000000	3.766265
320.000000	3.775822
321.000000	3.742266
322.000000	3.816227
323.000000	4.072175
324.000000	4.016773
325.000000	3.931436
326.000000	4.123824
327.000000	4.087849
328.000000	4.218095
329.000000	4.111249
330.000000	4.234789
331.000000	4.055761
332.000000	4.205024
333.000000	4.159064
334.000000	4.156645
335.000000	4.158493
336.000000	4.221279
337.000000	4.246085
338.000000	4.338382
339.000000	4.266972
340.000000	4.265993
341.000000	4.233632
342.000000	4.337003
343.000000	4.224629
344.000000	4.283367
345.000000	4.213878
346.000000	4.292484
347.000000	4.339279
348.000000	4.271902
349.000000	4.286433
350.000000	4.311719
351.000000	4.279511
352.000000	4.288890
353.000000	4.271570
354.000000	4.281419
355.000000	4.275464
356.000000	4.260556
357.000000	4.277152
358.000000	4.277443
359.000000	4.296674
360.000000	4.337637
361.000000	4.287362
362.000000	4.316917
363.000000	4.360243
364.000000	4.336546
365.000000	4.280852
366.000000	4.353313
367.000000	4.357090
368.000000	4.359265
369.000000	4.301337
370.000000	4.360588
371.000000	4.344760
372.000000	4.344647
373.000000	4.337897
374.000000	4.388632
375.000000	4.423456
376.000000	4.423735
377.000000	4.620905
378.000000	4.604477
379.000000	4.602416
380.000000	4.615069
381.000000	4.608097
382.000000	4.601334
383.000000	4.597041
384.000000	4.592260
385.000000	4.589513
386.000000	4.591355
387.000000	4.584278
388.000000	4.579111
389.000000	4.574093
390.000000	4.569492
391.000000	4.553038
392.000000	4.551503
393.000000	4.549635
394.000000	4.542656
395.000000	4.532941
396.000000	4.519241
397.000000	4.519168
398.000000	4.515893
399.000000	4.508339
400.000000	4.500092
401.000000	4.493815
402.000000	4.481955
403.000000	4.476099
404.000000	4.481754
405.000000	4.481660
406.000000	4.464064
407.000000	4.459535
408.000000	4.452558
409.000000	4.449236
410.000000	4.452580
411.000000	4.446922
412.000000	4.449941
413.000000	4.454187
414.000000	4.450628
415.000000	4.445054
416.000000	4.442296
417.000000	4.441891
418.000000	4.440744
419.000000	4.444384
420.000000	4.445273
421.000000	4.446637
422.000000	4.447087
423.000000	4.445047
424.000000	4.444985
425.000000	4.444579
426.000000	4.447228
427.000000	4.443722
428.000000	4.440730
429.000000	4.442125
430.000000	4.439183
431.000000	4.436098
432.000000	4.440769
433.000000	4.446644
434.000000	4.447029
435.000000	4.441462
436.000000	4.440506
437.000000	4.440512
438.000000	4.440861
439.000000	4.445000
440.000000	4.445632
441.000000	4.442108
442.000000	4.446893
443.000000	4.450143
444.000000	4.448762
445.000000	4.435509
446.000000	4.428273
447.000000	4.434941
448.000000	4.437252
449.000000	4.433575
450.000000	4.432426
451.000000	4.433574
452.000000	4.434689
453.000000	4.439328
454.000000	4.440982
455.000000	4.441101
456.000000	4.440083
457.000000	4.438884
458.000000	4.433742
459.000000	4.429606
460.000000	4.433366
461.000000	4.434518
462.000000	4.433272
463.000000	4.440799
464.000000	4.448657
465.000000	4.443221
466.000000	4.440266
467.000000	4.444653
468.000000	4.450751
469.000000	4.457431
470.000000	4.453430
471.000000	4.455312
472.000000	4.468188
473.000000	4.470954
474.000000	4.475414
475.000000	4.481690
476.000000	4.485243
477.000000	4.492641
478.000000	4.494508
479.000000	4.495262
480.000000	4.504765
481.000000	4.526811
482.000000	4.544957
483.000000	4.552232
484.000000	4.548918
485.000000	4.549180
486.000000	4.543642
487.000000	4.537306
488.000000	4.532671
489.000000	4.529118
490.000000	4.523657
491.000000	4.522329
492.000000	4.519451
493.000000	4.515590
494.000000	4.517076
495.000000	4.515582
496.000000	4.509738
497.000000	4.511594
498.000000	4.514608
499.000000	4.511000
500.000000	4.516649
501.000000	4.519927
502.000000	4.526257
503.000000	4.528785
504.000000	4.541377
505.000000	4.548101
506.000000	4.551364
507.000000	4.563543
508.000000	4.573936
509.000000	4.580112
510.000000	4.600937
511.000000	4.612574
512.000000	4.623748
513.000000	4.636204
514.000000	4.655911
515.000000	4.670261
516.000000	4.686133
517.000000	4.710204
518.000000	4.728171
519.000000	4.745722
520.000000	4.764400
521.000000	4.779938
522.000000	4.798222
523.000000	4.818389
524.000000	4.842553
525.000000	4.862822
526.000000	4.883200
527.000000	4.909556
528.000000	4.939409
529.000000	4.969051
530.000000	5.004684
531.000000	5.041051
532.000000	5.089179
533.000000	5.135248
534.000000	5.184474
535.000000	5.245022
536.000000	5.309079
537.000000	5.365624
538.000000	5.427521
539.000000	5.498513
540.000000	5.576632
541.000000	5.677535
542.000000	5.778884
543.000000	5.890568
544.000000	6.017198
545.000000	6.146280
546.000000	6.273161
547.000000	6.404264
548.000000	6.530661
549.000000	6.665311
550.000000	6.793863
551.000000	6.935574
552.000000	7.083112
553.000000	7.245888
554.000000	7.422467
555.000000	7.610343
556.000000	7.804282
557.000000	7.999148
558.000000	8.219197
559.000000	8.421339
560.000000	8.690967
561.000000	8.926117
562.000000	9.151821
563.000000	9.386261
564.000000	9.613654
565.000000	9.839630
566.000000	10.062485
567.000000	10.282733
568.000000	10.486039
569.000000	10.681106
570.000000	10.872585
571.000000	11.055460
572.000000	11.244271
573.000000	11.442436
574.000000	11.648785
575.000000	11.846757
576.000000	12.042914
577.000000	12.234919
578.000000	12.394327
579.000000	12.541910
580.000000	12.649694
581.000000	12.720952
582.000000	12.767529
583.000000	12.781368
584.000000	12.779946
585.000000	12.785969
586.000000	12.786418
587.000000	12.805949
588.000000	12.823289
589.000000	12.840988
590.000000	12.842053
591.000000	12.848896
592.000000	12.837356
593.000000	12.787695
594.000000	12.705590
595.000000	12.602790
596.000000	12.452344
597.000000	12.293742
598.000000	12.086578
599.000000	11.875914
600.000000	11.639745
601.000000	11.379693
602.000000	11.112720
603.000000	10.827455
604.000000	10.559009
605.000000	10.285041
606.000000	10.001275
607.000000	9.722335
608.000000	9.463236
609.000000	9.193067
610.000000	8.936109
611.000000	8.675454
612.000000	8.420174
613.000000	8.165208
614.000000	7.920447
615.000000	7.679782
616.000000	7.438528
617.000000	7.214866
618.000000	6.989825
619.000000	6.769728
620.000000	6.565136
621.000000	6.368885
622.000000	6.189302
623.000000	6.017081
624.000000	5.861077
625.000000	5.716655
626.000000	5.594381
627.000000	5.478727
628.000000	5.373717
629.000000	5.277151
630.000000	5.195914
631.000000	5.116531
632.000000	5.049167
633.000000	4.991364
634.000000	4.940942
635.000000	4.892715
636.000000	4.853479
637.000000	4.821827
638.000000	4.797267
639.000000	4.775974
640.000000	4.742882
641.000000	4.734557
642.000000	4.724455
643.000000	4.715541
644.000000	4.705020
645.000000	4.697043
646.000000	4.680798
647.000000	4.684370
648.000000	4.681480
649.000000	4.679630
650.000000	4.673879
651.000000	4.664532
652.000000	4.668874
653.000000	4.666494
654.000000	4.669680
655.000000	4.663016
656.000000	4.669762
657.000000	4.668244
658.000000	4.663937
659.000000	4.669094
660.000000	4.674811
661.000000	4.678470
662.000000	4.676285
663.000000	4.677430
664.000000	4.670928
665.000000	4.672794
666.000000	4.688373
667.000000	4.685707
668.000000	4.678180
669.000000	4.688456
670.000000	4.698044
671.000000	4.705715
672.000000	4.700618
673.000000	4.701576
674.000000	4.710280
675.000000	4.713633
676.000000	4.717232
677.000000	4.716769
678.000000	4.725287
679.000000	4.731256
680.000000	4.735905
681.000000	4.741904
682.000000	4.747101
683.000000	4.753025
684.000000	4.753421
685.000000	4.762314
686.000000	4.772226
687.000000	4.780871
688.000000	4.782864
689.000000	4.787435
690.000000	4.788897
691.000000	4.798071
692.000000	4.805583
693.000000	4.813078
694.000000	4.817464
695.000000	4.825610
696.000000	4.835275
697.000000	4.848077
698.000000	4.851330
699.000000	4.854571
700.000000	4.869305
701.000000	4.875581
702.000000	4.886044
703.000000	4.899623
704.000000	4.905113
705.000000	4.912267
706.000000	4.926572
707.000000	4.935052
708.000000	4.937719
709.000000	4.948616
710.000000	4.963805
711.000000	4.969514
712.000000	4.981879
713.000000	4.993665
714.000000	4.995080
715.000000	5.018183
716.000000	5.026665
717.000000	5.036666
718.000000	5.051524
719.000000	5.064454
720.000000	5.073271
721.000000	5.081220
722.000000	5.105244
723.000000	5.121445
724.000000	5.131765
725.000000	5.141242
726.000000	5.152410
727.000000	5.166336
728.000000	5.182595
729.000000	5.196652
730.000000	5.211084
731.000000	5.217050
732.000000	5.238199
733.000000	5.251802
734.000000	5.267098
735.000000	5.299549
736.000000	5.305684
737.000000	5.313296
738.000000	5.332866
739.000000	5.353287
740.000000	5.368527
741.000000	5.383458
742.000000	5.401560
743.000000	5.419360
744.000000	5.446335
745.000000	5.468789
746.000000	5.481224
747.000000	5.509102
748.000000	5.525088
749.000000	5.541789
750.000000	5.562118
751.000000	5.592094
752.000000	5.615814
753.000000	5.636291
754.000000	5.667516
755.000000	5.681838
756.000000	5.719599
757.000000	5.736274
758.000000	5.731671
759.000000	5.767184
760.000000	5.800673
761.000000	5.816371
762.000000	5.842509
763.000000	5.869150
764.000000	5.906951
765.000000	5.916857
766.000000	5.928018
767.000000	5.956196
768.000000	5.988912
769.000000	6.028149
770.000000	6.050822
771.000000	6.096507
772.000000	6.116478
773.000000	6.139715
774.000000	6.171734
775.000000	6.186770
776.000000	6.221736
777.000000	6.273863
778.000000	6.289491
779.000000	6.309912
780.000000	6.358517
781.000000	6.385895
782.000000	6.412062
783.000000	6.447288
784.000000	6.491235
785.000000	6.526400
786.000000	6.570846
787.000000	6.614359
788.000000	6.655716
789.000000	6.675241
790.000000	6.695710
791.000000	6.730190
792.000000	6.765051
793.000000	6.804211
794.000000	6.835904
795.000000	6.902112
796.000000	6.941265
797.000000	6.990295
798.000000	7.021851
799.000000	7.043906
800.000000	7.095670
801.000000	7.135789
802.000000	7.169964
803.000000	7.184040
804.000000	7.215402
805.000000	7.261674
806.000000	7.313767
807.000000	7.336872
808.000000	7.408087
809.000000	7.446427
810.000000	7.473810
811.000000	7.509127
812.000000	7.572513
813.000000	7.630152
814.000000	7.693375
815.000000	7.725005
816.000000	7.757351
817.000000	7.795609
818.000000	7.819981
819.000000	7.898980
820.000000	7.956697
821.000000	7.972410
822.000000	8.043372
823.000000	8.123462
824.000000	8.130467
825.000000	8.191430
826.000000	8.221368
827.000000	8.249358
828.000000	8.351376
829.000000	8.354892
830.000000	8.415850
831.000000	8.499187
832.000000	8.554217
833.000000	8.550368
834.000000	8.642347
835.000000	8.669906
836.000000	8.697004
837.000000	8.860839
838.000000	8.887378
839.000000	9.031638
840.000000	8.937964
841.000000	9.034618
842.000000	9.102178
843.000000	9.049722
844.000000	9.137085
845.000000	9.220674
846.000000	9.211779
847.000000	9.271958
848.000000	9.426874
849.000000	9.495085
850.000000	9.455855
851.000000	9.472954
852.000000	9.410286
853.000000	9.582962
854.000000	9.667587
855.000000	9.655124
856.000000	9.697383
857.000000	10.033961
858.000000	16.927118
859.000000	9.956665
860.000000	10.380189
861.000000	9.759940
862.000000	9.855836
863.000000	9.638239
864.000000	9.625102
865.000000	9.815437
866.000000	9.642550
867.000000	9.733065
868.000000	9.741351
869.000000	9.359703
870.000000	9.207315
871.000000	9.067006
872.000000	9.209587
873.000000	9.365434
874.000000	9.191355
875.000000	9.074264
876.000000	9.050726
877.000000	8.695091
878.000000	8.764303
879.000000	8.807534
880.000000	8.597118
881.000000	8.992939
882.000000	8.785436
883.000000	9.100495
884.000000	8.880595
885.000000	8.853616
886.000000	8.802713
887.000000	9.078028
888.000000	9.059990
889.000000	8.880553
890.000000	8.893432
891.000000	8.823940
892.000000	8.774263
893.000000	8.740214
894.000000	8.751034
895.000000	8.732685
896.000000	8.787518
897.000000	8.787685
898.000000	8.809356
899.000000	8.800439
900.000000	8.877660
901.000000	8.838962
902.000000	8.817637
903.000000	8.865540
904.000000	8.993452
905.000000	8.860686
906.000000	9.011434
907.000000	8.941135
908.000000	9.021618
909.000000	9.100342
910.000000	9.113175
911.000000	8.985201
912.000000	9.046771
913.000000	9.056918
914.000000	9.021117
915.000000	9.093335
916.000000	9.124374
917.000000	9.147174
918.000000	9.217429
919.000000	9.193451
920.000000	9.313837
921.000000	9.315332
922.000000	9.311621
923.000000	9.313191
924.000000	9.335150
925.000000	9.333498
926.000000	9.356779
927.000000	9.413462
928.000000	9.438443
929.000000	9.427273
930.000000	9.505993
931.000000	9.550175
932.000000	9.627880
933.000000	9.607055
934.000000	9.626255
935.000000	9.619030
936.000000	9.691479
937.000000	9.663380
938.000000	9.739741
939.000000	9.766578
940.000000	9.770501
941.000000	9.835798
942.000000	9.821807
943.000000	9.861033
944.000000	9.904764
945.000000	9.976798
946.000000	10.046873
947.000000	10.037880
948.000000	10.072039
949.000000	10.050709
950.000000	10.105440
951.000000	10.181872
952.000000	10.192756
953.000000	10.247846
954.000000	10.267990
955.000000	10.322316
956.000000	10.336461
957.000000	10.359180
958.000000	10.414442
959.000000	10.453426
960.000000	10.506064
961.000000	10.544993
962.000000	10.559651
963.000000	10.592056
964.000000	10.659981
965.000000	10.702391
966.000000	10.749485
967.000000	10.749697
968.000000	10.783808
969.000000	10.847780
970.000000	10.893865
971.000000	10.959319
972.000000	10.975239
973.000000	10.991111
974.000000	11.036389
975.000000	11.066134
976.000000	11.093070
977.000000	11.136952
978.000000	11.202073
979.000000	11.228163
980.000000	11.272081
981.000000	11.321183
982.000000	11.364046
983.000000	11.388395
984.000000	11.420264
985.000000	11.464833
986.000000	11.514038
987.000000	11.566215
988.000000	11.615896
989.000000	11.642664
990.000000	11.678104
991.000000	11.733475
992.000000	11.773000
993.000000	11.789101
994.000000	11.829470
995.000000	11.866833
996.000000	11.879636
997.000000	11.927485
998.000000	11.977262
999.000000	12.017272
1000.000000	12.057240
1001.000000	12.094300
1002.000000	12.125255
1003.000000	12.174500
1004.000000	12.230984
1005.000000	12.273941
1006.000000	12.316579
1007.000000	12.348046
1008.000000	12.396459
1009.000000	12.445203
1010.000000	12.481207
1011.000000	12.510983
1012.000000	12.547221
1013.000000	12.598178
1014.000000	12.654774
1015.000000	12.690011
1016.000000	12.734818
1017.000000	12.786835
1018.000000	12.831652
1019.000000	12.859423
1020.000000	12.902216
1021.000000	12.936790
1022.000000	12.969033
1023.000000	13.016584
1024.000000	13.056631
1025.000000	13.120700
1026.000000	13.174149
1027.000000	13.203735
1028.000000	13.234073
1029.000000	13.281825
1030.000000	13.326398
1031.000000	13.359160
1032.000000	13.395079
1033.000000	13.449757
1034.000000	13.499812
1035.000000	13.533206
1036.000000	13.568136
1037.000000	13.619973
1038.000000	13.659876
1039.000000	13.704275
1040.000000	13.749316
1041.000000	13.792530
1042.000000	13.829176
1043.000000	13.867451
1044.000000	13.919786
1045.000000	13.953882
1046.000000	14.001099
1047.000000	14.047419
1048.000000	14.089471
1049.000000	14.141003
1050.000000	14.188129
1051.000000	14.232018
1052.000000	14.271392
1053.000000	14.311414
1054.000000	14.341516
1055.000000	14.384041
1056.000000	14.430535
1057.000000	14.489291
1058.000000	14.520820
1059.000000	14.562082
1060.000000	14.610506
1061.000000	14.643500
1062.000000	14.702641
1063.000000	14.752241
1064.000000	14.779162
1065.000000	14.812448
1066.000000	14.854226
1067.000000	14.903900
1068.000000	14.950092
1069.000000	14.987589
1070.000000	15.030179
1071.000000	15.087074
1072.000000	15.129343
1073.000000	15.170756
1074.000000	15.193446
1075.000000	15.239524
1076.000000	15.280490
1077.000000	15.332073
1078.000000	15.379580
1079.000000	15.424464
1080.000000	15.460165
1081.000000	15.501160
1082.000000	15.541874
1083.000000	15.589073
1084.000000	15.637764
1085.000000	15.670898
1086.000000	15.717894
1087.000000	15.759003
1088.000000	15.809720
1089.000000	15.856442
1090.000000	15.896890
1091.000000	15.937023
1092.000000	15.981103
1093.000000	16.025892
1094.000000	16.074625
1095.000000	16.116424
1096.000000	16.155366
1097.000000	16.189356
1098.000000	16.226892
1099.000000	16.271512
1100.000000	16.323349
1101.000000	16.362007
1102.000000	16.398652
1103.000000	16.434969
1104.000000	16.478920
1105.000000	16.518226
1106.000000	16.564513
1107.000000	16.586229
1108.000000	16.624030
1109.000000	16.668367
1110.000000	16.703343
1111.000000	16.740260
1112.000000	16.769355
1113.000000	16.810321
1114.000000	16.847389
1115.000000	16.893824
1116.000000	16.922912
1117.000000	16.970245
1118.000000	17.004220
1119.000000	17.054438
1120.000000	17.088223
1121.000000	17.121163
1122.000000	17.152172
1123.000000	17.192874
1124.000000	17.221101
1125.000000	17.233497
1126.000000	17.262682
1127.000000	17.291727
1128.000000	17.330661
1129.000000	17.332784
1130.000000	17.375943
1131.000000	17.417598
1132.000000	17.464656
1133.000000	17.468816
1134.000000	17.491304
1135.000000	17.516630
1136.000000	17.518081
1137.000000	17.558982
1138.000000	17.578830
1139.000000	17.614511
1140.000000	17.627833
1141.000000	17.656278
1142.000000	17.685861
1143.000000	17.729499
1144.000000	17.743945
1145.000000	17.765871
1146.000000	17.793285
1147.000000	17.827639
1148.000000	17.845559
1149.000000	17.875394
1150.000000	17.891404
1151.000000	17.913185
1152.000000	17.939975
1153.000000	17.943255
1154.000000	17.968097
1155.000000	17.981785
1156.000000	18.010797
1157.000000	18.016978
1158.000000	18.023143
1159.000000	18.045418
1160.000000	18.046649
1161.000000	18.057991
1162.000000	18.089384
1163.000000	18.078243
1164.000000	18.101918
1165.000000	18.099529
1166.000000	18.107428
1167.000000	18.142474
1168.000000	18.161111
1169.000000	18.172561
1170.000000	18.173209
1171.000000	18.189954
1172.000000	18.198447
1173.000000	18.233701
1174.000000	18.243788
1175.000000	18.265252
1176.000000	18.296801
1177.000000	18.318630
1178.000000	18.328721
1179.000000	18.364898
1180.000000	18.385295
1181.000000	18.409618
1182.000000	18.429550
1183.000000	18.463145
1184.000000	18.499534
1185.000000	18.546670
1186.000000	18.581804
1187.000000	18.612719
1188.000000	18.627159
1189.000000	18.648496
1190.000000	18.688038
1191.000000	18.744365
1192.000000	18.799717
1193.000000	18.850130
1194.000000	18.893852
1195.000000	18.938751
1196.000000	18.992196
1197.000000	19.021053
1198.000000	19.076047
1199.000000	19.109615
1200.000000	19.151115
1201.000000	19.201331
1202.000000	19.248110
1203.000000	19.290119
1204.000000	19.328164
1205.000000	19.378911
1206.000000	19.409787
1207.000000	19.441193
1208.000000	19.485013
1209.000000	19.521637
1210.000000	19.560386
1211.000000	19.585635
1212.000000	19.615384
1213.000000	19.637910
1214.000000	19.671952
1215.000000	19.693804
1216.000000	19.727655
1217.000000	19.762444
1218.000000	19.781643
1219.000000	19.801252
1220.000000	19.834783
1221.000000	19.864307
1222.000000	19.887088
1223.000000	19.914323
1224.000000	19.941330
1225.000000	19.972661
1226.000000	19.997879
1227.000000	20.036293
1228.000000	20.074107
1229.000000	20.113415
1230.000000	20.147485
1231.000000	20.178705
1232.000000	20.214477
1233.000000	20.269325
1234.000000	20.311974
1235.000000	20.335370
1236.000000	20.367179
1237.000000	20.420590
1238.000000	20.460350
1239.000000	20.510073
1240.000000	20.545054
1241.000000	20.581246
1242.000000	20.622988
1243.000000	20.672742
1244.000000	20.716422
1245.000000	20.755796
1246.000000	20.793636
1247.000000	20.821653
1248.000000	20.869718
1249.000000	20.917052
1250.000000	20.954226
1251.000000	20.980453
1252.000000	21.005843
1253.000000	21.037919
1254.000000	21.064486
1255.000000	21.092182
1256.000000	21.117583
1257.000000	21.137187
1258.000000	21.158530
1259.000000	21.183840
1260.000000	21.206478
1261.000000	21.230385
1262.000000	21.259740
1263.000000	21.283887
1264.000000	21.300513
1265.000000	21.325965
1266.000000	21.354994
1267.000000	21.381084
1268.000000	21.404979
1269.000000	21.431932
1270.000000	21.454566
1271.000000	21.469382
1272.000000	21.491454
1273.000000	21.529611
1274.000000	21.566689
1275.000000	21.598686
1276.000000	21.628889
1277.000000	21.654256
1278.000000	21.681321
1279.000000	21.723356
1280.000000	21.759687
1281.000000	21.796905
1282.000000	21.837008
1283.000000	21.871640
1284.000000	21.899277
1285.000000	21.932856
1286.000000	21.970609
1287.000000	22.007519
1288.000000	22.050570
1289.000000	22.077599
1290.000000	22.098325
1291.000000	22.129553
1292.000000	22.160427
1293.000000	22.189498
1294.000000	22.222686
1295.000000	22.244593
1296.000000	22.278371
1297.000000	22.304308
1298.000000	22.314973
1299.000000	22.329794
1300.000000	22.347533
1301.000000	22.364187
1302.000000	22.381787
1303.000000	22.396210
1304.000000	22.412427
1305.000000	22.436169
1306.000000	22.453446
1307.000000	22.466545
1308.000000	22.470342
1309.000000	22.471961
1310.000000	22.489086
1311.000000	22.500393
1312.000000	22.501085
1313.000000	22.510247
1314.000000	22.521081
1315.000000	22.541339
1316.000000	22.557885
1317.000000	22.566195
1318.000000	22.571812
1319.000000	22.581784
1320.000000	22.595205
1321.000000	22.600612
1322.000000	22.603600
1323.000000	22.607726
1324.000000	22.601744
1325.000000	22.593241
1326.000000	22.598972
1327.000000	22.609431
1328.000000	22.613996
1329.000000	22.602558
1330.000000	22.590358
1331.000000	22.580649
1332.000000	22.571365
1333.000000	22.553217
1334.000000	22.537291
1335.000000	22.526203
1336.000000	22.503388
1337.000000	22.465399
1338.000000	22.435516
1339.000000	22.402085
1340.000000	22.362539
1341.000000	22.314407
1342.000000	22.258445
1343.000000	22.198440
1344.000000	22.138002
1345.000000	22.081503
1346.000000	22.023276
1347.000000	21.969377
1348.000000	21.908686
1349.000000	21.852297
1350.000000	21.785179
1351.000000	21.735912
1352.000000	21.710457
1353.000000	21.668690
1354.000000	21.615879
1355.000000	21.578792
1356.000000	21.579226
1357.000000	21.590004
1358.000000	21.603135
1359.000000	21.634562
1360.000000	21.601287
1361.000000	21.568425
1362.000000	21.578748
1363.000000	21.589848
1364.000000	21.584617
1365.000000	21.579719
1366.000000	21.571257
1367.000000	21.519403
1368.000000	21.467227
1369.000000	21.440758
1370.000000	21.359165
1371.000000	21.274334
1372.000000	21.178112
1373.000000	21.064794
1374.000000	20.946857
1375.000000	20.840673
1376.000000	20.738796
1377.000000	20.643981
1378.000000	20.588936
1379.000000	20.492559
1380.000000	20.425397
1381.000000	20.287619
1382.000000	20.202984
1383.000000	20.150486
1384.000000	20.099949
1385.000000	20.069204
1386.000000	20.030511
1387.000000	19.967983
1388.000000	19.885742
1389.000000	19.870453
1390.000000	19.846195
1391.000000	19.769209
1392.000000	19.698921
1393.000000	19.670504
1394.000000	19.592562
1395.000000	19.461291
1396.000000	19.361182
1397.000000	19.319208
1398.000000	19.286871
1399.000000	19.158012
1400.000000	19.026848
1401.000000	18.886098
1402.000000	18.853786
1403.000000	18.761121
1404.000000	18.598318
1405.000000	18.471934
1406.000000	18.382961
1407.000000	18.241428
1408.000000	18.112542
1409.000000	17.962967
1410.000000	17.844501
1411.000000	17.772104
1412.000000	17.662173
1413.000000	17.530056
1414.000000	17.388400
1415.000000	17.297585
1416.000000	17.193807
1417.000000	17.113563
1418.000000	16.991793
1419.000000	16.906063
1420.000000	16.824196
1421.000000	16.731448
1422.000000	16.645757
1423.000000	16.556402
1424.000000	16.479858
1425.000000	16.415910
1426.000000	16.339707
1427.000000	16.282965
1428.000000	16.224238
1429.000000	16.161396
1430.000000	16.104274
1431.000000	16.030451
1432.000000	15.970350
1433.000000	15.916594
1434.000000	15.859870
1435.000000	15.821959
1436.000000	15.778816
1437.000000	15.742551
1438.000000	15.694521
1439.000000	15.656861
1440.000000	15.618322
1441.000000	15.579851
1442.000000	15.529234
1443.000000	15.498027
1444.000000	15.471781
1445.000000	15.422114
1446.000000	15.362224
1447.000000	15.333703
1448.000000	15.311854
1449.000000	15.263930
1450.000000	15.227837
1451.000000	15.184965
1452.000000	15.144039
1453.000000	15.103754
1454.000000	15.058365
1455.000000	15.015284
1456.000000	14.964785
1457.000000	14.916234
1458.000000	14.875101
1459.000000	14.834737
1460.000000	14.793940
1461.000000	14.752695
1462.000000	14.710639
1463.000000	14.663577
1464.000000	14.629925
1465.000000	14.590798
1466.000000	14.549303
1467.000000	14.524475
1468.000000	14.483995
1469.000000	14.449250
1470.000000	14.411378
1471.000000	14.378038
1472.000000	14.337226
1473.000000	14.304039
1474.000000	14.285678
1475.000000	14.265260
1476.000000	14.238852
1477.000000	14.218470
1478.000000	14.214397
1479.000000	14.193539
1480.000000	14.177420
1481.000000	14.162165
1482.000000	14.149744
1483.000000	14.151139
1484.000000	14.153878
1485.000000	14.144699
1486.000000	14.136479
1487.000000	14.134496
1488.000000	14.136540
1489.000000	14.129454
1490.000000	14.141280
1491.000000	14.133833
1492.000000	14.139023
1493.000000	14.141543
1494.000000	14.159622
1495.000000	14.172121
1496.000000	14.183462
1497.000000	14.194969
1498.000000	14.216782
1499.000000	14.251832
1500.000000	14.281826
1501.000000	14.311642
1502.000000	14.353065
1503.000000	14.389972
1504.000000	14.423173
1505.000000	14.458194
1506.000000	14.493380
1507.000000	14.521811
1508.000000	14.562659
1509.000000	14.607013
1510.000000	14.649647
1511.000000	14.690466
1512.000000	14.731498
1513.000000	14.769826
1514.000000	14.807238
1515.000000	14.843498
1516.000000	14.875518
1517.000000	14.912380
1518.000000	14.951237
1519.000000	14.997690
1520.000000	15.034395
1521.000000	15.062603
1522.000000	15.093136
1523.000000	15.125090
1524.000000	15.152992
1525.000000	15.193046
1526.000000	15.232750
1527.000000	15.266628
1528.000000	15.296214
1529.000000	15.318006
1530.000000	15.344638
1531.000000	15.376599
1532.000000	15.404389
1533.000000	15.429253
1534.000000	15.456157
1535.000000	15.484531
1536.000000	15.503989
1537.000000	15.526560
1538.000000	15.553980
1539.000000	15.576341
1540.000000	15.594339
1541.000000	15.619603
1542.000000	15.651227
1543.000000	15.676712
1544.000000	15.702662
1545.000000	15.731870
1546.000000	15.765277
1547.000000	15.798386
1548.000000	15.829979
1549.000000	15.874551
1550.000000	15.909859
1551.000000	15.942107
1552.000000	15.973532
1553.000000	16.001739
1554.000000	16.027032
1555.000000	16.052381
1556.000000	16.069114
1557.000000	16.084125
1558.000000	16.095789
1559.000000	16.100069
1560.000000	16.106570
1561.000000	16.111137
1562.000000	16.108634
1563.000000	16.106239
1564.000000	16.110911
1565.000000	16.106317
1566.000000	16.092942
1567.000000	16.086194
1568.000000	16.083423
1569.000000	16.085350
1570.000000	16.082776
1571.000000	16.075668
1572.000000	16.070790
1573.000000	16.076526
1574.000000	16.078841
1575.000000	16.085988
1576.000000	16.095349
1577.000000	16.103168
1578.000000	16.126640
1579.000000	16.136003
1580.000000	16.150520
1581.000000	16.165644
1582.000000	16.184947
1583.000000	16.202802
1584.000000	16.232961
1585.000000	16.258472
1586.000000	16.278747
1587.000000	16.293136
1588.000000	16.319498
1589.000000	16.354442
1590.000000	16.390183
1591.000000	16.414349
1592.000000	16.441364
1593.000000	16.461903
1594.000000	16.497767
1595.000000	16.541815
1596.000000	16.578646
1597.000000	16.613740
1598.000000	16.653418
1599.000000	16.684700
1600.000000	16.720154
1601.000000	16.773851
1602.000000	16.807054
1603.000000	16.844329
1604.000000	16.888684
1605.000000	16.935765
1606.000000	16.966485
1607.000000	17.006388
1608.000000	17.046063
1609.000000	17.079022
1610.000000	17.124376
1611.000000	17.144875
1612.000000	17.181515
1613.000000	17.212644
1614.000000	17.242994
1615.000000	17.263912
1616.000000	17.287830
1617.000000	17.310713
1618.000000	17.352457
1619.000000	17.379329
1620.000000	17.386485
1621.000000	17.405451
1622.000000	17.444783
1623.000000	17.473124
1624.000000	17.496893
1625.000000	17.519198
1626.000000	17.548554
1627.000000	17.563712
1628.000000	17.580173
1629.000000	17.599754
1630.000000	17.632199
1631.000000	17.645080
1632.000000	17.669054
1633.000000	17.674981
1634.000000	17.694630
1635.000000	17.706198
1636.000000	17.714299
1637.000000	17.719409
1638.000000	17.730923
1639.000000	17.745050
1640.000000	17.748392
1641.000000	17.751240
1642.000000	17.744511
1643.000000	17.747037
1644.000000	17.747295
1645.000000	17.746753
1646.000000	17.739508
1647.000000	17.718923
1648.000000	17.728998
1649.000000	17.697356
1650.000000	17.679168
1651.000000	17.659452
1652.000000	17.632131
1653.000000	17.610567
1654.000000	17.567729
1655.000000	17.524192
1656.000000	17.481166
1657.000000	17.437778
1658.000000	17.384748
1659.000000	17.329142
1660.000000	17.272707
1661.000000	17.202974
1662.000000	17.138934
1663.000000	17.062588
1664.000000	16.980161
1665.000000	16.903281
1666.000000	16.819789
1667.000000	16.747001
1668.000000	16.685795
1669.000000	16.588551
1670.000000	16.503931
1671.000000	16.419348
1672.000000	16.334321
1673.000000	16.274423
1674.000000	16.175389
1675.000000	16.098900
1676.000000	16.018367
1677.000000	15.937630
1678.000000	15.854521
1679.000000	15.753565
1680.000000	15.683868
1681.000000	15.589024
1682.000000	15.497019
1683.000000	15.417165
1684.000000	15.370082
1685.000000	15.324383
1686.000000	15.296999
1687.000000	15.275375
1688.000000	15.273555
1689.000000	15.275761
1690.000000	15.319379
1691.000000	15.353929
1692.000000	15.400140
1693.000000	15.438921
1694.000000	15.480537
1695.000000	15.511387
1696.000000	15.512668
1697.000000	15.523046
1698.000000	15.532729
1699.000000	15.538855
1700.000000	15.545844
1701.000000	15.522415
1702.000000	15.507327
1703.000000	15.484449
1704.000000	15.431040
1705.000000	15.382245
1706.000000	15.339831
1707.000000	15.298786
1708.000000	15.227658
1709.000000	15.153084
1710.000000	15.074993
1711.000000	14.981348
1712.000000	14.896111
1713.000000	14.805205
1714.000000	14.712298
1715.000000	14.618069
1716.000000	14.510014
1717.000000	14.411059
1718.000000	14.325009
1719.000000	14.259876
1720.000000	14.198619
1721.000000	14.149213
1722.000000	14.133194
1723.000000	14.130743
1724.000000	14.121129
1725.000000	14.126475
1726.000000	14.146860
1727.000000	14.164810
1728.000000	14.207547
1729.000000	14.242145
1730.000000	14.280563
1731.000000	14.321018
1732.000000	14.363186
1733.000000	14.416709
1734.000000	14.470410
1735.000000	14.503227
1736.000000	14.549147
1737.000000	14.605400
1738.000000	14.654918
1739.000000	14.702775
1740.000000	14.770866
1741.000000	14.798044
1742.000000	14.862440
1743.000000	14.926425
1744.000000	14.957883
1745.000000	14.987616
1746.000000	15.030127
1747.000000	15.062993
1748.000000	15.107025
1749.000000	15.128512
1750.000000	15.136125
1751.000000	15.143335
1752.000000	15.167346
1753.000000	15.175712
1754.000000	15.177625
1755.000000	15.184122
1756.000000	15.194689
1757.000000	15.193688
1758.000000	15.207291
1759.000000	15.220497
1760.000000	15.218562
1761.000000	15.220549
1762.000000	15.239465
1763.000000	15.249142
1764.000000	15.273381
1765.000000	15.298669
1766.000000	15.328217
1767.000000	15.341553
1768.000000	15.360699
1769.000000	15.386820
1770.000000	15.412061
1771.000000	15.445907
1772.000000	15.471208
1773.000000	15.493904
1774.000000	15.513852
1775.000000	15.545657
1776.000000	15.575729
1777.000000	15.584949
1778.000000	15.608374
1779.000000	15.620618
1780.000000	15.634605
1781.000000	15.660157
1782.000000	15.668202
1783.000000	15.670056
1784.000000	15.689669
1785.000000	15.684814
1786.000000	15.683878
1787.000000	15.695707
1788.000000	15.708319
1789.000000	15.730277
1790.000000	15.729215
1791.000000	15.724911
1792.000000	15.726799
1793.000000	15.726951
1794.000000	15.734835
1795.000000	15.746409
1796.000000	15.757633
1797.000000	15.776326
1798.000000	15.792046
1799.000000	15.797242
1800.000000	15.801817
1801.000000	15.801400
1802.000000	15.810939
1803.000000	15.844073
1804.000000	15.861341
1805.000000	15.857883
1806.000000	15.862632
1807.000000	15.887542
1808.000000	15.912148
1809.000000	15.927883
1810.000000	15.930146
1811.000000	15.936061
1812.000000	15.951445
1813.000000	15.953162
1814.000000	15.958210
1815.000000	15.961780
1816.000000	15.981891
1817.000000	16.025456
1818.000000	16.046715
1819.000000	16.033967
1820.000000	15.967627
1821.000000	15.925431
1822.000000	15.956388
1823.000000	16.008387
1824.000000	16.044407
1825.000000	16.052763
1826.000000	16.048931
1827.000000	16.051537
1828.000000	16.060419
1829.000000	16.047357
1830.000000	16.044274
1831.000000	16.087092
1832.000000	16.145917
1833.000000	16.197237
1834.000000	16.233715
1835.000000	16.249645
1836.000000	16.245334
1837.000000	16.264042
1838.000000	16.310608
1839.000000	16.325265
1840.000000	16.319722
1841.000000	16.297282
1842.000000	16.336855
1843.000000	16.416886
1844.000000	16.517047
1845.000000	16.593512
1846.000000	16.568600
1847.000000	16.458270
1848.000000	16.398929
1849.000000	16.438405
1850.000000	16.510435
1851.000000	16.535707
1852.000000	16.523948
1853.000000	16.501283
1854.000000	16.452934
1855.000000	16.443810
1856.000000	16.437205
1857.000000	16.415993
1858.000000	16.356374
1859.000000	16.280033
1860.000000	16.240438
1861.000000	16.179698
1862.000000	16.161927
1863.000000	16.168673
1864.000000	16.171933
1865.000000	16.147151
1866.000000	16.101361
1867.000000	16.046880
1868.000000	15.963153
1869.000000	15.858351
1870.000000	15.732279
1871.000000	15.624346
1872.000000	15.494348
1873.000000	15.373495
1874.000000	15.259285
1875.000000	15.160028
1876.000000	15.032339
1877.000000	14.903283
1878.000000	14.793025
1879.000000	14.673351
1880.000000	14.509501
1881.000000	14.324926
1882.000000	14.147123
1883.000000	13.920438
1884.000000	13.708896
1885.000000	13.479327
1886.000000	13.268325
1887.000000	13.041791
1888.000000	12.843178
1889.000000	12.598641
1890.000000	12.345707
1891.000000	12.040951
1892.000000	11.780705
1893.000000	11.570889
1894.000000	11.348353
1895.000000	11.166625
1896.000000	10.942258
1897.000000	10.709113
1898.000000	10.468171
1899.000000	10.207537
1900.000000	9.994275
1901.000000	9.791766
1902.000000	9.615023
1903.000000	9.389407
1904.000000	9.197474
1905.000000	9.008046
1906.000000	8.818384
1907.000000	8.681169
1908.000000	8.523114
1909.000000	8.426884
1910.000000	8.323882
1911.000000	8.219453
1912.000000	8.072942
1913.000000	7.978042
1914.000000	7.864694
1915.000000	7.817293
1916.000000	7.743016
1917.000000	7.694506
1918.000000	7.581036
1919.000000	7.512269
1920.000000	7.447949
1921.000000	7.377430
1922.000000	7.301862
1923.000000	7.331688
1924.000000	7.320638
1925.000000	7.223625
1926.000000	7.228148
1927.000000	7.211571
1928.000000	7.147545
1929.000000	7.113668
1930.000000	7.072501
1931.000000	7.095164
1932.000000	7.123375
1933.000000	7.089658
1934.000000	7.105247
1935.000000	7.097281
1936.000000	7.101630
1937.000000	7.081787
1938.000000	7.137649
1939.000000	7.160945
1940.000000	7.170307
1941.000000	7.208549
1942.000000	7.203183
1943.000000	7.269507
1944.000000	7.267376
1945.000000	7.263489
1946.000000	7.311684
1947.000000	7.364834
1948.000000	7.394812
1949.000000	7.413080
1950.000000	7.457411
1951.000000	7.467435
1952.000000	7.519527
1953.000000	7.525480
1954.000000	7.590361
1955.000000	7.593967
1956.000000	7.637152
1957.000000	7.692312
1958.000000	7.731776
1959.000000	7.779267
1960.000000	7.822363
1961.000000	7.845660
1962.000000	7.883197
1963.000000	7.969551
1964.000000	8.005096
1965.000000	8.019928
1966.000000	8.063753
1967.000000	8.083604
1968.000000	8.141844
1969.000000	8.159829
1970.000000	8.223975
1971.000000	8.266800
1972.000000	8.311391
1973.000000	8.345372
1974.000000	8.382507
1975.000000	8.403144
1976.000000	8.422137
1977.000000	8.507675
1978.000000	8.564669
1979.000000	8.606690
1980.000000	8.629272
1981.000000	8.667963
1982.000000	8.677893
1983.000000	8.751002
1984.000000	8.793246
1985.000000	8.811999
1986.000000	8.870395
1987.000000	8.920178
1988.000000	8.946040
1989.000000	8.993518
1990.000000	9.041492
1991.000000	9.056867
1992.000000	9.077837
1993.000000	9.110409
1994.000000	9.132889
1995.000000	9.167959
1996.000000	9.176641
1997.000000	9.229256
1998.000000	9.243817
1999.000000	9.256571
2000.000000	9.284811
2001.000000	9.277728
2002.000000	9.330816
2003.000000	9.339842
2004.000000	9.335581
2005.000000	9.328919
2006.000000	9.363327
2007.000000	9.356686
2008.000000	9.368739
2009.000000	9.352733
2010.000000	9.329869
2011.000000	9.339446
2012.000000	9.317218
2013.000000	9.278741
2014.000000	9.244893
2015.000000	9.224576
2016.000000	9.194348
2017.000000	9.172583
2018.000000	9.162175
2019.000000	9.136270
2020.000000	9.087568
2021.000000	9.071768
2022.000000	9.006100
2023.000000	8.944057
2024.000000	8.893883
2025.000000	8.856361
2026.000000	8.808809
2027.000000	8.750363
2028.000000	8.711562
2029.000000	8.620668
2030.000000	8.538696
2031.000000	8.530000
2032.000000	8.535825
2033.000000	8.499528
2034.000000	8.431369
2035.000000	8.364278
2036.000000	8.309819
2037.000000	8.196640
2038.000000	8.128071
2039.000000	8.082694
2040.000000	7.979775
2041.000000	7.921648
2042.000000	7.870716
2043.000000	7.854531
2044.000000	7.823153
2045.000000	7.752010
2046.000000	7.692067
2047.000000	7.674063
2048.000000	7.657560
2049.000000	7.610857
2050.000000	7.563638
2051.000000	7.490960
2052.000000	7.484829
2053.000000	7.522435
2054.000000	7.555392
2055.000000	7.556837
2056.000000	7.535853
2057.000000	7.575114
2058.000000	7.635221
2059.000000	7.651229
2060.000000	7.682202
2061.000000	7.713219
2062.000000	7.720079
2063.000000	7.783398
2064.000000	7.874488
2065.000000	7.947140
2066.000000	7.939115
2067.000000	7.938955
2068.000000	8.040390
2069.000000	8.095411
2070.000000	8.139690
2071.000000	8.151698
2072.000000	8.130844
2073.000000	8.186749
2074.000000	8.242293
2075.000000	8.302436
2076.000000	8.298089
2077.000000	8.362741
2078.000000	8.463555
2079.000000	8.493402
2080.000000	8.483919
2081.000000	8.475964
2082.000000	8.530179
2083.000000	8.544995
2084.000000	8.488128
2085.000000	8.480890
2086.000000	8.473151
2087.000000	8.433628
2088.000000	8.447811
2089.000000	8.457283
2090.000000	8.545821
2091.000000	8.509856
2092.000000	8.418654
2093.000000	8.430416
2094.000000	8.465735
2095.000000	8.463129
2096.000000	8.432009
2097.000000	8.450007
2098.000000	8.460916
2099.000000	8.529194
2100.000000	8.581267
2101.000000	8.529890
2102.000000	8.503719
2103.000000	8.560405
2104.000000	8.568830
2105.000000	8.545453
2106.000000	8.550089
2107.000000	8.562539
2108.000000	8.508905
2109.000000	8.471198
2110.000000	8.530284
2111.000000	8.519025
2112.000000	8.455333
2113.000000	8.357673
2114.000000	8.498429
2115.000000	8.624278
2116.000000	8.694282
2117.000000	8.625184
2118.000000	8.556082
2119.000000	8.468261
2120.000000	8.460120
2121.000000	8.448199
2122.000000	8.374712
2123.000000	8.400982
2124.000000	8.476720
2125.000000	8.402811
2126.000000	8.334515
2127.000000	8.311575
2128.000000	8.325052
2129.000000	8.219728
2130.000000	8.192540
2131.000000	8.380800
2132.000000	8.247115
2133.000000	8.086565
2134.000000	8.199521
2135.000000	8.284685
2136.000000	8.066428
2137.000000	8.154447
2138.000000	8.066011
2139.000000	8.107790
2140.000000	8.092939
2141.000000	8.074117
2142.000000	7.819569
2143.000000	7.747295
2144.000000	7.813792
2145.000000	7.884667
2146.000000	7.783638
2147.000000	7.617703
2148.000000	7.730732
2149.000000	7.641834
2150.000000	7.667111
2151.000000	7.673724
2152.000000	7.514346
2153.000000	7.491865
2154.000000	7.378240
2155.000000	7.364104
2156.000000	7.351095
2157.000000	7.316966
2158.000000	7.396647
2159.000000	7.308258
2160.000000	7.301166
2161.000000	7.274050
2162.000000	7.260591
2163.000000	7.116483
2164.000000	7.314024
2165.000000	7.130497
2166.000000	7.133158
2167.000000	7.185344
2168.000000	7.230461
2169.000000	7.099095
2170.000000	7.021018
2171.000000	7.136931
2172.000000	7.257937
2173.000000	7.303517
2174.000000	7.032360
2175.000000	6.913094
2176.000000	6.900785
2177.000000	7.123361
2178.000000	7.158401
2179.000000	7.155893
2180.000000	7.104462
2181.000000	7.212313
2182.000000	6.928532
2183.000000	6.992757
2184.000000	6.976738
2185.000000	7.054213
2186.000000	7.058654
2187.000000	7.103982
2188.000000	7.006119
2189.000000	7.029455
2190.000000	6.905377
2191.000000	6.914250
2192.000000	6.959421
2193.000000	7.123427
2194.000000	7.152908
2195.000000	7.119219
2196.000000	7.006057
2197.000000	7.207445
2198.000000	7.173902
2199.000000	7.243650
2200.000000	7.279645
2201.000000	7.240400
2202.000000	7.054339
2203.000000	7.349582
2204.000000	7.341394
2205.000000	7.331117
2206.000000	7.235549
2207.000000	7.434348
2208.000000	7.605385
2209.000000	7.342410
2210.000000	7.374132
2211.000000	7.482982
2212.000000	7.543204
2213.000000	7.553334
2214.000000	7.545249
2215.000000	7.465672
2216.000000	7.544996
2217.000000	7.492482
2218.000000	7.470077
2219.000000	7.411250
2220.000000	7.616060
2221.000000	7.517317
2222.000000	7.535873
2223.000000	7.783002
2224.000000	7.695029
2225.000000	7.663000
2226.000000	7.620077
2227.000000	7.754959
2228.000000	7.831697
2229.000000	7.641674
2230.000000	7.700192
2231.000000	7.788722
2232.000000	7.715194
2233.000000	7.721061
2234.000000	7.736704
2235.000000	7.701300
2236.000000	7.701314
2237.000000	7.569487
2238.000000	7.690701
2239.000000	7.524615
2240.000000	7.591066
2241.000000	7.553589
2242.000000	7.522596
2243.000000	7.650413
2244.000000	7.383689
2245.000000	7.334221
2246.000000	7.246066
2247.000000	7.302122
2248.000000	7.242964
2249.000000	7.101892
2250.000000	7.228349
2251.000000	7.034204
2252.000000	7.117860
2253.000000	7.034375
2254.000000	7.036940
2255.000000	6.871042
2256.000000	6.675931
2257.000000	6.797062
2258.000000	6.864196
2259.000000	6.787982
2260.000000	6.758255
2261.000000	6.660279
2262.000000	6.713574
2263.000000	6.732880
2264.000000	6.772486
2265.000000	6.634231
2266.000000	6.498149
2267.000000	6.547498
2268.000000	6.579161
2269.000000	6.603341
2270.000000	6.623155
2271.000000	6.617769
2272.000000	6.565180
2273.000000	6.459219
2274.000000	6.657420
2275.000000	6.570653
2276.000000	6.710269
2277.000000	6.622431
2278.000000	6.658851
2279.000000	6.617476
2280.000000	6.619127
2281.000000	6.550170
2282.000000	6.644076
2283.000000	6.809557
2284.000000	6.472429
2285.000000	6.629325
2286.000000	6.784875
2287.000000	6.736150
2288.000000	6.594415
2289.000000	6.673949
2290.000000	6.657115
2291.000000	6.533396
2292.000000	6.647991
2293.000000	6.593854
2294.000000	6.650431
2295.000000	6.637666
2296.000000	6.673737
2297.000000	6.753018
2298.000000	6.668357
2299.000000	6.705247
2300.000000	6.698948
2301.000000	6.799953
2302.000000	6.888633
2303.000000	6.799047
2304.000000	6.794419
2305.000000	6.865439
2306.000000	6.986086
2307.000000	6.860797
2308.000000	6.758249
2309.000000	6.749566
2310.000000	6.912407
2311.000000	6.825813
2312.000000	6.934701
2313.000000	6.947367
2314.000000	6.817026
2315.000000	6.900988
2316.000000	6.994062
2317.000000	7.059153
2318.000000	7.138810
2319.000000	7.091165
2320.000000	7.017545
2321.000000	7.117200
2322.000000	7.217421
2323.000000	7.095693
2324.000000	7.242098
2325.000000	7.229197
2326.000000	7.204649
2327.000000	7.258453
2328.000000	7.262192
2329.000000	7.278498
2330.000000	7.080908
2331.000000	7.064902
2332.000000	7.287098
2333.000000	7.102918
2334.000000	6.999369
2335.000000	7.174696
2336.000000	7.226210
2337.000000	7.284414
2338.000000	7.301861
2339.000000	7.415723
2340.000000	7.466849
2341.000000	7.360548
2342.000000	7.481811
2343.000000	7.617817
2344.000000	7.543809
2345.000000	7.524765
2346.000000	7.401874
2347.000000	7.518801
2348.000000	7.526978
2349.000000	7.559449
2350.000000	7.746410
2351.000000	7.987241
2352.000000	7.988486
2353.000000	7.895987
2354.000000	7.796973
2355.000000	7.708595
2356.000000	7.680318
2357.000000	7.669244
2358.000000	7.818300
2359.000000	7.717730
2360.000000	7.840771
2361.000000	8.200930
2362.000000	8.012707
2363.000000	7.886174
2364.000000	8.010358
2365.000000	8.343668
2366.000000	8.518776
2367.000000	8.031080
2368.000000	7.782195
2369.000000	7.640518
2370.000000	7.708952
2371.000000	8.054256
2372.000000	8.035512
2373.000000	8.183628
2374.000000	8.286922
2375.000000	8.265331
2376.000000	8.343790
2377.000000	8.424697
2378.000000	8.298515
2379.000000	8.235007
2380.000000	8.337584
2381.000000	8.274877
2382.000000	8.337342
2383.000000	8.327052
2384.000000	8.471035
2385.000000	8.476064
2386.000000	8.446826
2387.000000	8.252447
2388.000000	8.215092
2389.000000	8.145627
2390.000000	8.462103
2391.000000	8.402759
2392.000000	8.331590
2393.000000	8.360662
2394.000000	8.730756
2395.000000	8.914734
2396.000000	8.973424
2397.000000	8.625410
2398.000000	8.549339
2399.000000	8.570684
2400.000000	8.590734
2401.000000	8.481369
2402.000000	8.502331
2403.000000	8.409855
2404.000000	8.629917
2405.000000	8.766277
2406.000000	8.831671
2407.000000	8.942285
2408.000000	9.307080
2409.000000	8.705070
2410.000000	8.860007
2411.000000	8.735328
2412.000000	8.551485
2413.000000	8.769107
2414.000000	9.210145
2415.000000	8.747628
2416.000000	8.813662
2417.000000	8.576443
2418.000000	8.545838
2419.000000	8.799815
2420.000000	8.937817
2421.000000	8.599307
2422.000000	9.299417
2423.000000	8.685465
2424.000000	9.023072
2425.000000	8.965738
2426.000000	9.017185
2427.000000	9.153241
2428.000000	9.546584
2429.000000	9.004958
2430.000000	9.076343
2431.000000	8.794546
2432.000000	8.773471
2433.000000	9.165108
2434.000000	8.873383
2435.000000	9.585249
2436.000000	9.501751
2437.000000	8.670009
2438.000000	9.285061
2439.000000	8.986355
2440.000000	9.040446
2441.000000	8.812428
2442.000000	9.174418
2443.000000	9.593916
2444.000000	9.109662
2445.000000	9.049298
2446.000000	9.796694
2447.000000	9.535356
2448.000000	9.922253
2449.000000	10.174171
2450.000000	9.967815
2451.000000	9.977639
2452.000000	9.742326
2453.000000	9.240206
2454.000000	9.710678
2455.000000	10.284700
2456.000000	10.933748
2457.000000	9.796721
2458.000000	10.324581
2459.000000	9.721421
2460.000000	9.920213
2461.000000	10.807873
2462.000000	11.854455
2463.000000	11.579663
2464.000000	12.184069
2465.000000	12.074299
2466.000000	11.599979
2467.000000	11.670609
2468.000000	12.119659
2469.000000	12.324178
2470.000000	12.573669
2471.000000	12.581763
2472.000000	12.895331
2473.000000	13.190313
2474.000000	13.137703
2475.000000	13.517146
2476.000000	15.113811
2477.000000	14.331559
2478.000000	14.492939
2479.000000	14.724077
2480.000000	14.975662
2481.000000	15.037541
2482.000000	15.834531
2483.000000	16.090644
2484.000000	16.956146
2485.000000	16.293574
2486.000000	16.269816
2487.000000	16.817574
2488.000000	17.977221
2489.000000	17.490392
2490.000000	17.386065
2491.000000	17.772483
2492.000000	18.073397
2493.000000	22.052268
2494.000000	20.114373
2495.000000	21.338158
2496.000000	20.707405
2497.000000	21.721639
2498.000000	22.434513
2499.000000	21.272803
2500.000000	22.189298
2501.000000	nan
2502.000000	nan
2503.000000	nan
2504.000000	nan
2505.000000	nan
2506.000000	nan
2507.000000	nan
2508.000000	nan
2509.000000	nan
2510.000000	nan
2511.000000	nan
2512.000000	nan
2513.000000	nan
2514.000000	nan
2515.000000	nan
2516.000000	nan
2517.000000	nan
2518.000000	nan
2519.000000	nan
2520.000000	nan
2521.000000	nan
2522.000000	nan
2523.000000	nan
2524.000000	nan
2525.000000	nan
2526.000000	nan
2527.000000	nan
2528.000000	nan
2529.000000	nan
2530.000000	nan
2531.000000	nan
2532.000000	nan
2533.000000	nan
2534.000000	nan
2535.000000	nan
2536.000000	nan
2537.000000	nan
2538.000000	nan
2539.000000	nan
2540.000000	nan
2541.000000	nan
2542.000000	nan
2543.000000	nan
2544.000000	nan
2545.000000	nan
2546.000000	nan
2547.000000	nan
2548.000000	nan
2549.000000	nan
2550.000000	nan
2551.000000	nan
2552.000000	nan
2553.000000	nan
2554.000000	nan
2555.000000	nan
2556.000000	nan
2557.000000	nan
2558.000000	nan
2559.000000	nan
2560.000000	nan
2561.000000	nan
2562.000000	nan
2563.000000	nan
2564.000000	nan
2565.000000	nan
2566.000000	nan
2567.000000	nan
2568.000000	nan
2569.000000	nan
2570.000000	nan
2571.000000	nan
2572.000000	nan
2573.000000	nan
2574.000000	nan
2575.000000	nan
2576.000000	nan
2577.000000	nan
2578.000000	nan
2579.000000	nan
2580.000000	nan
2581.000000	nan
2582.000000	nan
2583.000000	nan
2584.000000	nan
2585.000000	nan
2586.000000	nan
2587.000000	nan
2588.000000	nan
2589.000000	nan
2590.000000	nan
2591.000000	nan
2592.000000	nan
2593.000000	nan
2594.000000	nan
2595.000000	nan
2596.000000	nan
2597.000000	nan
2598.000000	nan
2599.000000	nan
2600.000000	nan
2601.000000	nan
2602.000000	nan
2603.000000	nan
2604.000000	nan
2605.000000	nan
2606.000000	nan
2607.000000	nan
2608.000000	nan
2609.000000	nan
2610.000000	nan
2611.000000	nan
2612.000000	nan
2613.000000	nan
2614.000000	nan
2615.000000	nan
2616.000000	nan
2617.000000	nan
2618.000000	nan
2619.000000	nan
2620.000000	nan
2621.000000	nan
2622.000000	nan
2623.000000	nan
2624.000000	nan
2625.000000	nan
2626.000000	nan
2627.000000	nan
2628.000000	nan
2629.000000	nan
2630.000000	nan
2631.000000	nan
2632.000000	nan
2633.000000	nan
2634.000000	nan
2635.000000	nan
2636.000000	nan
2637.000000	nan
2638.000000	nan
2639.000000	nan
2640.000000	nan
2641.000000	nan
2642.000000	nan
2643.000000	nan
2644.000000	nan
2645.000000	nan
2646.000000	nan
2647.000000	nan
2648.000000	nan
2649.000000	nan
2650.000000	nan
2651.000000	nan
2652.000000	nan
2653.000000	nan
2654.000000	nan
2655.000000	nan
2656.000000	nan
2657.000000	nan
2658.000000	nan
2659.000000	nan
2660.000000	nan
2661.000000	nan
2662.000000	nan
2663.000000	nan
2664.000000	nan
2665.000000	nan
2666.000000	nan
2667.000000	nan
2668.000000	nan
2669.000000	nan
2670.000000	nan
2671.000000	nan
2672.000000	nan
2673.000000	nan
2674.000000	nan
2675.000000	nan
2676.000000	nan
2677.000000	nan
2678.000000	nan
2679.000000	nan
2680.000000	nan
2681.000000	nan
2682.000000	nan
2683.000000	nan
2684.000000	nan
2685.000000	nan
2686.000000	nan
2687.000000	nan
2688.000000	nan
2689.000000	nan
2690.000000	nan
2691.000000	nan
2692.000000	nan
2693.000000	nan
2694.000000	nan
2695.000000	nan
2696.000000	nan
2697.000000	nan
2698.000000	nan
2699.000000	nan
2700.000000	nan
2701.000000	nan
2702.000000	nan
2703.000000	nan
2704.000000	nan
2705.000000	nan
2706.000000	nan
2707.000000	nan
2708.000000	nan
2709.000000	nan
2710.000000	nan
2711.000000	nan
2712.000000	nan
2713.000000	nan
2714.000000	nan
2715.000000	nan
2716.000000	nan
2717.000000	nan
2718.000000	nan
2719.000000	nan
2720.000000	nan
2721.000000	nan
2722.000000	nan
2723.000000	nan
2724.000000	nan
2725.000000	nan
2726.000000	nan
2727.000000	nan
2728.000000	nan
2729.000000	nan
2730.000000	nan
2731.000000	nan
2732.000000	nan
2733.000000	nan
2734.000000	nan
2735.000000	nan
2736.000000	nan
2737.000000	nan
2738.000000	nan
2739.000000	nan
2740.000000	nan
2741.000000	nan
2742.000000	nan
2743.000000	nan
2744.000000	nan
2745.000000	nan
2746.000000	nan
2747.000000	nan
2748.000000	nan
2749.000000	nan
2750.000000	nan
2751.000000	nan
2752.000000	nan
2753.000000	nan
2754.000000	nan
2755.000000	nan
2756.000000	nan
2757.000000	nan
2758.000000	nan
2759.000000	nan
2760.000000	nan
2761.000000	nan
2762.000000	nan
2763.000000	nan
2764.000000	nan
2765.000000	nan
2766.000000	nan
2767.000000	nan
2768.000000	nan
2769.000000	nan
2770.000000	nan
2771.000000	nan
2772.000000	nan
2773.000000	nan
2774.000000	nan
2775.000000	nan
2776.000000	nan
2777.000000	nan
2778.000000	nan
2779.000000	nan
2780.000000	nan
2781.000000	nan
2782.000000	nan
2783.000000	nan
2784.000000	nan
2785.000000	nan
2786.000000	nan
2787.000000	nan
2788.000000	nan
2789.000000	nan
2790.000000	nan
2791.000000	nan
2792.000000	nan
2793.000000	nan
2794.000000	nan
2795.000000	nan
2796.000000	nan
2797.000000	nan
2798.000000	nan
2799.000000	nan
2800.000000	nan
2801.000000	nan
2802.000000	nan
2803.000000	nan
2804.000000	nan
2805.000000	nan
2806.000000	nan
2807.000000	nan
2808.000000	nan
2809.000000	nan
2810.000000	nan
2811.000000	nan
2812.000000	nan
2813.000000	nan
2814.000000	nan
2815.000000	nan
2816.000000	nan
2817.000000	nan
2818.000000	nan
2819.000000	nan
2820.000000	nan
2821.000000	nan
2822.000000	nan
2823.000000	nan
2824.000000	nan
2825.000000	nan
2826.000000	nan
2827.000000	nan
2828.000000	nan
2829.000000	nan
2830.000000	nan
2831.000000	nan
2832.000000	nan
2833.000000	nan
2834.000000	nan
2835.000000	nan
2836.000000	nan
2837.000000	nan
2838.000000	nan
2839.000000	nan
2840.000000	nan
2841.000000	nan
2842.000000	nan
2843.000000	nan
2844.000000	nan
2845.000000	nan
2846.000000	nan
2847.000000	nan
2848.000000	nan
2849.000000	nan
2850.000000	nan
2851.000000	nan
2852.000000	nan
2853.000000	nan
2854.000000	nan
2855.000000	nan
2856.000000	nan
2857.000000	nan
2858.000000	nan
2859.000000	nan
2860.000000	nan
2861.000000	nan
2862.000000	nan
2863.000000	nan
2864.000000	nan
2865.000000	nan
2866.000000	nan
2867.000000	nan
2868.000000	nan
2869.000000	nan
2870.000000	nan
2871.000000	nan
2872.000000	nan
2873.000000	nan
2874.000000	nan
2875.000000	nan
2876.000000	nan
2877.000000	nan
2878.000000	nan
2879.000000	nan
2880.000000	nan
2881.000000	nan
2882.000000	nan
2883.000000	nan
2884.000000	nan
2885.000000	nan
2886.000000	nan
2887.000000	nan
2888.000000	nan
2889.000000	nan
2890.000000	nan
2891.000000	nan
2892.000000	nan
2893.000000	nan
2894.000000	nan
2895.000000	nan
2896.000000	nan
2897.000000	nan
2898.000000	nan
2899.000000	nan
2900.000000	nan
2901.000000	nan
2902.000000	nan
2903.000000	nan
2904.000000	nan
2905.000000	nan
2906.000000	nan
2907.000000	nan
2908.000000	nan
2909.000000	nan
2910.000000	nan
2911.000000	nan
2912.000000	nan
2913.000000	nan
2914.000000	nan
2915.000000	nan
2916.000000	nan
2917.000000	nan
2918.000000	nan
2919.000000	nan
2920.000000	nan
2921.000000	nan
2922.000000	nan
2923.000000	nan
2924.000000	nan
2925.000000	nan
2926.000000	nan
2927.000000	nan
2928.000000	nan
2929.000000	nan
2930.000000	nan
2931.000000	nan
2932.000000	nan
2933.000000	nan
2934.000000	nan
2935.000000	nan
2936.000000	nan
2937.000000	nan
2938.000000	nan
2939.000000	nan
2940.000000	nan
2941.000000	nan
2942.000000	nan
2943.000000	nan
2944.000000	nan
2945.000000	nan
2946.000000	nan
2947.000000	nan
2948.000000	nan
2949.000000	nan
2950.000000	nan
2951.000000	nan
2952.000000	nan
2953.000000	nan
2954.000000	nan
2955.000000	nan
2956.000000	nan
2957.000000	nan
2958.000000	nan
2959.000000	nan
2960.000000	nan
2961.000000	nan
2962.000000	nan
2963.000000	nan
2964.000000	nan
2965.000000	nan
2966.000000	nan
2967.000000	nan
2968.000000	nan
2969.000000	nan
2970.000000	nan
2971.000000	nan
2972.000000	nan
2973.000000	nan
2974.000000	nan
2975.000000	nan
2976.000000	nan
2977.000000	nan
2978.000000	nan
2979.000000	nan
2980.000000	nan
2981.000000	nan
2982.000000	nan
2983.000000	nan
2984.000000	nan
2985.000000	nan
2986.000000	nan
2987.000000	nan
2988.000000	nan
2989.000000	nan
2990.000000	nan
2991.000000	nan
2992.000000	nan
2993.000000	nan
2994.000000	nan
2995.000000	nan
2996.000000	nan
2997.000000	nan
2998.000000	nan
2999.000000	nan
3000.000000	nan
