PE UV       SUBTECH     SPECTRUM    ASCII       PEDS        4.00        
   -1
INBUCR0414-4.Sample.ASC
24/02/09
12:01:12.00
24/02/09
12:01:12.00
Vinicio Soto Monge
Chrysina optima. Det: A. Solís. COSTA RICA. Prov. Cartago, R. Grande de Orosi, desde Puente R. Dos Amigos hasta la Represa. 1400-1800m. NOV 1997. R. Delgado. Trampa de Luz. L_N_186600_562000 #48891. INBIOCRI002596554. Falta élitro izquierdo. 
250,000000
1
Lambda 1050
1050L1511233
PerkinElmer UV WinLab 6.3.2.0749 / 2.02.05 Lambda 900 UV/VIS/NIR, Aug  7 2015 09:38:08

0
0
3350/servo 860,8/2
0
0
UV/VIS
1
1
1
DoubleDePol,CommonBeamDepol,RBeamAtt,SBeamAtt,60mm sphere, WB InGaAs Detector
0
0
0
0
Program
Program
3350/servo 860,8/2
3350/0,2 860,8/0,2
3350/0,2 860,8/0,2
0
15.00
 
 
 
0
 
860,8
319,2
860,8
Front
100
on
S:100 R:100
0
0
0
0
 
0
 
 
 
0
 
 
0
0
0
0
0
 
 
 
 
0
0


0
0
#HDR
-1
-1
#GR
nm
%R
1.0
0.0
2500,000000
-1,000000
2251
8
21,126600
1,122700
#DATA

250.000000	5.041145
251.000000	5.041995
252.000000	5.046680
253.000000	5.050217
254.000000	5.051606
255.000000	5.060332
256.000000	5.062275
257.000000	5.048093
258.000000	5.057651
259.000000	5.057674
260.000000	5.050911
261.000000	5.059754
262.000000	5.064704
263.000000	5.062982
264.000000	5.061262
265.000000	5.072416
266.000000	5.081135
267.000000	5.073065
268.000000	5.073943
269.000000	5.076427
270.000000	5.078018
271.000000	5.085113
272.000000	5.073530
273.000000	5.079789
274.000000	5.085118
275.000000	5.094339
276.000000	5.092966
277.000000	5.097094
278.000000	5.087333
279.000000	5.093028
280.000000	5.097411
281.000000	5.093056
282.000000	5.089673
283.000000	5.090645
284.000000	5.096372
285.000000	5.096622
286.000000	5.107248
287.000000	5.094094
288.000000	5.094633
289.000000	5.095706
290.000000	5.089633
291.000000	5.102017
292.000000	5.103909
293.000000	5.102575
294.000000	5.086686
295.000000	5.117546
296.000000	5.111333
297.000000	5.120363
298.000000	5.118876
299.000000	5.117409
300.000000	5.110131
301.000000	5.110979
302.000000	5.108280
303.000000	5.114053
304.000000	5.118752
305.000000	5.119926
306.000000	5.113756
307.000000	5.112878
308.000000	5.114900
309.000000	5.759874
310.000000	5.776643
311.000000	5.770472
312.000000	5.770514
313.000000	5.768083
314.000000	5.779143
315.000000	5.783744
316.000000	5.755926
317.000000	6.218465
318.000000	6.871980
319.000000	6.860332
320.000000	6.891016
321.000000	6.914471
322.000000	6.881198
323.000000	7.000572
324.000000	6.921301
325.000000	7.012331
326.000000	7.037065
327.000000	6.974273
328.000000	6.967854
329.000000	6.998393
330.000000	6.962404
331.000000	7.001959
332.000000	7.017908
333.000000	6.984315
334.000000	6.976268
335.000000	7.617133
336.000000	7.656667
337.000000	7.676097
338.000000	7.690775
339.000000	7.688473
340.000000	7.688239
341.000000	7.682416
342.000000	7.714323
343.000000	7.702056
344.000000	7.694620
345.000000	7.716437
346.000000	7.686077
347.000000	7.697582
348.000000	7.677765
349.000000	7.682778
350.000000	7.698228
351.000000	7.728432
352.000000	7.731430
353.000000	7.730431
354.000000	7.722012
355.000000	7.705908
356.000000	7.721277
357.000000	7.711375
358.000000	7.702759
359.000000	7.696760
360.000000	7.732814
361.000000	7.733392
362.000000	7.748202
363.000000	7.721104
364.000000	7.740937
365.000000	7.753349
366.000000	7.751732
367.000000	7.758540
368.000000	7.787440
369.000000	7.751847
370.000000	7.782167
371.000000	7.806672
372.000000	7.801815
373.000000	7.841754
374.000000	7.886462
375.000000	7.872731
376.000000	7.783623
377.000000	7.156421
378.000000	7.159309
379.000000	7.158781
380.000000	7.157211
381.000000	7.156053
382.000000	7.155951
383.000000	7.155701
384.000000	7.154330
385.000000	7.149073
386.000000	7.150663
387.000000	7.150216
388.000000	7.146846
389.000000	7.146993
390.000000	7.148641
391.000000	7.147615
392.000000	7.146073
393.000000	7.149080
394.000000	7.148451
395.000000	7.147089
396.000000	7.806382
397.000000	7.807865
398.000000	7.805932
399.000000	7.806398
400.000000	7.808620
401.000000	7.808661
402.000000	7.807228
403.000000	7.805400
404.000000	7.807662
405.000000	7.807283
406.000000	7.805037
407.000000	7.805956
408.000000	7.805586
409.000000	7.804975
410.000000	7.805860
411.000000	7.804477
412.000000	7.804176
413.000000	7.803760
414.000000	7.804557
415.000000	7.804654
416.000000	7.803898
417.000000	7.802756
418.000000	7.802238
419.000000	7.802917
420.000000	7.802521
421.000000	7.801179
422.000000	7.800998
423.000000	7.800496
424.000000	7.800909
425.000000	7.800094
426.000000	7.800471
427.000000	8.457007
428.000000	8.456358
429.000000	8.455735
430.000000	8.453926
431.000000	8.453560
432.000000	8.451897
433.000000	8.450658
434.000000	8.451074
435.000000	8.450964
436.000000	8.450130
437.000000	8.449469
438.000000	8.448877
439.000000	8.448392
440.000000	8.447274
441.000000	8.445745
442.000000	8.446638
443.000000	8.447684
444.000000	8.447629
445.000000	8.446815
446.000000	8.444871
447.000000	8.443588
448.000000	8.443218
449.000000	8.442256
450.000000	8.441964
451.000000	8.442480
452.000000	8.441299
453.000000	8.440347
454.000000	8.440496
455.000000	8.438847
456.000000	8.438167
457.000000	8.437650
458.000000	8.436079
459.000000	8.434599
460.000000	8.433411
461.000000	8.431373
462.000000	8.429174
463.000000	8.428678
464.000000	8.427143
465.000000	8.425590
466.000000	8.423980
467.000000	8.423103
468.000000	8.421945
469.000000	8.420652
470.000000	8.419442
471.000000	8.419188
472.000000	8.418765
473.000000	8.417075
474.000000	8.416936
475.000000	8.416399
476.000000	8.416072
477.000000	8.415581
478.000000	8.415217
479.000000	8.415375
480.000000	8.418225
481.000000	8.420361
482.000000	8.422139
483.000000	8.422179
484.000000	8.419432
485.000000	9.073741
486.000000	9.070412
487.000000	9.066928
488.000000	9.062186
489.000000	9.057717
490.000000	9.053223
491.000000	9.047840
492.000000	9.043598
493.000000	9.037717
494.000000	9.032085
495.000000	9.027072
496.000000	9.021356
497.000000	9.014946
498.000000	9.008414
499.000000	9.001435
500.000000	8.995897
501.000000	8.990147
502.000000	8.982961
503.000000	9.633450
504.000000	9.625469
505.000000	9.616722
506.000000	9.609304
507.000000	9.600152
508.000000	9.590418
509.000000	9.580171
510.000000	9.569453
511.000000	9.557281
512.000000	9.543394
513.000000	10.187444
514.000000	10.172192
515.000000	10.154752
516.000000	10.134030
517.000000	10.112394
518.000000	10.086776
519.000000	10.058397
520.000000	10.023524
521.000000	9.984996
522.000000	10.597319
523.000000	10.544629
524.000000	10.483619
525.000000	10.413367
526.000000	10.334382
527.000000	10.242677
528.000000	10.135996
529.000000	10.013811
530.000000	9.876310
531.000000	9.719672
532.000000	9.546795
533.000000	10.014398
534.000000	9.813830
535.000000	9.603213
536.000000	9.386845
537.000000	9.168096
538.000000	8.949124
539.000000	8.731773
540.000000	8.525377
541.000000	8.330077
542.000000	8.149698
543.000000	7.989100
544.000000	7.842555
545.000000	7.717151
546.000000	7.611134
547.000000	7.522044
548.000000	7.443135
549.000000	7.374186
550.000000	7.315486
551.000000	7.268255
552.000000	7.224946
553.000000	7.190112
554.000000	7.160316
555.000000	7.135560
556.000000	7.115833
557.000000	7.090086
558.000000	7.074215
559.000000	7.060823
560.000000	7.152593
561.000000	7.160391
562.000000	7.151357
563.000000	7.141893
564.000000	7.134590
565.000000	7.128873
566.000000	7.125562
567.000000	7.116402
568.000000	7.112583
569.000000	7.104683
570.000000	7.098345
571.000000	7.088809
572.000000	7.079752
573.000000	7.075608
574.000000	7.073757
575.000000	7.068061
576.000000	7.062683
577.000000	7.058405
578.000000	7.049307
579.000000	7.037982
580.000000	7.034312
581.000000	7.022174
582.000000	7.019414
583.000000	7.014058
584.000000	7.006387
585.000000	6.999029
586.000000	6.996352
587.000000	6.990070
588.000000	6.992014
589.000000	6.982630
590.000000	6.975734
591.000000	6.967588
592.000000	6.966555
593.000000	6.964741
594.000000	6.960985
595.000000	6.957661
596.000000	6.956734
597.000000	6.953285
598.000000	6.954095
599.000000	6.954410
600.000000	6.951250
601.000000	6.951246
602.000000	6.955728
603.000000	6.959713
604.000000	6.974859
605.000000	6.991633
606.000000	7.008272
607.000000	7.025869
608.000000	7.053030
609.000000	7.088282
610.000000	7.128881
611.000000	7.176525
612.000000	7.236955
613.000000	7.301996
614.000000	7.377203
615.000000	7.443986
616.000000	7.515459
617.000000	7.568748
618.000000	7.603952
619.000000	7.617620
620.000000	7.607277
621.000000	7.575636
622.000000	7.518407
623.000000	7.454399
624.000000	7.386006
625.000000	7.322627
626.000000	7.260312
627.000000	7.207678
628.000000	7.168639
629.000000	7.139126
630.000000	7.123769
631.000000	7.123153
632.000000	7.128679
633.000000	7.151676
634.000000	7.839696
635.000000	7.882867
636.000000	7.940583
637.000000	8.006494
638.000000	8.079789
639.000000	8.159038
640.000000	8.234788
641.000000	8.310255
642.000000	8.379591
643.000000	8.427505
644.000000	8.461784
645.000000	8.470455
646.000000	8.449162
647.000000	8.412014
648.000000	8.355845
649.000000	8.288716
650.000000	8.214981
651.000000	8.134853
652.000000	8.059913
653.000000	7.993569
654.000000	7.938601
655.000000	7.901291
656.000000	7.869419
657.000000	7.851687
658.000000	7.848557
659.000000	7.861591
660.000000	7.885511
661.000000	7.921165
662.000000	7.957538
663.000000	8.011079
664.000000	8.069376
665.000000	8.780849
666.000000	8.840425
667.000000	8.886610
668.000000	8.932964
669.000000	8.977031
670.000000	8.996216
671.000000	8.998909
672.000000	8.983105
673.000000	8.955907
674.000000	8.908041
675.000000	8.845423
676.000000	8.775852
677.000000	8.703730
678.000000	8.630165
679.000000	8.564287
680.000000	8.491913
681.000000	8.435411
682.000000	8.393503
683.000000	8.350965
684.000000	8.321425
685.000000	8.299910
686.000000	8.289027
687.000000	8.288681
688.000000	8.284921
689.000000	8.288313
690.000000	8.291425
691.000000	8.291775
692.000000	8.300169
693.000000	8.300558
694.000000	8.950551
695.000000	8.942370
696.000000	8.930145
697.000000	8.912183
698.000000	8.885234
699.000000	8.854791
700.000000	8.813177
701.000000	8.762911
702.000000	8.709151
703.000000	8.647254
704.000000	8.587429
705.000000	8.529070
706.000000	8.469326
707.000000	8.415954
708.000000	8.368133
709.000000	8.317259
710.000000	8.281210
711.000000	8.247155
712.000000	8.221267
713.000000	8.198253
714.000000	8.175383
715.000000	8.159989
716.000000	8.144126
717.000000	8.127873
718.000000	8.115374
719.000000	8.104057
720.000000	8.092205
721.000000	8.083750
722.000000	8.076666
723.000000	8.059681
724.000000	8.050076
725.000000	8.036779
726.000000	8.668892
727.000000	8.660318
728.000000	8.646257
729.000000	8.630606
730.000000	8.615682
731.000000	8.602302
732.000000	8.586392
733.000000	8.565265
734.000000	8.547203
735.000000	8.530588
736.000000	8.514675
737.000000	8.501121
738.000000	8.491363
739.000000	8.483464
740.000000	8.466954
741.000000	8.446417
742.000000	8.435152
743.000000	8.425750
744.000000	8.419870
745.000000	8.411329
746.000000	8.402786
747.000000	8.400664
748.000000	8.390067
749.000000	8.383271
750.000000	8.376563
751.000000	8.366557
752.000000	8.353939
753.000000	8.990440
754.000000	8.983735
755.000000	8.971630
756.000000	8.953912
757.000000	8.940022
758.000000	8.929142
759.000000	8.920786
760.000000	8.905445
761.000000	8.884609
762.000000	8.866125
763.000000	8.845626
764.000000	8.831029
765.000000	8.816047
766.000000	8.802751
767.000000	8.790165
768.000000	8.777055
769.000000	8.767846
770.000000	8.751791
771.000000	8.745249
772.000000	8.734008
773.000000	8.706374
774.000000	8.693663
775.000000	8.689081
776.000000	8.673323
777.000000	8.660808
778.000000	9.295064
779.000000	9.273419
780.000000	9.258508
781.000000	9.243218
782.000000	9.226782
783.000000	9.215655
784.000000	9.199000
785.000000	9.185415
786.000000	9.159720
787.000000	9.145329
788.000000	9.124864
789.000000	9.092812
790.000000	9.085149
791.000000	9.064656
792.000000	9.052323
793.000000	9.032811
794.000000	9.020791
795.000000	9.006077
796.000000	8.982175
797.000000	8.968744
798.000000	8.956618
799.000000	8.941877
800.000000	9.573218
801.000000	9.558051
802.000000	9.555097
803.000000	9.537368
804.000000	9.516754
805.000000	9.502540
806.000000	9.490127
807.000000	9.465464
808.000000	9.440602
809.000000	9.407784
810.000000	9.390132
811.000000	9.383543
812.000000	9.361498
813.000000	9.345193
814.000000	9.334671
815.000000	9.326841
816.000000	9.314559
817.000000	9.282905
818.000000	9.277473
819.000000	9.267413
820.000000	9.260586
821.000000	9.250229
822.000000	9.890133
823.000000	9.890548
824.000000	9.879493
825.000000	9.854633
826.000000	9.845171
827.000000	9.833038
828.000000	9.816771
829.000000	9.812820
830.000000	9.794443
831.000000	9.786898
832.000000	9.780862
833.000000	9.776113
834.000000	9.784762
835.000000	9.772953
836.000000	9.774564
837.000000	9.758510
838.000000	9.759360
839.000000	9.750387
840.000000	9.750171
841.000000	9.744965
842.000000	9.723309
843.000000	9.739733
844.000000	9.740382
845.000000	9.729933
846.000000	9.728862
847.000000	9.738887
848.000000	9.778367
849.000000	9.755292
850.000000	9.697040
851.000000	9.725155
852.000000	9.797153
853.000000	9.778860
854.000000	10.401653
855.000000	9.788685
856.000000	9.722134
857.000000	10.236555
858.000000	16.052768
859.000000	10.169411
860.000000	10.617993
861.000000	10.082743
862.000000	10.526536
863.000000	9.990173
864.000000	9.465221
865.000000	8.945309
866.000000	9.408198
867.000000	9.386353
868.000000	8.867173
869.000000	8.860821
870.000000	8.843502
871.000000	9.321057
872.000000	8.811823
873.000000	9.290416
874.000000	8.787222
875.000000	8.771924
876.000000	8.755509
877.000000	8.748194
878.000000	8.244946
879.000000	8.243713
880.000000	8.234225
881.000000	8.709223
882.000000	8.702261
883.000000	8.204095
884.000000	8.205442
885.000000	8.197498
886.000000	8.203415
887.000000	8.189952
888.000000	8.192434
889.000000	8.195618
890.000000	8.186727
891.000000	7.707491
892.000000	7.708289
893.000000	7.710419
894.000000	7.712872
895.000000	7.710005
896.000000	7.718742
897.000000	7.714348
898.000000	7.736696
899.000000	7.738412
900.000000	7.735458
901.000000	7.260120
902.000000	7.270270
903.000000	7.283246
904.000000	7.770822
905.000000	7.783497
906.000000	7.301069
907.000000	7.302740
908.000000	7.303466
909.000000	7.303684
910.000000	7.332537
911.000000	7.344952
912.000000	7.343475
913.000000	7.352212
914.000000	7.365575
915.000000	7.382279
916.000000	7.389694
917.000000	7.393996
918.000000	7.411039
919.000000	7.412788
920.000000	7.430070
921.000000	7.445600
922.000000	7.455524
923.000000	6.993647
924.000000	7.009983
925.000000	7.012208
926.000000	7.024139
927.000000	7.050784
928.000000	7.541766
929.000000	7.080600
930.000000	7.098030
931.000000	7.112183
932.000000	7.604176
933.000000	7.133694
934.000000	7.141890
935.000000	7.151630
936.000000	7.158912
937.000000	7.164371
938.000000	7.173006
939.000000	7.190480
940.000000	7.208540
941.000000	7.232934
942.000000	7.240096
943.000000	7.248736
944.000000	7.255837
945.000000	7.256087
946.000000	7.264844
947.000000	7.271211
948.000000	7.278119
949.000000	7.284319
950.000000	7.304950
951.000000	7.299888
952.000000	7.302085
953.000000	7.311282
954.000000	7.309368
955.000000	7.320650
956.000000	7.330795
957.000000	7.338953
958.000000	7.339374
959.000000	7.340545
960.000000	7.344772
961.000000	7.346822
962.000000	7.350162
963.000000	7.355161
964.000000	7.357185
965.000000	7.362523
966.000000	7.365302
967.000000	7.374196
968.000000	7.375860
969.000000	7.382611
970.000000	7.380985
971.000000	7.381086
972.000000	7.378880
973.000000	7.382019
974.000000	7.382760
975.000000	7.387367
976.000000	7.383576
977.000000	7.379466
978.000000	7.382260
979.000000	7.385668
980.000000	7.381803
981.000000	7.376572
982.000000	7.377419
983.000000	7.379198
984.000000	7.381839
985.000000	7.377789
986.000000	7.369625
987.000000	7.367610
988.000000	7.374288
989.000000	7.377324
990.000000	7.378752
991.000000	7.377142
992.000000	7.371653
993.000000	7.375974
994.000000	7.376830
995.000000	7.371927
996.000000	7.375931
997.000000	7.373378
998.000000	7.371954
999.000000	7.370765
1000.000000	7.369935
1001.000000	7.369346
1002.000000	7.369645
1003.000000	7.365725
1004.000000	7.366368
1005.000000	7.364784
1006.000000	7.362051
1007.000000	7.359793
1008.000000	7.363674
1009.000000	7.364032
1010.000000	7.359518
1011.000000	7.357074
1012.000000	7.353654
1013.000000	7.356525
1014.000000	7.355067
1015.000000	7.353801
1016.000000	7.355464
1017.000000	7.346087
1018.000000	7.334793
1019.000000	7.332087
1020.000000	7.329277
1021.000000	7.322973
1022.000000	7.317098
1023.000000	7.313849
1024.000000	7.312669
1025.000000	7.311843
1026.000000	7.313122
1027.000000	7.309951
1028.000000	7.303161
1029.000000	7.298128
1030.000000	7.291417
1031.000000	7.290431
1032.000000	7.291036
1033.000000	7.288428
1034.000000	7.285217
1035.000000	7.285941
1036.000000	7.281651
1037.000000	7.271168
1038.000000	7.268168
1039.000000	7.268492
1040.000000	7.261289
1041.000000	7.257176
1042.000000	7.253699
1043.000000	7.248131
1044.000000	7.245063
1045.000000	7.245009
1046.000000	7.239815
1047.000000	7.239305
1048.000000	7.236711
1049.000000	7.230071
1050.000000	7.230449
1051.000000	7.228415
1052.000000	7.222728
1053.000000	7.218787
1054.000000	7.213890
1055.000000	7.211926
1056.000000	7.210075
1057.000000	7.207695
1058.000000	7.200260
1059.000000	7.196624
1060.000000	7.194129
1061.000000	7.185922
1062.000000	7.182274
1063.000000	7.178937
1064.000000	7.177750
1065.000000	7.177270
1066.000000	7.171708
1067.000000	7.171338
1068.000000	7.171185
1069.000000	7.164288
1070.000000	7.154024
1071.000000	7.147081
1072.000000	7.142321
1073.000000	7.135462
1074.000000	7.139258
1075.000000	7.135280
1076.000000	7.132560
1077.000000	7.124285
1078.000000	7.120317
1079.000000	7.119857
1080.000000	7.125587
1081.000000	7.121633
1082.000000	7.113957
1083.000000	7.107647
1084.000000	7.105295
1085.000000	7.104143
1086.000000	7.100696
1087.000000	7.098480
1088.000000	7.090755
1089.000000	7.091722
1090.000000	7.082472
1091.000000	7.083343
1092.000000	7.091782
1093.000000	7.093049
1094.000000	7.088114
1095.000000	7.080442
1096.000000	7.077871
1097.000000	7.079292
1098.000000	7.075606
1099.000000	7.067794
1100.000000	7.069809
1101.000000	7.063944
1102.000000	7.065094
1103.000000	7.066613
1104.000000	7.061757
1105.000000	7.065224
1106.000000	7.070471
1107.000000	7.070142
1108.000000	7.071401
1109.000000	7.074075
1110.000000	7.068842
1111.000000	7.066989
1112.000000	7.066331
1113.000000	7.065146
1114.000000	7.064931
1115.000000	7.062579
1116.000000	7.061140
1117.000000	7.063525
1118.000000	7.065869
1119.000000	7.071121
1120.000000	7.072156
1121.000000	7.068523
1122.000000	7.065786
1123.000000	7.070034
1124.000000	7.066656
1125.000000	7.070342
1126.000000	7.070860
1127.000000	7.081578
1128.000000	7.085773
1129.000000	7.093860
1130.000000	7.102374
1131.000000	7.124029
1132.000000	7.147304
1133.000000	7.146997
1134.000000	7.147288
1135.000000	7.133181
1136.000000	7.153937
1137.000000	7.166291
1138.000000	7.172628
1139.000000	7.181980
1140.000000	7.194194
1141.000000	7.205911
1142.000000	7.209706
1143.000000	7.218224
1144.000000	7.223801
1145.000000	7.214864
1146.000000	7.206052
1147.000000	7.221033
1148.000000	7.224695
1149.000000	7.240435
1150.000000	7.241308
1151.000000	7.245575
1152.000000	7.257233
1153.000000	6.787394
1154.000000	6.799641
1155.000000	6.808929
1156.000000	6.820818
1157.000000	6.828810
1158.000000	6.849906
1159.000000	6.857520
1160.000000	6.871499
1161.000000	6.891399
1162.000000	6.908810
1163.000000	6.927360
1164.000000	6.939907
1165.000000	6.958258
1166.000000	6.973997
1167.000000	6.995573
1168.000000	6.997822
1169.000000	7.013682
1170.000000	7.014619
1171.000000	7.027193
1172.000000	7.037236
1173.000000	7.042971
1174.000000	7.049227
1175.000000	7.060086
1176.000000	7.059886
1177.000000	7.072731
1178.000000	7.074970
1179.000000	7.083376
1180.000000	7.085814
1181.000000	7.080321
1182.000000	7.087900
1183.000000	7.095246
1184.000000	7.100698
1185.000000	7.094530
1186.000000	7.094758
1187.000000	7.087213
1188.000000	7.088363
1189.000000	7.077105
1190.000000	7.079013
1191.000000	7.066753
1192.000000	7.058906
1193.000000	7.049323
1194.000000	7.043609
1195.000000	7.036364
1196.000000	7.033350
1197.000000	7.032082
1198.000000	7.020938
1199.000000	7.023678
1200.000000	7.012868
1201.000000	7.009507
1202.000000	7.002040
1203.000000	6.996442
1204.000000	6.994995
1205.000000	6.990296
1206.000000	6.977530
1207.000000	6.975319
1208.000000	6.969305
1209.000000	6.970178
1210.000000	6.968010
1211.000000	6.960369
1212.000000	6.955704
1213.000000	6.944087
1214.000000	6.938412
1215.000000	6.940455
1216.000000	6.946393
1217.000000	6.936308
1218.000000	6.937513
1219.000000	6.931618
1220.000000	6.932900
1221.000000	6.932273
1222.000000	6.931377
1223.000000	6.928864
1224.000000	6.935147
1225.000000	6.936003
1226.000000	6.937324
1227.000000	6.942040
1228.000000	6.948464
1229.000000	6.942788
1230.000000	6.939979
1231.000000	6.941396
1232.000000	6.938418
1233.000000	6.935639
1234.000000	6.941611
1235.000000	6.943665
1236.000000	6.944991
1237.000000	6.942845
1238.000000	6.943811
1239.000000	6.935411
1240.000000	6.935869
1241.000000	6.929358
1242.000000	6.924041
1243.000000	6.925926
1244.000000	6.919422
1245.000000	6.914697
1246.000000	6.909667
1247.000000	6.908127
1248.000000	7.372994
1249.000000	7.358826
1250.000000	7.352812
1251.000000	7.354598
1252.000000	7.349065
1253.000000	7.350704
1254.000000	7.345489
1255.000000	7.338527
1256.000000	7.330948
1257.000000	7.329700
1258.000000	7.326462
1259.000000	7.320626
1260.000000	7.318505
1261.000000	7.317474
1262.000000	7.314863
1263.000000	7.314054
1264.000000	7.311619
1265.000000	7.309178
1266.000000	7.310995
1267.000000	7.311569
1268.000000	7.308430
1269.000000	7.304035
1270.000000	7.307091
1271.000000	7.314558
1272.000000	7.315019
1273.000000	7.317402
1274.000000	7.311307
1275.000000	7.300832
1276.000000	7.304521
1277.000000	7.307770
1278.000000	7.308745
1279.000000	7.310522
1280.000000	7.305453
1281.000000	7.302757
1282.000000	7.297827
1283.000000	7.299521
1284.000000	7.294381
1285.000000	7.291027
1286.000000	7.289808
1287.000000	7.282936
1288.000000	7.284258
1289.000000	7.285027
1290.000000	7.282207
1291.000000	7.275682
1292.000000	7.266133
1293.000000	7.256874
1294.000000	7.257734
1295.000000	7.255762
1296.000000	7.249542
1297.000000	7.247614
1298.000000	7.246212
1299.000000	7.246829
1300.000000	7.242310
1301.000000	7.238102
1302.000000	7.239757
1303.000000	7.239950
1304.000000	7.242654
1305.000000	7.244755
1306.000000	7.247047
1307.000000	7.252840
1308.000000	7.256203
1309.000000	7.260405
1310.000000	7.270549
1311.000000	7.275373
1312.000000	7.275883
1313.000000	6.808277
1314.000000	6.815925
1315.000000	6.819647
1316.000000	6.820283
1317.000000	6.825217
1318.000000	6.833979
1319.000000	6.842495
1320.000000	6.849574
1321.000000	6.855990
1322.000000	6.868991
1323.000000	6.878301
1324.000000	6.880746
1325.000000	6.889047
1326.000000	6.897517
1327.000000	6.904878
1328.000000	6.917471
1329.000000	6.929660
1330.000000	6.938370
1331.000000	6.952310
1332.000000	6.964841
1333.000000	6.974785
1334.000000	6.982961
1335.000000	6.996509
1336.000000	7.004252
1337.000000	7.021379
1338.000000	7.036381
1339.000000	7.054870
1340.000000	7.073462
1341.000000	7.099233
1342.000000	7.115366
1343.000000	6.660856
1344.000000	6.680019
1345.000000	6.704575
1346.000000	6.727807
1347.000000	6.737516
1348.000000	6.754648
1349.000000	6.790893
1350.000000	6.823581
1351.000000	6.852578
1352.000000	6.878654
1353.000000	6.894488
1354.000000	6.887514
1355.000000	6.888726
1356.000000	6.904234
1357.000000	6.928261
1358.000000	6.949624
1359.000000	6.982929
1360.000000	6.978154
1361.000000	6.928477
1362.000000	6.935567
1363.000000	6.498290
1364.000000	6.511150
1365.000000	6.522358
1366.000000	6.561206
1367.000000	6.572224
1368.000000	6.591315
1369.000000	6.640733
1370.000000	6.672489
1371.000000	6.218137
1372.000000	6.278718
1373.000000	6.351363
1374.000000	6.420681
1375.000000	6.487405
1376.000000	6.568491
1377.000000	6.639612
1378.000000	6.256478
1379.000000	6.316736
1380.000000	6.364339
1381.000000	6.361709
1382.000000	6.365179
1383.000000	6.369629
1384.000000	6.390206
1385.000000	6.415749
1386.000000	6.443027
1387.000000	6.434920
1388.000000	6.425492
1389.000000	6.450518
1390.000000	6.484790
1391.000000	5.999760
1392.000000	6.002303
1393.000000	6.017698
1394.000000	6.040611
1395.000000	5.994129
1396.000000	5.991966
1397.000000	6.050929
1398.000000	6.107758
1399.000000	6.109065
1400.000000	6.064058
1401.000000	6.097679
1402.000000	6.166380
1403.000000	6.217233
1404.000000	6.225226
1405.000000	6.251494
1406.000000	6.290414
1407.000000	6.330160
1408.000000	6.350420
1409.000000	6.383059
1410.000000	6.421977
1411.000000	6.489553
1412.000000	6.532833
1413.000000	6.555026
1414.000000	6.574653
1415.000000	6.126511
1416.000000	6.181099
1417.000000	6.215402
1418.000000	6.231969
1419.000000	6.245915
1420.000000	6.280718
1421.000000	6.322272
1422.000000	6.354283
1423.000000	6.368981
1424.000000	6.391784
1425.000000	6.423933
1426.000000	6.447772
1427.000000	6.468876
1428.000000	6.483781
1429.000000	6.506686
1430.000000	6.534636
1431.000000	6.546182
1432.000000	6.556046
1433.000000	6.566565
1434.000000	6.591103
1435.000000	6.616266
1436.000000	6.623126
1437.000000	6.642556
1438.000000	6.642287
1439.000000	6.662585
1440.000000	6.675854
1441.000000	6.688695
1442.000000	6.708927
1443.000000	6.722717
1444.000000	6.732698
1445.000000	6.243320
1446.000000	6.249458
1447.000000	6.271992
1448.000000	6.293793
1449.000000	6.305963
1450.000000	6.300965
1451.000000	6.308663
1452.000000	6.331935
1453.000000	6.346430
1454.000000	6.350124
1455.000000	6.361794
1456.000000	6.379822
1457.000000	6.391563
1458.000000	6.406755
1459.000000	6.423074
1460.000000	6.426082
1461.000000	6.451014
1462.000000	6.457904
1463.000000	6.472137
1464.000000	6.487035
1465.000000	6.492609
1466.000000	6.504703
1467.000000	6.524418
1468.000000	6.539316
1469.000000	6.555114
1470.000000	6.556003
1471.000000	6.565833
1472.000000	6.577868
1473.000000	6.592621
1474.000000	6.611819
1475.000000	6.614675
1476.000000	6.617937
1477.000000	6.629019
1478.000000	6.633065
1479.000000	6.640323
1480.000000	6.640332
1481.000000	6.645270
1482.000000	6.648285
1483.000000	6.654694
1484.000000	6.658811
1485.000000	6.666774
1486.000000	6.665449
1487.000000	6.668635
1488.000000	6.672436
1489.000000	6.671370
1490.000000	6.667302
1491.000000	6.671012
1492.000000	6.671720
1493.000000	6.675374
1494.000000	6.675339
1495.000000	6.675108
1496.000000	6.669219
1497.000000	6.662281
1498.000000	6.655453
1499.000000	6.648676
1500.000000	6.636813
1501.000000	6.630929
1502.000000	6.624184
1503.000000	6.609257
1504.000000	6.598958
1505.000000	6.589936
1506.000000	6.572845
1507.000000	6.562697
1508.000000	6.548016
1509.000000	6.535811
1510.000000	6.528136
1511.000000	6.510610
1512.000000	6.498733
1513.000000	6.486955
1514.000000	6.469779
1515.000000	6.456073
1516.000000	6.444052
1517.000000	6.437562
1518.000000	6.425436
1519.000000	6.412678
1520.000000	6.407013
1521.000000	6.393092
1522.000000	6.377272
1523.000000	6.365303
1524.000000	6.353782
1525.000000	6.343952
1526.000000	6.334235
1527.000000	6.328715
1528.000000	6.320623
1529.000000	6.310054
1530.000000	6.299338
1531.000000	6.288323
1532.000000	6.279883
1533.000000	6.271878
1534.000000	6.267463
1535.000000	6.747254
1536.000000	6.738522
1537.000000	6.730773
1538.000000	6.718565
1539.000000	6.714886
1540.000000	6.715707
1541.000000	6.707536
1542.000000	6.703576
1543.000000	6.701103
1544.000000	6.697585
1545.000000	6.689694
1546.000000	6.676610
1547.000000	6.667977
1548.000000	6.658747
1549.000000	6.648053
1550.000000	6.634445
1551.000000	6.625287
1552.000000	6.614328
1553.000000	6.604717
1554.000000	6.599871
1555.000000	6.595783
1556.000000	6.586855
1557.000000	6.584724
1558.000000	6.587403
1559.000000	6.584169
1560.000000	6.581551
1561.000000	6.579079
1562.000000	6.579914
1563.000000	6.583525
1564.000000	6.588207
1565.000000	6.589612
1566.000000	6.589895
1567.000000	6.595810
1568.000000	6.600345
1569.000000	6.601386
1570.000000	6.600692
1571.000000	6.603782
1572.000000	6.606028
1573.000000	6.599964
1574.000000	6.592951
1575.000000	6.594263
1576.000000	6.598210
1577.000000	6.595655
1578.000000	6.592388
1579.000000	6.589436
1580.000000	6.586512
1581.000000	6.581976
1582.000000	6.571635
1583.000000	6.565821
1584.000000	6.557845
1585.000000	6.553656
1586.000000	6.543538
1587.000000	6.533009
1588.000000	6.531558
1589.000000	6.527721
1590.000000	6.523248
1591.000000	6.513911
1592.000000	6.501022
1593.000000	6.496014
1594.000000	6.484332
1595.000000	6.477169
1596.000000	6.467975
1597.000000	6.458945
1598.000000	6.452398
1599.000000	6.439765
1600.000000	6.427590
1601.000000	6.421168
1602.000000	6.411418
1603.000000	6.395449
1604.000000	6.381986
1605.000000	6.371837
1606.000000	6.366879
1607.000000	6.357014
1608.000000	6.339873
1609.000000	6.331066
1610.000000	6.324457
1611.000000	6.315643
1612.000000	6.312695
1613.000000	6.307435
1614.000000	6.305035
1615.000000	6.298355
1616.000000	6.294561
1617.000000	6.286375
1618.000000	6.276785
1619.000000	6.272896
1620.000000	6.277379
1621.000000	6.757010
1622.000000	6.747106
1623.000000	6.743453
1624.000000	6.733629
1625.000000	6.726342
1626.000000	6.724915
1627.000000	6.725549
1628.000000	6.229665
1629.000000	6.704293
1630.000000	6.706961
1631.000000	6.706137
1632.000000	6.698753
1633.000000	6.693025
1634.000000	6.210113
1635.000000	6.207475
1636.000000	6.208350
1637.000000	6.203138
1638.000000	6.199755
1639.000000	6.200347
1640.000000	6.198386
1641.000000	6.199865
1642.000000	6.199640
1643.000000	6.195393
1644.000000	6.192981
1645.000000	6.195862
1646.000000	6.192996
1647.000000	6.192131
1648.000000	6.199056
1649.000000	6.202903
1650.000000	6.208424
1651.000000	6.209229
1652.000000	6.219147
1653.000000	6.220493
1654.000000	6.234226
1655.000000	6.237938
1656.000000	6.251580
1657.000000	6.262157
1658.000000	6.276773
1659.000000	6.294474
1660.000000	5.832327
1661.000000	5.843384
1662.000000	5.869355
1663.000000	5.894976
1664.000000	5.914214
1665.000000	5.936431
1666.000000	5.956018
1667.000000	5.977856
1668.000000	6.029627
1669.000000	6.057846
1670.000000	6.083791
1671.000000	6.106083
1672.000000	6.125554
1673.000000	6.151101
1674.000000	6.169822
1675.000000	6.187154
1676.000000	6.211541
1677.000000	6.232270
1678.000000	6.257821
1679.000000	6.293611
1680.000000	6.315553
1681.000000	6.356149
1682.000000	6.386725
1683.000000	6.416504
1684.000000	6.440870
1685.000000	6.461287
1686.000000	6.469797
1687.000000	6.469053
1688.000000	6.458066
1689.000000	6.454662
1690.000000	6.438842
1691.000000	6.413581
1692.000000	6.396972
1693.000000	6.375503
1694.000000	6.359808
1695.000000	6.352590
1696.000000	6.347970
1697.000000	6.342534
1698.000000	6.341256
1699.000000	6.332127
1700.000000	6.343038
1701.000000	6.346843
1702.000000	6.339299
1703.000000	6.343142
1704.000000	6.357195
1705.000000	6.371569
1706.000000	6.385626
1707.000000	6.394617
1708.000000	6.417108
1709.000000	6.436646
1710.000000	6.460058
1711.000000	6.487254
1712.000000	6.030264
1713.000000	6.053860
1714.000000	6.086865
1715.000000	6.118950
1716.000000	6.161039
1717.000000	6.203630
1718.000000	6.230699
1719.000000	6.264436
1720.000000	6.295869
1721.000000	6.308834
1722.000000	6.320535
1723.000000	6.321546
1724.000000	6.325836
1725.000000	6.306131
1726.000000	6.300650
1727.000000	6.285770
1728.000000	6.275352
1729.000000	6.267579
1730.000000	6.254632
1731.000000	6.241717
1732.000000	6.233534
1733.000000	6.218775
1734.000000	6.206758
1735.000000	6.198163
1736.000000	6.190269
1737.000000	6.177244
1738.000000	6.160636
1739.000000	6.149247
1740.000000	6.134028
1741.000000	6.121525
1742.000000	6.100158
1743.000000	6.085642
1744.000000	6.554961
1745.000000	6.549026
1746.000000	6.541297
1747.000000	6.529789
1748.000000	6.521255
1749.000000	6.517349
1750.000000	6.520478
1751.000000	6.520117
1752.000000	6.510194
1753.000000	6.512248
1754.000000	6.513420
1755.000000	6.515823
1756.000000	6.515651
1757.000000	6.508742
1758.000000	6.514262
1759.000000	6.515936
1760.000000	6.512336
1761.000000	6.520545
1762.000000	6.513595
1763.000000	6.509928
1764.000000	6.507810
1765.000000	6.501741
1766.000000	6.499705
1767.000000	6.496112
1768.000000	6.494444
1769.000000	6.491236
1770.000000	6.476150
1771.000000	6.471680
1772.000000	6.465679
1773.000000	6.456144
1774.000000	6.448234
1775.000000	6.441681
1776.000000	6.429293
1777.000000	6.427156
1778.000000	6.417612
1779.000000	6.403994
1780.000000	6.401444
1781.000000	6.402595
1782.000000	6.400470
1783.000000	6.398843
1784.000000	6.392436
1785.000000	6.395742
1786.000000	6.398894
1787.000000	6.400169
1788.000000	6.399773
1789.000000	6.405619
1790.000000	6.400633
1791.000000	6.393463
1792.000000	6.391137
1793.000000	6.391126
1794.000000	6.387923
1795.000000	6.384553
1796.000000	6.381219
1797.000000	6.383254
1798.000000	6.391732
1799.000000	6.391994
1800.000000	6.382710
1801.000000	6.371321
1802.000000	6.369750
1803.000000	6.380426
1804.000000	6.380034
1805.000000	6.368509
1806.000000	6.357708
1807.000000	6.354063
1808.000000	6.368155
1809.000000	6.377633
1810.000000	6.370962
1811.000000	6.355702
1812.000000	6.352480
1813.000000	6.359371
1814.000000	6.355947
1815.000000	6.346684
1816.000000	6.356826
1817.000000	6.389715
1818.000000	6.418381
1819.000000	6.401921
1820.000000	6.351820
1821.000000	6.313486
1822.000000	6.325834
1823.000000	6.369731
1824.000000	6.403952
1825.000000	6.409406
1826.000000	6.401377
1827.000000	6.392213
1828.000000	6.387811
1829.000000	6.376208
1830.000000	6.348842
1831.000000	6.349389
1832.000000	6.378652
1833.000000	6.413164
1834.000000	6.426613
1835.000000	6.408865
1836.000000	6.865221
1837.000000	6.845306
1838.000000	6.843853
1839.000000	6.836982
1840.000000	6.805521
1841.000000	6.749383
1842.000000	6.731886
1843.000000	6.780385
1844.000000	6.859233
1845.000000	6.914185
1846.000000	6.892745
1847.000000	6.803179
1848.000000	6.724493
1849.000000	6.726091
1850.000000	6.786888
1851.000000	6.840202
1852.000000	6.846524
1853.000000	6.836585
1854.000000	6.827129
1855.000000	6.826276
1856.000000	6.856946
1857.000000	6.393258
1858.000000	6.372740
1859.000000	6.350792
1860.000000	6.344744
1861.000000	6.840757
1862.000000	6.379668
1863.000000	6.435946
1864.000000	6.492824
1865.000000	6.536525
1866.000000	6.573858
1867.000000	6.603659
1868.000000	6.633753
1869.000000	6.628835
1870.000000	6.600296
1871.000000	6.594476
1872.000000	6.588114
1873.000000	6.589719
1874.000000	6.615183
1875.000000	6.644269
1876.000000	6.678130
1877.000000	6.712647
1878.000000	6.274767
1879.000000	6.333619
1880.000000	6.410112
1881.000000	6.472411
1882.000000	6.521150
1883.000000	6.565887
1884.000000	6.619017
1885.000000	6.676040
1886.000000	6.259146
1887.000000	6.357809
1888.000000	6.440353
1889.000000	6.515909
1890.000000	6.583229
1891.000000	6.635799
1892.000000	6.702947
1893.000000	6.792071
1894.000000	6.884023
1895.000000	6.493809
1896.000000	6.593830
1897.000000	6.685016
1898.000000	6.757490
1899.000000	6.806945
1900.000000	6.868975
1901.000000	6.940245
1902.000000	6.524478
1903.000000	6.596327
1904.000000	6.644198
1905.000000	6.677788
1906.000000	6.716751
1907.000000	6.763122
1908.000000	6.823731
1909.000000	6.884429
1910.000000	6.944631
1911.000000	6.981317
1912.000000	6.500455
1913.000000	6.513739
1914.000000	6.534854
1915.000000	6.570658
1916.000000	6.606158
1917.000000	6.652416
1918.000000	6.682803
1919.000000	6.689619
1920.000000	6.698658
1921.000000	6.700045
1922.000000	6.709683
1923.000000	6.727928
1924.000000	6.752285
1925.000000	6.768209
1926.000000	6.771534
1927.000000	6.770291
1928.000000	6.771248
1929.000000	6.777320
1930.000000	6.778269
1931.000000	6.775220
1932.000000	6.784446
1933.000000	6.787234
1934.000000	6.787385
1935.000000	6.792743
1936.000000	6.783393
1937.000000	6.780326
1938.000000	6.768030
1939.000000	6.755449
1940.000000	6.746722
1941.000000	6.745860
1942.000000	6.738662
1943.000000	6.729740
1944.000000	6.723570
1945.000000	6.706846
1946.000000	6.698796
1947.000000	6.689094
1948.000000	6.678391
1949.000000	6.661568
1950.000000	6.651374
1951.000000	6.640333
1952.000000	6.624870
1953.000000	6.614518
1954.000000	6.609359
1955.000000	6.591899
1956.000000	6.574153
1957.000000	6.567559
1958.000000	6.549160
1959.000000	6.541297
1960.000000	6.523053
1961.000000	6.520226
1962.000000	6.504186
1963.000000	6.489173
1964.000000	6.480626
1965.000000	6.470597
1966.000000	6.459085
1967.000000	6.448967
1968.000000	6.443015
1969.000000	6.421582
1970.000000	6.414099
1971.000000	6.399374
1972.000000	6.385017
1973.000000	6.379868
1974.000000	6.361988
1975.000000	6.856823
1976.000000	6.847793
1977.000000	6.826798
1978.000000	6.823176
1979.000000	6.810129
1980.000000	6.795959
1981.000000	6.784326
1982.000000	6.768884
1983.000000	6.759657
1984.000000	6.748486
1985.000000	6.733045
1986.000000	6.726651
1987.000000	6.709715
1988.000000	6.700416
1989.000000	6.692670
1990.000000	6.679679
1991.000000	6.673372
1992.000000	6.656322
1993.000000	6.650095
1994.000000	6.639318
1995.000000	6.635481
1996.000000	6.635728
1997.000000	6.626041
1998.000000	6.617192
1999.000000	6.614006
2000.000000	6.609802
2001.000000	6.605480
2002.000000	6.598347
2003.000000	6.594182
2004.000000	6.589572
2005.000000	6.589132
2006.000000	6.590975
2007.000000	7.087440
2008.000000	6.586302
2009.000000	6.593998
2010.000000	6.598554
2011.000000	7.098582
2012.000000	6.613815
2013.000000	6.613371
2014.000000	7.119944
2015.000000	6.637848
2016.000000	6.639046
2017.000000	6.643897
2018.000000	6.657554
2019.000000	6.667833
2020.000000	6.685286
2021.000000	6.699584
2022.000000	6.707949
2023.000000	6.723777
2024.000000	6.737091
2025.000000	6.757742
2026.000000	6.771006
2027.000000	6.783455
2028.000000	6.809541
2029.000000	6.819656
2030.000000	6.842602
2031.000000	6.864387
2032.000000	6.881138
2033.000000	6.897776
2034.000000	6.926200
2035.000000	6.952846
2036.000000	6.970550
2037.000000	6.990462
2038.000000	7.017225
2039.000000	7.047125
2040.000000	7.069043
2041.000000	7.095269
2042.000000	7.114745
2043.000000	7.132361
2044.000000	7.157412
2045.000000	7.182640
2046.000000	7.197492
2047.000000	7.217175
2048.000000	7.234942
2049.000000	7.246746
2050.000000	7.251219
2051.000000	7.259422
2052.000000	7.260746
2053.000000	7.263001
2054.000000	7.266116
2055.000000	7.259051
2056.000000	7.247276
2057.000000	7.236358
2058.000000	7.227172
2059.000000	7.218500
2060.000000	7.201735
2061.000000	7.186163
2062.000000	7.174255
2063.000000	7.159991
2064.000000	7.144070
2065.000000	7.129842
2066.000000	7.112986
2067.000000	7.098293
2068.000000	7.083828
2069.000000	7.074747
2070.000000	7.064453
2071.000000	7.051620
2072.000000	7.540108
2073.000000	7.532072
2074.000000	7.524234
2075.000000	7.509077
2076.000000	7.502262
2077.000000	7.499129
2078.000000	7.494458
2079.000000	7.496727
2080.000000	7.500082
2081.000000	7.496424
2082.000000	7.495192
2083.000000	7.498221
2084.000000	7.501561
2085.000000	7.502624
2086.000000	7.504358
2087.000000	7.511228
2088.000000	7.522324
2089.000000	7.529354
2090.000000	7.532730
2091.000000	7.534197
2092.000000	7.536196
2093.000000	7.541539
2094.000000	7.550041
2095.000000	7.555286
2096.000000	7.557518
2097.000000	7.558565
2098.000000	7.562644
2099.000000	7.564645
2100.000000	7.565732
2101.000000	7.570603
2102.000000	7.569981
2103.000000	7.571298
2104.000000	7.575940
2105.000000	7.574501
2106.000000	7.577338
2107.000000	7.580499
2108.000000	7.581021
2109.000000	7.585131
2110.000000	7.586609
2111.000000	7.587002
2112.000000	7.595404
2113.000000	7.604641
2114.000000	7.609605
2115.000000	7.611042
2116.000000	7.616121
2117.000000	7.625879
2118.000000	7.634102
2119.000000	7.641777
2120.000000	7.646995
2121.000000	7.658081
2122.000000	7.665645
2123.000000	7.671041
2124.000000	7.681679
2125.000000	7.691269
2126.000000	7.698609
2127.000000	7.709178
2128.000000	7.716599
2129.000000	7.726868
2130.000000	7.736112
2131.000000	7.750589
2132.000000	7.760575
2133.000000	7.770834
2134.000000	7.783498
2135.000000	7.793854
2136.000000	7.809433
2137.000000	7.825464
2138.000000	7.836596
2139.000000	7.849054
2140.000000	7.868024
2141.000000	7.882700
2142.000000	7.888738
2143.000000	7.906536
2144.000000	7.925906
2145.000000	7.943422
2146.000000	7.956085
2147.000000	7.968752
2148.000000	7.983741
2149.000000	7.998138
2150.000000	8.008337
2151.000000	7.527035
2152.000000	7.541251
2153.000000	7.551195
2154.000000	7.559960
2155.000000	7.570937
2156.000000	7.580782
2157.000000	7.590981
2158.000000	7.598027
2159.000000	7.600601
2160.000000	7.606106
2161.000000	7.617062
2162.000000	7.623143
2163.000000	7.626667
2164.000000	7.631989
2165.000000	7.642144
2166.000000	7.641969
2167.000000	7.644321
2168.000000	7.650678
2169.000000	7.652130
2170.000000	7.156058
2171.000000	7.658695
2172.000000	7.660351
2173.000000	7.662682
2174.000000	7.666518
2175.000000	7.172459
2176.000000	7.175331
2177.000000	7.182477
2178.000000	7.175906
2179.000000	7.178066
2180.000000	7.189138
2181.000000	7.192742
2182.000000	7.191312
2183.000000	7.199668
2184.000000	7.207990
2185.000000	7.216127
2186.000000	6.726800
2187.000000	6.737878
2188.000000	6.751977
2189.000000	6.767230
2190.000000	6.782025
2191.000000	6.797506
2192.000000	6.814076
2193.000000	6.835552
2194.000000	6.856566
2195.000000	6.874480
2196.000000	6.400198
2197.000000	6.417075
2198.000000	6.439177
2199.000000	6.464247
2200.000000	6.481373
2201.000000	6.497009
2202.000000	6.012557
2203.000000	6.521730
2204.000000	6.535076
2205.000000	6.040447
2206.000000	6.044908
2207.000000	6.048190
2208.000000	6.047693
2209.000000	6.040851
2210.000000	6.039581
2211.000000	6.032042
2212.000000	6.021116
2213.000000	6.008119
2214.000000	6.001674
2215.000000	5.987471
2216.000000	5.972262
2217.000000	5.952912
2218.000000	5.939339
2219.000000	5.927846
2220.000000	5.913715
2221.000000	5.905967
2222.000000	5.892477
2223.000000	5.875379
2224.000000	5.864544
2225.000000	5.856029
2226.000000	5.846868
2227.000000	5.831664
2228.000000	6.325854
2229.000000	6.323601
2230.000000	6.313355
2231.000000	5.815535
2232.000000	6.311659
2233.000000	5.812325
2234.000000	5.815488
2235.000000	5.823715
2236.000000	5.826945
2237.000000	6.324347
2238.000000	6.329578
2239.000000	6.335568
2240.000000	6.348618
2241.000000	5.856295
2242.000000	6.363843
2243.000000	5.875019
2244.000000	5.888810
2245.000000	6.400823
2246.000000	5.912484
2247.000000	5.919094
2248.000000	5.936419
2249.000000	5.947614
2250.000000	6.466125
2251.000000	5.984583
2252.000000	6.492382
2253.000000	6.501302
2254.000000	6.505969
2255.000000	6.521592
2256.000000	6.532996
2257.000000	6.544668
2258.000000	6.542719
2259.000000	6.559867
2260.000000	6.559892
2261.000000	6.569389
2262.000000	6.073359
2263.000000	6.076253
2264.000000	6.570638
2265.000000	6.572067
2266.000000	6.569046
2267.000000	6.574302
2268.000000	6.570881
2269.000000	6.563872
2270.000000	6.563970
2271.000000	7.059873
2272.000000	7.055277
2273.000000	7.053933
2274.000000	7.049125
2275.000000	7.047576
2276.000000	7.047583
2277.000000	7.050632
2278.000000	7.046884
2279.000000	7.043031
2280.000000	7.051425
2281.000000	7.049019
2282.000000	7.045168
2283.000000	7.046155
2284.000000	7.550728
2285.000000	7.553024
2286.000000	7.552791
2287.000000	7.551501
2288.000000	7.551748
2289.000000	7.543739
2290.000000	7.547555
2291.000000	7.545342
2292.000000	7.550459
2293.000000	7.546214
2294.000000	7.548689
2295.000000	7.546053
2296.000000	7.542442
2297.000000	7.542120
2298.000000	7.540880
2299.000000	7.537705
2300.000000	8.038268
2301.000000	7.535803
2302.000000	7.533584
2303.000000	7.523314
2304.000000	7.518063
2305.000000	7.515641
2306.000000	7.510187
2307.000000	7.504727
2308.000000	7.500186
2309.000000	7.996385
2310.000000	7.997094
2311.000000	7.987305
2312.000000	7.980092
2313.000000	7.982509
2314.000000	7.978133
2315.000000	7.976383
2316.000000	7.983954
2317.000000	7.979732
2318.000000	7.979813
2319.000000	8.484713
2320.000000	8.488512
2321.000000	7.985382
2322.000000	7.988748
2323.000000	7.996769
2324.000000	8.499650
2325.000000	8.004175
2326.000000	8.009101
2327.000000	8.012694
2328.000000	8.513275
2329.000000	8.014034
2330.000000	8.014426
2331.000000	8.015333
2332.000000	8.517502
2333.000000	8.521594
2334.000000	8.519615
2335.000000	8.516123
2336.000000	8.514631
2337.000000	8.516344
2338.000000	8.513586
2339.000000	8.510670
2340.000000	8.503606
2341.000000	8.500927
2342.000000	8.499128
2343.000000	8.999374
2344.000000	8.996661
2345.000000	8.997086
2346.000000	8.994839
2347.000000	8.983390
2348.000000	8.975417
2349.000000	8.464081
2350.000000	8.461682
2351.000000	8.977093
2352.000000	8.990506
2353.000000	9.490074
2354.000000	8.980660
2355.000000	8.971809
2356.000000	8.967045
2357.000000	8.966251
2358.000000	8.967586
2359.000000	8.969851
2360.000000	8.968746
2361.000000	8.969827
2362.000000	9.468384
2363.000000	9.460905
2364.000000	9.461539
2365.000000	9.461590
2366.000000	9.463412
2367.000000	9.464556
2368.000000	9.462948
2369.000000	8.962973
2370.000000	8.958342
2371.000000	9.457783
2372.000000	9.456540
2373.000000	9.455943
2374.000000	9.457555
2375.000000	8.952970
2376.000000	8.950518
2377.000000	8.952762
2378.000000	8.952156
2379.000000	9.454389
2380.000000	9.451949
2381.000000	9.452174
2382.000000	9.453729
2383.000000	9.451950
2384.000000	9.455707
2385.000000	9.456926
2386.000000	9.954882
2387.000000	9.458528
2388.000000	9.462034
2389.000000	9.459605
2390.000000	9.964342
2391.000000	9.967838
2392.000000	9.470667
2393.000000	9.474887
2394.000000	9.478924
2395.000000	9.480256
2396.000000	9.983717
2397.000000	9.489374
2398.000000	9.490222
2399.000000	9.494153
2400.000000	9.999375
2401.000000	10.001248
2402.000000	9.507892
2403.000000	9.513236
2404.000000	10.013596
2405.000000	10.023890
2406.000000	10.028093
2407.000000	10.032452
2408.000000	10.537741
2409.000000	10.045575
2410.000000	10.054520
2411.000000	10.058989
2412.000000	10.074474
2413.000000	10.076184
2414.000000	10.082227
2415.000000	10.586954
2416.000000	10.601178
2417.000000	10.615380
2418.000000	10.129295
2419.000000	10.137048
2420.000000	10.146257
2421.000000	10.653298
2422.000000	10.162344
2423.000000	10.175446
2424.000000	10.689822
2425.000000	10.703288
2426.000000	10.709030
2427.000000	10.220306
2428.000000	10.234115
2429.000000	10.744044
2430.000000	10.257626
2431.000000	10.266864
2432.000000	10.779122
2433.000000	11.288559
2434.000000	11.297819
2435.000000	11.311434
2436.000000	11.326129
2437.000000	10.837292
2438.000000	10.351207
2439.000000	10.854718
2440.000000	11.366139
2441.000000	10.878920
2442.000000	10.887150
2443.000000	10.399487
2444.000000	10.911275
2445.000000	10.925436
2446.000000	10.438338
2447.000000	11.437794
2448.000000	11.447250
2449.000000	11.454551
2450.000000	11.968804
2451.000000	12.476738
2452.000000	11.991243
2453.000000	12.492823
2454.000000	11.510554
2455.000000	12.018568
2456.000000	11.518130
2457.000000	12.516194
2458.000000	13.531654
2459.000000	13.036051
2460.000000	13.042059
2461.000000	13.051899
2462.000000	13.545722
2463.000000	13.053742
2464.000000	14.059970
2465.000000	14.064556
2466.000000	14.576365
2467.000000	13.568797
2468.000000	15.068184
2469.000000	14.571010
2470.000000	15.076966
2471.000000	15.587289
2472.000000	15.580238
2473.000000	16.086214
2474.000000	15.081536
2475.000000	15.570593
2476.000000	17.083701
2477.000000	16.588471
2478.000000	16.590638
2479.000000	17.594969
2480.000000	17.078009
2481.000000	16.583661
2482.000000	17.576227
2483.000000	17.076900
2484.000000	19.093443
2485.000000	18.055048
2486.000000	18.595747
2487.000000	18.576269
2488.000000	19.062232
2489.000000	20.547554
2490.000000	20.052968
2491.000000	20.049019
2492.000000	21.536960
2493.000000	22.535051
2494.000000	21.523409
2495.000000	23.024303
2496.000000	23.464623
2497.000000	20.984369
2498.000000	22.011466
2499.000000	24.022921
2500.000000	24.983060
2501.000000	nan
2502.000000	nan
2503.000000	nan
2504.000000	nan
2505.000000	nan
2506.000000	nan
2507.000000	nan
2508.000000	nan
2509.000000	nan
2510.000000	nan
2511.000000	nan
2512.000000	nan
2513.000000	nan
2514.000000	nan
2515.000000	nan
2516.000000	nan
2517.000000	nan
2518.000000	nan
2519.000000	nan
2520.000000	nan
2521.000000	nan
2522.000000	nan
2523.000000	nan
2524.000000	nan
2525.000000	nan
2526.000000	nan
2527.000000	nan
2528.000000	nan
2529.000000	nan
2530.000000	nan
2531.000000	nan
2532.000000	nan
2533.000000	nan
2534.000000	nan
2535.000000	nan
2536.000000	nan
2537.000000	nan
2538.000000	nan
2539.000000	nan
2540.000000	nan
2541.000000	nan
2542.000000	nan
2543.000000	nan
2544.000000	nan
2545.000000	nan
2546.000000	nan
2547.000000	nan
2548.000000	nan
2549.000000	nan
2550.000000	nan
2551.000000	nan
2552.000000	nan
2553.000000	nan
2554.000000	nan
2555.000000	nan
2556.000000	nan
2557.000000	nan
2558.000000	nan
2559.000000	nan
2560.000000	nan
2561.000000	nan
2562.000000	nan
2563.000000	nan
2564.000000	nan
2565.000000	nan
2566.000000	nan
2567.000000	nan
2568.000000	nan
2569.000000	nan
2570.000000	nan
2571.000000	nan
2572.000000	nan
2573.000000	nan
2574.000000	nan
2575.000000	nan
2576.000000	nan
2577.000000	nan
2578.000000	nan
2579.000000	nan
2580.000000	nan
2581.000000	nan
2582.000000	nan
2583.000000	nan
2584.000000	nan
2585.000000	nan
2586.000000	nan
2587.000000	nan
2588.000000	nan
2589.000000	nan
2590.000000	nan
2591.000000	nan
2592.000000	nan
2593.000000	nan
2594.000000	nan
2595.000000	nan
2596.000000	nan
2597.000000	nan
2598.000000	nan
2599.000000	nan
2600.000000	nan
2601.000000	nan
2602.000000	nan
2603.000000	nan
2604.000000	nan
2605.000000	nan
2606.000000	nan
2607.000000	nan
2608.000000	nan
2609.000000	nan
2610.000000	nan
2611.000000	nan
2612.000000	nan
2613.000000	nan
2614.000000	nan
2615.000000	nan
2616.000000	nan
2617.000000	nan
2618.000000	nan
2619.000000	nan
2620.000000	nan
2621.000000	nan
2622.000000	nan
2623.000000	nan
2624.000000	nan
2625.000000	nan
2626.000000	nan
2627.000000	nan
2628.000000	nan
2629.000000	nan
2630.000000	nan
2631.000000	nan
2632.000000	nan
2633.000000	nan
2634.000000	nan
2635.000000	nan
2636.000000	nan
2637.000000	nan
2638.000000	nan
2639.000000	nan
2640.000000	nan
2641.000000	nan
2642.000000	nan
2643.000000	nan
2644.000000	nan
2645.000000	nan
2646.000000	nan
2647.000000	nan
2648.000000	nan
2649.000000	nan
2650.000000	nan
2651.000000	nan
2652.000000	nan
2653.000000	nan
2654.000000	nan
2655.000000	nan
2656.000000	nan
2657.000000	nan
2658.000000	nan
2659.000000	nan
2660.000000	nan
2661.000000	nan
2662.000000	nan
2663.000000	nan
2664.000000	nan
2665.000000	nan
2666.000000	nan
2667.000000	nan
2668.000000	nan
2669.000000	nan
2670.000000	nan
2671.000000	nan
2672.000000	nan
2673.000000	nan
2674.000000	nan
2675.000000	nan
2676.000000	nan
2677.000000	nan
2678.000000	nan
2679.000000	nan
2680.000000	nan
2681.000000	nan
2682.000000	nan
2683.000000	nan
2684.000000	nan
2685.000000	nan
2686.000000	nan
2687.000000	nan
2688.000000	nan
2689.000000	nan
2690.000000	nan
2691.000000	nan
2692.000000	nan
2693.000000	nan
2694.000000	nan
2695.000000	nan
2696.000000	nan
2697.000000	nan
2698.000000	nan
2699.000000	nan
2700.000000	nan
2701.000000	nan
2702.000000	nan
2703.000000	nan
2704.000000	nan
2705.000000	nan
2706.000000	nan
2707.000000	nan
2708.000000	nan
2709.000000	nan
2710.000000	nan
2711.000000	nan
2712.000000	nan
2713.000000	nan
2714.000000	nan
2715.000000	nan
2716.000000	nan
2717.000000	nan
2718.000000	nan
2719.000000	nan
2720.000000	nan
2721.000000	nan
2722.000000	nan
2723.000000	nan
2724.000000	nan
2725.000000	nan
2726.000000	nan
2727.000000	nan
2728.000000	nan
2729.000000	nan
2730.000000	nan
2731.000000	nan
2732.000000	nan
2733.000000	nan
2734.000000	nan
2735.000000	nan
2736.000000	nan
2737.000000	nan
2738.000000	nan
2739.000000	nan
2740.000000	nan
2741.000000	nan
2742.000000	nan
2743.000000	nan
2744.000000	nan
2745.000000	nan
2746.000000	nan
2747.000000	nan
2748.000000	nan
2749.000000	nan
2750.000000	nan
2751.000000	nan
2752.000000	nan
2753.000000	nan
2754.000000	nan
2755.000000	nan
2756.000000	nan
2757.000000	nan
2758.000000	nan
2759.000000	nan
2760.000000	nan
2761.000000	nan
2762.000000	nan
2763.000000	nan
2764.000000	nan
2765.000000	nan
2766.000000	nan
2767.000000	nan
2768.000000	nan
2769.000000	nan
2770.000000	nan
2771.000000	nan
2772.000000	nan
2773.000000	nan
2774.000000	nan
2775.000000	nan
2776.000000	nan
2777.000000	nan
2778.000000	nan
2779.000000	nan
2780.000000	nan
2781.000000	nan
2782.000000	nan
2783.000000	nan
2784.000000	nan
2785.000000	nan
2786.000000	nan
2787.000000	nan
2788.000000	nan
2789.000000	nan
2790.000000	nan
2791.000000	nan
2792.000000	nan
2793.000000	nan
2794.000000	nan
2795.000000	nan
2796.000000	nan
2797.000000	nan
2798.000000	nan
2799.000000	nan
2800.000000	nan
2801.000000	nan
2802.000000	nan
2803.000000	nan
2804.000000	nan
2805.000000	nan
2806.000000	nan
2807.000000	nan
2808.000000	nan
2809.000000	nan
2810.000000	nan
2811.000000	nan
2812.000000	nan
2813.000000	nan
2814.000000	nan
2815.000000	nan
2816.000000	nan
2817.000000	nan
2818.000000	nan
2819.000000	nan
2820.000000	nan
2821.000000	nan
2822.000000	nan
2823.000000	nan
2824.000000	nan
2825.000000	nan
2826.000000	nan
2827.000000	nan
2828.000000	nan
2829.000000	nan
2830.000000	nan
2831.000000	nan
2832.000000	nan
2833.000000	nan
2834.000000	nan
2835.000000	nan
2836.000000	nan
2837.000000	nan
2838.000000	nan
2839.000000	nan
2840.000000	nan
2841.000000	nan
2842.000000	nan
2843.000000	nan
2844.000000	nan
2845.000000	nan
2846.000000	nan
2847.000000	nan
2848.000000	nan
2849.000000	nan
2850.000000	nan
2851.000000	nan
2852.000000	nan
2853.000000	nan
2854.000000	nan
2855.000000	nan
2856.000000	nan
2857.000000	nan
2858.000000	nan
2859.000000	nan
2860.000000	nan
2861.000000	nan
2862.000000	nan
2863.000000	nan
2864.000000	nan
2865.000000	nan
2866.000000	nan
2867.000000	nan
2868.000000	nan
2869.000000	nan
2870.000000	nan
2871.000000	nan
2872.000000	nan
2873.000000	nan
2874.000000	nan
2875.000000	nan
2876.000000	nan
2877.000000	nan
2878.000000	nan
2879.000000	nan
2880.000000	nan
2881.000000	nan
2882.000000	nan
2883.000000	nan
2884.000000	nan
2885.000000	nan
2886.000000	nan
2887.000000	nan
2888.000000	nan
2889.000000	nan
2890.000000	nan
2891.000000	nan
2892.000000	nan
2893.000000	nan
2894.000000	nan
2895.000000	nan
2896.000000	nan
2897.000000	nan
2898.000000	nan
2899.000000	nan
2900.000000	nan
2901.000000	nan
2902.000000	nan
2903.000000	nan
2904.000000	nan
2905.000000	nan
2906.000000	nan
2907.000000	nan
2908.000000	nan
2909.000000	nan
2910.000000	nan
2911.000000	nan
2912.000000	nan
2913.000000	nan
2914.000000	nan
2915.000000	nan
2916.000000	nan
2917.000000	nan
2918.000000	nan
2919.000000	nan
2920.000000	nan
2921.000000	nan
2922.000000	nan
2923.000000	nan
2924.000000	nan
2925.000000	nan
2926.000000	nan
2927.000000	nan
2928.000000	nan
2929.000000	nan
2930.000000	nan
2931.000000	nan
2932.000000	nan
2933.000000	nan
2934.000000	nan
2935.000000	nan
2936.000000	nan
2937.000000	nan
2938.000000	nan
2939.000000	nan
2940.000000	nan
2941.000000	nan
2942.000000	nan
2943.000000	nan
2944.000000	nan
2945.000000	nan
2946.000000	nan
2947.000000	nan
2948.000000	nan
2949.000000	nan
2950.000000	nan
2951.000000	nan
2952.000000	nan
2953.000000	nan
2954.000000	nan
2955.000000	nan
2956.000000	nan
2957.000000	nan
2958.000000	nan
2959.000000	nan
2960.000000	nan
2961.000000	nan
2962.000000	nan
2963.000000	nan
2964.000000	nan
2965.000000	nan
2966.000000	nan
2967.000000	nan
2968.000000	nan
2969.000000	nan
2970.000000	nan
2971.000000	nan
2972.000000	nan
2973.000000	nan
2974.000000	nan
2975.000000	nan
2976.000000	nan
2977.000000	nan
2978.000000	nan
2979.000000	nan
2980.000000	nan
2981.000000	nan
2982.000000	nan
2983.000000	nan
2984.000000	nan
2985.000000	nan
2986.000000	nan
2987.000000	nan
2988.000000	nan
2989.000000	nan
2990.000000	nan
2991.000000	nan
2992.000000	nan
2993.000000	nan
2994.000000	nan
2995.000000	nan
2996.000000	nan
2997.000000	nan
2998.000000	nan
2999.000000	nan
3000.000000	nan
