PE UV       SUBTECH     SPECTRUM    ASCII       PEDS        4.00        
   -1
INBUCR0142-4.Sample.ASC
24/02/07
15:12:37.00
24/02/07
15:12:37.00
Vinicio Soto Monge
Color café con ambos élitros. Pelidnota laevissima. Det: A. Solís. Finca Cafrosa, Embalce, 800 m NO. de Tigra, Puntarenas, Costa Rica. 1280 m.10-21 MAY 1996. E. Navarro, L_S_317800_596200 #7494. INBIOCRI002374952
250,000000
1
Lambda 1050
1050L1511233
PerkinElmer UV WinLab 6.3.2.0749 / 2.02.05 Lambda 900 UV/VIS/NIR, Aug  7 2015 09:38:08

0
0
3350/servo 860,8/2
0
0
UV/VIS
1
1
1
DoubleDePol,CommonBeamDepol,RBeamAtt,SBeamAtt,60mm sphere, WB InGaAs Detector
0
0
0
0
Program
Program
3350/servo 860,8/2
3350/0,2 860,8/0,2
3350/0,2 860,8/0,2
0
15.00
 
 
 
0
 
860,8
319,2
860,8
Front
100
on
S:100 R:100
0
0
0
0
 
0
 
 
 
0
 
 
0
0
0
0
0
 
 
 
 
0
0


0
0
#HDR
-1
-1
#GR
nm
%R
1.0
0.0
2500,000000
-1,000000
2251
8
16,966400
1,302900
#DATA

250.000000	2.981251
251.000000	2.971189
252.000000	2.958351
253.000000	2.972903
254.000000	2.987896
255.000000	2.957704
256.000000	2.931418
257.000000	2.930183
258.000000	2.895189
259.000000	2.891065
260.000000	2.863049
261.000000	2.860391
262.000000	2.861235
263.000000	2.820449
264.000000	2.791136
265.000000	2.776117
266.000000	2.764819
267.000000	2.761641
268.000000	2.737057
269.000000	2.736887
270.000000	2.698704
271.000000	2.696436
272.000000	2.684377
273.000000	2.683528
274.000000	2.659335
275.000000	2.663050
276.000000	2.635479
277.000000	2.638536
278.000000	2.615182
279.000000	2.604920
280.000000	2.620755
281.000000	2.605876
282.000000	2.583097
283.000000	2.584676
284.000000	2.582124
285.000000	2.599955
286.000000	2.592262
287.000000	2.588829
288.000000	2.582626
289.000000	2.599877
290.000000	2.592403
291.000000	2.589893
292.000000	2.605955
293.000000	2.596359
294.000000	2.616678
295.000000	2.617334
296.000000	2.608899
297.000000	2.615704
298.000000	2.616655
299.000000	2.620143
300.000000	2.619712
301.000000	2.615379
302.000000	2.606748
303.000000	2.611425
304.000000	2.595563
305.000000	2.595464
306.000000	2.580148
307.000000	2.574927
308.000000	2.587793
309.000000	2.582938
310.000000	2.579448
311.000000	2.581013
312.000000	2.572297
313.000000	2.570180
314.000000	2.562737
315.000000	2.569097
316.000000	2.564398
317.000000	2.583535
318.000000	2.533096
319.000000	2.645502
320.000000	2.631591
321.000000	2.608321
322.000000	2.590707
323.000000	2.491013
324.000000	2.601869
325.000000	2.529542
326.000000	2.587990
327.000000	2.512522
328.000000	2.560657
329.000000	2.565836
330.000000	2.578983
331.000000	2.578177
332.000000	2.620110
333.000000	2.558309
334.000000	2.559799
335.000000	2.611603
336.000000	2.557746
337.000000	2.578581
338.000000	2.593153
339.000000	2.588668
340.000000	2.582988
341.000000	2.552209
342.000000	2.596772
343.000000	2.593992
344.000000	2.580879
345.000000	2.573138
346.000000	2.579140
347.000000	2.614838
348.000000	2.598106
349.000000	2.619357
350.000000	2.623211
351.000000	2.589305
352.000000	2.641382
353.000000	2.646032
354.000000	2.618186
355.000000	2.617680
356.000000	2.649362
357.000000	2.637985
358.000000	2.646137
359.000000	2.653371
360.000000	2.647876
361.000000	2.653418
362.000000	2.648748
363.000000	2.683414
364.000000	2.689789
365.000000	2.674856
366.000000	2.691816
367.000000	2.721194
368.000000	2.701304
369.000000	2.699589
370.000000	2.708286
371.000000	2.714547
372.000000	2.751883
373.000000	2.772618
374.000000	2.791290
375.000000	2.781009
376.000000	2.776629
377.000000	2.823083
378.000000	2.830456
379.000000	2.837387
380.000000	2.846708
381.000000	2.849642
382.000000	2.860305
383.000000	2.865281
384.000000	2.871535
385.000000	2.872902
386.000000	2.877616
387.000000	2.882586
388.000000	2.890838
389.000000	2.898890
390.000000	2.910488
391.000000	2.920077
392.000000	2.920384
393.000000	2.926278
394.000000	2.931583
395.000000	2.935251
396.000000	2.945823
397.000000	2.951424
398.000000	2.956478
399.000000	2.969587
400.000000	2.978738
401.000000	2.985790
402.000000	2.992426
403.000000	3.000468
404.000000	3.014151
405.000000	3.024855
406.000000	3.038096
407.000000	3.051900
408.000000	3.063797
409.000000	3.079014
410.000000	3.099012
411.000000	3.119842
412.000000	3.147794
413.000000	3.168833
414.000000	3.193946
415.000000	3.223864
416.000000	3.256281
417.000000	3.295049
418.000000	3.327474
419.000000	3.356367
420.000000	3.395763
421.000000	3.439767
422.000000	3.474999
423.000000	3.513635
424.000000	3.556789
425.000000	3.597949
426.000000	3.637785
427.000000	3.679001
428.000000	3.722228
429.000000	3.768143
430.000000	3.808251
431.000000	3.846197
432.000000	3.885479
433.000000	3.932207
434.000000	3.980700
435.000000	4.024921
436.000000	4.060986
437.000000	4.105245
438.000000	4.157228
439.000000	4.201703
440.000000	4.246627
441.000000	4.294856
442.000000	4.344327
443.000000	4.392759
444.000000	4.442035
445.000000	4.488765
446.000000	4.538946
447.000000	4.589125
448.000000	4.634596
449.000000	4.682146
450.000000	4.734547
451.000000	4.789185
452.000000	4.839055
453.000000	4.887851
454.000000	4.942130
455.000000	4.993802
456.000000	5.044545
457.000000	5.095902
458.000000	5.150486
459.000000	5.206059
460.000000	5.263075
461.000000	5.313155
462.000000	5.362199
463.000000	5.425929
464.000000	5.478349
465.000000	5.531470
466.000000	5.585366
467.000000	5.638216
468.000000	5.694469
469.000000	5.746941
470.000000	5.805599
471.000000	5.866415
472.000000	5.926885
473.000000	5.986746
474.000000	6.047295
475.000000	6.105798
476.000000	6.165686
477.000000	6.226146
478.000000	6.288924
479.000000	6.354125
480.000000	6.425517
481.000000	6.503852
482.000000	6.574551
483.000000	6.631899
484.000000	6.689059
485.000000	6.738486
486.000000	6.791656
487.000000	6.846242
488.000000	6.897487
489.000000	6.956258
490.000000	7.004709
491.000000	7.057346
492.000000	7.114581
493.000000	7.174570
494.000000	7.232088
495.000000	7.283115
496.000000	7.339097
497.000000	7.404136
498.000000	7.464172
499.000000	7.523218
500.000000	7.581397
501.000000	7.643993
502.000000	7.710555
503.000000	7.770286
504.000000	7.833115
505.000000	7.902045
506.000000	7.976462
507.000000	8.047747
508.000000	8.113178
509.000000	8.185090
510.000000	8.258536
511.000000	8.339689
512.000000	8.422169
513.000000	8.498893
514.000000	8.582693
515.000000	8.675050
516.000000	8.763052
517.000000	8.850873
518.000000	8.936886
519.000000	9.031967
520.000000	9.131781
521.000000	9.223432
522.000000	9.315299
523.000000	9.414621
524.000000	9.504707
525.000000	9.594702
526.000000	9.686806
527.000000	9.778083
528.000000	9.871574
529.000000	9.959010
530.000000	10.056926
531.000000	10.147371
532.000000	10.243816
533.000000	10.337065
534.000000	10.423781
535.000000	10.515299
536.000000	10.618400
537.000000	10.699942
538.000000	10.790636
539.000000	10.882957
540.000000	10.977237
541.000000	11.067618
542.000000	11.161101
543.000000	11.250868
544.000000	11.346649
545.000000	11.444345
546.000000	11.533101
547.000000	11.626186
548.000000	11.716980
549.000000	11.814600
550.000000	11.906121
551.000000	11.999721
552.000000	12.094752
553.000000	12.188590
554.000000	12.279402
555.000000	12.380461
556.000000	12.471309
557.000000	12.565222
558.000000	12.664638
559.000000	12.760893
560.000000	12.954566
561.000000	13.059578
562.000000	13.170475
563.000000	13.264811
564.000000	13.375591
565.000000	13.463058
566.000000	13.573877
567.000000	13.668449
568.000000	13.774233
569.000000	13.878245
570.000000	13.980854
571.000000	14.083818
572.000000	14.184657
573.000000	14.277064
574.000000	14.388432
575.000000	14.496439
576.000000	14.599843
577.000000	14.693435
578.000000	14.787523
579.000000	14.901093
580.000000	15.010230
581.000000	15.118229
582.000000	15.213251
583.000000	15.318955
584.000000	15.425248
585.000000	15.534869
586.000000	15.620392
587.000000	15.735038
588.000000	15.838920
589.000000	15.940117
590.000000	16.040849
591.000000	16.145974
592.000000	16.256570
593.000000	16.347507
594.000000	16.446895
595.000000	16.552898
596.000000	16.664024
597.000000	16.760729
598.000000	16.861834
599.000000	16.971408
600.000000	17.066799
601.000000	17.182343
602.000000	17.275398
603.000000	17.376249
604.000000	17.488902
605.000000	17.577664
606.000000	17.683230
607.000000	17.788963
608.000000	17.892346
609.000000	17.999993
610.000000	18.088288
611.000000	18.184817
612.000000	18.282037
613.000000	18.383302
614.000000	18.498591
615.000000	18.592333
616.000000	18.693959
617.000000	18.804329
618.000000	18.897443
619.000000	19.006213
620.000000	19.102798
621.000000	19.206866
622.000000	19.314422
623.000000	19.406024
624.000000	19.500018
625.000000	19.600453
626.000000	19.706106
627.000000	19.816201
628.000000	19.914275
629.000000	20.011817
630.000000	20.110997
631.000000	20.224547
632.000000	20.336971
633.000000	20.450357
634.000000	20.564211
635.000000	20.666981
636.000000	20.783615
637.000000	20.892357
638.000000	21.014943
639.000000	21.132954
640.000000	21.240484
641.000000	21.368752
642.000000	21.487424
643.000000	21.611603
644.000000	21.737032
645.000000	21.848154
646.000000	21.959634
647.000000	22.084976
648.000000	22.216455
649.000000	22.336973
650.000000	22.462808
651.000000	22.585652
652.000000	22.709219
653.000000	22.821761
654.000000	22.930711
655.000000	23.048661
656.000000	23.165481
657.000000	23.267934
658.000000	23.378858
659.000000	23.495641
660.000000	23.605274
661.000000	23.704468
662.000000	23.815332
663.000000	23.920349
664.000000	24.017155
665.000000	24.130917
666.000000	24.244890
667.000000	24.348595
668.000000	24.444828
669.000000	24.553697
670.000000	24.637327
671.000000	24.733726
672.000000	24.832105
673.000000	24.925341
674.000000	25.041024
675.000000	25.131675
676.000000	25.220346
677.000000	25.306764
678.000000	25.409832
679.000000	25.500205
680.000000	25.585613
681.000000	25.679494
682.000000	25.765036
683.000000	25.872195
684.000000	25.956676
685.000000	26.024953
686.000000	26.131602
687.000000	26.202171
688.000000	26.271957
689.000000	26.358784
690.000000	26.442800
691.000000	26.518681
692.000000	26.604694
693.000000	26.694300
694.000000	26.776216
695.000000	26.859624
696.000000	26.949198
697.000000	27.024005
698.000000	27.102804
699.000000	27.192993
700.000000	27.276936
701.000000	27.355125
702.000000	27.430066
703.000000	27.513357
704.000000	27.595051
705.000000	27.661799
706.000000	27.729090
707.000000	27.804874
708.000000	27.862197
709.000000	27.949986
710.000000	28.045465
711.000000	28.108977
712.000000	28.162295
713.000000	28.239062
714.000000	28.319143
715.000000	28.401055
716.000000	28.477956
717.000000	28.566003
718.000000	28.613872
719.000000	28.665558
720.000000	28.736393
721.000000	28.809549
722.000000	28.877254
723.000000	28.940029
724.000000	29.024342
725.000000	29.106734
726.000000	29.182185
727.000000	29.272357
728.000000	29.320501
729.000000	29.369711
730.000000	29.430213
731.000000	29.488957
732.000000	29.564271
733.000000	29.646046
734.000000	29.703198
735.000000	29.764367
736.000000	29.852327
737.000000	29.923618
738.000000	29.976340
739.000000	30.038585
740.000000	30.094925
741.000000	30.187275
742.000000	30.270552
743.000000	30.294643
744.000000	30.327384
745.000000	30.406535
746.000000	30.473204
747.000000	30.549759
748.000000	30.615464
749.000000	30.695240
750.000000	30.759198
751.000000	30.790325
752.000000	30.841579
753.000000	30.922865
754.000000	30.995416
755.000000	31.075062
756.000000	31.143822
757.000000	31.196521
758.000000	31.282236
759.000000	31.349430
760.000000	31.402014
761.000000	31.446057
762.000000	31.516917
763.000000	31.578277
764.000000	31.662406
765.000000	31.708687
766.000000	31.751363
767.000000	31.810847
768.000000	31.877167
769.000000	31.948931
770.000000	32.026118
771.000000	32.060316
772.000000	32.118475
773.000000	32.165691
774.000000	32.239182
775.000000	32.296547
776.000000	32.378885
777.000000	32.438702
778.000000	32.539639
779.000000	32.581573
780.000000	32.593520
781.000000	32.678618
782.000000	32.722951
783.000000	32.785833
784.000000	32.869098
785.000000	32.911443
786.000000	32.939039
787.000000	33.054132
788.000000	33.099916
789.000000	33.169785
790.000000	33.207030
791.000000	33.281825
792.000000	33.302834
793.000000	33.380468
794.000000	33.453507
795.000000	33.515563
796.000000	33.585897
797.000000	33.620074
798.000000	33.702867
799.000000	33.764745
800.000000	33.805457
801.000000	33.874613
802.000000	33.953094
803.000000	34.020053
804.000000	33.987219
805.000000	34.078107
806.000000	34.202616
807.000000	34.240316
808.000000	34.217851
809.000000	34.240988
810.000000	34.305074
811.000000	34.384351
812.000000	34.508935
813.000000	34.496700
814.000000	34.523971
815.000000	34.591028
816.000000	34.648482
817.000000	34.678978
818.000000	34.670328
819.000000	34.772029
820.000000	34.836634
821.000000	34.863530
822.000000	34.889246
823.000000	34.982199
824.000000	34.920163
825.000000	35.066738
826.000000	35.061354
827.000000	35.134228
828.000000	35.220291
829.000000	35.257462
830.000000	35.308330
831.000000	35.359425
832.000000	35.394063
833.000000	35.372977
834.000000	35.438132
835.000000	35.461678
836.000000	35.464813
837.000000	35.607910
838.000000	35.621084
839.000000	35.631758
840.000000	35.716802
841.000000	35.648463
842.000000	35.676900
843.000000	35.664997
844.000000	35.724557
845.000000	35.824565
846.000000	35.963219
847.000000	35.898067
848.000000	35.858044
849.000000	35.868253
850.000000	35.995268
851.000000	35.979676
852.000000	35.963209
853.000000	35.904891
854.000000	36.043372
855.000000	35.993874
856.000000	36.055168
857.000000	36.072891
858.000000	35.394682
859.000000	36.785870
860.000000	36.788130
861.000000	36.734923
862.000000	36.677812
863.000000	36.798187
864.000000	36.427032
865.000000	36.496640
866.000000	36.582956
867.000000	36.728611
868.000000	36.762438
869.000000	36.646561
870.000000	36.469730
871.000000	36.525585
872.000000	36.509885
873.000000	36.670979
874.000000	36.781811
875.000000	36.476106
876.000000	36.555755
877.000000	36.351967
878.000000	36.482378
879.000000	36.516325
880.000000	36.475772
881.000000	36.306777
882.000000	36.430383
883.000000	36.342836
884.000000	36.367771
885.000000	36.244464
886.000000	36.392639
887.000000	36.358473
888.000000	36.437774
889.000000	36.334176
890.000000	36.236741
891.000000	36.294975
892.000000	36.294183
893.000000	36.290643
894.000000	36.238418
895.000000	36.209999
896.000000	36.186986
897.000000	36.198334
898.000000	36.257154
899.000000	36.217832
900.000000	36.149894
901.000000	36.166793
902.000000	36.096522
903.000000	36.018167
904.000000	36.030371
905.000000	36.088223
906.000000	36.097408
907.000000	36.085366
908.000000	35.979018
909.000000	35.934937
910.000000	35.855348
911.000000	35.893974
912.000000	35.941242
913.000000	35.952276
914.000000	35.884249
915.000000	35.825507
916.000000	35.856932
917.000000	35.836110
918.000000	35.921019
919.000000	35.885278
920.000000	35.884645
921.000000	35.893900
922.000000	35.803158
923.000000	35.765790
924.000000	35.767625
925.000000	35.834706
926.000000	35.851249
927.000000	35.845115
928.000000	35.789639
929.000000	35.765010
930.000000	35.766194
931.000000	35.772241
932.000000	35.784322
933.000000	35.768840
934.000000	35.725080
935.000000	35.683640
936.000000	35.687334
937.000000	35.682109
938.000000	35.660330
939.000000	35.653572
940.000000	35.678503
941.000000	35.623316
942.000000	35.641670
943.000000	35.650227
944.000000	35.660918
945.000000	35.630527
946.000000	35.596514
947.000000	35.577540
948.000000	35.540493
949.000000	35.549319
950.000000	35.567325
951.000000	35.569333
952.000000	35.544360
953.000000	35.514133
954.000000	35.509150
955.000000	35.508787
956.000000	35.498990
957.000000	35.492830
958.000000	35.506503
959.000000	35.493296
960.000000	35.462616
961.000000	35.442053
962.000000	35.425336
963.000000	35.423373
964.000000	35.413995
965.000000	35.404634
966.000000	35.393890
967.000000	35.402921
968.000000	35.388000
969.000000	35.391907
970.000000	35.402386
971.000000	35.363282
972.000000	35.341070
973.000000	35.339098
974.000000	35.324131
975.000000	35.313869
976.000000	35.316316
977.000000	35.297269
978.000000	35.295416
979.000000	35.290132
980.000000	35.275836
981.000000	35.262482
982.000000	35.247008
983.000000	35.263463
984.000000	35.272842
985.000000	35.266762
986.000000	35.264150
987.000000	35.229930
988.000000	35.218463
989.000000	35.211840
990.000000	35.200202
991.000000	35.203257
992.000000	35.200046
993.000000	35.180636
994.000000	35.181888
995.000000	35.186788
996.000000	35.184654
997.000000	35.170049
998.000000	35.149706
999.000000	35.143825
1000.000000	35.129816
1001.000000	35.111302
1002.000000	35.118025
1003.000000	35.121024
1004.000000	35.103837
1005.000000	35.095238
1006.000000	35.092987
1007.000000	35.089764
1008.000000	35.080365
1009.000000	35.088626
1010.000000	35.093019
1011.000000	35.093306
1012.000000	35.079648
1013.000000	35.053974
1014.000000	35.046885
1015.000000	35.055244
1016.000000	35.058522
1017.000000	35.050192
1018.000000	35.058443
1019.000000	35.053506
1020.000000	35.057219
1021.000000	35.078441
1022.000000	35.088646
1023.000000	35.092231
1024.000000	35.082521
1025.000000	35.082932
1026.000000	35.080307
1027.000000	35.086417
1028.000000	35.104036
1029.000000	35.126639
1030.000000	35.131774
1031.000000	35.132398
1032.000000	35.125967
1033.000000	35.125241
1034.000000	35.136765
1035.000000	35.144984
1036.000000	35.155504
1037.000000	35.160223
1038.000000	35.162018
1039.000000	35.167720
1040.000000	35.175079
1041.000000	35.184822
1042.000000	35.189468
1043.000000	35.185800
1044.000000	35.186588
1045.000000	35.204569
1046.000000	35.210594
1047.000000	35.209256
1048.000000	35.217691
1049.000000	35.233527
1050.000000	35.233629
1051.000000	35.234498
1052.000000	35.234143
1053.000000	35.244605
1054.000000	35.259282
1055.000000	35.271974
1056.000000	35.275462
1057.000000	35.281774
1058.000000	35.303287
1059.000000	35.319037
1060.000000	35.332476
1061.000000	35.349888
1062.000000	35.354926
1063.000000	35.368092
1064.000000	35.368619
1065.000000	35.360053
1066.000000	35.369815
1067.000000	35.376996
1068.000000	35.393282
1069.000000	35.395464
1070.000000	35.401934
1071.000000	35.410434
1072.000000	35.422280
1073.000000	35.432416
1074.000000	35.435637
1075.000000	35.438791
1076.000000	35.440482
1077.000000	35.450502
1078.000000	35.447524
1079.000000	35.446332
1080.000000	35.451786
1081.000000	35.447972
1082.000000	35.461120
1083.000000	35.453283
1084.000000	35.450005
1085.000000	35.473136
1086.000000	35.487313
1087.000000	35.487940
1088.000000	35.491760
1089.000000	35.483706
1090.000000	35.474741
1091.000000	35.485314
1092.000000	35.489610
1093.000000	35.492332
1094.000000	35.496925
1095.000000	35.491330
1096.000000	35.475329
1097.000000	35.488005
1098.000000	35.483896
1099.000000	35.478658
1100.000000	35.483878
1101.000000	35.480975
1102.000000	35.488826
1103.000000	35.490641
1104.000000	35.489614
1105.000000	35.497825
1106.000000	35.503319
1107.000000	35.510829
1108.000000	35.491277
1109.000000	35.490663
1110.000000	35.481092
1111.000000	35.482000
1112.000000	35.480935
1113.000000	35.483826
1114.000000	35.462472
1115.000000	35.457029
1116.000000	35.437634
1117.000000	35.432524
1118.000000	35.415775
1119.000000	35.408222
1120.000000	35.399887
1121.000000	35.383311
1122.000000	35.352776
1123.000000	35.320816
1124.000000	35.274331
1125.000000	35.257186
1126.000000	35.207019
1127.000000	35.176361
1128.000000	35.113056
1129.000000	35.047096
1130.000000	35.017281
1131.000000	34.981128
1132.000000	34.941886
1133.000000	34.890276
1134.000000	34.809207
1135.000000	34.746805
1136.000000	34.673546
1137.000000	34.626011
1138.000000	34.555485
1139.000000	34.516926
1140.000000	34.447410
1141.000000	34.403476
1142.000000	34.356992
1143.000000	34.325068
1144.000000	34.278792
1145.000000	34.239738
1146.000000	34.185564
1147.000000	34.142863
1148.000000	34.078385
1149.000000	34.040527
1150.000000	33.983099
1151.000000	33.943382
1152.000000	33.879390
1153.000000	33.816221
1154.000000	33.742438
1155.000000	33.681127
1156.000000	33.620909
1157.000000	33.533839
1158.000000	33.467769
1159.000000	33.394300
1160.000000	33.324238
1161.000000	33.241362
1162.000000	33.151689
1163.000000	33.101053
1164.000000	33.017756
1165.000000	32.961082
1166.000000	32.869397
1167.000000	32.797353
1168.000000	32.743652
1169.000000	32.673026
1170.000000	32.627155
1171.000000	32.574683
1172.000000	32.518350
1173.000000	32.478996
1174.000000	32.415675
1175.000000	32.375761
1176.000000	32.334751
1177.000000	32.299726
1178.000000	32.264931
1179.000000	32.226558
1180.000000	32.184328
1181.000000	32.149875
1182.000000	32.139015
1183.000000	32.103322
1184.000000	32.090106
1185.000000	32.080345
1186.000000	32.081130
1187.000000	32.090540
1188.000000	32.096118
1189.000000	32.117213
1190.000000	32.146665
1191.000000	32.170017
1192.000000	32.193098
1193.000000	32.215068
1194.000000	32.243655
1195.000000	32.273368
1196.000000	32.281336
1197.000000	32.303036
1198.000000	32.318949
1199.000000	32.352967
1200.000000	32.371806
1201.000000	32.394284
1202.000000	32.404718
1203.000000	32.435386
1204.000000	32.446875
1205.000000	32.465299
1206.000000	32.479024
1207.000000	32.503011
1208.000000	32.515983
1209.000000	32.526992
1210.000000	32.545760
1211.000000	32.565867
1212.000000	32.599776
1213.000000	32.635320
1214.000000	32.664312
1215.000000	32.687621
1216.000000	32.711785
1217.000000	32.735510
1218.000000	32.758963
1219.000000	32.793836
1220.000000	32.834014
1221.000000	32.881097
1222.000000	32.908932
1223.000000	32.940548
1224.000000	32.967597
1225.000000	33.001360
1226.000000	33.024871
1227.000000	33.052006
1228.000000	33.077704
1229.000000	33.098454
1230.000000	33.124924
1231.000000	33.143139
1232.000000	33.168781
1233.000000	33.180196
1234.000000	33.201249
1235.000000	33.214226
1236.000000	33.218858
1237.000000	33.235278
1238.000000	33.249409
1239.000000	33.272877
1240.000000	33.298329
1241.000000	33.308846
1242.000000	33.302864
1243.000000	33.310580
1244.000000	33.322899
1245.000000	33.340034
1246.000000	33.353167
1247.000000	33.368617
1248.000000	33.374122
1249.000000	33.384310
1250.000000	33.408835
1251.000000	33.417356
1252.000000	33.427618
1253.000000	33.444444
1254.000000	33.449715
1255.000000	33.450186
1256.000000	33.454184
1257.000000	33.455128
1258.000000	33.467354
1259.000000	33.481216
1260.000000	33.484206
1261.000000	33.493791
1262.000000	33.505046
1263.000000	33.518728
1264.000000	33.523094
1265.000000	33.526676
1266.000000	33.529009
1267.000000	33.530241
1268.000000	33.534916
1269.000000	33.542725
1270.000000	33.544655
1271.000000	33.546238
1272.000000	33.556454
1273.000000	33.558916
1274.000000	33.554977
1275.000000	33.560213
1276.000000	33.565994
1277.000000	33.573366
1278.000000	33.586796
1279.000000	33.581593
1280.000000	33.581734
1281.000000	33.591080
1282.000000	33.591911
1283.000000	33.602891
1284.000000	33.616897
1285.000000	33.614918
1286.000000	33.609820
1287.000000	33.619693
1288.000000	33.634960
1289.000000	33.642983
1290.000000	33.649698
1291.000000	33.650393
1292.000000	33.653448
1293.000000	33.664043
1294.000000	33.660254
1295.000000	33.655139
1296.000000	33.655319
1297.000000	33.655075
1298.000000	33.658939
1299.000000	33.659156
1300.000000	33.658380
1301.000000	33.655556
1302.000000	33.649131
1303.000000	33.647519
1304.000000	33.651954
1305.000000	33.649671
1306.000000	33.642152
1307.000000	33.636850
1308.000000	33.628716
1309.000000	33.614852
1310.000000	33.603993
1311.000000	33.599747
1312.000000	33.589151
1313.000000	33.572999
1314.000000	33.553073
1315.000000	33.532593
1316.000000	33.520416
1317.000000	33.505178
1318.000000	33.486815
1319.000000	33.456213
1320.000000	33.432686
1321.000000	33.413082
1322.000000	33.393953
1323.000000	33.364035
1324.000000	33.332902
1325.000000	33.294405
1326.000000	33.261672
1327.000000	33.216983
1328.000000	33.170570
1329.000000	33.125669
1330.000000	33.084954
1331.000000	33.041240
1332.000000	32.989369
1333.000000	32.928279
1334.000000	32.874937
1335.000000	32.816577
1336.000000	32.758837
1337.000000	32.708096
1338.000000	32.657050
1339.000000	32.596653
1340.000000	32.530684
1341.000000	32.465265
1342.000000	32.412187
1343.000000	32.355678
1344.000000	32.289434
1345.000000	32.226502
1346.000000	32.166245
1347.000000	32.088616
1348.000000	32.012351
1349.000000	31.942390
1350.000000	31.872699
1351.000000	31.806049
1352.000000	31.750566
1353.000000	31.678936
1354.000000	31.583970
1355.000000	31.516922
1356.000000	31.442052
1357.000000	31.388016
1358.000000	31.341631
1359.000000	31.306940
1360.000000	31.209023
1361.000000	31.069792
1362.000000	30.988300
1363.000000	30.929441
1364.000000	30.837514
1365.000000	30.761337
1366.000000	30.723629
1367.000000	30.629580
1368.000000	30.546035
1369.000000	30.489307
1370.000000	30.393124
1371.000000	30.288036
1372.000000	30.188418
1373.000000	30.100470
1374.000000	30.016004
1375.000000	29.900450
1376.000000	29.815999
1377.000000	29.711535
1378.000000	29.674707
1379.000000	29.597396
1380.000000	29.501316
1381.000000	29.330742
1382.000000	29.188440
1383.000000	29.073393
1384.000000	28.978304
1385.000000	28.875186
1386.000000	28.766504
1387.000000	28.673109
1388.000000	28.529133
1389.000000	28.451121
1390.000000	28.377986
1391.000000	28.274020
1392.000000	28.148603
1393.000000	28.084875
1394.000000	27.977881
1395.000000	27.784642
1396.000000	27.652622
1397.000000	27.570965
1398.000000	27.504446
1399.000000	27.339395
1400.000000	27.139644
1401.000000	27.006330
1402.000000	26.932046
1403.000000	26.769948
1404.000000	26.608189
1405.000000	26.432780
1406.000000	26.289994
1407.000000	26.135470
1408.000000	25.957117
1409.000000	25.772786
1410.000000	25.630577
1411.000000	25.483208
1412.000000	25.357734
1413.000000	25.198772
1414.000000	25.031049
1415.000000	24.905046
1416.000000	24.794234
1417.000000	24.669759
1418.000000	24.525365
1419.000000	24.389894
1420.000000	24.276570
1421.000000	24.168790
1422.000000	24.059548
1423.000000	23.945630
1424.000000	23.826816
1425.000000	23.735560
1426.000000	23.635067
1427.000000	23.536179
1428.000000	23.443736
1429.000000	23.356592
1430.000000	23.279377
1431.000000	23.176529
1432.000000	23.110506
1433.000000	23.030198
1434.000000	22.963879
1435.000000	22.888808
1436.000000	22.816787
1437.000000	22.741815
1438.000000	22.667057
1439.000000	22.601614
1440.000000	22.548119
1441.000000	22.475788
1442.000000	22.418705
1443.000000	22.356518
1444.000000	22.300027
1445.000000	22.223930
1446.000000	22.157847
1447.000000	22.123478
1448.000000	22.066465
1449.000000	22.017865
1450.000000	21.947215
1451.000000	21.888144
1452.000000	21.830520
1453.000000	21.793593
1454.000000	21.740933
1455.000000	21.676323
1456.000000	21.631317
1457.000000	21.587119
1458.000000	21.532083
1459.000000	21.466108
1460.000000	21.418027
1461.000000	21.381745
1462.000000	21.332214
1463.000000	21.278807
1464.000000	21.234609
1465.000000	21.182449
1466.000000	21.124005
1467.000000	21.075289
1468.000000	21.030828
1469.000000	20.973227
1470.000000	20.926010
1471.000000	20.881922
1472.000000	20.844512
1473.000000	20.794845
1474.000000	20.765236
1475.000000	20.720141
1476.000000	20.687168
1477.000000	20.643432
1478.000000	20.615314
1479.000000	20.583648
1480.000000	20.550288
1481.000000	20.522447
1482.000000	20.502028
1483.000000	20.486305
1484.000000	20.472454
1485.000000	20.450356
1486.000000	20.433877
1487.000000	20.414873
1488.000000	20.405539
1489.000000	20.380849
1490.000000	20.375179
1491.000000	20.365965
1492.000000	20.350803
1493.000000	20.353737
1494.000000	20.359642
1495.000000	20.364143
1496.000000	20.360859
1497.000000	20.363797
1498.000000	20.370414
1499.000000	20.391045
1500.000000	20.409312
1501.000000	20.441812
1502.000000	20.464741
1503.000000	20.492835
1504.000000	20.513306
1505.000000	20.544342
1506.000000	20.578040
1507.000000	20.604069
1508.000000	20.649512
1509.000000	20.686470
1510.000000	20.723181
1511.000000	20.767094
1512.000000	20.793847
1513.000000	20.829314
1514.000000	20.871253
1515.000000	20.910294
1516.000000	20.955078
1517.000000	20.997464
1518.000000	21.031882
1519.000000	21.080174
1520.000000	21.110991
1521.000000	21.139945
1522.000000	21.178917
1523.000000	21.221061
1524.000000	21.260728
1525.000000	21.298802
1526.000000	21.332593
1527.000000	21.361274
1528.000000	21.396759
1529.000000	21.433294
1530.000000	21.468949
1531.000000	21.496586
1532.000000	21.521451
1533.000000	21.550905
1534.000000	21.587661
1535.000000	21.615366
1536.000000	21.640596
1537.000000	21.669455
1538.000000	21.701414
1539.000000	21.720190
1540.000000	21.742850
1541.000000	21.774540
1542.000000	21.803208
1543.000000	21.833636
1544.000000	21.859073
1545.000000	21.893186
1546.000000	21.934252
1547.000000	21.961057
1548.000000	21.983244
1549.000000	22.019051
1550.000000	22.049679
1551.000000	22.086247
1552.000000	22.112542
1553.000000	22.137797
1554.000000	22.164872
1555.000000	22.190363
1556.000000	22.212146
1557.000000	22.224855
1558.000000	22.243312
1559.000000	22.254546
1560.000000	22.268426
1561.000000	22.283142
1562.000000	22.286388
1563.000000	22.289523
1564.000000	22.282293
1565.000000	22.272834
1566.000000	22.269483
1567.000000	22.265427
1568.000000	22.260382
1569.000000	22.262929
1570.000000	22.270199
1571.000000	22.268968
1572.000000	22.265511
1573.000000	22.261879
1574.000000	22.260250
1575.000000	22.257875
1576.000000	22.251920
1577.000000	22.264281
1578.000000	22.274158
1579.000000	22.280148
1580.000000	22.298758
1581.000000	22.320270
1582.000000	22.328316
1583.000000	22.342423
1584.000000	22.369300
1585.000000	22.394377
1586.000000	22.418192
1587.000000	22.440901
1588.000000	22.458911
1589.000000	22.484620
1590.000000	22.519490
1591.000000	22.542802
1592.000000	22.567404
1593.000000	22.603107
1594.000000	22.633737
1595.000000	22.672823
1596.000000	22.695188
1597.000000	22.727620
1598.000000	22.762859
1599.000000	22.805741
1600.000000	22.844319
1601.000000	22.885058
1602.000000	22.937602
1603.000000	22.978778
1604.000000	23.010414
1605.000000	23.047993
1606.000000	23.079572
1607.000000	23.123765
1608.000000	23.162721
1609.000000	23.200604
1610.000000	23.223743
1611.000000	23.247845
1612.000000	23.295808
1613.000000	23.311081
1614.000000	23.339914
1615.000000	23.376635
1616.000000	23.404079
1617.000000	23.438121
1618.000000	23.468502
1619.000000	23.487173
1620.000000	23.502496
1621.000000	23.532119
1622.000000	23.545117
1623.000000	23.568157
1624.000000	23.589922
1625.000000	23.622241
1626.000000	23.641385
1627.000000	23.672184
1628.000000	23.681073
1629.000000	23.694522
1630.000000	23.719234
1631.000000	23.736533
1632.000000	23.763980
1633.000000	23.776090
1634.000000	23.791472
1635.000000	23.814722
1636.000000	23.816260
1637.000000	23.830483
1638.000000	23.841639
1639.000000	23.858015
1640.000000	23.875986
1641.000000	23.874403
1642.000000	23.885513
1643.000000	23.887258
1644.000000	23.899006
1645.000000	23.892019
1646.000000	23.894804
1647.000000	23.887781
1648.000000	23.880741
1649.000000	23.869938
1650.000000	23.854436
1651.000000	23.836551
1652.000000	23.818470
1653.000000	23.786426
1654.000000	23.757787
1655.000000	23.717096
1656.000000	23.668923
1657.000000	23.626084
1658.000000	23.579731
1659.000000	23.540730
1660.000000	23.472310
1661.000000	23.404444
1662.000000	23.336172
1663.000000	23.264219
1664.000000	23.191504
1665.000000	23.094415
1666.000000	22.984866
1667.000000	22.926611
1668.000000	22.846616
1669.000000	22.769679
1670.000000	22.664212
1671.000000	22.561260
1672.000000	22.474985
1673.000000	22.359690
1674.000000	22.253093
1675.000000	22.155976
1676.000000	22.046306
1677.000000	21.946574
1678.000000	21.856241
1679.000000	21.752003
1680.000000	21.669541
1681.000000	21.572453
1682.000000	21.480504
1683.000000	21.388887
1684.000000	21.305380
1685.000000	21.242948
1686.000000	21.176952
1687.000000	21.104982
1688.000000	21.090136
1689.000000	21.074615
1690.000000	21.041078
1691.000000	21.029399
1692.000000	21.018223
1693.000000	21.045359
1694.000000	21.037267
1695.000000	21.041428
1696.000000	21.038530
1697.000000	21.053633
1698.000000	21.061498
1699.000000	21.036686
1700.000000	21.027425
1701.000000	21.011492
1702.000000	20.993392
1703.000000	20.966064
1704.000000	20.935702
1705.000000	20.897822
1706.000000	20.848153
1707.000000	20.793744
1708.000000	20.729368
1709.000000	20.668370
1710.000000	20.579761
1711.000000	20.491995
1712.000000	20.412088
1713.000000	20.322851
1714.000000	20.233429
1715.000000	20.129792
1716.000000	20.042510
1717.000000	19.948447
1718.000000	19.843005
1719.000000	19.772263
1720.000000	19.687733
1721.000000	19.620170
1722.000000	19.558791
1723.000000	19.514791
1724.000000	19.480365
1725.000000	19.454976
1726.000000	19.448874
1727.000000	19.452079
1728.000000	19.468034
1729.000000	19.474366
1730.000000	19.495589
1731.000000	19.530617
1732.000000	19.572260
1733.000000	19.606167
1734.000000	19.643691
1735.000000	19.714059
1736.000000	19.770237
1737.000000	19.819559
1738.000000	19.868799
1739.000000	19.941409
1740.000000	19.994837
1741.000000	20.064005
1742.000000	20.124883
1743.000000	20.192057
1744.000000	20.237382
1745.000000	20.291720
1746.000000	20.328791
1747.000000	20.370299
1748.000000	20.404806
1749.000000	20.420543
1750.000000	20.463775
1751.000000	20.497827
1752.000000	20.518337
1753.000000	20.530378
1754.000000	20.545459
1755.000000	20.558407
1756.000000	20.588752
1757.000000	20.600684
1758.000000	20.596240
1759.000000	20.607052
1760.000000	20.628323
1761.000000	20.655040
1762.000000	20.682295
1763.000000	20.701319
1764.000000	20.726895
1765.000000	20.734376
1766.000000	20.750604
1767.000000	20.780877
1768.000000	20.812554
1769.000000	20.853169
1770.000000	20.875578
1771.000000	20.900291
1772.000000	20.914787
1773.000000	20.951875
1774.000000	20.972949
1775.000000	20.998125
1776.000000	21.016940
1777.000000	21.043012
1778.000000	21.073505
1779.000000	21.087137
1780.000000	21.090237
1781.000000	21.119186
1782.000000	21.162006
1783.000000	21.176656
1784.000000	21.178942
1785.000000	21.184797
1786.000000	21.194985
1787.000000	21.209256
1788.000000	21.225113
1789.000000	21.245467
1790.000000	21.264154
1791.000000	21.282582
1792.000000	21.290780
1793.000000	21.301794
1794.000000	21.334128
1795.000000	21.352260
1796.000000	21.360579
1797.000000	21.391239
1798.000000	21.421972
1799.000000	21.446187
1800.000000	21.453599
1801.000000	21.456705
1802.000000	21.478447
1803.000000	21.501302
1804.000000	21.519351
1805.000000	21.544452
1806.000000	21.556921
1807.000000	21.579676
1808.000000	21.617527
1809.000000	21.652004
1810.000000	21.672851
1811.000000	21.672870
1812.000000	21.686886
1813.000000	21.708200
1814.000000	21.716095
1815.000000	21.713332
1816.000000	21.728180
1817.000000	21.781297
1818.000000	21.837399
1819.000000	21.842583
1820.000000	21.779625
1821.000000	21.739852
1822.000000	21.779268
1823.000000	21.848144
1824.000000	21.891239
1825.000000	21.921315
1826.000000	21.915725
1827.000000	21.912938
1828.000000	21.945462
1829.000000	21.945269
1830.000000	21.931498
1831.000000	21.973611
1832.000000	22.026690
1833.000000	22.098051
1834.000000	22.147894
1835.000000	22.144864
1836.000000	22.117169
1837.000000	22.110620
1838.000000	22.133607
1839.000000	22.130756
1840.000000	22.105962
1841.000000	22.061726
1842.000000	22.061673
1843.000000	22.145181
1844.000000	22.267889
1845.000000	22.325962
1846.000000	22.266982
1847.000000	22.147980
1848.000000	22.083372
1849.000000	22.092191
1850.000000	22.163255
1851.000000	22.226323
1852.000000	22.249477
1853.000000	22.224648
1854.000000	22.219841
1855.000000	22.229099
1856.000000	22.263819
1857.000000	22.270529
1858.000000	22.222826
1859.000000	22.173632
1860.000000	22.152437
1861.000000	22.152147
1862.000000	22.151700
1863.000000	22.138808
1864.000000	22.140673
1865.000000	22.156773
1866.000000	22.123650
1867.000000	22.062533
1868.000000	21.988036
1869.000000	21.855000
1870.000000	21.695198
1871.000000	21.528970
1872.000000	21.340055
1873.000000	21.189919
1874.000000	21.048426
1875.000000	20.847694
1876.000000	20.704048
1877.000000	20.547011
1878.000000	20.411170
1879.000000	20.294908
1880.000000	20.209475
1881.000000	20.046858
1882.000000	19.871750
1883.000000	19.698858
1884.000000	19.490180
1885.000000	19.264879
1886.000000	19.090161
1887.000000	18.930440
1888.000000	18.734270
1889.000000	18.525248
1890.000000	18.290604
1891.000000	18.037236
1892.000000	17.765195
1893.000000	17.518238
1894.000000	17.285680
1895.000000	17.057604
1896.000000	16.787390
1897.000000	16.544302
1898.000000	16.228245
1899.000000	15.938030
1900.000000	15.667644
1901.000000	15.358022
1902.000000	15.107595
1903.000000	14.863076
1904.000000	14.595622
1905.000000	14.312958
1906.000000	14.006223
1907.000000	13.752072
1908.000000	13.572643
1909.000000	13.361092
1910.000000	13.217610
1911.000000	13.047336
1912.000000	12.822511
1913.000000	12.575106
1914.000000	12.382989
1915.000000	12.244513
1916.000000	12.125930
1917.000000	12.067880
1918.000000	11.903448
1919.000000	11.771871
1920.000000	11.643468
1921.000000	11.524884
1922.000000	11.474562
1923.000000	11.385078
1924.000000	11.288065
1925.000000	11.255187
1926.000000	11.138724
1927.000000	11.119767
1928.000000	11.005611
1929.000000	10.913064
1930.000000	10.892726
1931.000000	10.889799
1932.000000	10.865923
1933.000000	10.859966
1934.000000	10.879854
1935.000000	10.872249
1936.000000	10.820761
1937.000000	10.776138
1938.000000	10.799832
1939.000000	10.770250
1940.000000	10.802498
1941.000000	10.848631
1942.000000	10.844190
1943.000000	10.892571
1944.000000	10.927838
1945.000000	10.967555
1946.000000	10.968777
1947.000000	11.039792
1948.000000	11.049954
1949.000000	11.078379
1950.000000	11.113734
1951.000000	11.142229
1952.000000	11.233673
1953.000000	11.266799
1954.000000	11.343126
1955.000000	11.397296
1956.000000	11.420338
1957.000000	11.504979
1958.000000	11.509854
1959.000000	11.586140
1960.000000	11.638459
1961.000000	11.711002
1962.000000	11.735423
1963.000000	11.815030
1964.000000	11.865678
1965.000000	11.914671
1966.000000	11.984292
1967.000000	12.030625
1968.000000	12.038232
1969.000000	12.097272
1970.000000	12.127407
1971.000000	12.192437
1972.000000	12.261536
1973.000000	12.313595
1974.000000	12.412016
1975.000000	12.451105
1976.000000	12.488396
1977.000000	12.553438
1978.000000	12.606874
1979.000000	12.676578
1980.000000	12.711936
1981.000000	12.756060
1982.000000	12.823938
1983.000000	12.886533
1984.000000	12.935043
1985.000000	12.989534
1986.000000	13.059913
1987.000000	13.113421
1988.000000	13.153281
1989.000000	13.229098
1990.000000	13.286965
1991.000000	13.317560
1992.000000	13.338897
1993.000000	13.420423
1994.000000	13.460779
1995.000000	13.497297
1996.000000	13.541109
1997.000000	13.606403
1998.000000	13.625227
1999.000000	13.663696
2000.000000	13.712966
2001.000000	13.737146
2002.000000	13.775029
2003.000000	13.817237
2004.000000	13.812257
2005.000000	13.785253
2006.000000	13.798664
2007.000000	13.838239
2008.000000	13.869045
2009.000000	13.864269
2010.000000	13.875920
2011.000000	13.879969
2012.000000	13.840654
2013.000000	13.819947
2014.000000	13.825328
2015.000000	13.821244
2016.000000	13.807248
2017.000000	13.781263
2018.000000	13.777981
2019.000000	13.746844
2020.000000	13.716527
2021.000000	13.678349
2022.000000	13.654948
2023.000000	13.584681
2024.000000	13.520318
2025.000000	13.478982
2026.000000	13.462412
2027.000000	13.421049
2028.000000	13.355246
2029.000000	13.276420
2030.000000	13.204431
2031.000000	13.150065
2032.000000	13.070017
2033.000000	12.993827
2034.000000	12.916906
2035.000000	12.820005
2036.000000	12.771481
2037.000000	12.661826
2038.000000	12.553579
2039.000000	12.499454
2040.000000	12.430819
2041.000000	12.338391
2042.000000	12.234983
2043.000000	12.125393
2044.000000	12.051444
2045.000000	11.951820
2046.000000	11.885129
2047.000000	11.811261
2048.000000	11.742985
2049.000000	11.720172
2050.000000	11.717266
2051.000000	11.642881
2052.000000	11.626480
2053.000000	11.672244
2054.000000	11.706523
2055.000000	11.655133
2056.000000	11.561092
2057.000000	11.528428
2058.000000	11.595933
2059.000000	11.675360
2060.000000	11.734966
2061.000000	11.791523
2062.000000	11.874447
2063.000000	11.995070
2064.000000	12.016954
2065.000000	11.981174
2066.000000	12.052038
2067.000000	12.143393
2068.000000	12.163408
2069.000000	12.220898
2070.000000	12.346491
2071.000000	12.422523
2072.000000	12.435760
2073.000000	12.494517
2074.000000	12.595481
2075.000000	12.673974
2076.000000	12.740413
2077.000000	12.800836
2078.000000	12.871665
2079.000000	12.937338
2080.000000	12.904499
2081.000000	12.878276
2082.000000	12.948446
2083.000000	13.036398
2084.000000	13.081469
2085.000000	13.129071
2086.000000	13.091163
2087.000000	13.048819
2088.000000	13.059638
2089.000000	13.094739
2090.000000	13.131008
2091.000000	13.120544
2092.000000	13.083384
2093.000000	13.111646
2094.000000	13.210253
2095.000000	13.217612
2096.000000	13.167813
2097.000000	13.196351
2098.000000	13.224160
2099.000000	13.197917
2100.000000	13.181802
2101.000000	13.131009
2102.000000	13.041499
2103.000000	13.147730
2104.000000	13.219051
2105.000000	13.227391
2106.000000	13.213863
2107.000000	13.249101
2108.000000	13.231142
2109.000000	13.286328
2110.000000	13.314354
2111.000000	13.294587
2112.000000	13.238681
2113.000000	13.196122
2114.000000	13.202467
2115.000000	13.294822
2116.000000	13.292293
2117.000000	13.309437
2118.000000	13.326227
2119.000000	13.253807
2120.000000	13.239597
2121.000000	13.183918
2122.000000	13.176932
2123.000000	13.227173
2124.000000	13.204868
2125.000000	13.150320
2126.000000	13.175378
2127.000000	13.087928
2128.000000	13.072185
2129.000000	13.099023
2130.000000	13.190001
2131.000000	13.006879
2132.000000	12.946431
2133.000000	12.873308
2134.000000	12.877615
2135.000000	12.798383
2136.000000	12.671435
2137.000000	12.729232
2138.000000	12.762677
2139.000000	12.757213
2140.000000	12.502758
2141.000000	12.488113
2142.000000	12.395455
2143.000000	12.428948
2144.000000	12.388990
2145.000000	12.195523
2146.000000	12.155395
2147.000000	11.979980
2148.000000	12.006607
2149.000000	11.983629
2150.000000	11.853593
2151.000000	11.860289
2152.000000	11.740959
2153.000000	11.760511
2154.000000	11.711107
2155.000000	11.529417
2156.000000	11.510070
2157.000000	11.454808
2158.000000	11.229078
2159.000000	11.223117
2160.000000	11.219099
2161.000000	11.147034
2162.000000	11.163733
2163.000000	11.354599
2164.000000	11.229674
2165.000000	11.092716
2166.000000	10.901738
2167.000000	10.983825
2168.000000	10.992332
2169.000000	10.957123
2170.000000	10.967185
2171.000000	10.882437
2172.000000	10.795610
2173.000000	10.853762
2174.000000	10.945509
2175.000000	10.997659
2176.000000	10.989030
2177.000000	10.970958
2178.000000	10.888142
2179.000000	10.914315
2180.000000	10.841966
2181.000000	10.802731
2182.000000	10.745951
2183.000000	10.890036
2184.000000	10.830561
2185.000000	10.860624
2186.000000	10.987288
2187.000000	11.037357
2188.000000	10.974709
2189.000000	11.029353
2190.000000	11.019495
2191.000000	10.999271
2192.000000	11.047764
2193.000000	11.052749
2194.000000	10.990771
2195.000000	11.182822
2196.000000	11.131692
2197.000000	11.222119
2198.000000	11.196987
2199.000000	11.500022
2200.000000	11.463418
2201.000000	11.456658
2202.000000	11.483725
2203.000000	11.447143
2204.000000	11.399772
2205.000000	11.466009
2206.000000	11.520831
2207.000000	11.361395
2208.000000	11.516080
2209.000000	11.626694
2210.000000	11.550985
2211.000000	11.781885
2212.000000	11.629830
2213.000000	11.837368
2214.000000	11.762148
2215.000000	11.918232
2216.000000	11.920280
2217.000000	11.892095
2218.000000	11.752029
2219.000000	11.763728
2220.000000	11.816883
2221.000000	11.770012
2222.000000	11.872175
2223.000000	11.965419
2224.000000	12.066402
2225.000000	12.013433
2226.000000	12.207055
2227.000000	12.267849
2228.000000	12.230754
2229.000000	12.223230
2230.000000	12.233866
2231.000000	12.217706
2232.000000	12.183847
2233.000000	12.183279
2234.000000	12.155363
2235.000000	12.275255
2236.000000	12.295992
2237.000000	12.279396
2238.000000	12.343308
2239.000000	12.380126
2240.000000	12.271564
2241.000000	12.140421
2242.000000	12.221879
2243.000000	12.100603
2244.000000	11.957075
2245.000000	11.857470
2246.000000	11.759708
2247.000000	11.621013
2248.000000	11.725951
2249.000000	11.691830
2250.000000	11.543401
2251.000000	11.482200
2252.000000	11.417026
2253.000000	11.314292
2254.000000	11.165416
2255.000000	11.247815
2256.000000	11.114020
2257.000000	11.027727
2258.000000	10.836122
2259.000000	10.780473
2260.000000	10.802674
2261.000000	10.782589
2262.000000	10.539180
2263.000000	10.659579
2264.000000	10.656385
2265.000000	10.574034
2266.000000	10.431103
2267.000000	10.286390
2268.000000	10.300346
2269.000000	10.370980
2270.000000	10.256291
2271.000000	10.224025
2272.000000	10.305707
2273.000000	10.179543
2274.000000	10.175874
2275.000000	10.161895
2276.000000	10.352261
2277.000000	10.167011
2278.000000	10.073938
2279.000000	9.992650
2280.000000	10.004978
2281.000000	10.028484
2282.000000	10.117675
2283.000000	9.956894
2284.000000	9.972977
2285.000000	10.031831
2286.000000	9.905419
2287.000000	9.995211
2288.000000	9.977137
2289.000000	9.942229
2290.000000	9.979320
2291.000000	9.991935
2292.000000	9.935911
2293.000000	10.004083
2294.000000	9.904063
2295.000000	9.819831
2296.000000	9.842488
2297.000000	9.916450
2298.000000	10.036248
2299.000000	9.945469
2300.000000	9.975562
2301.000000	9.929526
2302.000000	9.894765
2303.000000	9.962282
2304.000000	9.865986
2305.000000	9.950713
2306.000000	9.896704
2307.000000	9.920502
2308.000000	9.975965
2309.000000	9.990370
2310.000000	9.933764
2311.000000	9.899281
2312.000000	10.086753
2313.000000	10.279443
2314.000000	10.297044
2315.000000	10.326647
2316.000000	10.322214
2317.000000	10.338925
2318.000000	10.389415
2319.000000	10.348737
2320.000000	10.293762
2321.000000	10.290102
2322.000000	10.497420
2323.000000	10.558066
2324.000000	10.586462
2325.000000	10.639202
2326.000000	10.541012
2327.000000	10.466577
2328.000000	10.471125
2329.000000	10.497611
2330.000000	10.546904
2331.000000	10.534864
2332.000000	10.429402
2333.000000	10.494832
2334.000000	10.411095
2335.000000	10.381576
2336.000000	10.586716
2337.000000	10.715256
2338.000000	10.589519
2339.000000	10.590231
2340.000000	10.621175
2341.000000	10.600553
2342.000000	10.737230
2343.000000	10.890753
2344.000000	10.880168
2345.000000	10.690207
2346.000000	10.709733
2347.000000	10.597625
2348.000000	10.596214
2349.000000	10.922693
2350.000000	10.884624
2351.000000	10.682066
2352.000000	10.984856
2353.000000	11.142357
2354.000000	11.148002
2355.000000	11.104199
2356.000000	11.201527
2357.000000	11.318529
2358.000000	11.192115
2359.000000	11.279888
2360.000000	11.253107
2361.000000	11.199769
2362.000000	11.221071
2363.000000	11.417687
2364.000000	11.325282
2365.000000	11.228926
2366.000000	11.253748
2367.000000	11.461948
2368.000000	11.562674
2369.000000	11.601768
2370.000000	11.647910
2371.000000	11.468767
2372.000000	11.545153
2373.000000	11.488817
2374.000000	11.372936
2375.000000	11.393190
2376.000000	11.809793
2377.000000	11.706211
2378.000000	11.507431
2379.000000	11.529656
2380.000000	11.603433
2381.000000	12.000638
2382.000000	11.923164
2383.000000	11.745519
2384.000000	11.724127
2385.000000	11.860386
2386.000000	11.788796
2387.000000	11.764680
2388.000000	11.748431
2389.000000	12.033629
2390.000000	11.715014
2391.000000	11.945483
2392.000000	11.895784
2393.000000	12.018947
2394.000000	12.041560
2395.000000	12.037857
2396.000000	12.039910
2397.000000	12.039247
2398.000000	12.116617
2399.000000	12.199076
2400.000000	11.883067
2401.000000	11.619835
2402.000000	12.036336
2403.000000	12.012953
2404.000000	11.905279
2405.000000	12.135955
2406.000000	12.069180
2407.000000	12.319195
2408.000000	12.313351
2409.000000	12.084232
2410.000000	12.114719
2411.000000	12.138629
2412.000000	12.109042
2413.000000	11.762236
2414.000000	12.004932
2415.000000	12.098530
2416.000000	12.009483
2417.000000	12.105305
2418.000000	12.032835
2419.000000	12.014918
2420.000000	12.446863
2421.000000	12.701917
2422.000000	12.314426
2423.000000	11.776583
2424.000000	11.884454
2425.000000	12.139906
2426.000000	12.195082
2427.000000	11.810600
2428.000000	11.607151
2429.000000	11.679669
2430.000000	11.939506
2431.000000	11.767240
2432.000000	12.363231
2433.000000	12.495288
2434.000000	12.385793
2435.000000	12.611054
2436.000000	12.517931
2437.000000	12.070584
2438.000000	11.932493
2439.000000	12.111888
2440.000000	12.261306
2441.000000	12.308564
2442.000000	11.958726
2443.000000	12.269155
2444.000000	11.544917
2445.000000	11.891238
2446.000000	12.812648
2447.000000	12.037815
2448.000000	12.069109
2449.000000	12.587202
2450.000000	13.025249
2451.000000	13.497222
2452.000000	11.883702
2453.000000	12.086364
2454.000000	12.651056
2455.000000	12.023389
2456.000000	12.353888
2457.000000	12.495959
2458.000000	12.764302
2459.000000	12.303553
2460.000000	13.073618
2461.000000	13.894551
2462.000000	12.767193
2463.000000	13.790848
2464.000000	14.461708
2465.000000	13.802759
2466.000000	13.923925
2467.000000	14.009764
2468.000000	13.756336
2469.000000	14.290242
2470.000000	13.338936
2471.000000	13.843468
2472.000000	15.333005
2473.000000	14.599470
2474.000000	15.375288
2475.000000	16.321861
2476.000000	16.409290
2477.000000	16.199274
2478.000000	16.674983
2479.000000	16.947806
2480.000000	16.781532
2481.000000	15.670936
2482.000000	16.975306
2483.000000	16.419417
2484.000000	17.680728
2485.000000	16.980838
2486.000000	19.423351
2487.000000	19.377746
2488.000000	20.148790
2489.000000	21.101852
2490.000000	18.573255
2491.000000	21.208149
2492.000000	22.535887
2493.000000	21.629537
2494.000000	19.713209
2495.000000	20.351915
2496.000000	21.284628
2497.000000	21.169133
2498.000000	22.225889
2499.000000	23.025388
2500.000000	22.227502
2501.000000	nan
2502.000000	nan
2503.000000	nan
2504.000000	nan
2505.000000	nan
2506.000000	nan
2507.000000	nan
2508.000000	nan
2509.000000	nan
2510.000000	nan
2511.000000	nan
2512.000000	nan
2513.000000	nan
2514.000000	nan
2515.000000	nan
2516.000000	nan
2517.000000	nan
2518.000000	nan
2519.000000	nan
2520.000000	nan
2521.000000	nan
2522.000000	nan
2523.000000	nan
2524.000000	nan
2525.000000	nan
2526.000000	nan
2527.000000	nan
2528.000000	nan
2529.000000	nan
2530.000000	nan
2531.000000	nan
2532.000000	nan
2533.000000	nan
2534.000000	nan
2535.000000	nan
2536.000000	nan
2537.000000	nan
2538.000000	nan
2539.000000	nan
2540.000000	nan
2541.000000	nan
2542.000000	nan
2543.000000	nan
2544.000000	nan
2545.000000	nan
2546.000000	nan
2547.000000	nan
2548.000000	nan
2549.000000	nan
2550.000000	nan
2551.000000	nan
2552.000000	nan
2553.000000	nan
2554.000000	nan
2555.000000	nan
2556.000000	nan
2557.000000	nan
2558.000000	nan
2559.000000	nan
2560.000000	nan
2561.000000	nan
2562.000000	nan
2563.000000	nan
2564.000000	nan
2565.000000	nan
2566.000000	nan
2567.000000	nan
2568.000000	nan
2569.000000	nan
2570.000000	nan
2571.000000	nan
2572.000000	nan
2573.000000	nan
2574.000000	nan
2575.000000	nan
2576.000000	nan
2577.000000	nan
2578.000000	nan
2579.000000	nan
2580.000000	nan
2581.000000	nan
2582.000000	nan
2583.000000	nan
2584.000000	nan
2585.000000	nan
2586.000000	nan
2587.000000	nan
2588.000000	nan
2589.000000	nan
2590.000000	nan
2591.000000	nan
2592.000000	nan
2593.000000	nan
2594.000000	nan
2595.000000	nan
2596.000000	nan
2597.000000	nan
2598.000000	nan
2599.000000	nan
2600.000000	nan
2601.000000	nan
2602.000000	nan
2603.000000	nan
2604.000000	nan
2605.000000	nan
2606.000000	nan
2607.000000	nan
2608.000000	nan
2609.000000	nan
2610.000000	nan
2611.000000	nan
2612.000000	nan
2613.000000	nan
2614.000000	nan
2615.000000	nan
2616.000000	nan
2617.000000	nan
2618.000000	nan
2619.000000	nan
2620.000000	nan
2621.000000	nan
2622.000000	nan
2623.000000	nan
2624.000000	nan
2625.000000	nan
2626.000000	nan
2627.000000	nan
2628.000000	nan
2629.000000	nan
2630.000000	nan
2631.000000	nan
2632.000000	nan
2633.000000	nan
2634.000000	nan
2635.000000	nan
2636.000000	nan
2637.000000	nan
2638.000000	nan
2639.000000	nan
2640.000000	nan
2641.000000	nan
2642.000000	nan
2643.000000	nan
2644.000000	nan
2645.000000	nan
2646.000000	nan
2647.000000	nan
2648.000000	nan
2649.000000	nan
2650.000000	nan
2651.000000	nan
2652.000000	nan
2653.000000	nan
2654.000000	nan
2655.000000	nan
2656.000000	nan
2657.000000	nan
2658.000000	nan
2659.000000	nan
2660.000000	nan
2661.000000	nan
2662.000000	nan
2663.000000	nan
2664.000000	nan
2665.000000	nan
2666.000000	nan
2667.000000	nan
2668.000000	nan
2669.000000	nan
2670.000000	nan
2671.000000	nan
2672.000000	nan
2673.000000	nan
2674.000000	nan
2675.000000	nan
2676.000000	nan
2677.000000	nan
2678.000000	nan
2679.000000	nan
2680.000000	nan
2681.000000	nan
2682.000000	nan
2683.000000	nan
2684.000000	nan
2685.000000	nan
2686.000000	nan
2687.000000	nan
2688.000000	nan
2689.000000	nan
2690.000000	nan
2691.000000	nan
2692.000000	nan
2693.000000	nan
2694.000000	nan
2695.000000	nan
2696.000000	nan
2697.000000	nan
2698.000000	nan
2699.000000	nan
2700.000000	nan
2701.000000	nan
2702.000000	nan
2703.000000	nan
2704.000000	nan
2705.000000	nan
2706.000000	nan
2707.000000	nan
2708.000000	nan
2709.000000	nan
2710.000000	nan
2711.000000	nan
2712.000000	nan
2713.000000	nan
2714.000000	nan
2715.000000	nan
2716.000000	nan
2717.000000	nan
2718.000000	nan
2719.000000	nan
2720.000000	nan
2721.000000	nan
2722.000000	nan
2723.000000	nan
2724.000000	nan
2725.000000	nan
2726.000000	nan
2727.000000	nan
2728.000000	nan
2729.000000	nan
2730.000000	nan
2731.000000	nan
2732.000000	nan
2733.000000	nan
2734.000000	nan
2735.000000	nan
2736.000000	nan
2737.000000	nan
2738.000000	nan
2739.000000	nan
2740.000000	nan
2741.000000	nan
2742.000000	nan
2743.000000	nan
2744.000000	nan
2745.000000	nan
2746.000000	nan
2747.000000	nan
2748.000000	nan
2749.000000	nan
2750.000000	nan
2751.000000	nan
2752.000000	nan
2753.000000	nan
2754.000000	nan
2755.000000	nan
2756.000000	nan
2757.000000	nan
2758.000000	nan
2759.000000	nan
2760.000000	nan
2761.000000	nan
2762.000000	nan
2763.000000	nan
2764.000000	nan
2765.000000	nan
2766.000000	nan
2767.000000	nan
2768.000000	nan
2769.000000	nan
2770.000000	nan
2771.000000	nan
2772.000000	nan
2773.000000	nan
2774.000000	nan
2775.000000	nan
2776.000000	nan
2777.000000	nan
2778.000000	nan
2779.000000	nan
2780.000000	nan
2781.000000	nan
2782.000000	nan
2783.000000	nan
2784.000000	nan
2785.000000	nan
2786.000000	nan
2787.000000	nan
2788.000000	nan
2789.000000	nan
2790.000000	nan
2791.000000	nan
2792.000000	nan
2793.000000	nan
2794.000000	nan
2795.000000	nan
2796.000000	nan
2797.000000	nan
2798.000000	nan
2799.000000	nan
2800.000000	nan
2801.000000	nan
2802.000000	nan
2803.000000	nan
2804.000000	nan
2805.000000	nan
2806.000000	nan
2807.000000	nan
2808.000000	nan
2809.000000	nan
2810.000000	nan
2811.000000	nan
2812.000000	nan
2813.000000	nan
2814.000000	nan
2815.000000	nan
2816.000000	nan
2817.000000	nan
2818.000000	nan
2819.000000	nan
2820.000000	nan
2821.000000	nan
2822.000000	nan
2823.000000	nan
2824.000000	nan
2825.000000	nan
2826.000000	nan
2827.000000	nan
2828.000000	nan
2829.000000	nan
2830.000000	nan
2831.000000	nan
2832.000000	nan
2833.000000	nan
2834.000000	nan
2835.000000	nan
2836.000000	nan
2837.000000	nan
2838.000000	nan
2839.000000	nan
2840.000000	nan
2841.000000	nan
2842.000000	nan
2843.000000	nan
2844.000000	nan
2845.000000	nan
2846.000000	nan
2847.000000	nan
2848.000000	nan
2849.000000	nan
2850.000000	nan
2851.000000	nan
2852.000000	nan
2853.000000	nan
2854.000000	nan
2855.000000	nan
2856.000000	nan
2857.000000	nan
2858.000000	nan
2859.000000	nan
2860.000000	nan
2861.000000	nan
2862.000000	nan
2863.000000	nan
2864.000000	nan
2865.000000	nan
2866.000000	nan
2867.000000	nan
2868.000000	nan
2869.000000	nan
2870.000000	nan
2871.000000	nan
2872.000000	nan
2873.000000	nan
2874.000000	nan
2875.000000	nan
2876.000000	nan
2877.000000	nan
2878.000000	nan
2879.000000	nan
2880.000000	nan
2881.000000	nan
2882.000000	nan
2883.000000	nan
2884.000000	nan
2885.000000	nan
2886.000000	nan
2887.000000	nan
2888.000000	nan
2889.000000	nan
2890.000000	nan
2891.000000	nan
2892.000000	nan
2893.000000	nan
2894.000000	nan
2895.000000	nan
2896.000000	nan
2897.000000	nan
2898.000000	nan
2899.000000	nan
2900.000000	nan
2901.000000	nan
2902.000000	nan
2903.000000	nan
2904.000000	nan
2905.000000	nan
2906.000000	nan
2907.000000	nan
2908.000000	nan
2909.000000	nan
2910.000000	nan
2911.000000	nan
2912.000000	nan
2913.000000	nan
2914.000000	nan
2915.000000	nan
2916.000000	nan
2917.000000	nan
2918.000000	nan
2919.000000	nan
2920.000000	nan
2921.000000	nan
2922.000000	nan
2923.000000	nan
2924.000000	nan
2925.000000	nan
2926.000000	nan
2927.000000	nan
2928.000000	nan
2929.000000	nan
2930.000000	nan
2931.000000	nan
2932.000000	nan
2933.000000	nan
2934.000000	nan
2935.000000	nan
2936.000000	nan
2937.000000	nan
2938.000000	nan
2939.000000	nan
2940.000000	nan
2941.000000	nan
2942.000000	nan
2943.000000	nan
2944.000000	nan
2945.000000	nan
2946.000000	nan
2947.000000	nan
2948.000000	nan
2949.000000	nan
2950.000000	nan
2951.000000	nan
2952.000000	nan
2953.000000	nan
2954.000000	nan
2955.000000	nan
2956.000000	nan
2957.000000	nan
2958.000000	nan
2959.000000	nan
2960.000000	nan
2961.000000	nan
2962.000000	nan
2963.000000	nan
2964.000000	nan
2965.000000	nan
2966.000000	nan
2967.000000	nan
2968.000000	nan
2969.000000	nan
2970.000000	nan
2971.000000	nan
2972.000000	nan
2973.000000	nan
2974.000000	nan
2975.000000	nan
2976.000000	nan
2977.000000	nan
2978.000000	nan
2979.000000	nan
2980.000000	nan
2981.000000	nan
2982.000000	nan
2983.000000	nan
2984.000000	nan
2985.000000	nan
2986.000000	nan
2987.000000	nan
2988.000000	nan
2989.000000	nan
2990.000000	nan
2991.000000	nan
2992.000000	nan
2993.000000	nan
2994.000000	nan
2995.000000	nan
2996.000000	nan
2997.000000	nan
2998.000000	nan
2999.000000	nan
3000.000000	nan
