PE UV       SUBTECH     SPECTRUM    ASCII       PEDS        4.00        
   -1
INBUCR0221-4.Sample.ASC
24/02/08
10:06:51.00
24/02/08
10:06:51.00
Vinicio Soto Monge
Chrysina chrysopedila. INB0004085457 INBIOCRI Costa Rica. Élitro Izq falta. La Catarata, P. N. Tapantí. Prov Cartago COSTA RICA 1700 m. Ago 1994 G. Mora. L. N. 190900_560300 #3183
250,000000
1
Lambda 1050
1050L1511233
PerkinElmer UV WinLab 6.3.2.0749 / 2.02.05 Lambda 900 UV/VIS/NIR, Aug  7 2015 09:38:08

0
0
3350/servo 860,8/2
0
0
UV/VIS
1
1
1
DoubleDePol,CommonBeamDepol,RBeamAtt,SBeamAtt,60mm sphere, WB InGaAs Detector
0
0
0
0
Program
Program
3350/servo 860,8/2
3350/0,2 860,8/0,2
3350/0,2 860,8/0,2
0
15.00
 
 
 
0
 
860,8
319,2
860,8
Front
100
on
S:100 R:100
0
0
0
0
 
0
 
 
 
0
 
 
0
0
0
0
0
 
 
 
 
0
0


0
0
#HDR
-1
-1
#GR
nm
%R
1.0
0.0
2500,000000
-1,000000
2251
8
16,383500
1,343400
#DATA

250.000000	3.099814
251.000000	3.100491
252.000000	3.103375
253.000000	3.098484
254.000000	3.065241
255.000000	3.071658
256.000000	3.051940
257.000000	3.026429
258.000000	3.039022
259.000000	3.004850
260.000000	2.982928
261.000000	2.974973
262.000000	2.957275
263.000000	2.924877
264.000000	2.938395
265.000000	2.919179
266.000000	2.912143
267.000000	2.903299
268.000000	2.892193
269.000000	2.873166
270.000000	2.856155
271.000000	2.845946
272.000000	2.847622
273.000000	2.855898
274.000000	2.830374
275.000000	2.853198
276.000000	2.833520
277.000000	2.813244
278.000000	2.804045
279.000000	2.785099
280.000000	2.777429
281.000000	2.776436
282.000000	2.787525
283.000000	2.789687
284.000000	2.797708
285.000000	2.764390
286.000000	2.766799
287.000000	2.766816
288.000000	2.787424
289.000000	2.780323
290.000000	2.774692
291.000000	2.774779
292.000000	2.767947
293.000000	2.767827
294.000000	2.765404
295.000000	2.768283
296.000000	2.771945
297.000000	2.757668
298.000000	2.765760
299.000000	2.767300
300.000000	2.746793
301.000000	2.757250
302.000000	2.744988
303.000000	2.721590
304.000000	2.747062
305.000000	2.744705
306.000000	2.716960
307.000000	2.718603
308.000000	2.741748
309.000000	2.709782
310.000000	2.761141
311.000000	2.754454
312.000000	2.744538
313.000000	2.714126
314.000000	2.720860
315.000000	2.704952
316.000000	2.703337
317.000000	2.673935
318.000000	2.772763
319.000000	2.677409
320.000000	2.745869
321.000000	2.681892
322.000000	2.715528
323.000000	2.788513
324.000000	2.798333
325.000000	2.752162
326.000000	2.667860
327.000000	2.724928
328.000000	2.724782
329.000000	2.731313
330.000000	2.726189
331.000000	2.720737
332.000000	2.741561
333.000000	2.713978
334.000000	2.770021
335.000000	2.779078
336.000000	2.780610
337.000000	2.737056
338.000000	2.704774
339.000000	2.806102
340.000000	2.816802
341.000000	2.811547
342.000000	2.807475
343.000000	2.817245
344.000000	2.782810
345.000000	2.778216
346.000000	2.849882
347.000000	2.870917
348.000000	2.854924
349.000000	2.881019
350.000000	2.891697
351.000000	2.934449
352.000000	2.958286
353.000000	2.973697
354.000000	3.009943
355.000000	3.005067
356.000000	3.051230
357.000000	3.073405
358.000000	3.102233
359.000000	3.174334
360.000000	3.189796
361.000000	3.238030
362.000000	3.282004
363.000000	3.325408
364.000000	3.359849
365.000000	3.390342
366.000000	3.445598
367.000000	3.526459
368.000000	3.563118
369.000000	3.599429
370.000000	3.676334
371.000000	3.737194
372.000000	3.797332
373.000000	3.886304
374.000000	3.951252
375.000000	4.086393
376.000000	4.173769
377.000000	4.320646
378.000000	4.402799
379.000000	4.501736
380.000000	4.598659
381.000000	4.687271
382.000000	4.784354
383.000000	4.880411
384.000000	4.980018
385.000000	5.082041
386.000000	5.178214
387.000000	5.267549
388.000000	5.374609
389.000000	5.471782
390.000000	5.569175
391.000000	5.670891
392.000000	5.772016
393.000000	5.872709
394.000000	5.975104
395.000000	6.066934
396.000000	6.154075
397.000000	6.245792
398.000000	6.333763
399.000000	6.422908
400.000000	6.500388
401.000000	6.583489
402.000000	6.663409
403.000000	6.737119
404.000000	6.818435
405.000000	6.893667
406.000000	6.954347
407.000000	7.015774
408.000000	7.074305
409.000000	7.133672
410.000000	7.180880
411.000000	7.224446
412.000000	7.266697
413.000000	7.306978
414.000000	7.340903
415.000000	7.379952
416.000000	7.413765
417.000000	7.439937
418.000000	7.458140
419.000000	7.469835
420.000000	7.489385
421.000000	7.509467
422.000000	7.524940
423.000000	7.532110
424.000000	7.526719
425.000000	7.521531
426.000000	7.523945
427.000000	7.518815
428.000000	7.508667
429.000000	7.499885
430.000000	7.485870
431.000000	7.469882
432.000000	7.450833
433.000000	7.427329
434.000000	7.401585
435.000000	7.378636
436.000000	7.350850
437.000000	7.319956
438.000000	7.284292
439.000000	7.247540
440.000000	7.213850
441.000000	7.169776
442.000000	7.125698
443.000000	7.086322
444.000000	7.045377
445.000000	6.992171
446.000000	6.936900
447.000000	6.888027
448.000000	6.836526
449.000000	6.791997
450.000000	6.743132
451.000000	6.691657
452.000000	6.650959
453.000000	6.609092
454.000000	6.567167
455.000000	6.521386
456.000000	6.480004
457.000000	6.443419
458.000000	6.407113
459.000000	6.374047
460.000000	6.343131
461.000000	6.324637
462.000000	6.305789
463.000000	6.290101
464.000000	6.282137
465.000000	6.278033
466.000000	6.275869
467.000000	6.284221
468.000000	6.289454
469.000000	6.306886
470.000000	6.331543
471.000000	6.362169
472.000000	6.396857
473.000000	6.434662
474.000000	6.479091
475.000000	6.526993
476.000000	6.583551
477.000000	6.639408
478.000000	6.704202
479.000000	6.774687
480.000000	6.846932
481.000000	6.926649
482.000000	7.010330
483.000000	7.086142
484.000000	7.153934
485.000000	7.222384
486.000000	7.291652
487.000000	7.364050
488.000000	7.439383
489.000000	7.513562
490.000000	7.593838
491.000000	7.675026
492.000000	7.769108
493.000000	7.868650
494.000000	7.975788
495.000000	8.087451
496.000000	8.205578
497.000000	8.339703
498.000000	8.481485
499.000000	8.637877
500.000000	8.797003
501.000000	8.967453
502.000000	9.144900
503.000000	9.335284
504.000000	9.527939
505.000000	9.723530
506.000000	9.927726
507.000000	10.129033
508.000000	10.351205
509.000000	10.575572
510.000000	10.800924
511.000000	11.045909
512.000000	11.289224
513.000000	11.539987
514.000000	11.794703
515.000000	12.045920
516.000000	12.300872
517.000000	12.552616
518.000000	12.801408
519.000000	13.050241
520.000000	13.307130
521.000000	13.566496
522.000000	13.831362
523.000000	14.089977
524.000000	14.360343
525.000000	14.620623
526.000000	14.867865
527.000000	15.093274
528.000000	15.296846
529.000000	15.483598
530.000000	15.641694
531.000000	15.786367
532.000000	15.896463
533.000000	15.988580
534.000000	16.076441
535.000000	16.148487
536.000000	16.209226
537.000000	16.270471
538.000000	16.328641
539.000000	16.390711
540.000000	16.436461
541.000000	16.509025
542.000000	16.576801
543.000000	16.639408
544.000000	16.707897
545.000000	16.787367
546.000000	16.853496
547.000000	16.927071
548.000000	16.970265
549.000000	17.027776
550.000000	17.075646
551.000000	17.109014
552.000000	17.141636
553.000000	17.157437
554.000000	17.156930
555.000000	17.149917
556.000000	17.128490
557.000000	17.099686
558.000000	17.054858
559.000000	16.999887
560.000000	17.080772
561.000000	17.028231
562.000000	16.952033
563.000000	16.870158
564.000000	16.791301
565.000000	16.697404
566.000000	16.592721
567.000000	16.493497
568.000000	16.378295
569.000000	16.252302
570.000000	16.113362
571.000000	15.974482
572.000000	15.828771
573.000000	15.674348
574.000000	15.515336
575.000000	15.337067
576.000000	15.145122
577.000000	14.953806
578.000000	14.739601
579.000000	14.520640
580.000000	14.312541
581.000000	14.085366
582.000000	13.856225
583.000000	13.614639
584.000000	13.387524
585.000000	13.131965
586.000000	12.880803
587.000000	12.639087
588.000000	12.405231
589.000000	12.178048
590.000000	11.968333
591.000000	11.784335
592.000000	11.607589
593.000000	11.449783
594.000000	11.306822
595.000000	11.176276
596.000000	11.043834
597.000000	10.899301
598.000000	10.765322
599.000000	10.620454
600.000000	10.466533
601.000000	10.324879
602.000000	10.175194
603.000000	10.040095
604.000000	9.924772
605.000000	9.810619
606.000000	9.721852
607.000000	9.653035
608.000000	9.585099
609.000000	9.519462
610.000000	9.468801
611.000000	9.416005
612.000000	9.356814
613.000000	9.310411
614.000000	9.246650
615.000000	9.191759
616.000000	9.145481
617.000000	9.096582
618.000000	9.058294
619.000000	9.037412
620.000000	9.028733
621.000000	9.038707
622.000000	9.056271
623.000000	9.081656
624.000000	9.109673
625.000000	9.160685
626.000000	9.205554
627.000000	9.240424
628.000000	9.299451
629.000000	9.353681
630.000000	9.397012
631.000000	9.443270
632.000000	9.498079
633.000000	9.555178
634.000000	9.616572
635.000000	9.691462
636.000000	9.757174
637.000000	9.845693
638.000000	9.937418
639.000000	10.023563
640.000000	10.125988
641.000000	10.231906
642.000000	10.339500
643.000000	10.442448
644.000000	10.546589
645.000000	10.651577
646.000000	10.757346
647.000000	10.859934
648.000000	10.951988
649.000000	11.040130
650.000000	11.143824
651.000000	11.236345
652.000000	11.338511
653.000000	11.439691
654.000000	11.538980
655.000000	11.644776
656.000000	11.764533
657.000000	11.884928
658.000000	12.001626
659.000000	12.138602
660.000000	12.272773
661.000000	12.391932
662.000000	12.534657
663.000000	12.678675
664.000000	12.821932
665.000000	12.949695
666.000000	13.081206
667.000000	13.219926
668.000000	13.348239
669.000000	13.479618
670.000000	13.623749
671.000000	13.760838
672.000000	13.902992
673.000000	14.051965
674.000000	14.181776
675.000000	14.317737
676.000000	14.470317
677.000000	14.622030
678.000000	14.774336
679.000000	14.936371
680.000000	15.089094
681.000000	15.265699
682.000000	15.430344
683.000000	15.594816
684.000000	15.759163
685.000000	15.933243
686.000000	16.112679
687.000000	16.295333
688.000000	16.480879
689.000000	16.659365
690.000000	16.842797
691.000000	17.034183
692.000000	17.212792
693.000000	17.412705
694.000000	17.602304
695.000000	17.774613
696.000000	17.969476
697.000000	18.162445
698.000000	18.360197
699.000000	18.545416
700.000000	18.743457
701.000000	18.952870
702.000000	19.166008
703.000000	19.368775
704.000000	19.583903
705.000000	19.803559
706.000000	20.013483
707.000000	20.235138
708.000000	20.451927
709.000000	20.674779
710.000000	20.903401
711.000000	21.126061
712.000000	21.346299
713.000000	21.563683
714.000000	21.791343
715.000000	22.012151
716.000000	22.220018
717.000000	22.420533
718.000000	22.625351
719.000000	22.846480
720.000000	23.050799
721.000000	23.259439
722.000000	23.494641
723.000000	23.695400
724.000000	23.895697
725.000000	24.105772
726.000000	24.334282
727.000000	24.537150
728.000000	24.722087
729.000000	24.928993
730.000000	25.118319
731.000000	25.310234
732.000000	25.513333
733.000000	25.709604
734.000000	25.882461
735.000000	26.057604
736.000000	26.211749
737.000000	26.374572
738.000000	26.550308
739.000000	26.709009
740.000000	26.869309
741.000000	27.013432
742.000000	27.160749
743.000000	27.341881
744.000000	27.488623
745.000000	27.621353
746.000000	27.735227
747.000000	27.850366
748.000000	27.961003
749.000000	28.106947
750.000000	28.241443
751.000000	28.352553
752.000000	28.472617
753.000000	28.573409
754.000000	28.700611
755.000000	28.809600
756.000000	28.882178
757.000000	28.964748
758.000000	29.080750
759.000000	29.183877
760.000000	29.269658
761.000000	29.405035
762.000000	29.502079
763.000000	29.581238
764.000000	29.653991
765.000000	29.737283
766.000000	29.829553
767.000000	29.883929
768.000000	29.986408
769.000000	30.089200
770.000000	30.127166
771.000000	30.187039
772.000000	30.253637
773.000000	30.342872
774.000000	30.427189
775.000000	30.504048
776.000000	30.559768
777.000000	30.634487
778.000000	30.697184
779.000000	30.770358
780.000000	30.833828
781.000000	30.908820
782.000000	30.962316
783.000000	31.027234
784.000000	31.091312
785.000000	31.164298
786.000000	31.243284
787.000000	31.283555
788.000000	31.317623
789.000000	31.377924
790.000000	31.422549
791.000000	31.473167
792.000000	31.528777
793.000000	31.572334
794.000000	31.622617
795.000000	31.690959
796.000000	31.697434
797.000000	31.728928
798.000000	31.765950
799.000000	31.830702
800.000000	31.849713
801.000000	31.895646
802.000000	31.951107
803.000000	31.999648
804.000000	31.971445
805.000000	31.983214
806.000000	32.011690
807.000000	32.081776
808.000000	32.041964
809.000000	32.023089
810.000000	32.063642
811.000000	32.118550
812.000000	32.092325
813.000000	32.170682
814.000000	32.209513
815.000000	32.186538
816.000000	32.164032
817.000000	32.202127
818.000000	32.242516
819.000000	32.235280
820.000000	32.217476
821.000000	32.206871
822.000000	32.261135
823.000000	32.231874
824.000000	32.227185
825.000000	32.300835
826.000000	32.222288
827.000000	32.228551
828.000000	32.312263
829.000000	32.272186
830.000000	32.238494
831.000000	32.246867
832.000000	32.306267
833.000000	32.225036
834.000000	32.210940
835.000000	32.121537
836.000000	32.157402
837.000000	32.186282
838.000000	32.184034
839.000000	32.091723
840.000000	32.145809
841.000000	32.122271
842.000000	32.224849
843.000000	32.106492
844.000000	32.064849
845.000000	32.052592
846.000000	32.007277
847.000000	32.004933
848.000000	31.937884
849.000000	32.055517
850.000000	31.927401
851.000000	31.734288
852.000000	31.771438
853.000000	31.970422
854.000000	31.660605
855.000000	31.779823
856.000000	31.790694
857.000000	31.515382
858.000000	31.700878
859.000000	32.313595
860.000000	32.063602
861.000000	31.912569
862.000000	31.831107
863.000000	31.744542
864.000000	31.684969
865.000000	31.795439
866.000000	31.679857
867.000000	31.391536
868.000000	31.522895
869.000000	31.265202
870.000000	31.327726
871.000000	31.088667
872.000000	31.497178
873.000000	31.131287
874.000000	30.869997
875.000000	30.882027
876.000000	30.937448
877.000000	30.841702
878.000000	30.963736
879.000000	30.844591
880.000000	30.629953
881.000000	30.607762
882.000000	30.644031
883.000000	30.566250
884.000000	30.547626
885.000000	30.582526
886.000000	30.443320
887.000000	30.356552
888.000000	30.305111
889.000000	30.363640
890.000000	30.226273
891.000000	30.241773
892.000000	30.179355
893.000000	30.084387
894.000000	30.020182
895.000000	30.081448
896.000000	30.071452
897.000000	29.988641
898.000000	29.953713
899.000000	29.877756
900.000000	29.956069
901.000000	29.874635
902.000000	29.855783
903.000000	29.787404
904.000000	29.777953
905.000000	29.780481
906.000000	29.815774
907.000000	29.739638
908.000000	29.669964
909.000000	29.618619
910.000000	29.578902
911.000000	29.581577
912.000000	29.719223
913.000000	29.622660
914.000000	29.553601
915.000000	29.515850
916.000000	29.512928
917.000000	29.478457
918.000000	29.501667
919.000000	29.457293
920.000000	29.479855
921.000000	29.423041
922.000000	29.414477
923.000000	29.440114
924.000000	29.379917
925.000000	29.456522
926.000000	29.385808
927.000000	29.363278
928.000000	29.329151
929.000000	29.325729
930.000000	29.408554
931.000000	29.425667
932.000000	29.389921
933.000000	29.299792
934.000000	29.270076
935.000000	29.304652
936.000000	29.297996
937.000000	29.314978
938.000000	29.282262
939.000000	29.270563
940.000000	29.268576
941.000000	29.292105
942.000000	29.322368
943.000000	29.308453
944.000000	29.271458
945.000000	29.259297
946.000000	29.299272
947.000000	29.305460
948.000000	29.304315
949.000000	29.275775
950.000000	29.263792
951.000000	29.264687
952.000000	29.258865
953.000000	29.265275
954.000000	29.271260
955.000000	29.284581
956.000000	29.279733
957.000000	29.269701
958.000000	29.282745
959.000000	29.280052
960.000000	29.287193
961.000000	29.305430
962.000000	29.295643
963.000000	29.281945
964.000000	29.299895
965.000000	29.314818
966.000000	29.305524
967.000000	29.297698
968.000000	29.278417
969.000000	29.272133
970.000000	29.300957
971.000000	29.323672
972.000000	29.321554
973.000000	29.321504
974.000000	29.323297
975.000000	29.330170
976.000000	29.343660
977.000000	29.357974
978.000000	29.353668
979.000000	29.348518
980.000000	29.347077
981.000000	29.359954
982.000000	29.359603
983.000000	29.364001
984.000000	29.379633
985.000000	29.370574
986.000000	29.369424
987.000000	29.375771
988.000000	29.392658
989.000000	29.408593
990.000000	29.404950
991.000000	29.401495
992.000000	29.408968
993.000000	29.439463
994.000000	29.453357
995.000000	29.459744
996.000000	29.442261
997.000000	29.434330
998.000000	29.463351
999.000000	29.483640
1000.000000	29.477923
1001.000000	29.467589
1002.000000	29.463417
1003.000000	29.482182
1004.000000	29.501822
1005.000000	29.504048
1006.000000	29.510563
1007.000000	29.515645
1008.000000	29.515924
1009.000000	29.530174
1010.000000	29.547155
1011.000000	29.549961
1012.000000	29.560975
1013.000000	29.563419
1014.000000	29.552941
1015.000000	29.573590
1016.000000	29.587724
1017.000000	29.606899
1018.000000	29.612081
1019.000000	29.607534
1020.000000	29.626577
1021.000000	29.641105
1022.000000	29.655241
1023.000000	29.660014
1024.000000	29.671548
1025.000000	29.696842
1026.000000	29.707008
1027.000000	29.708666
1028.000000	29.720901
1029.000000	29.726348
1030.000000	29.736675
1031.000000	29.749604
1032.000000	29.757358
1033.000000	29.774789
1034.000000	29.794397
1035.000000	29.804498
1036.000000	29.800880
1037.000000	29.830476
1038.000000	29.841277
1039.000000	29.842329
1040.000000	29.856399
1041.000000	29.874667
1042.000000	29.876292
1043.000000	29.875764
1044.000000	29.901566
1045.000000	29.916826
1046.000000	29.924992
1047.000000	29.919779
1048.000000	29.931247
1049.000000	29.949787
1050.000000	29.964788
1051.000000	29.971172
1052.000000	29.978860
1053.000000	29.998884
1054.000000	30.016886
1055.000000	30.028956
1056.000000	30.037036
1057.000000	30.035778
1058.000000	30.048126
1059.000000	30.063319
1060.000000	30.070875
1061.000000	30.098372
1062.000000	30.104962
1063.000000	30.116782
1064.000000	30.121579
1065.000000	30.133304
1066.000000	30.133212
1067.000000	30.155368
1068.000000	30.161120
1069.000000	30.175847
1070.000000	30.183614
1071.000000	30.182112
1072.000000	30.208653
1073.000000	30.210695
1074.000000	30.210018
1075.000000	30.221705
1076.000000	30.237691
1077.000000	30.249945
1078.000000	30.248595
1079.000000	30.247035
1080.000000	30.256350
1081.000000	30.268487
1082.000000	30.267041
1083.000000	30.273891
1084.000000	30.284728
1085.000000	30.309395
1086.000000	30.315940
1087.000000	30.317683
1088.000000	30.325319
1089.000000	30.334964
1090.000000	30.351061
1091.000000	30.356878
1092.000000	30.355223
1093.000000	30.365836
1094.000000	30.363534
1095.000000	30.391438
1096.000000	30.392940
1097.000000	30.392869
1098.000000	30.380919
1099.000000	30.378439
1100.000000	30.380023
1101.000000	30.393263
1102.000000	30.390618
1103.000000	30.408451
1104.000000	30.414627
1105.000000	30.431209
1106.000000	30.422617
1107.000000	30.428169
1108.000000	30.424702
1109.000000	30.439215
1110.000000	30.427133
1111.000000	30.435589
1112.000000	30.440828
1113.000000	30.436078
1114.000000	30.421065
1115.000000	30.436516
1116.000000	30.419828
1117.000000	30.415167
1118.000000	30.412206
1119.000000	30.393221
1120.000000	30.380210
1121.000000	30.398535
1122.000000	30.356414
1123.000000	30.351503
1124.000000	30.319899
1125.000000	30.323691
1126.000000	30.286787
1127.000000	30.240402
1128.000000	30.236901
1129.000000	30.207721
1130.000000	30.169163
1131.000000	30.181221
1132.000000	30.182212
1133.000000	30.141413
1134.000000	30.090776
1135.000000	30.054440
1136.000000	30.015786
1137.000000	29.996574
1138.000000	29.984081
1139.000000	29.947730
1140.000000	29.913980
1141.000000	29.902308
1142.000000	29.888117
1143.000000	29.866889
1144.000000	29.851198
1145.000000	29.811904
1146.000000	29.782858
1147.000000	29.778294
1148.000000	29.752151
1149.000000	29.733445
1150.000000	29.698977
1151.000000	29.688068
1152.000000	29.651741
1153.000000	29.613680
1154.000000	29.590081
1155.000000	29.556762
1156.000000	29.530833
1157.000000	29.498485
1158.000000	29.454183
1159.000000	29.429036
1160.000000	29.384959
1161.000000	29.353313
1162.000000	29.324528
1163.000000	29.304070
1164.000000	29.254400
1165.000000	29.216135
1166.000000	29.172407
1167.000000	29.130587
1168.000000	29.096063
1169.000000	29.081338
1170.000000	29.043401
1171.000000	29.021387
1172.000000	29.002537
1173.000000	28.967190
1174.000000	28.934940
1175.000000	28.912924
1176.000000	28.897601
1177.000000	28.867883
1178.000000	28.837114
1179.000000	28.825694
1180.000000	28.822848
1181.000000	28.807750
1182.000000	28.782583
1183.000000	28.794362
1184.000000	28.794673
1185.000000	28.795508
1186.000000	28.789256
1187.000000	28.776043
1188.000000	28.791631
1189.000000	28.789833
1190.000000	28.799792
1191.000000	28.822085
1192.000000	28.830288
1193.000000	28.841933
1194.000000	28.870428
1195.000000	28.889448
1196.000000	28.916024
1197.000000	28.929484
1198.000000	28.941768
1199.000000	28.948841
1200.000000	28.987186
1201.000000	29.008300
1202.000000	29.030252
1203.000000	29.044913
1204.000000	29.050060
1205.000000	29.065115
1206.000000	29.076614
1207.000000	29.099826
1208.000000	29.119236
1209.000000	29.127393
1210.000000	29.141235
1211.000000	29.152858
1212.000000	29.159696
1213.000000	29.177562
1214.000000	29.188053
1215.000000	29.207200
1216.000000	29.231194
1217.000000	29.246783
1218.000000	29.267563
1219.000000	29.277119
1220.000000	29.284300
1221.000000	29.301150
1222.000000	29.324059
1223.000000	29.339158
1224.000000	29.356842
1225.000000	29.370614
1226.000000	29.385143
1227.000000	29.408320
1228.000000	29.428624
1229.000000	29.448947
1230.000000	29.462399
1231.000000	29.477280
1232.000000	29.488761
1233.000000	29.509785
1234.000000	29.537391
1235.000000	29.541402
1236.000000	29.552180
1237.000000	29.572977
1238.000000	29.587775
1239.000000	29.613294
1240.000000	29.621998
1241.000000	29.629655
1242.000000	29.648400
1243.000000	29.673919
1244.000000	29.684908
1245.000000	29.696735
1246.000000	29.689366
1247.000000	29.694081
1248.000000	29.701224
1249.000000	29.722866
1250.000000	29.733123
1251.000000	29.738547
1252.000000	29.737315
1253.000000	29.739783
1254.000000	29.748305
1255.000000	29.751342
1256.000000	29.755097
1257.000000	29.761102
1258.000000	29.761978
1259.000000	29.757203
1260.000000	29.760356
1261.000000	29.770013
1262.000000	29.765524
1263.000000	29.768361
1264.000000	29.780497
1265.000000	29.780016
1266.000000	29.778303
1267.000000	29.789431
1268.000000	29.789909
1269.000000	29.787991
1270.000000	29.798243
1271.000000	29.795050
1272.000000	29.798652
1273.000000	29.803504
1274.000000	29.812842
1275.000000	29.821418
1276.000000	29.822308
1277.000000	29.830637
1278.000000	29.837012
1279.000000	29.841508
1280.000000	29.847177
1281.000000	29.860236
1282.000000	29.868473
1283.000000	29.870255
1284.000000	29.867613
1285.000000	29.876610
1286.000000	29.885231
1287.000000	29.888393
1288.000000	29.898582
1289.000000	29.898703
1290.000000	29.895361
1291.000000	29.892846
1292.000000	29.902873
1293.000000	29.912344
1294.000000	29.909271
1295.000000	29.906107
1296.000000	29.915514
1297.000000	29.913456
1298.000000	29.912802
1299.000000	29.905999
1300.000000	29.890387
1301.000000	29.885554
1302.000000	29.887336
1303.000000	29.889825
1304.000000	29.886810
1305.000000	29.880659
1306.000000	29.870538
1307.000000	29.867582
1308.000000	29.864632
1309.000000	29.860176
1310.000000	29.857682
1311.000000	29.843333
1312.000000	29.831710
1313.000000	29.819487
1314.000000	29.814130
1315.000000	29.814211
1316.000000	29.793432
1317.000000	29.772472
1318.000000	29.760100
1319.000000	29.755067
1320.000000	29.748692
1321.000000	29.730818
1322.000000	29.703244
1323.000000	29.690485
1324.000000	29.684764
1325.000000	29.671309
1326.000000	29.644320
1327.000000	29.606600
1328.000000	29.577914
1329.000000	29.552479
1330.000000	29.530483
1331.000000	29.501980
1332.000000	29.460541
1333.000000	29.430588
1334.000000	29.395692
1335.000000	29.360454
1336.000000	29.319606
1337.000000	29.277528
1338.000000	29.232485
1339.000000	29.195490
1340.000000	29.152839
1341.000000	29.110975
1342.000000	29.064548
1343.000000	29.014347
1344.000000	28.962013
1345.000000	28.930372
1346.000000	28.891481
1347.000000	28.831384
1348.000000	28.764433
1349.000000	28.719290
1350.000000	28.689305
1351.000000	28.634771
1352.000000	28.591297
1353.000000	28.569245
1354.000000	28.504607
1355.000000	28.430081
1356.000000	28.394419
1357.000000	28.378095
1358.000000	28.336488
1359.000000	28.332636
1360.000000	28.288641
1361.000000	28.167942
1362.000000	28.111506
1363.000000	28.113583
1364.000000	28.050008
1365.000000	27.996453
1366.000000	27.995286
1367.000000	27.939157
1368.000000	27.869664
1369.000000	27.846125
1370.000000	27.770793
1371.000000	27.687282
1372.000000	27.622260
1373.000000	27.560112
1374.000000	27.500142
1375.000000	27.409437
1376.000000	27.348581
1377.000000	27.272858
1378.000000	27.258587
1379.000000	27.203131
1380.000000	27.135899
1381.000000	27.000812
1382.000000	26.900834
1383.000000	26.816231
1384.000000	26.757713
1385.000000	26.677865
1386.000000	26.605502
1387.000000	26.493354
1388.000000	26.389259
1389.000000	26.318500
1390.000000	26.271391
1391.000000	26.174957
1392.000000	26.056091
1393.000000	25.973419
1394.000000	25.874998
1395.000000	25.694503
1396.000000	25.555286
1397.000000	25.477379
1398.000000	25.442387
1399.000000	25.303214
1400.000000	25.107418
1401.000000	24.958681
1402.000000	24.894127
1403.000000	24.787215
1404.000000	24.633762
1405.000000	24.502725
1406.000000	24.345644
1407.000000	24.188891
1408.000000	24.067983
1409.000000	23.905028
1410.000000	23.776663
1411.000000	23.650994
1412.000000	23.545135
1413.000000	23.402186
1414.000000	23.256178
1415.000000	23.135318
1416.000000	23.029995
1417.000000	22.925353
1418.000000	22.804601
1419.000000	22.678088
1420.000000	22.577349
1421.000000	22.480503
1422.000000	22.365082
1423.000000	22.278444
1424.000000	22.187263
1425.000000	22.111205
1426.000000	22.019916
1427.000000	21.930130
1428.000000	21.846575
1429.000000	21.778606
1430.000000	21.712282
1431.000000	21.629012
1432.000000	21.571871
1433.000000	21.503922
1434.000000	21.440470
1435.000000	21.392494
1436.000000	21.326064
1437.000000	21.268362
1438.000000	21.211845
1439.000000	21.169560
1440.000000	21.118244
1441.000000	21.081758
1442.000000	21.036093
1443.000000	20.981867
1444.000000	20.949776
1445.000000	20.900852
1446.000000	20.835508
1447.000000	20.802824
1448.000000	20.760450
1449.000000	20.731606
1450.000000	20.689213
1451.000000	20.642184
1452.000000	20.606786
1453.000000	20.559977
1454.000000	20.533103
1455.000000	20.480721
1456.000000	20.436112
1457.000000	20.408349
1458.000000	20.362818
1459.000000	20.329935
1460.000000	20.285012
1461.000000	20.251976
1462.000000	20.215115
1463.000000	20.174893
1464.000000	20.139554
1465.000000	20.116933
1466.000000	20.077524
1467.000000	20.038382
1468.000000	20.017048
1469.000000	19.983450
1470.000000	19.948704
1471.000000	19.915077
1472.000000	19.875531
1473.000000	19.854724
1474.000000	19.834811
1475.000000	19.813591
1476.000000	19.792113
1477.000000	19.773680
1478.000000	19.746398
1479.000000	19.733454
1480.000000	19.709168
1481.000000	19.693017
1482.000000	19.682909
1483.000000	19.657663
1484.000000	19.652586
1485.000000	19.634063
1486.000000	19.636328
1487.000000	19.628254
1488.000000	19.621121
1489.000000	19.607219
1490.000000	19.606068
1491.000000	19.608303
1492.000000	19.616550
1493.000000	19.611342
1494.000000	19.616938
1495.000000	19.616070
1496.000000	19.621672
1497.000000	19.637792
1498.000000	19.651555
1499.000000	19.659816
1500.000000	19.675945
1501.000000	19.697916
1502.000000	19.724346
1503.000000	19.743397
1504.000000	19.761713
1505.000000	19.779124
1506.000000	19.800136
1507.000000	19.831933
1508.000000	19.863481
1509.000000	19.899386
1510.000000	19.918502
1511.000000	19.946292
1512.000000	19.976555
1513.000000	20.007152
1514.000000	20.036987
1515.000000	20.072841
1516.000000	20.111652
1517.000000	20.138878
1518.000000	20.177432
1519.000000	20.209667
1520.000000	20.233458
1521.000000	20.273030
1522.000000	20.302550
1523.000000	20.337435
1524.000000	20.365611
1525.000000	20.388081
1526.000000	20.419074
1527.000000	20.447254
1528.000000	20.476343
1529.000000	20.504919
1530.000000	20.526388
1531.000000	20.552837
1532.000000	20.583878
1533.000000	20.618801
1534.000000	20.643342
1535.000000	20.666851
1536.000000	20.695563
1537.000000	20.715282
1538.000000	20.744330
1539.000000	20.767972
1540.000000	20.788410
1541.000000	20.816010
1542.000000	20.850665
1543.000000	20.879417
1544.000000	20.895783
1545.000000	20.917065
1546.000000	20.949030
1547.000000	20.977678
1548.000000	20.996897
1549.000000	21.018382
1550.000000	21.062242
1551.000000	21.093727
1552.000000	21.107777
1553.000000	21.132027
1554.000000	21.157435
1555.000000	21.178139
1556.000000	21.204167
1557.000000	21.223508
1558.000000	21.228583
1559.000000	21.237374
1560.000000	21.248035
1561.000000	21.266419
1562.000000	21.275792
1563.000000	21.284803
1564.000000	21.283169
1565.000000	21.276076
1566.000000	21.286633
1567.000000	21.286904
1568.000000	21.285989
1569.000000	21.278067
1570.000000	21.272249
1571.000000	21.280115
1572.000000	21.289390
1573.000000	21.306627
1574.000000	21.299235
1575.000000	21.297592
1576.000000	21.307589
1577.000000	21.311170
1578.000000	21.311413
1579.000000	21.318422
1580.000000	21.337595
1581.000000	21.358474
1582.000000	21.367267
1583.000000	21.375155
1584.000000	21.381941
1585.000000	21.397595
1586.000000	21.421321
1587.000000	21.444655
1588.000000	21.470107
1589.000000	21.486783
1590.000000	21.511732
1591.000000	21.530003
1592.000000	21.553703
1593.000000	21.578662
1594.000000	21.601090
1595.000000	21.618876
1596.000000	21.649508
1597.000000	21.684004
1598.000000	21.713794
1599.000000	21.741620
1600.000000	21.771591
1601.000000	21.793719
1602.000000	21.825797
1603.000000	21.860652
1604.000000	21.883220
1605.000000	21.905087
1606.000000	21.929186
1607.000000	21.959873
1608.000000	21.989558
1609.000000	22.008005
1610.000000	22.026420
1611.000000	22.053598
1612.000000	22.078158
1613.000000	22.089978
1614.000000	22.097774
1615.000000	22.112308
1616.000000	22.131901
1617.000000	22.162682
1618.000000	22.163221
1619.000000	22.168346
1620.000000	22.174354
1621.000000	22.191900
1622.000000	22.203170
1623.000000	22.222435
1624.000000	22.223352
1625.000000	22.241632
1626.000000	22.261366
1627.000000	22.253721
1628.000000	22.261906
1629.000000	22.280980
1630.000000	22.287759
1631.000000	22.296031
1632.000000	22.293623
1633.000000	22.292696
1634.000000	22.293633
1635.000000	22.306630
1636.000000	22.311375
1637.000000	22.304484
1638.000000	22.297844
1639.000000	22.286317
1640.000000	22.277967
1641.000000	22.271461
1642.000000	22.240030
1643.000000	22.224861
1644.000000	22.213091
1645.000000	22.196205
1646.000000	22.170739
1647.000000	22.138169
1648.000000	22.096556
1649.000000	22.054703
1650.000000	22.018575
1651.000000	21.972510
1652.000000	21.909293
1653.000000	21.857361
1654.000000	21.792728
1655.000000	21.745483
1656.000000	21.677991
1657.000000	21.611604
1658.000000	21.553219
1659.000000	21.484064
1660.000000	21.422066
1661.000000	21.329104
1662.000000	21.261314
1663.000000	21.174833
1664.000000	21.113696
1665.000000	21.033677
1666.000000	20.963720
1667.000000	20.906909
1668.000000	20.839629
1669.000000	20.785314
1670.000000	20.703267
1671.000000	20.630105
1672.000000	20.560740
1673.000000	20.495472
1674.000000	20.432116
1675.000000	20.366918
1676.000000	20.308893
1677.000000	20.242338
1678.000000	20.190880
1679.000000	20.135390
1680.000000	20.071481
1681.000000	20.020493
1682.000000	19.952624
1683.000000	19.917434
1684.000000	19.893436
1685.000000	19.836321
1686.000000	19.809427
1687.000000	19.785188
1688.000000	19.756494
1689.000000	19.745077
1690.000000	19.741773
1691.000000	19.739211
1692.000000	19.728460
1693.000000	19.752372
1694.000000	19.742928
1695.000000	19.731518
1696.000000	19.735050
1697.000000	19.741348
1698.000000	19.757396
1699.000000	19.741592
1700.000000	19.721506
1701.000000	19.714424
1702.000000	19.701617
1703.000000	19.679372
1704.000000	19.632111
1705.000000	19.609081
1706.000000	19.569075
1707.000000	19.529034
1708.000000	19.477235
1709.000000	19.431374
1710.000000	19.375213
1711.000000	19.331690
1712.000000	19.273464
1713.000000	19.217302
1714.000000	19.149280
1715.000000	19.088505
1716.000000	19.030510
1717.000000	18.959893
1718.000000	18.894009
1719.000000	18.855511
1720.000000	18.793973
1721.000000	18.767933
1722.000000	18.748841
1723.000000	18.713289
1724.000000	18.692187
1725.000000	18.674273
1726.000000	18.675010
1727.000000	18.710307
1728.000000	18.724597
1729.000000	18.717147
1730.000000	18.727618
1731.000000	18.750751
1732.000000	18.785784
1733.000000	18.816764
1734.000000	18.839180
1735.000000	18.864239
1736.000000	18.902634
1737.000000	18.960660
1738.000000	18.987858
1739.000000	19.023053
1740.000000	19.055420
1741.000000	19.090187
1742.000000	19.124861
1743.000000	19.171081
1744.000000	19.197787
1745.000000	19.228052
1746.000000	19.253128
1747.000000	19.290850
1748.000000	19.315650
1749.000000	19.330976
1750.000000	19.359999
1751.000000	19.380011
1752.000000	19.398257
1753.000000	19.411635
1754.000000	19.423228
1755.000000	19.425551
1756.000000	19.435555
1757.000000	19.452057
1758.000000	19.462838
1759.000000	19.472617
1760.000000	19.481704
1761.000000	19.484206
1762.000000	19.495786
1763.000000	19.515746
1764.000000	19.525427
1765.000000	19.538634
1766.000000	19.572417
1767.000000	19.600089
1768.000000	19.622339
1769.000000	19.624386
1770.000000	19.646792
1771.000000	19.677961
1772.000000	19.692286
1773.000000	19.712080
1774.000000	19.724019
1775.000000	19.752472
1776.000000	19.789052
1777.000000	19.798175
1778.000000	19.813342
1779.000000	19.823413
1780.000000	19.827485
1781.000000	19.848385
1782.000000	19.866190
1783.000000	19.867095
1784.000000	19.876584
1785.000000	19.898264
1786.000000	19.920272
1787.000000	19.930811
1788.000000	19.925535
1789.000000	19.938490
1790.000000	19.955251
1791.000000	19.960093
1792.000000	19.963122
1793.000000	19.972867
1794.000000	19.980772
1795.000000	19.980060
1796.000000	20.008364
1797.000000	20.034401
1798.000000	20.059869
1799.000000	20.073754
1800.000000	20.075662
1801.000000	20.088049
1802.000000	20.091625
1803.000000	20.103275
1804.000000	20.124977
1805.000000	20.137412
1806.000000	20.125258
1807.000000	20.137428
1808.000000	20.182577
1809.000000	20.210485
1810.000000	20.220967
1811.000000	20.221167
1812.000000	20.231782
1813.000000	20.246224
1814.000000	20.248215
1815.000000	20.254205
1816.000000	20.284298
1817.000000	20.327581
1818.000000	20.378139
1819.000000	20.391004
1820.000000	20.331274
1821.000000	20.272683
1822.000000	20.276583
1823.000000	20.345062
1824.000000	20.381727
1825.000000	20.412499
1826.000000	20.435900
1827.000000	20.442893
1828.000000	20.457161
1829.000000	20.445083
1830.000000	20.435589
1831.000000	20.473855
1832.000000	20.533168
1833.000000	20.591883
1834.000000	20.619069
1835.000000	20.623147
1836.000000	20.619267
1837.000000	20.625505
1838.000000	20.658463
1839.000000	20.676910
1840.000000	20.670721
1841.000000	20.617198
1842.000000	20.584126
1843.000000	20.658482
1844.000000	20.788115
1845.000000	20.873259
1846.000000	20.845418
1847.000000	20.755828
1848.000000	20.679362
1849.000000	20.659320
1850.000000	20.693644
1851.000000	20.736710
1852.000000	20.752388
1853.000000	20.742344
1854.000000	20.705862
1855.000000	20.681486
1856.000000	20.710926
1857.000000	20.724876
1858.000000	20.687508
1859.000000	20.616747
1860.000000	20.533216
1861.000000	20.491245
1862.000000	20.503601
1863.000000	20.511445
1864.000000	20.491414
1865.000000	20.492354
1866.000000	20.478766
1867.000000	20.467572
1868.000000	20.417096
1869.000000	20.322026
1870.000000	20.193245
1871.000000	20.036087
1872.000000	19.902251
1873.000000	19.787844
1874.000000	19.659812
1875.000000	19.498149
1876.000000	19.368998
1877.000000	19.267686
1878.000000	19.140465
1879.000000	18.986774
1880.000000	18.905723
1881.000000	18.758122
1882.000000	18.569755
1883.000000	18.336972
1884.000000	18.144762
1885.000000	17.924890
1886.000000	17.750983
1887.000000	17.586947
1888.000000	17.409774
1889.000000	17.186529
1890.000000	16.958739
1891.000000	16.674253
1892.000000	16.412661
1893.000000	16.176736
1894.000000	15.967694
1895.000000	15.745522
1896.000000	15.543046
1897.000000	15.269522
1898.000000	15.068951
1899.000000	14.759820
1900.000000	14.475466
1901.000000	14.223589
1902.000000	14.028700
1903.000000	13.805568
1904.000000	13.560424
1905.000000	13.291842
1906.000000	13.025685
1907.000000	12.797797
1908.000000	12.654730
1909.000000	12.549458
1910.000000	12.421952
1911.000000	12.243598
1912.000000	12.064294
1913.000000	11.865274
1914.000000	11.696903
1915.000000	11.622625
1916.000000	11.519009
1917.000000	11.430667
1918.000000	11.323151
1919.000000	11.229630
1920.000000	11.167652
1921.000000	11.024185
1922.000000	10.913715
1923.000000	10.858545
1924.000000	10.829876
1925.000000	10.726982
1926.000000	10.689927
1927.000000	10.615352
1928.000000	10.591849
1929.000000	10.536267
1930.000000	10.534054
1931.000000	10.526789
1932.000000	10.513988
1933.000000	10.497463
1934.000000	10.459884
1935.000000	10.437642
1936.000000	10.447202
1937.000000	10.471972
1938.000000	10.472742
1939.000000	10.455444
1940.000000	10.463377
1941.000000	10.501529
1942.000000	10.487817
1943.000000	10.525453
1944.000000	10.540040
1945.000000	10.568095
1946.000000	10.599035
1947.000000	10.657864
1948.000000	10.690700
1949.000000	10.718914
1950.000000	10.749539
1951.000000	10.780112
1952.000000	10.806697
1953.000000	10.854999
1954.000000	10.911729
1955.000000	10.953666
1956.000000	10.988513
1957.000000	11.033558
1958.000000	11.065464
1959.000000	11.161516
1960.000000	11.151730
1961.000000	11.239424
1962.000000	11.273082
1963.000000	11.309863
1964.000000	11.332361
1965.000000	11.418526
1966.000000	11.480802
1967.000000	11.509615
1968.000000	11.523557
1969.000000	11.584820
1970.000000	11.617992
1971.000000	11.637464
1972.000000	11.684672
1973.000000	11.755945
1974.000000	11.831446
1975.000000	11.848573
1976.000000	11.945760
1977.000000	11.974531
1978.000000	12.007436
1979.000000	12.023104
1980.000000	12.103911
1981.000000	12.176792
1982.000000	12.216239
1983.000000	12.238956
1984.000000	12.293697
1985.000000	12.371400
1986.000000	12.406829
1987.000000	12.504303
1988.000000	12.514873
1989.000000	12.548327
1990.000000	12.596559
1991.000000	12.650416
1992.000000	12.695056
1993.000000	12.735497
1994.000000	12.776755
1995.000000	12.794724
1996.000000	12.842118
1997.000000	12.879069
1998.000000	12.908744
1999.000000	12.916548
2000.000000	12.938340
2001.000000	13.032088
2002.000000	13.068790
2003.000000	13.066532
2004.000000	13.050564
2005.000000	13.078436
2006.000000	13.092043
2007.000000	13.093330
2008.000000	13.103255
2009.000000	13.103271
2010.000000	13.100815
2011.000000	13.112721
2012.000000	13.131283
2013.000000	13.101547
2014.000000	13.067842
2015.000000	13.056166
2016.000000	13.039481
2017.000000	13.035329
2018.000000	13.008971
2019.000000	12.968710
2020.000000	12.967342
2021.000000	12.924238
2022.000000	12.902938
2023.000000	12.883678
2024.000000	12.876448
2025.000000	12.779653
2026.000000	12.711439
2027.000000	12.717019
2028.000000	12.687515
2029.000000	12.646122
2030.000000	12.555517
2031.000000	12.509249
2032.000000	12.463975
2033.000000	12.447023
2034.000000	12.417448
2035.000000	12.359880
2036.000000	12.263134
2037.000000	12.186572
2038.000000	12.152074
2039.000000	12.078941
2040.000000	12.005120
2041.000000	11.951361
2042.000000	11.896040
2043.000000	11.833837
2044.000000	11.764473
2045.000000	11.667393
2046.000000	11.563982
2047.000000	11.545343
2048.000000	11.576312
2049.000000	11.541927
2050.000000	11.495720
2051.000000	11.489141
2052.000000	11.511366
2053.000000	11.485604
2054.000000	11.440374
2055.000000	11.479811
2056.000000	11.507131
2057.000000	11.538044
2058.000000	11.568666
2059.000000	11.627050
2060.000000	11.676439
2061.000000	11.656100
2062.000000	11.687713
2063.000000	11.740452
2064.000000	11.747770
2065.000000	11.757793
2066.000000	11.829320
2067.000000	11.886767
2068.000000	11.961769
2069.000000	12.037981
2070.000000	12.085700
2071.000000	12.145718
2072.000000	12.174516
2073.000000	12.252262
2074.000000	12.331505
2075.000000	12.373623
2076.000000	12.414255
2077.000000	12.420045
2078.000000	12.430653
2079.000000	12.491287
2080.000000	12.521281
2081.000000	12.507381
2082.000000	12.468326
2083.000000	12.497586
2084.000000	12.545300
2085.000000	12.611980
2086.000000	12.646602
2087.000000	12.656169
2088.000000	12.677237
2089.000000	12.654059
2090.000000	12.668870
2091.000000	12.656194
2092.000000	12.636889
2093.000000	12.638921
2094.000000	12.665293
2095.000000	12.659540
2096.000000	12.625248
2097.000000	12.643287
2098.000000	12.681496
2099.000000	12.717334
2100.000000	12.689453
2101.000000	12.663656
2102.000000	12.643962
2103.000000	12.702940
2104.000000	12.713852
2105.000000	12.647081
2106.000000	12.643334
2107.000000	12.615666
2108.000000	12.681531
2109.000000	12.734779
2110.000000	12.717202
2111.000000	12.769449
2112.000000	12.766116
2113.000000	12.744569
2114.000000	12.698287
2115.000000	12.783043
2116.000000	12.842896
2117.000000	12.827881
2118.000000	12.802180
2119.000000	12.828641
2120.000000	12.878369
2121.000000	12.762378
2122.000000	12.678807
2123.000000	12.688933
2124.000000	12.530231
2125.000000	12.620798
2126.000000	12.595465
2127.000000	12.548434
2128.000000	12.602839
2129.000000	12.613452
2130.000000	12.566553
2131.000000	12.509666
2132.000000	12.394745
2133.000000	12.314079
2134.000000	12.331680
2135.000000	12.302594
2136.000000	12.366391
2137.000000	12.274616
2138.000000	12.256492
2139.000000	12.177461
2140.000000	12.132559
2141.000000	12.130620
2142.000000	11.926272
2143.000000	11.967423
2144.000000	11.941303
2145.000000	11.923139
2146.000000	11.770906
2147.000000	11.738875
2148.000000	11.741849
2149.000000	11.629792
2150.000000	11.546213
2151.000000	11.421859
2152.000000	11.454436
2153.000000	11.356440
2154.000000	11.340509
2155.000000	11.305313
2156.000000	11.237409
2157.000000	11.286885
2158.000000	11.119559
2159.000000	11.028408
2160.000000	11.094382
2161.000000	11.118695
2162.000000	11.003602
2163.000000	11.043617
2164.000000	10.938679
2165.000000	10.985251
2166.000000	11.017899
2167.000000	10.963894
2168.000000	10.837510
2169.000000	10.797493
2170.000000	10.761965
2171.000000	10.770453
2172.000000	10.850257
2173.000000	10.812296
2174.000000	10.931583
2175.000000	10.841603
2176.000000	10.916907
2177.000000	10.967370
2178.000000	10.709628
2179.000000	10.770609
2180.000000	10.822732
2181.000000	10.893612
2182.000000	10.920347
2183.000000	10.793957
2184.000000	10.763539
2185.000000	10.830015
2186.000000	10.888637
2187.000000	10.891890
2188.000000	10.855893
2189.000000	10.868790
2190.000000	10.783080
2191.000000	10.846582
2192.000000	10.977679
2193.000000	11.080587
2194.000000	10.907614
2195.000000	10.847519
2196.000000	10.925787
2197.000000	10.973673
2198.000000	11.149061
2199.000000	10.988834
2200.000000	11.075521
2201.000000	11.053629
2202.000000	11.070875
2203.000000	11.113144
2204.000000	11.200008
2205.000000	11.321599
2206.000000	11.300742
2207.000000	11.182966
2208.000000	11.146524
2209.000000	11.221099
2210.000000	11.263956
2211.000000	11.293143
2212.000000	11.405724
2213.000000	11.492871
2214.000000	11.452411
2215.000000	11.401548
2216.000000	11.566871
2217.000000	11.657792
2218.000000	11.486181
2219.000000	11.716081
2220.000000	11.442757
2221.000000	11.541932
2222.000000	11.607787
2223.000000	11.598555
2224.000000	11.654966
2225.000000	11.656048
2226.000000	11.808174
2227.000000	11.753070
2228.000000	11.734124
2229.000000	11.627236
2230.000000	11.625787
2231.000000	11.505639
2232.000000	11.556326
2233.000000	11.626623
2234.000000	11.611512
2235.000000	11.581449
2236.000000	11.585742
2237.000000	11.493257
2238.000000	11.551745
2239.000000	11.440772
2240.000000	11.445874
2241.000000	11.357166
2242.000000	11.185572
2243.000000	11.257011
2244.000000	11.102251
2245.000000	11.095837
2246.000000	11.068824
2247.000000	11.143106
2248.000000	10.842940
2249.000000	10.798206
2250.000000	10.757072
2251.000000	10.709546
2252.000000	10.677040
2253.000000	10.618404
2254.000000	10.575834
2255.000000	10.600195
2256.000000	10.525362
2257.000000	10.416687
2258.000000	10.418091
2259.000000	10.244861
2260.000000	10.227799
2261.000000	10.223072
2262.000000	10.147170
2263.000000	10.211700
2264.000000	10.044997
2265.000000	10.062952
2266.000000	10.073482
2267.000000	10.025948
2268.000000	9.968228
2269.000000	9.961913
2270.000000	10.021755
2271.000000	9.956065
2272.000000	9.856627
2273.000000	9.715905
2274.000000	9.792063
2275.000000	9.908433
2276.000000	9.937650
2277.000000	10.141571
2278.000000	10.105997
2279.000000	10.089528
2280.000000	9.982490
2281.000000	9.880158
2282.000000	9.893518
2283.000000	9.948726
2284.000000	9.830882
2285.000000	9.771562
2286.000000	9.835236
2287.000000	9.715779
2288.000000	9.775612
2289.000000	9.823118
2290.000000	9.830323
2291.000000	9.970374
2292.000000	9.988623
2293.000000	9.897285
2294.000000	10.029799
2295.000000	9.976224
2296.000000	9.918570
2297.000000	9.969285
2298.000000	9.896979
2299.000000	9.740290
2300.000000	9.892260
2301.000000	9.980816
2302.000000	9.846640
2303.000000	9.867335
2304.000000	9.979671
2305.000000	9.941873
2306.000000	10.045549
2307.000000	10.129872
2308.000000	10.019179
2309.000000	10.023358
2310.000000	9.949913
2311.000000	9.881847
2312.000000	9.868264
2313.000000	9.944406
2314.000000	10.072278
2315.000000	10.196084
2316.000000	10.215893
2317.000000	10.311051
2318.000000	10.301723
2319.000000	10.243292
2320.000000	10.215258
2321.000000	10.339897
2322.000000	10.333324
2323.000000	10.346726
2324.000000	10.300806
2325.000000	10.160762
2326.000000	10.174202
2327.000000	10.217595
2328.000000	10.466158
2329.000000	10.498026
2330.000000	10.339148
2331.000000	10.354392
2332.000000	10.159992
2333.000000	10.114998
2334.000000	10.342102
2335.000000	10.512427
2336.000000	10.696960
2337.000000	10.684232
2338.000000	10.678394
2339.000000	10.748641
2340.000000	10.743403
2341.000000	10.584876
2342.000000	10.487824
2343.000000	10.549422
2344.000000	10.649775
2345.000000	10.766078
2346.000000	10.684525
2347.000000	10.737649
2348.000000	10.816687
2349.000000	10.866771
2350.000000	10.991515
2351.000000	10.867236
2352.000000	10.869864
2353.000000	11.074192
2354.000000	10.982444
2355.000000	10.907100
2356.000000	11.019073
2357.000000	10.998975
2358.000000	11.020037
2359.000000	11.138166
2360.000000	11.229834
2361.000000	11.117699
2362.000000	11.217435
2363.000000	11.217714
2364.000000	11.043709
2365.000000	11.032445
2366.000000	11.058324
2367.000000	11.239347
2368.000000	11.301639
2369.000000	11.076973
2370.000000	11.231889
2371.000000	11.409556
2372.000000	11.655908
2373.000000	11.664838
2374.000000	11.568381
2375.000000	11.426310
2376.000000	11.561712
2377.000000	11.519405
2378.000000	11.304898
2379.000000	11.433430
2380.000000	11.538802
2381.000000	11.481610
2382.000000	11.531499
2383.000000	11.570722
2384.000000	11.398376
2385.000000	11.483657
2386.000000	11.787060
2387.000000	11.604341
2388.000000	11.354536
2389.000000	11.550835
2390.000000	11.699410
2391.000000	11.834455
2392.000000	11.980675
2393.000000	11.778184
2394.000000	11.663476
2395.000000	11.648572
2396.000000	12.010140
2397.000000	11.872053
2398.000000	11.863085
2399.000000	11.719822
2400.000000	11.871749
2401.000000	12.024825
2402.000000	11.999999
2403.000000	11.933317
2404.000000	11.810739
2405.000000	11.940504
2406.000000	12.114685
2407.000000	11.694325
2408.000000	11.669288
2409.000000	11.839567
2410.000000	11.884681
2411.000000	12.143301
2412.000000	12.461142
2413.000000	11.907504
2414.000000	12.100400
2415.000000	11.839175
2416.000000	11.748781
2417.000000	12.238863
2418.000000	11.941244
2419.000000	11.999449
2420.000000	11.779447
2421.000000	11.797966
2422.000000	11.861609
2423.000000	11.616065
2424.000000	11.496276
2425.000000	11.389163
2426.000000	11.804764
2427.000000	11.619453
2428.000000	11.937089
2429.000000	11.737019
2430.000000	12.301350
2431.000000	12.344842
2432.000000	12.232951
2433.000000	11.525089
2434.000000	11.761075
2435.000000	11.695976
2436.000000	11.647842
2437.000000	11.902232
2438.000000	11.678562
2439.000000	12.122652
2440.000000	12.220842
2441.000000	12.169644
2442.000000	11.615546
2443.000000	12.054875
2444.000000	12.015014
2445.000000	11.859215
2446.000000	12.247180
2447.000000	11.635607
2448.000000	11.990398
2449.000000	12.321569
2450.000000	11.994373
2451.000000	12.144165
2452.000000	11.891306
2453.000000	11.674549
2454.000000	11.886771
2455.000000	11.796455
2456.000000	12.498981
2457.000000	11.767704
2458.000000	12.771115
2459.000000	12.923389
2460.000000	12.903980
2461.000000	13.100752
2462.000000	13.296562
2463.000000	13.544529
2464.000000	13.741596
2465.000000	13.626965
2466.000000	13.330015
2467.000000	14.132276
2468.000000	13.652987
2469.000000	13.824410
2470.000000	14.938073
2471.000000	15.706241
2472.000000	15.474917
2473.000000	14.558251
2474.000000	13.608314
2475.000000	15.496166
2476.000000	15.704751
2477.000000	16.670617
2478.000000	16.504932
2479.000000	15.634975
2480.000000	15.720432
2481.000000	16.921333
2482.000000	18.505868
2483.000000	18.162232
2484.000000	18.680791
2485.000000	17.899204
2486.000000	18.359792
2487.000000	19.462780
2488.000000	19.122232
2489.000000	18.429219
2490.000000	19.546508
2491.000000	20.205062
2492.000000	19.420990
2493.000000	19.271584
2494.000000	20.659320
2495.000000	20.440367
2496.000000	21.089141
2497.000000	20.814760
2498.000000	21.940371
2499.000000	21.445754
2500.000000	22.262808
2501.000000	nan
2502.000000	nan
2503.000000	nan
2504.000000	nan
2505.000000	nan
2506.000000	nan
2507.000000	nan
2508.000000	nan
2509.000000	nan
2510.000000	nan
2511.000000	nan
2512.000000	nan
2513.000000	nan
2514.000000	nan
2515.000000	nan
2516.000000	nan
2517.000000	nan
2518.000000	nan
2519.000000	nan
2520.000000	nan
2521.000000	nan
2522.000000	nan
2523.000000	nan
2524.000000	nan
2525.000000	nan
2526.000000	nan
2527.000000	nan
2528.000000	nan
2529.000000	nan
2530.000000	nan
2531.000000	nan
2532.000000	nan
2533.000000	nan
2534.000000	nan
2535.000000	nan
2536.000000	nan
2537.000000	nan
2538.000000	nan
2539.000000	nan
2540.000000	nan
2541.000000	nan
2542.000000	nan
2543.000000	nan
2544.000000	nan
2545.000000	nan
2546.000000	nan
2547.000000	nan
2548.000000	nan
2549.000000	nan
2550.000000	nan
2551.000000	nan
2552.000000	nan
2553.000000	nan
2554.000000	nan
2555.000000	nan
2556.000000	nan
2557.000000	nan
2558.000000	nan
2559.000000	nan
2560.000000	nan
2561.000000	nan
2562.000000	nan
2563.000000	nan
2564.000000	nan
2565.000000	nan
2566.000000	nan
2567.000000	nan
2568.000000	nan
2569.000000	nan
2570.000000	nan
2571.000000	nan
2572.000000	nan
2573.000000	nan
2574.000000	nan
2575.000000	nan
2576.000000	nan
2577.000000	nan
2578.000000	nan
2579.000000	nan
2580.000000	nan
2581.000000	nan
2582.000000	nan
2583.000000	nan
2584.000000	nan
2585.000000	nan
2586.000000	nan
2587.000000	nan
2588.000000	nan
2589.000000	nan
2590.000000	nan
2591.000000	nan
2592.000000	nan
2593.000000	nan
2594.000000	nan
2595.000000	nan
2596.000000	nan
2597.000000	nan
2598.000000	nan
2599.000000	nan
2600.000000	nan
2601.000000	nan
2602.000000	nan
2603.000000	nan
2604.000000	nan
2605.000000	nan
2606.000000	nan
2607.000000	nan
2608.000000	nan
2609.000000	nan
2610.000000	nan
2611.000000	nan
2612.000000	nan
2613.000000	nan
2614.000000	nan
2615.000000	nan
2616.000000	nan
2617.000000	nan
2618.000000	nan
2619.000000	nan
2620.000000	nan
2621.000000	nan
2622.000000	nan
2623.000000	nan
2624.000000	nan
2625.000000	nan
2626.000000	nan
2627.000000	nan
2628.000000	nan
2629.000000	nan
2630.000000	nan
2631.000000	nan
2632.000000	nan
2633.000000	nan
2634.000000	nan
2635.000000	nan
2636.000000	nan
2637.000000	nan
2638.000000	nan
2639.000000	nan
2640.000000	nan
2641.000000	nan
2642.000000	nan
2643.000000	nan
2644.000000	nan
2645.000000	nan
2646.000000	nan
2647.000000	nan
2648.000000	nan
2649.000000	nan
2650.000000	nan
2651.000000	nan
2652.000000	nan
2653.000000	nan
2654.000000	nan
2655.000000	nan
2656.000000	nan
2657.000000	nan
2658.000000	nan
2659.000000	nan
2660.000000	nan
2661.000000	nan
2662.000000	nan
2663.000000	nan
2664.000000	nan
2665.000000	nan
2666.000000	nan
2667.000000	nan
2668.000000	nan
2669.000000	nan
2670.000000	nan
2671.000000	nan
2672.000000	nan
2673.000000	nan
2674.000000	nan
2675.000000	nan
2676.000000	nan
2677.000000	nan
2678.000000	nan
2679.000000	nan
2680.000000	nan
2681.000000	nan
2682.000000	nan
2683.000000	nan
2684.000000	nan
2685.000000	nan
2686.000000	nan
2687.000000	nan
2688.000000	nan
2689.000000	nan
2690.000000	nan
2691.000000	nan
2692.000000	nan
2693.000000	nan
2694.000000	nan
2695.000000	nan
2696.000000	nan
2697.000000	nan
2698.000000	nan
2699.000000	nan
2700.000000	nan
2701.000000	nan
2702.000000	nan
2703.000000	nan
2704.000000	nan
2705.000000	nan
2706.000000	nan
2707.000000	nan
2708.000000	nan
2709.000000	nan
2710.000000	nan
2711.000000	nan
2712.000000	nan
2713.000000	nan
2714.000000	nan
2715.000000	nan
2716.000000	nan
2717.000000	nan
2718.000000	nan
2719.000000	nan
2720.000000	nan
2721.000000	nan
2722.000000	nan
2723.000000	nan
2724.000000	nan
2725.000000	nan
2726.000000	nan
2727.000000	nan
2728.000000	nan
2729.000000	nan
2730.000000	nan
2731.000000	nan
2732.000000	nan
2733.000000	nan
2734.000000	nan
2735.000000	nan
2736.000000	nan
2737.000000	nan
2738.000000	nan
2739.000000	nan
2740.000000	nan
2741.000000	nan
2742.000000	nan
2743.000000	nan
2744.000000	nan
2745.000000	nan
2746.000000	nan
2747.000000	nan
2748.000000	nan
2749.000000	nan
2750.000000	nan
2751.000000	nan
2752.000000	nan
2753.000000	nan
2754.000000	nan
2755.000000	nan
2756.000000	nan
2757.000000	nan
2758.000000	nan
2759.000000	nan
2760.000000	nan
2761.000000	nan
2762.000000	nan
2763.000000	nan
2764.000000	nan
2765.000000	nan
2766.000000	nan
2767.000000	nan
2768.000000	nan
2769.000000	nan
2770.000000	nan
2771.000000	nan
2772.000000	nan
2773.000000	nan
2774.000000	nan
2775.000000	nan
2776.000000	nan
2777.000000	nan
2778.000000	nan
2779.000000	nan
2780.000000	nan
2781.000000	nan
2782.000000	nan
2783.000000	nan
2784.000000	nan
2785.000000	nan
2786.000000	nan
2787.000000	nan
2788.000000	nan
2789.000000	nan
2790.000000	nan
2791.000000	nan
2792.000000	nan
2793.000000	nan
2794.000000	nan
2795.000000	nan
2796.000000	nan
2797.000000	nan
2798.000000	nan
2799.000000	nan
2800.000000	nan
2801.000000	nan
2802.000000	nan
2803.000000	nan
2804.000000	nan
2805.000000	nan
2806.000000	nan
2807.000000	nan
2808.000000	nan
2809.000000	nan
2810.000000	nan
2811.000000	nan
2812.000000	nan
2813.000000	nan
2814.000000	nan
2815.000000	nan
2816.000000	nan
2817.000000	nan
2818.000000	nan
2819.000000	nan
2820.000000	nan
2821.000000	nan
2822.000000	nan
2823.000000	nan
2824.000000	nan
2825.000000	nan
2826.000000	nan
2827.000000	nan
2828.000000	nan
2829.000000	nan
2830.000000	nan
2831.000000	nan
2832.000000	nan
2833.000000	nan
2834.000000	nan
2835.000000	nan
2836.000000	nan
2837.000000	nan
2838.000000	nan
2839.000000	nan
2840.000000	nan
2841.000000	nan
2842.000000	nan
2843.000000	nan
2844.000000	nan
2845.000000	nan
2846.000000	nan
2847.000000	nan
2848.000000	nan
2849.000000	nan
2850.000000	nan
2851.000000	nan
2852.000000	nan
2853.000000	nan
2854.000000	nan
2855.000000	nan
2856.000000	nan
2857.000000	nan
2858.000000	nan
2859.000000	nan
2860.000000	nan
2861.000000	nan
2862.000000	nan
2863.000000	nan
2864.000000	nan
2865.000000	nan
2866.000000	nan
2867.000000	nan
2868.000000	nan
2869.000000	nan
2870.000000	nan
2871.000000	nan
2872.000000	nan
2873.000000	nan
2874.000000	nan
2875.000000	nan
2876.000000	nan
2877.000000	nan
2878.000000	nan
2879.000000	nan
2880.000000	nan
2881.000000	nan
2882.000000	nan
2883.000000	nan
2884.000000	nan
2885.000000	nan
2886.000000	nan
2887.000000	nan
2888.000000	nan
2889.000000	nan
2890.000000	nan
2891.000000	nan
2892.000000	nan
2893.000000	nan
2894.000000	nan
2895.000000	nan
2896.000000	nan
2897.000000	nan
2898.000000	nan
2899.000000	nan
2900.000000	nan
2901.000000	nan
2902.000000	nan
2903.000000	nan
2904.000000	nan
2905.000000	nan
2906.000000	nan
2907.000000	nan
2908.000000	nan
2909.000000	nan
2910.000000	nan
2911.000000	nan
2912.000000	nan
2913.000000	nan
2914.000000	nan
2915.000000	nan
2916.000000	nan
2917.000000	nan
2918.000000	nan
2919.000000	nan
2920.000000	nan
2921.000000	nan
2922.000000	nan
2923.000000	nan
2924.000000	nan
2925.000000	nan
2926.000000	nan
2927.000000	nan
2928.000000	nan
2929.000000	nan
2930.000000	nan
2931.000000	nan
2932.000000	nan
2933.000000	nan
2934.000000	nan
2935.000000	nan
2936.000000	nan
2937.000000	nan
2938.000000	nan
2939.000000	nan
2940.000000	nan
2941.000000	nan
2942.000000	nan
2943.000000	nan
2944.000000	nan
2945.000000	nan
2946.000000	nan
2947.000000	nan
2948.000000	nan
2949.000000	nan
2950.000000	nan
2951.000000	nan
2952.000000	nan
2953.000000	nan
2954.000000	nan
2955.000000	nan
2956.000000	nan
2957.000000	nan
2958.000000	nan
2959.000000	nan
2960.000000	nan
2961.000000	nan
2962.000000	nan
2963.000000	nan
2964.000000	nan
2965.000000	nan
2966.000000	nan
2967.000000	nan
2968.000000	nan
2969.000000	nan
2970.000000	nan
2971.000000	nan
2972.000000	nan
2973.000000	nan
2974.000000	nan
2975.000000	nan
2976.000000	nan
2977.000000	nan
2978.000000	nan
2979.000000	nan
2980.000000	nan
2981.000000	nan
2982.000000	nan
2983.000000	nan
2984.000000	nan
2985.000000	nan
2986.000000	nan
2987.000000	nan
2988.000000	nan
2989.000000	nan
2990.000000	nan
2991.000000	nan
2992.000000	nan
2993.000000	nan
2994.000000	nan
2995.000000	nan
2996.000000	nan
2997.000000	nan
2998.000000	nan
2999.000000	nan
3000.000000	nan
