PE UV       SUBTECH     SPECTRUM    ASCII       PEDS        4.00        
   -1
INBUCR0416-4.Sample.ASC
24/02/09
12:25:27.00
24/02/09
12:25:27.00
Vinicio Soto Monge
COSTA RICA. Prov . Alajuela. San Ramón. Reserva Biol. Alberto Brenes. Río San Lorencito. 850 m. 30 JUN DE 1999. W. Porras. Manual ( red, libre) L_N_245500_470800 #53846. Sin élitros. INB0003049590 
250,000000
1
Lambda 1050
1050L1511233
PerkinElmer UV WinLab 6.3.2.0749 / 2.02.05 Lambda 900 UV/VIS/NIR, Aug  7 2015 09:38:08

0
0
3350/servo 860,8/2
0
0
UV/VIS
1
1
1
DoubleDePol,CommonBeamDepol,RBeamAtt,SBeamAtt,60mm sphere, WB InGaAs Detector
0
0
0
0
Program
Program
3350/servo 860,8/2
3350/0,2 860,8/0,2
3350/0,2 860,8/0,2
0
15.00
 
 
 
0
 
860,8
319,2
860,8
Front
100
on
S:100 R:100
0
0
0
0
 
0
 
 
 
0
 
 
0
0
0
0
0
 
 
 
 
0
0


0
0
#HDR
-1
-1
#GR
nm
%R
1.0
0.0
2500,000000
-1,000000
2251
8
16,962900
1,529600
#DATA

250.000000	4.539278
251.000000	4.534189
252.000000	4.539390
253.000000	4.538865
254.000000	4.548197
255.000000	4.548628
256.000000	4.541763
257.000000	4.545249
258.000000	4.540924
259.000000	4.546978
260.000000	4.542583
261.000000	4.548579
262.000000	4.550621
263.000000	4.553638
264.000000	4.554242
265.000000	4.557843
266.000000	4.560040
267.000000	4.563918
268.000000	4.565843
269.000000	4.573007
270.000000	4.573584
271.000000	4.572319
272.000000	4.576677
273.000000	4.576383
274.000000	4.578846
275.000000	4.586247
276.000000	4.587075
277.000000	4.587919
278.000000	4.585563
279.000000	4.594515
280.000000	4.589384
281.000000	4.592200
282.000000	4.596032
283.000000	4.591334
284.000000	4.590272
285.000000	4.590668
286.000000	4.585279
287.000000	4.585777
288.000000	4.583291
289.000000	4.585701
290.000000	4.580023
291.000000	4.572107
292.000000	4.572407
293.000000	4.571131
294.000000	4.564104
295.000000	4.561175
296.000000	4.557096
297.000000	4.557118
298.000000	4.546589
299.000000	4.550914
300.000000	4.541223
301.000000	4.534791
302.000000	4.540279
303.000000	4.530565
304.000000	4.535699
305.000000	4.524425
306.000000	5.178772
307.000000	5.180431
308.000000	5.167675
309.000000	5.167920
310.000000	5.167006
311.000000	5.164714
312.000000	5.157825
313.000000	5.803437
314.000000	5.805213
315.000000	5.801611
316.000000	5.793939
317.000000	6.356722
318.000000	6.351942
319.000000	6.410110
320.000000	6.364020
321.000000	6.357954
322.000000	6.397783
323.000000	7.035617
324.000000	7.025629
325.000000	7.035867
326.000000	7.016410
327.000000	7.016333
328.000000	7.021138
329.000000	7.028415
330.000000	7.016012
331.000000	7.037696
332.000000	7.019552
333.000000	7.017871
334.000000	7.019913
335.000000	7.027292
336.000000	7.672156
337.000000	7.668493
338.000000	7.662867
339.000000	7.675475
340.000000	7.669788
341.000000	7.675461
342.000000	7.665790
343.000000	7.669523
344.000000	7.667721
345.000000	7.655265
346.000000	7.671007
347.000000	7.669802
348.000000	7.672762
349.000000	7.651151
350.000000	7.651794
351.000000	7.652539
352.000000	7.647007
353.000000	7.660055
354.000000	8.304465
355.000000	7.649849
356.000000	8.296507
357.000000	8.297252
358.000000	8.292532
359.000000	8.286374
360.000000	8.289805
361.000000	8.295057
362.000000	8.280613
363.000000	8.280508
364.000000	8.289418
365.000000	8.288966
366.000000	8.277915
367.000000	8.270920
368.000000	8.278146
369.000000	8.282766
370.000000	8.273791
371.000000	8.278417
372.000000	8.278344
373.000000	8.275815
374.000000	8.268704
375.000000	8.270489
376.000000	8.284444
377.000000	8.328066
378.000000	8.327370
379.000000	8.325446
380.000000	8.322145
381.000000	8.317279
382.000000	8.314801
383.000000	8.312630
384.000000	8.310212
385.000000	8.306607
386.000000	8.303713
387.000000	8.302371
388.000000	8.300159
389.000000	8.297862
390.000000	8.291816
391.000000	8.291787
392.000000	8.288490
393.000000	8.284956
394.000000	8.281133
395.000000	8.279227
396.000000	8.278438
397.000000	8.274476
398.000000	8.274255
399.000000	8.270054
400.000000	8.265343
401.000000	8.264120
402.000000	8.262517
403.000000	8.259926
404.000000	8.257859
405.000000	8.255357
406.000000	8.252915
407.000000	8.248193
408.000000	8.246622
409.000000	8.245216
410.000000	8.240901
411.000000	8.239809
412.000000	8.238370
413.000000	8.234953
414.000000	8.232012
415.000000	8.228661
416.000000	8.226220
417.000000	8.223228
418.000000	8.220452
419.000000	8.217353
420.000000	8.214988
421.000000	8.213030
422.000000	8.209060
423.000000	8.204596
424.000000	8.201663
425.000000	8.198706
426.000000	8.195241
427.000000	8.191523
428.000000	8.189479
429.000000	8.186462
430.000000	8.182455
431.000000	8.833328
432.000000	8.828880
433.000000	8.824546
434.000000	8.821641
435.000000	8.817700
436.000000	8.812204
437.000000	8.809277
438.000000	8.806865
439.000000	8.802007
440.000000	8.797512
441.000000	8.793535
442.000000	8.789732
443.000000	8.786561
444.000000	8.782441
445.000000	8.777141
446.000000	8.770816
447.000000	8.766134
448.000000	8.763095
449.000000	8.759512
450.000000	8.755243
451.000000	8.750373
452.000000	8.746058
453.000000	8.741427
454.000000	8.736624
455.000000	8.733403
456.000000	8.729701
457.000000	8.724221
458.000000	8.719686
459.000000	8.715026
460.000000	8.710470
461.000000	8.705809
462.000000	8.701279
463.000000	8.696401
464.000000	8.691545
465.000000	8.685964
466.000000	8.681140
467.000000	8.677584
468.000000	8.672959
469.000000	8.668613
470.000000	8.663893
471.000000	8.658788
472.000000	8.654577
473.000000	8.651326
474.000000	8.647229
475.000000	8.642379
476.000000	8.639033
477.000000	8.635507
478.000000	8.630976
479.000000	8.627520
480.000000	8.626642
481.000000	8.627346
482.000000	8.627321
483.000000	8.623933
484.000000	8.617682
485.000000	8.610208
486.000000	8.602580
487.000000	8.592863
488.000000	8.583616
489.000000	8.575658
490.000000	8.566278
491.000000	8.557228
492.000000	9.201298
493.000000	9.191221
494.000000	9.181045
495.000000	9.170488
496.000000	9.159744
497.000000	9.149928
498.000000	9.141833
499.000000	9.131923
500.000000	9.120826
501.000000	9.110300
502.000000	9.102351
503.000000	9.093049
504.000000	9.083364
505.000000	9.073055
506.000000	9.062398
507.000000	9.054252
508.000000	9.046468
509.000000	9.036997
510.000000	9.030163
511.000000	9.022364
512.000000	9.015554
513.000000	9.007044
514.000000	8.999735
515.000000	8.993414
516.000000	8.987358
517.000000	8.980459
518.000000	8.973716
519.000000	8.967264
520.000000	8.961786
521.000000	8.954723
522.000000	8.946869
523.000000	9.592825
524.000000	9.586313
525.000000	9.578020
526.000000	9.568954
527.000000	9.560603
528.000000	9.551613
529.000000	9.543677
530.000000	9.532861
531.000000	9.523124
532.000000	9.513307
533.000000	9.503702
534.000000	9.492385
535.000000	9.482750
536.000000	9.473954
537.000000	9.464872
538.000000	9.453472
539.000000	9.443107
540.000000	9.433837
541.000000	9.424133
542.000000	9.413660
543.000000	9.402631
544.000000	9.393157
545.000000	9.383407
546.000000	9.373497
547.000000	9.361831
548.000000	9.354121
549.000000	9.346145
550.000000	9.338243
551.000000	9.328298
552.000000	9.318536
553.000000	9.310252
554.000000	9.301774
555.000000	9.292888
556.000000	9.282250
557.000000	9.273697
558.000000	9.266526
559.000000	9.260827
560.000000	9.299748
561.000000	9.297345
562.000000	9.943088
563.000000	9.935716
564.000000	9.928816
565.000000	9.920553
566.000000	9.914881
567.000000	9.908027
568.000000	9.900982
569.000000	9.892963
570.000000	9.885529
571.000000	9.878203
572.000000	9.870776
573.000000	9.864734
574.000000	9.856968
575.000000	9.851535
576.000000	9.844884
577.000000	9.835994
578.000000	9.830053
579.000000	9.822524
580.000000	9.813964
581.000000	9.807992
582.000000	9.797467
583.000000	9.791572
584.000000	9.783883
585.000000	9.778610
586.000000	9.770527
587.000000	9.762899
588.000000	9.755750
589.000000	9.750298
590.000000	9.743569
591.000000	9.736121
592.000000	9.727582
593.000000	9.722464
594.000000	9.714057
595.000000	9.709330
596.000000	9.701011
597.000000	9.699062
598.000000	9.690689
599.000000	9.680319
600.000000	9.672019
601.000000	9.666323
602.000000	9.661452
603.000000	9.655784
604.000000	9.645142
605.000000	9.640947
606.000000	9.633946
607.000000	9.625273
608.000000	9.620873
609.000000	9.614783
610.000000	9.610639
611.000000	9.599652
612.000000	9.595291
613.000000	9.590957
614.000000	9.583089
615.000000	9.577265
616.000000	9.571334
617.000000	9.565281
618.000000	9.558772
619.000000	9.554179
620.000000	9.550925
621.000000	9.542768
622.000000	9.534931
623.000000	9.529692
624.000000	9.523910
625.000000	9.519298
626.000000	9.510066
627.000000	9.506295
628.000000	9.501664
629.000000	9.490709
630.000000	9.484596
631.000000	9.477757
632.000000	9.472118
633.000000	9.463938
634.000000	9.458106
635.000000	9.448668
636.000000	9.442345
637.000000	9.434095
638.000000	9.424615
639.000000	9.419254
640.000000	9.410954
641.000000	9.403973
642.000000	9.394293
643.000000	9.382552
644.000000	9.378696
645.000000	9.369389
646.000000	9.360446
647.000000	9.355142
648.000000	9.344647
649.000000	9.335360
650.000000	9.326869
651.000000	9.314708
652.000000	9.308167
653.000000	9.298815
654.000000	9.290149
655.000000	9.282779
656.000000	9.926890
657.000000	9.917771
658.000000	9.907391
659.000000	9.900180
660.000000	9.894468
661.000000	9.886080
662.000000	9.877418
663.000000	9.870682
664.000000	9.858567
665.000000	9.850970
666.000000	9.842419
667.000000	9.832262
668.000000	9.825107
669.000000	9.819047
670.000000	9.810501
671.000000	9.803910
672.000000	9.792365
673.000000	9.784799
674.000000	9.778343
675.000000	9.772601
676.000000	9.762692
677.000000	9.757567
678.000000	9.748548
679.000000	9.743631
680.000000	9.733889
681.000000	9.726871
682.000000	9.718548
683.000000	9.711294
684.000000	9.704647
685.000000	9.698368
686.000000	9.690982
687.000000	9.686135
688.000000	9.678228
689.000000	9.669840
690.000000	9.661719
691.000000	9.657338
692.000000	9.648207
693.000000	9.638983
694.000000	9.631986
695.000000	9.626253
696.000000	10.275637
697.000000	10.269100
698.000000	10.262721
699.000000	10.253470
700.000000	10.249493
701.000000	10.238028
702.000000	10.229942
703.000000	10.226654
704.000000	10.221617
705.000000	10.215224
706.000000	10.210041
707.000000	10.197319
708.000000	10.188344
709.000000	10.188668
710.000000	10.183290
711.000000	10.172635
712.000000	10.165584
713.000000	10.159275
714.000000	10.151386
715.000000	10.142490
716.000000	10.136829
717.000000	10.134296
718.000000	10.127497
719.000000	10.119012
720.000000	10.112440
721.000000	10.108423
722.000000	10.102576
723.000000	10.093119
724.000000	10.083236
725.000000	10.079654
726.000000	10.075506
727.000000	10.067547
728.000000	10.059099
729.000000	10.053865
730.000000	10.050337
731.000000	10.696442
732.000000	10.686979
733.000000	10.677163
734.000000	10.674290
735.000000	10.669531
736.000000	10.662825
737.000000	10.654534
738.000000	10.646459
739.000000	10.640223
740.000000	10.637712
741.000000	10.631557
742.000000	10.621485
743.000000	10.614989
744.000000	10.608461
745.000000	10.600554
746.000000	10.591013
747.000000	10.584242
748.000000	10.582669
749.000000	10.572789
750.000000	10.561386
751.000000	10.555297
752.000000	10.552101
753.000000	10.550438
754.000000	10.541658
755.000000	10.529248
756.000000	10.523690
757.000000	10.518950
758.000000	10.511569
759.000000	10.507086
760.000000	10.499030
761.000000	11.142395
762.000000	11.139573
763.000000	11.132884
764.000000	11.125951
765.000000	11.119359
766.000000	11.109980
767.000000	11.101671
768.000000	11.097458
769.000000	11.092328
770.000000	11.083084
771.000000	11.076782
772.000000	11.069612
773.000000	11.062286
774.000000	11.053641
775.000000	11.047236
776.000000	11.038035
777.000000	11.029817
778.000000	11.019013
779.000000	11.009485
780.000000	11.002020
781.000000	10.994106
782.000000	10.989629
783.000000	10.986281
784.000000	10.975934
785.000000	10.967241
786.000000	10.967051
787.000000	10.963361
788.000000	10.947348
789.000000	10.938103
790.000000	10.925570
791.000000	11.572964
792.000000	11.561559
793.000000	11.549557
794.000000	11.549641
795.000000	11.546428
796.000000	11.537284
797.000000	11.529954
798.000000	11.521227
799.000000	11.512582
800.000000	11.496934
801.000000	11.491875
802.000000	11.491741
803.000000	11.476760
804.000000	11.475714
805.000000	11.466517
806.000000	11.453416
807.000000	11.445473
808.000000	11.434378
809.000000	11.420734
810.000000	11.415529
811.000000	11.413884
812.000000	11.404402
813.000000	11.391702
814.000000	11.384845
815.000000	11.388386
816.000000	11.384474
817.000000	11.379109
818.000000	11.358836
819.000000	11.352895
820.000000	11.354025
821.000000	11.351536
822.000000	11.341612
823.000000	11.329119
824.000000	11.330240
825.000000	11.321970
826.000000	11.308373
827.000000	11.306937
828.000000	11.295661
829.000000	11.306275
830.000000	11.301918
831.000000	11.287100
832.000000	11.288348
833.000000	11.293095
834.000000	11.274110
835.000000	11.266463
836.000000	11.265721
837.000000	11.915141
838.000000	11.924003
839.000000	11.262509
840.000000	11.908555
841.000000	11.252116
842.000000	11.911330
843.000000	11.276766
844.000000	11.264329
845.000000	11.229536
846.000000	11.237927
847.000000	11.237657
848.000000	11.889278
849.000000	11.880270
850.000000	11.881525
851.000000	11.218398
852.000000	11.894497
853.000000	11.894453
854.000000	11.896668
855.000000	11.891631
856.000000	11.852947
857.000000	11.874384
858.000000	16.408058
859.000000	12.620300
860.000000	12.107621
861.000000	11.586206
862.000000	11.562312
863.000000	11.040947
864.000000	11.020076
865.000000	11.500237
866.000000	10.989613
867.000000	10.966162
868.000000	10.946673
869.000000	10.928771
870.000000	10.422060
871.000000	10.900833
872.000000	10.387482
873.000000	10.372297
874.000000	10.355684
875.000000	10.351427
876.000000	9.828186
877.000000	10.316695
878.000000	10.300780
879.000000	10.283452
880.000000	9.774356
881.000000	9.754519
882.000000	9.747240
883.000000	9.731420
884.000000	9.713851
885.000000	9.200900
886.000000	9.193978
887.000000	9.185491
888.000000	9.167638
889.000000	8.663242
890.000000	8.642736
891.000000	9.133484
892.000000	9.118610
893.000000	8.618050
894.000000	8.604130
895.000000	8.586828
896.000000	8.577553
897.000000	8.563906
898.000000	8.551384
899.000000	8.542726
900.000000	8.531984
901.000000	8.523971
902.000000	8.512559
903.000000	8.501438
904.000000	7.989255
905.000000	7.982176
906.000000	7.969420
907.000000	8.459266
908.000000	7.945453
909.000000	7.928704
910.000000	7.915761
911.000000	7.912483
912.000000	7.903230
913.000000	7.882082
914.000000	7.870347
915.000000	7.858667
916.000000	7.853769
917.000000	7.840653
918.000000	7.838996
919.000000	7.821880
920.000000	7.806478
921.000000	7.797727
922.000000	7.776944
923.000000	7.771049
924.000000	7.763231
925.000000	7.755241
926.000000	7.259741
927.000000	7.248165
928.000000	7.242857
929.000000	7.232640
930.000000	7.230908
931.000000	7.225587
932.000000	7.208468
933.000000	7.198176
934.000000	7.183936
935.000000	7.180158
936.000000	7.167993
937.000000	7.156885
938.000000	7.149138
939.000000	7.143844
940.000000	7.146616
941.000000	7.139997
942.000000	7.128608
943.000000	7.115015
944.000000	7.111443
945.000000	7.103980
946.000000	7.095952
947.000000	7.090677
948.000000	7.079044
949.000000	7.072606
950.000000	7.073615
951.000000	7.064468
952.000000	7.055688
953.000000	7.044428
954.000000	7.040129
955.000000	6.547584
956.000000	6.540850
957.000000	6.537989
958.000000	6.534172
959.000000	7.011100
960.000000	6.519104
961.000000	6.515365
962.000000	6.507029
963.000000	6.499852
964.000000	6.494538
965.000000	6.491944
966.000000	6.482056
967.000000	6.483736
968.000000	6.472996
969.000000	6.463274
970.000000	6.460529
971.000000	6.464577
972.000000	6.454193
973.000000	6.445388
974.000000	6.439164
975.000000	6.432716
976.000000	6.431419
977.000000	6.424966
978.000000	6.417881
979.000000	6.408229
980.000000	6.406964
981.000000	6.404246
982.000000	6.398175
983.000000	6.395036
984.000000	6.392391
985.000000	6.382686
986.000000	6.380413
987.000000	6.372029
988.000000	6.369024
989.000000	6.368881
990.000000	6.363414
991.000000	6.359443
992.000000	6.355367
993.000000	6.351225
994.000000	6.344635
995.000000	6.343765
996.000000	6.343926
997.000000	6.335372
998.000000	6.326248
999.000000	6.319747
1000.000000	6.314660
1001.000000	6.315878
1002.000000	6.312246
1003.000000	6.310157
1004.000000	6.302480
1005.000000	6.296356
1006.000000	6.291720
1007.000000	6.289167
1008.000000	6.288611
1009.000000	6.285043
1010.000000	6.277378
1011.000000	6.275206
1012.000000	6.271672
1013.000000	6.269178
1014.000000	6.266105
1015.000000	6.263223
1016.000000	6.258379
1017.000000	6.253672
1018.000000	6.251286
1019.000000	6.246436
1020.000000	6.245443
1021.000000	6.238259
1022.000000	6.229047
1023.000000	6.223059
1024.000000	6.219758
1025.000000	6.218871
1026.000000	6.216173
1027.000000	6.214508
1028.000000	6.212420
1029.000000	6.208239
1030.000000	6.201541
1031.000000	6.197365
1032.000000	6.195491
1033.000000	6.193699
1034.000000	6.191014
1035.000000	6.184725
1036.000000	6.179721
1037.000000	6.176162
1038.000000	6.173012
1039.000000	6.170735
1040.000000	6.166078
1041.000000	6.163300
1042.000000	6.165257
1043.000000	6.162865
1044.000000	6.155586
1045.000000	6.149829
1046.000000	6.150870
1047.000000	6.146535
1048.000000	6.142766
1049.000000	6.144790
1050.000000	6.139198
1051.000000	6.135434
1052.000000	6.132478
1053.000000	6.126868
1054.000000	6.123789
1055.000000	6.120142
1056.000000	6.116066
1057.000000	6.113351
1058.000000	6.110662
1059.000000	6.105154
1060.000000	6.102381
1061.000000	6.097251
1062.000000	6.092700
1063.000000	6.088431
1064.000000	6.087395
1065.000000	6.086035
1066.000000	6.089508
1067.000000	6.082952
1068.000000	6.074382
1069.000000	6.072300
1070.000000	6.072200
1071.000000	6.068599
1072.000000	6.064907
1073.000000	6.057118
1074.000000	6.057028
1075.000000	6.050927
1076.000000	6.047110
1077.000000	6.048056
1078.000000	6.046749
1079.000000	6.038257
1080.000000	6.035291
1081.000000	6.036459
1082.000000	6.033482
1083.000000	6.034951
1084.000000	6.024467
1085.000000	6.023539
1086.000000	6.016747
1087.000000	6.015840
1088.000000	6.007862
1089.000000	6.009322
1090.000000	6.012292
1091.000000	6.003402
1092.000000	6.002010
1093.000000	6.000588
1094.000000	6.000697
1095.000000	5.996861
1096.000000	5.991497
1097.000000	5.992516
1098.000000	5.985775
1099.000000	5.985328
1100.000000	5.977111
1101.000000	5.977124
1102.000000	5.980205
1103.000000	5.973961
1104.000000	5.972031
1105.000000	5.977636
1106.000000	5.966802
1107.000000	5.962723
1108.000000	5.964960
1109.000000	5.960166
1110.000000	5.964870
1111.000000	5.957654
1112.000000	5.956120
1113.000000	5.954622
1114.000000	5.950913
1115.000000	5.946649
1116.000000	5.943185
1117.000000	5.950673
1118.000000	5.941895
1119.000000	5.941799
1120.000000	5.934084
1121.000000	5.936775
1122.000000	5.931787
1123.000000	5.924931
1124.000000	5.930296
1125.000000	5.937203
1126.000000	5.923958
1127.000000	5.928239
1128.000000	5.921471
1129.000000	5.924518
1130.000000	5.931165
1131.000000	5.931154
1132.000000	5.932258
1133.000000	5.921332
1134.000000	5.917818
1135.000000	5.908573
1136.000000	5.912241
1137.000000	5.923247
1138.000000	5.920552
1139.000000	5.923703
1140.000000	5.918611
1141.000000	5.930642
1142.000000	5.925166
1143.000000	5.923165
1144.000000	5.918980
1145.000000	5.918624
1146.000000	5.913712
1147.000000	5.914597
1148.000000	5.913675
1149.000000	5.910874
1150.000000	5.911282
1151.000000	5.910438
1152.000000	5.914064
1153.000000	5.894810
1154.000000	5.906619
1155.000000	5.907225
1156.000000	5.905249
1157.000000	5.914014
1158.000000	5.908635
1159.000000	5.913480
1160.000000	5.918523
1161.000000	5.921145
1162.000000	5.923016
1163.000000	5.925798
1164.000000	5.928431
1165.000000	5.928767
1166.000000	5.932732
1167.000000	5.936792
1168.000000	5.941308
1169.000000	5.939863
1170.000000	5.946031
1171.000000	5.941554
1172.000000	5.935149
1173.000000	5.941264
1174.000000	5.937405
1175.000000	5.943296
1176.000000	5.937786
1177.000000	5.944295
1178.000000	5.941121
1179.000000	5.945349
1180.000000	5.945344
1181.000000	5.948693
1182.000000	5.949885
1183.000000	5.943074
1184.000000	5.942151
1185.000000	5.940797
1186.000000	5.939351
1187.000000	5.929291
1188.000000	5.936797
1189.000000	5.933646
1190.000000	5.930023
1191.000000	5.929357
1192.000000	5.925522
1193.000000	5.918337
1194.000000	5.911538
1195.000000	5.909133
1196.000000	5.906834
1197.000000	5.908042
1198.000000	5.905013
1199.000000	5.893957
1200.000000	5.883854
1201.000000	5.884605
1202.000000	5.882135
1203.000000	5.873290
1204.000000	5.875354
1205.000000	5.871720
1206.000000	5.866250
1207.000000	5.864767
1208.000000	5.856272
1209.000000	5.848467
1210.000000	5.844404
1211.000000	5.842031
1212.000000	5.838291
1213.000000	5.830899
1214.000000	5.825947
1215.000000	5.818744
1216.000000	5.812743
1217.000000	5.811961
1218.000000	5.811648
1219.000000	5.804312
1220.000000	5.796018
1221.000000	5.796942
1222.000000	5.791714
1223.000000	5.782420
1224.000000	5.782182
1225.000000	5.784953
1226.000000	5.781093
1227.000000	5.781468
1228.000000	5.774525
1229.000000	5.772809
1230.000000	5.778629
1231.000000	5.774455
1232.000000	5.775033
1233.000000	5.773853
1234.000000	5.767338
1235.000000	5.767409
1236.000000	5.771399
1237.000000	5.771263
1238.000000	5.768115
1239.000000	5.765707
1240.000000	5.769462
1241.000000	5.775749
1242.000000	5.769838
1243.000000	5.769355
1244.000000	5.767365
1245.000000	5.763669
1246.000000	5.755305
1247.000000	5.748774
1248.000000	5.739987
1249.000000	5.738890
1250.000000	5.736230
1251.000000	5.729873
1252.000000	5.722623
1253.000000	5.717107
1254.000000	5.710086
1255.000000	5.705125
1256.000000	5.697048
1257.000000	5.694841
1258.000000	5.694495
1259.000000	5.692105
1260.000000	5.690154
1261.000000	5.674918
1262.000000	5.674934
1263.000000	5.674573
1264.000000	5.670883
1265.000000	5.668531
1266.000000	5.668257
1267.000000	5.667615
1268.000000	5.664854
1269.000000	5.666307
1270.000000	5.669235
1271.000000	5.665338
1272.000000	5.669511
1273.000000	5.669943
1274.000000	5.663165
1275.000000	5.662531
1276.000000	5.661000
1277.000000	5.665813
1278.000000	5.660088
1279.000000	5.655747
1280.000000	5.657837
1281.000000	5.659471
1282.000000	5.654934
1283.000000	5.648575
1284.000000	5.644499
1285.000000	5.640789
1286.000000	5.643688
1287.000000	5.644680
1288.000000	5.641209
1289.000000	5.635505
1290.000000	5.637241
1291.000000	5.635988
1292.000000	5.626374
1293.000000	5.621863
1294.000000	5.630327
1295.000000	5.624215
1296.000000	5.615491
1297.000000	5.614830
1298.000000	5.608407
1299.000000	5.607276
1300.000000	5.605089
1301.000000	5.602446
1302.000000	5.604948
1303.000000	5.603702
1304.000000	5.602450
1305.000000	5.601784
1306.000000	5.601718
1307.000000	5.599912
1308.000000	5.597899
1309.000000	5.598582
1310.000000	5.598897
1311.000000	5.596101
1312.000000	5.595875
1313.000000	5.596625
1314.000000	5.599429
1315.000000	5.607369
1316.000000	5.607023
1317.000000	5.605498
1318.000000	5.612867
1319.000000	5.613367
1320.000000	5.608864
1321.000000	5.611183
1322.000000	5.612577
1323.000000	5.612307
1324.000000	5.617375
1325.000000	5.622995
1326.000000	5.625930
1327.000000	5.623159
1328.000000	5.628784
1329.000000	5.630870
1330.000000	5.631564
1331.000000	5.635083
1332.000000	5.637522
1333.000000	5.647844
1334.000000	5.650615
1335.000000	5.649563
1336.000000	5.646867
1337.000000	5.655658
1338.000000	5.660843
1339.000000	5.664406
1340.000000	5.666009
1341.000000	5.669528
1342.000000	5.675187
1343.000000	5.677603
1344.000000	5.685739
1345.000000	5.695117
1346.000000	5.699161
1347.000000	5.698726
1348.000000	5.694897
1349.000000	5.707747
1350.000000	5.710681
1351.000000	5.719244
1352.000000	5.727433
1353.000000	5.724283
1354.000000	5.723066
1355.000000	5.724799
1356.000000	5.732194
1357.000000	5.746913
1358.000000	5.758074
1359.000000	5.770408
1360.000000	5.768073
1361.000000	5.747972
1362.000000	5.322367
1363.000000	5.321959
1364.000000	5.324378
1365.000000	5.337801
1366.000000	5.365350
1367.000000	5.365300
1368.000000	5.375878
1369.000000	5.402808
1370.000000	5.419396
1371.000000	5.431089
1372.000000	5.464248
1373.000000	5.512197
1374.000000	5.102687
1375.000000	5.145462
1376.000000	5.194126
1377.000000	5.229767
1378.000000	5.276451
1379.000000	5.322878
1380.000000	5.343180
1381.000000	5.335068
1382.000000	5.332069
1383.000000	5.330984
1384.000000	5.346293
1385.000000	5.348885
1386.000000	5.350825
1387.000000	5.338389
1388.000000	5.326180
1389.000000	5.335628
1390.000000	5.344446
1391.000000	5.325271
1392.000000	5.302019
1393.000000	5.305501
1394.000000	5.290104
1395.000000	5.247268
1396.000000	5.239569
1397.000000	5.262095
1398.000000	5.287125
1399.000000	5.252644
1400.000000	5.213654
1401.000000	5.217813
1402.000000	5.246336
1403.000000	5.259211
1404.000000	5.244999
1405.000000	5.242089
1406.000000	5.243713
1407.000000	5.251783
1408.000000	5.243631
1409.000000	5.242076
1410.000000	5.253277
1411.000000	5.267293
1412.000000	5.283737
1413.000000	5.270396
1414.000000	5.264362
1415.000000	5.280134
1416.000000	5.293687
1417.000000	5.298376
1418.000000	5.292041
1419.000000	5.295236
1420.000000	5.307925
1421.000000	5.327865
1422.000000	5.325835
1423.000000	5.319569
1424.000000	5.328495
1425.000000	5.332749
1426.000000	5.340393
1427.000000	5.340567
1428.000000	5.340958
1429.000000	5.361979
1430.000000	5.363268
1431.000000	5.355848
1432.000000	5.360663
1433.000000	5.364595
1434.000000	5.365519
1435.000000	5.373791
1436.000000	5.374750
1437.000000	5.384086
1438.000000	5.377722
1439.000000	5.387625
1440.000000	5.382994
1441.000000	5.386022
1442.000000	4.944577
1443.000000	4.946955
1444.000000	4.954834
1445.000000	4.947091
1446.000000	4.951851
1447.000000	4.956223
1448.000000	4.967696
1449.000000	4.967901
1450.000000	4.959952
1451.000000	4.953693
1452.000000	4.963901
1453.000000	4.961728
1454.000000	4.965144
1455.000000	4.972228
1456.000000	4.974094
1457.000000	4.977886
1458.000000	4.980466
1459.000000	4.982213
1460.000000	4.979651
1461.000000	4.975929
1462.000000	4.986002
1463.000000	4.983702
1464.000000	4.986499
1465.000000	4.987827
1466.000000	4.988568
1467.000000	4.998677
1468.000000	5.007177
1469.000000	5.006785
1470.000000	5.002560
1471.000000	4.993030
1472.000000	4.995365
1473.000000	5.008375
1474.000000	5.009265
1475.000000	5.008745
1476.000000	5.004676
1477.000000	5.009051
1478.000000	5.020828
1479.000000	5.015102
1480.000000	5.011794
1481.000000	5.018553
1482.000000	5.026699
1483.000000	5.030551
1484.000000	5.027108
1485.000000	5.032795
1486.000000	5.034121
1487.000000	5.029827
1488.000000	5.034957
1489.000000	5.035829
1490.000000	5.038410
1491.000000	5.039259
1492.000000	5.048498
1493.000000	5.055122
1494.000000	5.053277
1495.000000	5.051282
1496.000000	5.053340
1497.000000	5.045900
1498.000000	5.048309
1499.000000	5.047337
1500.000000	5.048622
1501.000000	5.043236
1502.000000	5.046597
1503.000000	5.041118
1504.000000	5.045366
1505.000000	5.041580
1506.000000	5.037366
1507.000000	5.042136
1508.000000	5.035828
1509.000000	5.033044
1510.000000	5.033172
1511.000000	5.026193
1512.000000	5.024170
1513.000000	5.024532
1514.000000	5.020478
1515.000000	5.016860
1516.000000	5.014297
1517.000000	5.013695
1518.000000	5.012523
1519.000000	5.008057
1520.000000	5.005715
1521.000000	5.003276
1522.000000	5.002796
1523.000000	5.004771
1524.000000	5.001687
1525.000000	4.996540
1526.000000	4.996014
1527.000000	4.990630
1528.000000	4.984812
1529.000000	4.986704
1530.000000	4.984947
1531.000000	4.980790
1532.000000	4.978474
1533.000000	4.983160
1534.000000	4.984145
1535.000000	4.973531
1536.000000	4.972605
1537.000000	4.977189
1538.000000	4.975292
1539.000000	4.971607
1540.000000	4.966561
1541.000000	5.411188
1542.000000	5.409627
1543.000000	5.410221
1544.000000	4.967709
1545.000000	5.408153
1546.000000	5.400232
1547.000000	5.399549
1548.000000	5.400807
1549.000000	5.398950
1550.000000	5.392237
1551.000000	5.385452
1552.000000	5.383061
1553.000000	5.379216
1554.000000	5.376018
1555.000000	5.376183
1556.000000	5.375092
1557.000000	5.371942
1558.000000	5.377283
1559.000000	5.377447
1560.000000	5.370656
1561.000000	5.371034
1562.000000	5.368937
1563.000000	5.365583
1564.000000	5.368869
1565.000000	5.369971
1566.000000	5.367866
1567.000000	5.370061
1568.000000	5.373904
1569.000000	5.373264
1570.000000	5.369036
1571.000000	5.365211
1572.000000	5.368734
1573.000000	5.369250
1574.000000	5.367716
1575.000000	5.367557
1576.000000	5.363107
1577.000000	5.356909
1578.000000	5.358077
1579.000000	5.359764
1580.000000	5.354068
1581.000000	5.348267
1582.000000	5.346502
1583.000000	5.346676
1584.000000	5.340603
1585.000000	5.333249
1586.000000	5.336325
1587.000000	5.336411
1588.000000	5.335766
1589.000000	5.339417
1590.000000	5.334064
1591.000000	5.331793
1592.000000	5.329936
1593.000000	5.327542
1594.000000	5.327123
1595.000000	5.323682
1596.000000	5.319541
1597.000000	5.316399
1598.000000	5.317122
1599.000000	5.317416
1600.000000	5.311172
1601.000000	5.304053
1602.000000	5.302931
1603.000000	5.306331
1604.000000	5.299580
1605.000000	5.294158
1606.000000	5.291846
1607.000000	5.292189
1608.000000	5.286559
1609.000000	5.285561
1610.000000	5.287229
1611.000000	5.279905
1612.000000	5.278598
1613.000000	5.283989
1614.000000	5.279071
1615.000000	5.279551
1616.000000	5.281058
1617.000000	5.275913
1618.000000	5.272661
1619.000000	5.274221
1620.000000	5.268608
1621.000000	5.269530
1622.000000	5.270138
1623.000000	5.264493
1624.000000	5.266945
1625.000000	5.263650
1626.000000	5.260998
1627.000000	5.263198
1628.000000	5.259114
1629.000000	5.258310
1630.000000	5.258187
1631.000000	5.254581
1632.000000	5.254917
1633.000000	5.252661
1634.000000	5.251528
1635.000000	5.256271
1636.000000	5.260195
1637.000000	5.256308
1638.000000	5.252504
1639.000000	5.248290
1640.000000	5.251357
1641.000000	4.809992
1642.000000	4.811448
1643.000000	4.807709
1644.000000	4.806852
1645.000000	4.804963
1646.000000	4.801467
1647.000000	4.807622
1648.000000	4.811829
1649.000000	4.813970
1650.000000	4.815662
1651.000000	4.817958
1652.000000	4.815795
1653.000000	4.816954
1654.000000	4.819939
1655.000000	4.820902
1656.000000	4.827081
1657.000000	4.828518
1658.000000	4.827277
1659.000000	4.833885
1660.000000	4.838154
1661.000000	4.838828
1662.000000	4.836576
1663.000000	4.837131
1664.000000	4.841409
1665.000000	4.841631
1666.000000	4.850339
1667.000000	4.853939
1668.000000	4.869412
1669.000000	4.875521
1670.000000	4.886847
1671.000000	4.895601
1672.000000	4.899726
1673.000000	4.907917
1674.000000	4.906020
1675.000000	4.914320
1676.000000	4.916118
1677.000000	4.929788
1678.000000	4.929473
1679.000000	4.939673
1680.000000	4.940065
1681.000000	4.950260
1682.000000	4.958314
1683.000000	4.964674
1684.000000	4.974200
1685.000000	4.980820
1686.000000	4.974482
1687.000000	4.982981
1688.000000	4.983632
1689.000000	4.976400
1690.000000	4.985270
1691.000000	4.988842
1692.000000	4.986201
1693.000000	4.972125
1694.000000	4.977739
1695.000000	4.972802
1696.000000	4.974894
1697.000000	4.980042
1698.000000	4.977596
1699.000000	4.971031
1700.000000	4.979132
1701.000000	4.980664
1702.000000	4.970694
1703.000000	4.979346
1704.000000	4.983508
1705.000000	4.980292
1706.000000	4.979614
1707.000000	4.981487
1708.000000	4.980897
1709.000000	4.979655
1710.000000	4.990590
1711.000000	4.535443
1712.000000	4.991775
1713.000000	4.548917
1714.000000	4.550495
1715.000000	4.560095
1716.000000	4.562456
1717.000000	4.575723
1718.000000	4.578200
1719.000000	4.583860
1720.000000	4.586114
1721.000000	4.588425
1722.000000	4.593502
1723.000000	4.596111
1724.000000	4.596540
1725.000000	4.591035
1726.000000	4.598471
1727.000000	4.597974
1728.000000	4.594686
1729.000000	4.592098
1730.000000	4.586212
1731.000000	4.582587
1732.000000	4.581835
1733.000000	4.582013
1734.000000	4.583228
1735.000000	4.575867
1736.000000	4.573229
1737.000000	4.568929
1738.000000	4.572768
1739.000000	4.563314
1740.000000	4.561568
1741.000000	4.560607
1742.000000	5.011649
1743.000000	4.999961
1744.000000	4.995457
1745.000000	4.995568
1746.000000	4.992517
1747.000000	4.986746
1748.000000	4.988677
1749.000000	4.984106
1750.000000	4.977638
1751.000000	4.987697
1752.000000	4.989879
1753.000000	4.985533
1754.000000	4.985406
1755.000000	4.980157
1756.000000	4.979204
1757.000000	4.980813
1758.000000	4.981488
1759.000000	4.972157
1760.000000	4.969727
1761.000000	4.969292
1762.000000	4.971194
1763.000000	4.971507
1764.000000	4.968926
1765.000000	4.966117
1766.000000	4.959929
1767.000000	4.962646
1768.000000	4.961003
1769.000000	4.956387
1770.000000	4.950926
1771.000000	4.953226
1772.000000	4.955635
1773.000000	4.948917
1774.000000	4.943291
1775.000000	4.944137
1776.000000	4.938294
1777.000000	4.935555
1778.000000	4.935707
1779.000000	4.932701
1780.000000	4.928732
1781.000000	4.925005
1782.000000	4.923996
1783.000000	4.927381
1784.000000	4.925271
1785.000000	4.924979
1786.000000	4.929486
1787.000000	4.926383
1788.000000	4.923864
1789.000000	4.927597
1790.000000	4.924829
1791.000000	4.926890
1792.000000	4.930957
1793.000000	4.923859
1794.000000	4.921023
1795.000000	4.921832
1796.000000	4.927773
1797.000000	4.930007
1798.000000	4.934669
1799.000000	4.937457
1800.000000	4.931025
1801.000000	4.916332
1802.000000	4.919263
1803.000000	4.931796
1804.000000	4.935097
1805.000000	4.928666
1806.000000	4.920892
1807.000000	4.923688
1808.000000	4.938578
1809.000000	4.943113
1810.000000	4.935501
1811.000000	4.925888
1812.000000	4.924564
1813.000000	4.930516
1814.000000	4.931055
1815.000000	4.928977
1816.000000	4.936988
1817.000000	4.961257
1818.000000	4.978504
1819.000000	4.962002
1820.000000	4.917084
1821.000000	4.881785
1822.000000	4.891147
1823.000000	4.937485
1824.000000	4.965865
1825.000000	4.964297
1826.000000	4.958480
1827.000000	4.954974
1828.000000	4.950161
1829.000000	4.940668
1830.000000	4.923171
1831.000000	4.921754
1832.000000	4.946887
1833.000000	4.977885
1834.000000	4.989058
1835.000000	4.980963
1836.000000	4.963831
1837.000000	4.953499
1838.000000	4.955351
1839.000000	4.951827
1840.000000	4.925940
1841.000000	4.889260
1842.000000	4.886039
1843.000000	4.924788
1844.000000	4.983531
1845.000000	5.026125
1846.000000	5.002311
1847.000000	4.935076
1848.000000	4.887816
1849.000000	4.892624
1850.000000	4.937131
1851.000000	4.974956
1852.000000	4.980619
1853.000000	4.966189
1854.000000	4.951873
1855.000000	4.956481
1856.000000	4.978002
1857.000000	4.989976
1858.000000	4.973262
1859.000000	4.953809
1860.000000	4.946806
1861.000000	4.944699
1862.000000	4.962930
1863.000000	4.999266
1864.000000	5.035486
1865.000000	5.063573
1866.000000	5.083119
1867.000000	5.099081
1868.000000	5.115497
1869.000000	5.100898
1870.000000	5.066360
1871.000000	5.046262
1872.000000	5.031390
1873.000000	5.017056
1874.000000	5.015922
1875.000000	5.023332
1876.000000	5.039743
1877.000000	5.044916
1878.000000	5.062236
1879.000000	5.098562
1880.000000	5.138558
1881.000000	5.158052
1882.000000	5.167837
1883.000000	4.712167
1884.000000	4.721953
1885.000000	4.732526
1886.000000	4.762501
1887.000000	4.804603
1888.000000	4.835797
1889.000000	4.860580
1890.000000	4.870344
1891.000000	4.864606
1892.000000	4.869286
1893.000000	4.895721
1894.000000	4.939974
1895.000000	4.995403
1896.000000	5.052377
1897.000000	5.083452
1898.000000	5.091446
1899.000000	4.618803
1900.000000	4.632499
1901.000000	4.660690
1902.000000	4.695029
1903.000000	4.729528
1904.000000	4.732867
1905.000000	4.716533
1906.000000	4.714425
1907.000000	4.745893
1908.000000	4.781630
1909.000000	4.831043
1910.000000	4.877047
1911.000000	4.887978
1912.000000	4.877350
1913.000000	4.861027
1914.000000	4.867348
1915.000000	4.411636
1916.000000	4.450119
1917.000000	4.493942
1918.000000	4.507118
1919.000000	4.508656
1920.000000	4.496943
1921.000000	4.497103
1922.000000	4.486840
1923.000000	4.501526
1924.000000	4.531125
1925.000000	4.545714
1926.000000	4.535336
1927.000000	4.533118
1928.000000	4.531130
1929.000000	4.526080
1930.000000	4.530863
1931.000000	4.534351
1932.000000	4.549371
1933.000000	4.557499
1934.000000	4.568500
1935.000000	4.571642
1936.000000	4.572161
1937.000000	4.567429
1938.000000	4.559993
1939.000000	4.542079
1940.000000	4.538301
1941.000000	4.541463
1942.000000	4.544520
1943.000000	4.550059
1944.000000	4.546798
1945.000000	4.541022
1946.000000	4.540874
1947.000000	4.528833
1948.000000	4.530730
1949.000000	4.536053
1950.000000	4.532689
1951.000000	4.528900
1952.000000	4.526255
1953.000000	4.526160
1954.000000	4.512620
1955.000000	4.508790
1956.000000	4.503409
1957.000000	4.504065
1958.000000	4.501937
1959.000000	4.491821
1960.000000	4.498512
1961.000000	4.493946
1962.000000	4.481340
1963.000000	4.480465
1964.000000	4.483886
1965.000000	4.477540
1966.000000	4.485088
1967.000000	4.480523
1968.000000	4.479796
1969.000000	4.475958
1970.000000	4.473723
1971.000000	4.470417
1972.000000	4.943836
1973.000000	4.935433
1974.000000	4.935407
1975.000000	4.929957
1976.000000	4.925859
1977.000000	4.924853
1978.000000	4.924522
1979.000000	4.916489
1980.000000	4.918591
1981.000000	4.912636
1982.000000	4.909962
1983.000000	4.910896
1984.000000	4.905024
1985.000000	4.902978
1986.000000	4.900087
1987.000000	4.904281
1988.000000	4.888252
1989.000000	4.890482
1990.000000	4.895084
1991.000000	4.890770
1992.000000	4.876661
1993.000000	4.877025
1994.000000	4.878730
1995.000000	4.880605
1996.000000	4.876895
1997.000000	4.877788
1998.000000	4.873058
1999.000000	4.875462
2000.000000	4.871066
2001.000000	4.876899
2002.000000	4.874556
2003.000000	4.878588
2004.000000	4.873695
2005.000000	4.867346
2006.000000	4.865571
2007.000000	4.867425
2008.000000	4.874238
2009.000000	4.872559
2010.000000	4.875936
2011.000000	4.877082
2012.000000	4.881272
2013.000000	4.883137
2014.000000	4.885366
2015.000000	4.883481
2016.000000	4.886101
2017.000000	4.902963
2018.000000	4.899418
2019.000000	4.904508
2020.000000	4.912969
2021.000000	4.917856
2022.000000	5.400446
2023.000000	5.405682
2024.000000	4.930683
2025.000000	4.939746
2026.000000	4.954107
2027.000000	4.959098
2028.000000	4.970044
2029.000000	4.973353
2030.000000	4.982232
2031.000000	4.992482
2032.000000	4.994760
2033.000000	5.002906
2034.000000	5.017148
2035.000000	5.030009
2036.000000	5.034120
2037.000000	5.050598
2038.000000	5.055470
2039.000000	5.062337
2040.000000	5.075526
2041.000000	5.088786
2042.000000	5.093164
2043.000000	5.094099
2044.000000	5.110500
2045.000000	5.125678
2046.000000	5.128543
2047.000000	5.136719
2048.000000	5.148844
2049.000000	5.158551
2050.000000	5.158627
2051.000000	5.164486
2052.000000	5.173826
2053.000000	5.176401
2054.000000	5.174466
2055.000000	5.174762
2056.000000	5.177051
2057.000000	5.181359
2058.000000	5.179948
2059.000000	5.178625
2060.000000	5.176839
2061.000000	5.169925
2062.000000	5.163646
2063.000000	5.162753
2064.000000	5.162290
2065.000000	5.158488
2066.000000	5.153562
2067.000000	5.629664
2068.000000	5.628269
2069.000000	5.624700
2070.000000	5.630130
2071.000000	5.625156
2072.000000	5.618436
2073.000000	5.132444
2074.000000	5.128447
2075.000000	5.128893
2076.000000	5.609994
2077.000000	5.128727
2078.000000	5.609986
2079.000000	5.610481
2080.000000	5.612943
2081.000000	5.610596
2082.000000	5.611733
2083.000000	5.618664
2084.000000	5.621270
2085.000000	5.618418
2086.000000	5.618930
2087.000000	5.621585
2088.000000	5.630163
2089.000000	5.635855
2090.000000	5.636559
2091.000000	5.635145
2092.000000	5.638437
2093.000000	5.640918
2094.000000	5.651359
2095.000000	5.657679
2096.000000	5.656089
2097.000000	5.662785
2098.000000	5.666604
2099.000000	5.667792
2100.000000	5.673536
2101.000000	5.683758
2102.000000	5.686016
2103.000000	5.693706
2104.000000	5.703918
2105.000000	5.706228
2106.000000	5.706821
2107.000000	5.713565
2108.000000	5.727281
2109.000000	5.737476
2110.000000	5.741075
2111.000000	5.744075
2112.000000	5.749112
2113.000000	5.759197
2114.000000	5.763995
2115.000000	5.771269
2116.000000	5.777226
2117.000000	5.781867
2118.000000	5.786460
2119.000000	5.797432
2120.000000	5.803580
2121.000000	5.812280
2122.000000	5.822439
2123.000000	5.344844
2124.000000	5.356087
2125.000000	5.847485
2126.000000	5.855000
2127.000000	5.865139
2128.000000	5.868106
2129.000000	5.871814
2130.000000	5.880967
2131.000000	5.890036
2132.000000	5.898816
2133.000000	5.906634
2134.000000	5.913379
2135.000000	5.916516
2136.000000	5.928184
2137.000000	5.448876
2138.000000	5.946584
2139.000000	5.953894
2140.000000	5.956006
2141.000000	5.969949
2142.000000	5.977915
2143.000000	5.987225
2144.000000	5.511233
2145.000000	5.522089
2146.000000	6.019492
2147.000000	6.025349
2148.000000	5.544070
2149.000000	5.558293
2150.000000	5.565979
2151.000000	5.573899
2152.000000	5.579083
2153.000000	5.588419
2154.000000	5.596294
2155.000000	5.604522
2156.000000	5.611346
2157.000000	5.618042
2158.000000	5.625108
2159.000000	5.627722
2160.000000	5.631720
2161.000000	5.644711
2162.000000	5.648429
2163.000000	5.652743
2164.000000	5.653990
2165.000000	5.661732
2166.000000	5.666827
2167.000000	5.671434
2168.000000	5.189897
2169.000000	5.198179
2170.000000	5.691705
2171.000000	5.698188
2172.000000	5.701032
2173.000000	5.711878
2174.000000	5.724434
2175.000000	5.242856
2176.000000	5.248526
2177.000000	5.254194
2178.000000	5.753133
2179.000000	5.762629
2180.000000	5.287432
2181.000000	5.298412
2182.000000	5.310472
2183.000000	5.324652
2184.000000	5.338779
2185.000000	5.357012
2186.000000	5.382341
2187.000000	4.919724
2188.000000	5.431632
2189.000000	4.968340
2190.000000	4.998055
2191.000000	5.522881
2192.000000	5.063697
2193.000000	5.097363
2194.000000	5.136464
2195.000000	5.181999
2196.000000	4.730873
2197.000000	4.769333
2198.000000	4.813777
2199.000000	4.850221
2200.000000	4.883219
2201.000000	4.917797
2202.000000	4.951307
2203.000000	4.974707
2204.000000	5.001290
2205.000000	5.023275
2206.000000	4.541874
2207.000000	4.555496
2208.000000	4.562943
2209.000000	5.050138
2210.000000	4.561606
2211.000000	4.555482
2212.000000	4.545834
2213.000000	4.533494
2214.000000	4.525856
2215.000000	4.520741
2216.000000	4.503956
2217.000000	4.489402
2218.000000	4.472576
2219.000000	4.462252
2220.000000	4.453024
2221.000000	4.440198
2222.000000	4.418927
2223.000000	4.415636
2224.000000	4.400171
2225.000000	4.878998
2226.000000	4.379850
2227.000000	4.373602
2228.000000	4.371020
2229.000000	4.855593
2230.000000	4.851084
2231.000000	4.844226
2232.000000	4.833571
2233.000000	4.840926
2234.000000	4.346754
2235.000000	4.360970
2236.000000	4.347276
2237.000000	4.843100
2238.000000	4.355336
2239.000000	4.355353
2240.000000	4.355434
2241.000000	4.851758
2242.000000	4.855958
2243.000000	4.856297
2244.000000	4.859392
2245.000000	4.868841
2246.000000	4.862769
2247.000000	4.861220
2248.000000	4.374182
2249.000000	4.868156
2250.000000	4.872357
2251.000000	4.379102
2252.000000	4.387606
2253.000000	4.870938
2254.000000	4.870278
2255.000000	4.876314
2256.000000	4.871097
2257.000000	4.862826
2258.000000	4.864742
2259.000000	4.862478
2260.000000	4.863603
2261.000000	4.852920
2262.000000	4.844744
2263.000000	4.842414
2264.000000	4.838717
2265.000000	4.830133
2266.000000	4.827903
2267.000000	4.824874
2268.000000	5.313388
2269.000000	5.304493
2270.000000	5.298531
2271.000000	5.287180
2272.000000	5.283715
2273.000000	4.787862
2274.000000	5.275536
2275.000000	5.268393
2276.000000	5.262752
2277.000000	5.263111
2278.000000	5.249350
2279.000000	5.244653
2280.000000	5.239343
2281.000000	5.238765
2282.000000	5.232402
2283.000000	5.233615
2284.000000	5.717763
2285.000000	5.711620
2286.000000	5.708887
2287.000000	5.705922
2288.000000	5.698516
2289.000000	5.690717
2290.000000	5.686626
2291.000000	5.680575
2292.000000	5.683151
2293.000000	5.678401
2294.000000	5.676161
2295.000000	6.165886
2296.000000	6.158739
2297.000000	6.153789
2298.000000	5.658679
2299.000000	6.150843
2300.000000	6.143101
2301.000000	6.136625
2302.000000	6.131450
2303.000000	6.129574
2304.000000	5.629643
2305.000000	6.119689
2306.000000	6.118967
2307.000000	6.116692
2308.000000	6.105666
2309.000000	6.100410
2310.000000	6.097336
2311.000000	6.092684
2312.000000	6.089425
2313.000000	6.084280
2314.000000	6.085260
2315.000000	6.081936
2316.000000	6.075665
2317.000000	6.072007
2318.000000	6.565678
2319.000000	6.071382
2320.000000	6.072954
2321.000000	6.075200
2322.000000	6.577401
2323.000000	6.575639
2324.000000	6.075845
2325.000000	6.074077
2326.000000	6.574295
2327.000000	6.577510
2328.000000	6.580663
2329.000000	6.574967
2330.000000	6.579580
2331.000000	6.583721
2332.000000	6.586592
2333.000000	6.589399
2334.000000	6.589076
2335.000000	6.591494
2336.000000	6.595690
2337.000000	7.093105
2338.000000	6.593743
2339.000000	6.595687
2340.000000	6.594416
2341.000000	6.596818
2342.000000	6.601733
2343.000000	6.605153
2344.000000	7.102329
2345.000000	7.098736
2346.000000	7.091722
2347.000000	7.078727
2348.000000	7.064363
2349.000000	7.072804
2350.000000	7.106251
2351.000000	7.131638
2352.000000	7.126920
2353.000000	7.115953
2354.000000	7.603224
2355.000000	7.099863
2356.000000	7.099278
2357.000000	6.599996
2358.000000	6.599544
2359.000000	7.094711
2360.000000	7.094850
2361.000000	7.097352
2362.000000	7.595699
2363.000000	7.096257
2364.000000	7.098428
2365.000000	7.594462
2366.000000	7.590044
2367.000000	7.092362
2368.000000	7.096121
2369.000000	7.595705
2370.000000	7.591499
2371.000000	7.590505
2372.000000	7.592982
2373.000000	7.095132
2374.000000	7.097127
2375.000000	7.600849
2376.000000	7.601409
2377.000000	7.103935
2378.000000	7.105857
2379.000000	7.103344
2380.000000	7.600765
2381.000000	7.601144
2382.000000	7.604081
2383.000000	7.610427
2384.000000	7.612875
2385.000000	7.617125
2386.000000	8.117544
2387.000000	8.119912
2388.000000	8.117268
2389.000000	8.119835
2390.000000	8.126270
2391.000000	8.129581
2392.000000	8.133350
2393.000000	7.644180
2394.000000	7.645012
2395.000000	7.150869
2396.000000	7.156392
2397.000000	8.155094
2398.000000	8.159436
2399.000000	7.668163
2400.000000	7.672271
2401.000000	7.680288
2402.000000	7.685426
2403.000000	8.185752
2404.000000	8.189929
2405.000000	8.194901
2406.000000	8.205956
2407.000000	8.217711
2408.000000	8.220463
2409.000000	8.226834
2410.000000	8.235896
2411.000000	8.246386
2412.000000	8.251460
2413.000000	8.253122
2414.000000	8.257846
2415.000000	8.765927
2416.000000	8.282177
2417.000000	8.296113
2418.000000	8.808617
2419.000000	8.819629
2420.000000	8.334083
2421.000000	8.337975
2422.000000	7.842418
2423.000000	8.842141
2424.000000	8.858019
2425.000000	8.869255
2426.000000	8.378762
2427.000000	8.888812
2428.000000	9.392623
2429.000000	8.896434
2430.000000	8.908893
2431.000000	8.913894
2432.000000	8.425699
2433.000000	8.436387
2434.000000	8.936859
2435.000000	8.946592
2436.000000	8.954856
2437.000000	8.975551
2438.000000	8.976555
2439.000000	8.483094
2440.000000	8.992709
2441.000000	9.508335
2442.000000	9.518459
2443.000000	9.026580
2444.000000	9.031393
2445.000000	9.537983
2446.000000	10.049670
2447.000000	10.058328
2448.000000	10.073402
2449.000000	10.076847
2450.000000	9.576961
2451.000000	10.587642
2452.000000	10.586652
2453.000000	10.601557
2454.000000	11.101299
2455.000000	10.603976
2456.000000	10.122682
2457.000000	10.135057
2458.000000	10.150605
2459.000000	10.648153
2460.000000	11.154181
2461.000000	11.157843
2462.000000	11.164458
2463.000000	11.174984
2464.000000	12.185331
2465.000000	12.685631
2466.000000	13.195528
2467.000000	13.189166
2468.000000	13.710234
2469.000000	12.206845
2470.000000	12.710608
2471.000000	13.191491
2472.000000	13.713667
2473.000000	13.709705
2474.000000	14.224491
2475.000000	14.727993
2476.000000	14.721740
2477.000000	15.226946
2478.000000	15.231330
2479.000000	15.708710
2480.000000	16.726526
2481.000000	16.722947
2482.000000	15.727710
2483.000000	16.728345
2484.000000	17.248530
2485.000000	16.751888
2486.000000	17.223749
2487.000000	18.217060
2488.000000	18.224408
2489.000000	18.712693
2490.000000	18.208428
2491.000000	19.225828
2492.000000	19.206188
2493.000000	19.715145
2494.000000	19.713015
2495.000000	20.709845
2496.000000	22.204728
2497.000000	22.230370
2498.000000	22.189188
2499.000000	22.715558
2500.000000	23.206082
2501.000000	nan
2502.000000	nan
2503.000000	nan
2504.000000	nan
2505.000000	nan
2506.000000	nan
2507.000000	nan
2508.000000	nan
2509.000000	nan
2510.000000	nan
2511.000000	nan
2512.000000	nan
2513.000000	nan
2514.000000	nan
2515.000000	nan
2516.000000	nan
2517.000000	nan
2518.000000	nan
2519.000000	nan
2520.000000	nan
2521.000000	nan
2522.000000	nan
2523.000000	nan
2524.000000	nan
2525.000000	nan
2526.000000	nan
2527.000000	nan
2528.000000	nan
2529.000000	nan
2530.000000	nan
2531.000000	nan
2532.000000	nan
2533.000000	nan
2534.000000	nan
2535.000000	nan
2536.000000	nan
2537.000000	nan
2538.000000	nan
2539.000000	nan
2540.000000	nan
2541.000000	nan
2542.000000	nan
2543.000000	nan
2544.000000	nan
2545.000000	nan
2546.000000	nan
2547.000000	nan
2548.000000	nan
2549.000000	nan
2550.000000	nan
2551.000000	nan
2552.000000	nan
2553.000000	nan
2554.000000	nan
2555.000000	nan
2556.000000	nan
2557.000000	nan
2558.000000	nan
2559.000000	nan
2560.000000	nan
2561.000000	nan
2562.000000	nan
2563.000000	nan
2564.000000	nan
2565.000000	nan
2566.000000	nan
2567.000000	nan
2568.000000	nan
2569.000000	nan
2570.000000	nan
2571.000000	nan
2572.000000	nan
2573.000000	nan
2574.000000	nan
2575.000000	nan
2576.000000	nan
2577.000000	nan
2578.000000	nan
2579.000000	nan
2580.000000	nan
2581.000000	nan
2582.000000	nan
2583.000000	nan
2584.000000	nan
2585.000000	nan
2586.000000	nan
2587.000000	nan
2588.000000	nan
2589.000000	nan
2590.000000	nan
2591.000000	nan
2592.000000	nan
2593.000000	nan
2594.000000	nan
2595.000000	nan
2596.000000	nan
2597.000000	nan
2598.000000	nan
2599.000000	nan
2600.000000	nan
2601.000000	nan
2602.000000	nan
2603.000000	nan
2604.000000	nan
2605.000000	nan
2606.000000	nan
2607.000000	nan
2608.000000	nan
2609.000000	nan
2610.000000	nan
2611.000000	nan
2612.000000	nan
2613.000000	nan
2614.000000	nan
2615.000000	nan
2616.000000	nan
2617.000000	nan
2618.000000	nan
2619.000000	nan
2620.000000	nan
2621.000000	nan
2622.000000	nan
2623.000000	nan
2624.000000	nan
2625.000000	nan
2626.000000	nan
2627.000000	nan
2628.000000	nan
2629.000000	nan
2630.000000	nan
2631.000000	nan
2632.000000	nan
2633.000000	nan
2634.000000	nan
2635.000000	nan
2636.000000	nan
2637.000000	nan
2638.000000	nan
2639.000000	nan
2640.000000	nan
2641.000000	nan
2642.000000	nan
2643.000000	nan
2644.000000	nan
2645.000000	nan
2646.000000	nan
2647.000000	nan
2648.000000	nan
2649.000000	nan
2650.000000	nan
2651.000000	nan
2652.000000	nan
2653.000000	nan
2654.000000	nan
2655.000000	nan
2656.000000	nan
2657.000000	nan
2658.000000	nan
2659.000000	nan
2660.000000	nan
2661.000000	nan
2662.000000	nan
2663.000000	nan
2664.000000	nan
2665.000000	nan
2666.000000	nan
2667.000000	nan
2668.000000	nan
2669.000000	nan
2670.000000	nan
2671.000000	nan
2672.000000	nan
2673.000000	nan
2674.000000	nan
2675.000000	nan
2676.000000	nan
2677.000000	nan
2678.000000	nan
2679.000000	nan
2680.000000	nan
2681.000000	nan
2682.000000	nan
2683.000000	nan
2684.000000	nan
2685.000000	nan
2686.000000	nan
2687.000000	nan
2688.000000	nan
2689.000000	nan
2690.000000	nan
2691.000000	nan
2692.000000	nan
2693.000000	nan
2694.000000	nan
2695.000000	nan
2696.000000	nan
2697.000000	nan
2698.000000	nan
2699.000000	nan
2700.000000	nan
2701.000000	nan
2702.000000	nan
2703.000000	nan
2704.000000	nan
2705.000000	nan
2706.000000	nan
2707.000000	nan
2708.000000	nan
2709.000000	nan
2710.000000	nan
2711.000000	nan
2712.000000	nan
2713.000000	nan
2714.000000	nan
2715.000000	nan
2716.000000	nan
2717.000000	nan
2718.000000	nan
2719.000000	nan
2720.000000	nan
2721.000000	nan
2722.000000	nan
2723.000000	nan
2724.000000	nan
2725.000000	nan
2726.000000	nan
2727.000000	nan
2728.000000	nan
2729.000000	nan
2730.000000	nan
2731.000000	nan
2732.000000	nan
2733.000000	nan
2734.000000	nan
2735.000000	nan
2736.000000	nan
2737.000000	nan
2738.000000	nan
2739.000000	nan
2740.000000	nan
2741.000000	nan
2742.000000	nan
2743.000000	nan
2744.000000	nan
2745.000000	nan
2746.000000	nan
2747.000000	nan
2748.000000	nan
2749.000000	nan
2750.000000	nan
2751.000000	nan
2752.000000	nan
2753.000000	nan
2754.000000	nan
2755.000000	nan
2756.000000	nan
2757.000000	nan
2758.000000	nan
2759.000000	nan
2760.000000	nan
2761.000000	nan
2762.000000	nan
2763.000000	nan
2764.000000	nan
2765.000000	nan
2766.000000	nan
2767.000000	nan
2768.000000	nan
2769.000000	nan
2770.000000	nan
2771.000000	nan
2772.000000	nan
2773.000000	nan
2774.000000	nan
2775.000000	nan
2776.000000	nan
2777.000000	nan
2778.000000	nan
2779.000000	nan
2780.000000	nan
2781.000000	nan
2782.000000	nan
2783.000000	nan
2784.000000	nan
2785.000000	nan
2786.000000	nan
2787.000000	nan
2788.000000	nan
2789.000000	nan
2790.000000	nan
2791.000000	nan
2792.000000	nan
2793.000000	nan
2794.000000	nan
2795.000000	nan
2796.000000	nan
2797.000000	nan
2798.000000	nan
2799.000000	nan
2800.000000	nan
2801.000000	nan
2802.000000	nan
2803.000000	nan
2804.000000	nan
2805.000000	nan
2806.000000	nan
2807.000000	nan
2808.000000	nan
2809.000000	nan
2810.000000	nan
2811.000000	nan
2812.000000	nan
2813.000000	nan
2814.000000	nan
2815.000000	nan
2816.000000	nan
2817.000000	nan
2818.000000	nan
2819.000000	nan
2820.000000	nan
2821.000000	nan
2822.000000	nan
2823.000000	nan
2824.000000	nan
2825.000000	nan
2826.000000	nan
2827.000000	nan
2828.000000	nan
2829.000000	nan
2830.000000	nan
2831.000000	nan
2832.000000	nan
2833.000000	nan
2834.000000	nan
2835.000000	nan
2836.000000	nan
2837.000000	nan
2838.000000	nan
2839.000000	nan
2840.000000	nan
2841.000000	nan
2842.000000	nan
2843.000000	nan
2844.000000	nan
2845.000000	nan
2846.000000	nan
2847.000000	nan
2848.000000	nan
2849.000000	nan
2850.000000	nan
2851.000000	nan
2852.000000	nan
2853.000000	nan
2854.000000	nan
2855.000000	nan
2856.000000	nan
2857.000000	nan
2858.000000	nan
2859.000000	nan
2860.000000	nan
2861.000000	nan
2862.000000	nan
2863.000000	nan
2864.000000	nan
2865.000000	nan
2866.000000	nan
2867.000000	nan
2868.000000	nan
2869.000000	nan
2870.000000	nan
2871.000000	nan
2872.000000	nan
2873.000000	nan
2874.000000	nan
2875.000000	nan
2876.000000	nan
2877.000000	nan
2878.000000	nan
2879.000000	nan
2880.000000	nan
2881.000000	nan
2882.000000	nan
2883.000000	nan
2884.000000	nan
2885.000000	nan
2886.000000	nan
2887.000000	nan
2888.000000	nan
2889.000000	nan
2890.000000	nan
2891.000000	nan
2892.000000	nan
2893.000000	nan
2894.000000	nan
2895.000000	nan
2896.000000	nan
2897.000000	nan
2898.000000	nan
2899.000000	nan
2900.000000	nan
2901.000000	nan
2902.000000	nan
2903.000000	nan
2904.000000	nan
2905.000000	nan
2906.000000	nan
2907.000000	nan
2908.000000	nan
2909.000000	nan
2910.000000	nan
2911.000000	nan
2912.000000	nan
2913.000000	nan
2914.000000	nan
2915.000000	nan
2916.000000	nan
2917.000000	nan
2918.000000	nan
2919.000000	nan
2920.000000	nan
2921.000000	nan
2922.000000	nan
2923.000000	nan
2924.000000	nan
2925.000000	nan
2926.000000	nan
2927.000000	nan
2928.000000	nan
2929.000000	nan
2930.000000	nan
2931.000000	nan
2932.000000	nan
2933.000000	nan
2934.000000	nan
2935.000000	nan
2936.000000	nan
2937.000000	nan
2938.000000	nan
2939.000000	nan
2940.000000	nan
2941.000000	nan
2942.000000	nan
2943.000000	nan
2944.000000	nan
2945.000000	nan
2946.000000	nan
2947.000000	nan
2948.000000	nan
2949.000000	nan
2950.000000	nan
2951.000000	nan
2952.000000	nan
2953.000000	nan
2954.000000	nan
2955.000000	nan
2956.000000	nan
2957.000000	nan
2958.000000	nan
2959.000000	nan
2960.000000	nan
2961.000000	nan
2962.000000	nan
2963.000000	nan
2964.000000	nan
2965.000000	nan
2966.000000	nan
2967.000000	nan
2968.000000	nan
2969.000000	nan
2970.000000	nan
2971.000000	nan
2972.000000	nan
2973.000000	nan
2974.000000	nan
2975.000000	nan
2976.000000	nan
2977.000000	nan
2978.000000	nan
2979.000000	nan
2980.000000	nan
2981.000000	nan
2982.000000	nan
2983.000000	nan
2984.000000	nan
2985.000000	nan
2986.000000	nan
2987.000000	nan
2988.000000	nan
2989.000000	nan
2990.000000	nan
2991.000000	nan
2992.000000	nan
2993.000000	nan
2994.000000	nan
2995.000000	nan
2996.000000	nan
2997.000000	nan
2998.000000	nan
2999.000000	nan
3000.000000	nan
