Time1=100ms:Average1=5:Objective=10X:Aperture=1: (11/28/2018 9:57:37 AM)
11/28/2018 9:57:37 AM
Reflectance
10X
Ap#: 1
Avg1: 5.000000
Avg2: 0.000000
Int.Time1:100.000000

420.190645	10.205990
420.624620	10.220042
421.058582	10.232544
421.492531	10.252017
421.926468	10.296122
422.360391	10.356205
422.794301	10.430097
423.228199	10.531574
423.662083	10.635983
424.095955	10.785956
424.529813	10.910196
424.963658	11.030148
425.397491	11.151720
425.831310	11.266953
426.265116	11.380614
426.698909	11.482912
427.132689	11.588775
427.566455	11.692987
428.000209	11.819075
428.433949	11.955646
428.867676	12.109792
429.301389	12.257219
429.735090	12.404920
430.168777	12.516549
430.602451	12.625649
431.036111	12.710167
431.469759	12.789968
431.903392	12.868315
432.337013	12.948767
432.770620	13.025691
433.204213	13.119648
433.637794	13.227771
434.071360	13.348892
434.504914	13.498685
434.938453	13.663425
435.371979	13.826738
435.805492	14.004445
436.238991	14.175657
436.672477	14.329368
437.105949	14.477914
437.539407	14.597599
437.972852	14.716014
438.406283	14.830666
438.839700	14.946361
439.273104	15.070839
439.706494	15.205065
440.139871	15.359396
440.573233	15.508604
441.006582	15.668040
441.439917	15.804923
441.873238	15.915638
442.306546	16.011182
442.739839	16.082411
443.173119	16.141491
443.606385	16.202106
444.039636	16.262150
444.472874	16.329315
444.906099	16.408580
445.339309	16.502088
445.772505	16.598490
446.205687	16.714863
446.638855	16.844362
447.072009	16.981481
447.505149	17.126606
447.938275	17.269003
448.371387	17.408048
448.804485	17.542550
449.237569	17.646801
449.670638	17.738780
450.103694	17.820669
450.536735	17.887144
450.969762	17.952923
451.402774	18.032195
451.835773	18.115300
452.268757	18.201505
452.701727	18.295388
453.134683	18.398506
453.567624	18.482093
454.000551	18.563875
454.433464	18.626904
454.866362	18.680515
455.299246	18.734506
455.732116	18.762816
456.164971	18.796086
456.597811	18.827850
457.030638	18.856619
457.463449	18.885921
457.896246	18.915067
458.329029	18.941571
458.761797	18.960157
459.194551	18.992845
459.627290	19.014256
460.060014	19.037789
460.492724	19.063586
460.925419	19.084756
461.358099	19.097391
461.790765	19.108765
462.223416	19.102851
462.656052	19.087111
463.088674	19.060230
463.521281	19.025655
463.953873	18.984306
464.386450	18.946848
464.819012	18.898582
465.251560	18.852356
465.684093	18.804960
466.116611	18.758338
466.549114	18.714315
466.981602	18.672990
467.414075	18.636493
467.846533	18.590475
468.278977	18.547714
468.711405	18.497427
469.143818	18.452396
469.576216	18.396258
470.008600	18.323322
470.440968	18.249694
470.873321	18.170635
471.305659	18.087750
471.737982	18.005279
472.170289	17.926732
472.602582	17.845123
473.034859	17.773386
473.467122	17.699989
473.899369	17.633848
474.331600	17.576669
474.763817	17.531346
475.196018	17.503959
475.628204	17.500857
476.060375	17.520542
476.492530	17.553069
476.924670	17.591486
477.356795	17.642661
477.788904	17.684306
478.220998	17.727256
478.653076	17.771242
479.085139	17.828170
479.517186	17.887498
479.949219	17.957640
480.381235	18.051902
480.813236	18.157275
481.245221	18.302535
481.677191	18.463093
482.109146	18.644675
482.541084	18.836218
482.973008	19.042733
483.404915	19.257803
483.836807	19.464811
484.268683	19.675091
484.700544	19.875149
485.132388	20.067042
485.564217	20.252269
485.996031	20.427742
486.427828	20.603689
486.859610	20.781595
487.291376	20.958163
487.723126	21.133109
488.154860	21.321161
488.586579	21.517101
489.018281	21.722851
489.449968	21.948375
489.881639	22.205210
490.313293	22.487614
490.744932	22.786414
491.176555	23.109752
491.608162	23.436582
492.039753	23.758170
492.471328	24.055163
492.902886	24.330171
493.334429	24.569566
493.765956	24.784095
494.197466	24.981370
494.628960	25.153451
495.060439	25.335207
495.491901	25.521171
495.923347	25.723634
496.354776	25.945007
496.786190	26.194361
497.217587	26.462736
497.648968	26.739412
498.080332	27.022317
498.511681	27.298139
498.943013	27.563929
499.374328	27.807441
499.805628	28.018687
500.236911	28.194205
500.668177	28.343672
501.099427	28.470320
501.530661	28.557208
501.961878	28.615857
502.393079	28.650165
502.824264	28.658025
503.255431	28.649402
503.686583	28.627551
504.117717	28.602785
504.548835	28.582748
504.979937	28.585300
505.411022	28.608922
505.842090	28.666450
506.273142	28.751587
506.704177	28.873133
507.135195	29.001631
507.566197	29.139138
507.997182	29.274698
508.428150	29.374201
508.859102	29.453248
509.290036	29.499851
509.720954	29.513485
510.151855	29.493316
510.582739	29.458019
511.013607	29.417122
511.444457	29.385797
511.875291	29.378351
512.306107	29.404621
512.736907	29.472461
513.167690	29.577480
513.598456	29.719832
514.029205	29.886320
514.459936	30.071346
514.890651	30.265147
515.321349	30.453659
515.752030	30.636440
516.182693	30.806445
516.613340	30.946236
517.043969	31.063279
517.474582	31.154744
517.905177	31.215632
518.335755	31.249364
518.766315	31.259005
519.196859	31.245658
519.627385	31.219686
520.057894	31.178200
520.488386	31.148134
520.918860	31.116128
521.349318	31.102121
521.779757	31.125066
522.210180	31.176038
522.640585	31.272859
523.070973	31.406949
523.501343	31.581156
523.931696	31.789486
524.362031	32.019861
524.792349	32.257266
525.222650	32.485708
525.652933	32.697544
526.083198	32.876981
526.513446	33.024944
526.943677	33.142985
527.373890	33.236317
527.804085	33.304343
528.234262	33.363570
528.664422	33.427186
529.094565	33.501974
529.524689	33.597534
529.954796	33.721939
530.384885	33.881882
530.814957	34.067285
531.245011	34.283373
531.675047	34.528436
532.105065	34.787463
532.535065	35.057855
532.965048	35.318964
533.395013	35.571836
533.824959	35.791327
534.254888	35.988834
534.684799	36.141177
535.114693	36.260027
535.544568	36.344019
535.974425	36.367716
536.404264	36.356599
536.834086	36.298113
537.263889	36.204397
537.693674	36.077676
538.123441	35.933898
538.553190	35.781877
538.982921	35.620452
539.412634	35.470789
539.842329	35.342577
540.272006	35.230895
540.701664	35.138980
541.131304	35.081567
541.560926	35.054728
541.990530	35.045742
542.420116	35.049162
542.849683	35.063518
543.279232	35.080460
543.708763	35.086033
544.138275	35.085617
544.567769	35.058606
544.997245	35.011394
545.426702	34.939386
545.856141	34.843145
546.285562	34.731301
546.714964	34.605076
547.144347	34.477683
547.573713	34.356678
548.003059	34.249810
548.432387	34.153018
548.861697	34.069782
549.290988	34.021185
549.720260	33.994973
550.149514	34.002769
550.578750	34.036279
551.007966	34.091250
551.437164	34.155620
551.866344	34.234038
552.295504	34.313699
552.724646	34.389912
553.153769	34.445646
553.582874	34.483810
554.011960	34.492370
554.441027	34.462564
554.870075	34.391226
555.299104	34.284353
555.728115	34.141117
556.157106	33.965309
556.586079	33.759263
557.015033	33.540308
557.443968	33.309443
557.872884	33.078954
558.301781	32.849544
558.730659	32.638038
559.159518	32.445528
559.588358	32.280237
560.017180	32.136373
560.445982	32.024564
560.874765	31.939836
561.303528	31.890460
561.732273	31.859410
562.160999	31.849855
562.589705	31.852776
563.018393	31.866844
563.447061	31.892137
563.875710	31.918172
564.304340	31.949690
564.732950	31.982749
565.161542	32.009280
565.590114	32.036312
566.018666	32.050461
566.447200	32.054854
566.875714	32.058020
567.304208	32.052344
567.732684	32.040386
568.161140	32.030371
568.589576	32.012789
569.017993	31.999686
569.446391	31.987577
569.874769	31.985836
570.303128	31.984891
570.731467	31.994777
571.159787	32.018482
571.588087	32.046957
572.016368	32.085108
572.444629	32.122778
572.872870	32.165785
573.301092	32.202750
573.729294	32.227042
574.157476	32.228459
574.585639	32.201543
575.013782	32.149911
575.441906	32.063940
575.870009	31.942926
576.298093	31.785625
576.726157	31.597657
577.154202	31.379372
577.582226	31.139861
578.010231	30.886370
578.438216	30.629930
578.866181	30.375345
579.294126	30.135684
579.722051	29.916496
580.149957	29.715758
580.577842	29.538733
581.005707	29.389700
581.433553	29.255567
581.861378	29.158408
582.289184	29.083358
582.716969	29.026669
583.144734	28.989047
583.572479	28.976612
584.000205	28.977247
584.427910	28.994604
584.855594	29.024092
585.283259	29.066655
585.710904	29.123060
586.138528	29.188459
586.566132	29.263062
586.993716	29.347773
587.421280	29.438594
587.848823	29.532887
588.276346	29.623546
588.703849	29.715740
589.131332	29.804560
589.558794	29.886042
589.986236	29.951205
590.413657	30.010428
590.841058	30.056265
591.268438	30.087396
591.695799	30.103694
592.123138	30.107701
592.550458	30.101345
592.977756	30.087189
593.405034	30.060969
593.832292	30.033018
594.259529	29.998686
594.686746	29.964598
595.113942	29.921348
595.541117	29.865689
595.968272	29.805797
596.395406	29.732951
596.822519	29.629668
597.249612	29.506759
597.676684	29.349306
598.103735	29.165174
598.530766	28.947345
598.957775	28.702487
599.384764	28.424980
599.811733	28.130495
600.238680	27.812145
600.665606	27.483358
601.092512	27.146428
601.519397	26.808397
601.946261	26.480032
602.373104	26.164649
602.799926	25.867289
603.226727	25.593586
603.653507	25.341018
604.080266	25.109811
604.507004	24.903236
604.933721	24.720879
605.360417	24.559256
605.787092	24.410546
606.213746	24.278012
606.640379	24.163417
607.066991	24.065546
607.493581	23.979861
607.920150	23.908613
608.346699	23.850580
608.773226	23.815607
609.199731	23.793197
609.626216	23.789960
610.052679	23.809658
610.479121	23.852401
610.905542	23.915619
611.331941	23.998787
611.758319	24.102437
612.184676	24.223224
612.611011	24.351283
613.037325	24.481976
613.463617	24.620293
613.889888	24.756237
614.316138	24.887556
614.742366	25.014993
615.168573	25.134107
615.594758	25.242503
616.020921	25.346152
616.447063	25.439242
616.873184	25.523517
617.299283	25.605409
617.725360	25.678588
618.151416	25.753186
618.577450	25.825216
619.003462	25.900748
619.429453	25.976729
619.855422	26.051288
620.281369	26.123799
620.707295	26.200329
621.133199	26.275167
621.559081	26.341829
621.984941	26.393872
622.410779	26.434140
622.836596	26.451593
623.262391	26.451937
623.688163	26.431822
624.113914	26.397206
624.539644	26.345292
624.965351	26.276693
625.391036	26.190224
625.816699	26.103312
626.242340	26.010781
626.667960	25.916685
627.093557	25.826161
627.519132	25.739031
627.944685	25.665011
628.370216	25.600234
628.795725	25.543616
629.221212	25.488981
629.646677	25.448277
630.072119	25.407647
630.497540	25.371899
630.922938	25.342185
631.348314	25.305472
631.773668	25.266446
632.198999	25.227254
632.624308	25.184301
633.049595	25.145848
633.474860	25.105977
633.900102	25.063460
634.325322	25.021709
634.750520	24.991984
635.175695	24.970100
635.600848	24.963391
636.025978	24.975251
636.451086	25.007947
636.876171	25.058603
637.301234	25.130476
637.726275	25.224612
638.151293	25.336207
638.576288	25.469268
639.001261	25.617979
639.426211	25.778201
639.851139	25.949738
640.276044	26.128217
640.700927	26.313888
641.125787	26.499764
641.550624	26.682603
641.975438	26.860355
642.400230	27.037659
642.824999	27.203502
643.249745	27.366981
643.674469	27.520212
644.099169	27.673319
644.523847	27.826205
644.948502	27.979634
645.373135	28.139187
645.797744	28.298756
646.222330	28.458034
646.646894	28.622881
647.071435	28.787346
647.495953	28.956003
647.920447	29.120768
648.344919	29.284379
648.769368	29.443097
649.193794	29.593749
649.618197	29.728949
650.042576	29.852936
650.466933	29.960000
650.891267	30.044544
651.315577	30.113967
651.739864	30.163860
652.164129	30.195567
652.588370	30.209473
653.012587	30.202353
653.436782	30.175044
653.860953	30.136469
654.285102	30.080855
654.709226	30.014622
655.133328	29.943638
655.557406	29.863290
655.981461	29.777645
656.405493	29.688614
656.829501	29.595507
657.253486	29.492759
657.677448	29.376155
658.101386	29.251675
658.525301	29.108347
658.949192	28.957918
659.373060	28.794729
659.796904	28.617388
660.220725	28.430712
660.644522	28.235932
661.068296	28.025841
661.492046	27.810284
661.915772	27.591963
662.339475	27.371209
662.763154	27.157650
663.186810	26.945579
663.610442	26.747281
664.034050	26.568085
664.457635	26.407666
664.881196	26.269783
665.304733	26.154233
665.728247	26.070420
666.151736	26.014860
666.575202	25.994935
666.998644	25.998880
667.422062	26.032791
667.845457	26.087713
668.268827	26.163586
668.692174	26.257443
669.115496	26.364462
669.538795	26.483921
669.962070	26.608206
670.385321	26.731223
670.808547	26.857698
671.231750	26.977796
671.654929	27.093288
672.078084	27.196168
672.501214	27.284933
672.924321	27.361313
673.347404	27.423491
673.770462	27.465071
674.193496	27.500540
674.616506	27.521971
675.039492	27.527240
675.462454	27.526631
675.885391	27.514112
676.308305	27.497844
676.731194	27.473340
677.154058	27.439923
677.576899	27.397882
677.999715	27.349148
678.422507	27.291404
678.845274	27.222876
679.268017	27.147063
679.690736	27.059059
680.113430	26.966742
680.536100	26.861365
680.958746	26.750190
681.381367	26.631134
681.803963	26.502935
682.226535	26.375590
682.649083	26.240924
683.071605	26.106665
683.494104	25.975743
683.916578	25.849016
684.339027	25.725596
684.761451	25.606985
685.183851	25.495784
685.606227	25.393042
686.028577	25.294905
686.450903	25.205292
686.873204	25.122398
687.295481	25.042646
687.717733	24.965212
688.139959	24.889306
688.562162	24.812610
688.984339	24.735783
689.406492	24.655269
689.828619	24.571541
690.250722	24.481924
690.672800	24.388965
691.094853	24.291229
691.516881	24.189255
691.938884	24.085413
692.360863	23.975178
692.782816	23.867803
693.204744	23.764019
693.626647	23.668757
694.048526	23.580684
694.470379	23.505166
694.892207	23.446515
695.314010	23.396665
695.735788	23.364840
696.157540	23.349177
696.579268	23.354679
697.000970	23.376375
697.422648	23.420740
697.844300	23.486327
698.265926	23.572083
698.687528	23.672466
699.109104	23.790353
699.530655	23.918046
699.952181	24.058191
