Time1=100ms:Average1=5:Objective=10X:Aperture=1: (11/28/2018 11:05:41 AM)
11/28/2018 11:05:41 AM
Reflectance
10X
Ap#: 1
Avg1: 5.000000
Avg2: 0.000000
Int.Time1:100.000000

420.190645	12.448727
420.624620	12.458961
421.058582	12.493398
421.492531	12.536649
421.926468	12.592387
422.360391	12.664369
422.794301	12.756015
423.228199	12.876632
423.662083	13.006429
424.095955	13.154372
424.529813	13.308504
424.963658	13.458986
425.397491	13.580949
425.831310	13.697587
426.265116	13.810971
426.698909	13.916224
427.132689	14.016999
427.566455	14.124885
428.000209	14.248115
428.433949	14.371695
428.867676	14.511911
429.301389	14.643701
429.735090	14.783962
430.168777	14.904234
430.602451	14.986446
431.036111	15.044390
431.469759	15.104301
431.903392	15.140168
432.337013	15.177091
432.770620	15.226606
433.204213	15.304215
433.637794	15.392698
434.071360	15.509840
434.504914	15.634286
434.938453	15.780118
435.371979	15.920275
435.805492	16.063205
436.238991	16.203728
436.672477	16.333664
437.105949	16.441672
437.539407	16.522450
437.972852	16.586696
438.406283	16.650699
438.839700	16.724001
439.273104	16.809178
439.706494	16.904463
440.139871	17.006693
440.573233	17.108468
441.006582	17.210596
441.439917	17.295844
441.873238	17.353400
442.306546	17.387757
442.739839	17.408153
443.173119	17.402720
443.606385	17.391857
444.039636	17.380750
444.472874	17.377655
444.906099	17.385539
445.339309	17.411323
445.772505	17.451285
446.205687	17.501249
446.638855	17.548350
447.072009	17.605937
447.505149	17.665446
447.938275	17.722244
448.371387	17.762123
448.804485	17.795489
449.237569	17.810534
449.670638	17.811574
450.103694	17.786368
450.536735	17.755733
450.969762	17.734197
451.402774	17.712680
451.835773	17.694388
452.268757	17.689698
452.701727	17.683903
453.134683	17.678781
453.567624	17.670370
454.000551	17.650218
454.433464	17.618228
454.866362	17.571049
455.299246	17.511695
455.732116	17.444949
456.164971	17.373877
456.597811	17.304416
457.030638	17.239781
457.463449	17.175042
457.896246	17.117840
458.329029	17.052293
458.761797	16.990568
459.194551	16.925532
459.627290	16.861204
460.060014	16.803935
460.492724	16.750358
460.925419	16.698091
461.358099	16.642725
461.790765	16.584545
462.223416	16.523069
462.656052	16.457015
463.088674	16.389813
463.521281	16.327074
463.953873	16.262606
464.386450	16.202004
464.819012	16.151027
465.251560	16.103480
465.684093	16.061412
466.116611	16.031987
466.549114	16.005551
466.981602	15.985025
467.414075	15.977691
467.846533	15.976722
468.278977	15.982335
468.711405	15.996108
469.143818	16.015016
469.576216	16.033895
470.008600	16.059443
470.440968	16.083138
470.873321	16.116671
471.305659	16.155526
471.737982	16.207876
472.170289	16.264356
472.602582	16.332957
473.034859	16.411635
473.467122	16.504013
473.899369	16.609179
474.331600	16.730991
474.763817	16.867761
475.196018	17.028047
475.628204	17.214050
476.060375	17.420491
476.492530	17.638992
476.924670	17.863022
477.356795	18.090780
477.788904	18.312622
478.220998	18.534620
478.653076	18.751250
479.085139	18.964996
479.517186	19.181508
479.949219	19.411476
480.381235	19.655395
480.813236	19.906451
481.245221	20.182282
481.677191	20.473415
482.109146	20.773463
482.541084	21.079766
482.973008	21.382651
483.404915	21.675252
483.836807	21.953484
484.268683	22.214232
484.700544	22.458318
485.132388	22.679171
485.564217	22.884351
485.996031	23.072852
486.427828	23.244965
486.859610	23.400626
487.291376	23.545287
487.723126	23.687225
488.154860	23.824643
488.586579	23.966197
489.018281	24.107484
489.449968	24.259729
489.881639	24.434748
490.313293	24.631879
490.744932	24.844548
491.176555	25.071591
491.608162	25.291539
492.039753	25.496525
492.471328	25.684332
492.902886	25.836406
493.334429	25.959124
493.765956	26.039179
494.197466	26.105014
494.628960	26.151155
495.060439	26.198123
495.491901	26.255484
495.923347	26.334889
496.354776	26.438866
496.786190	26.568239
497.217587	26.725432
497.648968	26.888417
498.080332	27.053437
498.511681	27.213667
498.943013	27.364253
499.374328	27.495088
499.805628	27.601144
500.236911	27.682638
500.668177	27.744235
501.099427	27.773055
501.530661	27.783146
501.961878	27.771812
502.393079	27.736141
502.824264	27.692307
503.255431	27.626822
503.686583	27.559865
504.117717	27.498438
504.548835	27.444607
504.979937	27.416562
505.411022	27.420865
505.842090	27.461302
506.273142	27.531865
506.704177	27.634208
507.135195	27.763763
507.566197	27.900159
507.997182	28.036682
508.428150	28.153751
508.859102	28.253619
509.290036	28.319899
509.720954	28.361397
510.151855	28.383338
510.582739	28.389843
511.013607	28.404243
511.444457	28.428684
511.875291	28.482585
512.306107	28.572874
512.736907	28.712086
513.167690	28.887735
513.598456	29.095578
514.029205	29.329066
514.459936	29.573610
514.890651	29.821947
515.321349	30.054179
515.752030	30.284019
516.182693	30.481873
516.613340	30.654306
517.043969	30.787885
517.474582	30.889926
517.905177	30.956598
518.335755	30.988842
518.766315	31.000742
519.196859	30.975713
519.627385	30.934042
520.057894	30.868385
520.488386	30.802469
520.918860	30.735006
521.349318	30.674997
521.779757	30.636300
522.210180	30.626759
522.640585	30.652497
523.070973	30.712117
523.501343	30.800850
523.931696	30.916973
524.362031	31.045776
524.792349	31.185904
525.222650	31.309901
525.652933	31.402984
526.083198	31.466147
526.513446	31.495707
526.943677	31.495877
527.373890	31.461639
527.804085	31.404897
528.234262	31.341757
528.664422	31.282617
529.094565	31.224844
529.524689	31.188909
529.954796	31.180554
530.384885	31.199601
530.814957	31.243533
531.245011	31.311285
531.675047	31.393098
532.105065	31.474576
532.535065	31.562204
532.965048	31.636719
533.395013	31.695127
533.824959	31.718875
534.254888	31.718970
534.684799	31.671597
535.114693	31.594823
535.544568	31.478798
535.974425	31.320832
536.404264	31.128787
536.834086	30.905753
537.263889	30.651145
537.693674	30.375625
538.123441	30.089195
538.553190	29.804716
538.982921	29.536186
539.412634	29.278042
539.842329	29.049883
540.272006	28.854924
540.701664	28.689689
541.131304	28.572296
541.560926	28.483373
541.990530	28.428655
542.420116	28.409158
542.849683	28.407010
543.279232	28.419746
543.708763	28.438707
544.138275	28.464935
544.567769	28.488714
544.997245	28.505711
545.426702	28.519569
545.856141	28.523209
546.285562	28.525825
546.714964	28.525391
547.144347	28.534437
547.573713	28.548503
548.003059	28.587536
548.432387	28.639118
548.861697	28.703068
549.290988	28.786980
549.720260	28.891121
550.149514	29.013532
550.578750	29.153696
551.007966	29.305497
551.437164	29.455694
551.866344	29.603953
552.295504	29.736077
552.724646	29.847621
553.153769	29.928668
553.582874	29.969092
554.011960	29.972109
554.441027	29.918922
554.870075	29.822041
555.299104	29.676429
555.728115	29.479733
556.157106	29.245273
556.586079	28.974038
557.015033	28.680796
557.443968	28.367134
557.872884	28.048303
558.301781	27.732000
558.730659	27.421516
559.159518	27.125934
559.588358	26.850795
560.017180	26.599962
560.445982	26.376482
560.874765	26.181127
561.303528	26.006699
561.732273	25.854987
562.160999	25.724229
562.589705	25.615097
563.018393	25.518744
563.447061	25.433302
563.875710	25.360119
564.304340	25.298333
564.732950	25.250122
565.161542	25.204691
565.590114	25.170994
566.018666	25.144209
566.447200	25.128375
566.875714	25.122921
567.304208	25.130500
567.732684	25.149295
568.161140	25.180568
568.589576	25.226531
569.017993	25.291510
569.446391	25.369700
569.874769	25.470043
570.303128	25.583825
570.731467	25.716372
571.159787	25.861345
571.588087	26.019700
572.016368	26.188573
572.444629	26.366582
572.872870	26.543063
573.301092	26.717151
573.729294	26.872407
574.157476	27.010124
574.585639	27.117419
575.013782	27.191997
575.441906	27.231861
575.870009	27.223133
576.298093	27.176128
576.726157	27.090535
577.154202	26.967463
577.582226	26.811125
578.010231	26.630169
578.438216	26.430848
578.866181	26.215803
579.294126	25.997342
579.722051	25.775040
580.149957	25.555807
580.577842	25.339014
581.005707	25.131614
581.433553	24.929329
581.861378	24.734631
582.289184	24.544253
582.716969	24.362078
583.144734	24.183848
583.572479	24.012565
584.000205	23.844038
584.427910	23.680713
584.855594	23.522642
585.283259	23.376746
585.710904	23.236189
586.138528	23.106718
586.566132	22.986678
586.993716	22.883855
587.421280	22.793098
587.848823	22.720858
588.276346	22.663810
588.703849	22.619085
589.131332	22.595349
589.558794	22.586721
589.986236	22.597003
590.413657	22.621759
590.841058	22.662518
591.268438	22.714120
591.695799	22.788341
592.123138	22.882100
592.550458	22.992507
592.977756	23.123763
593.405034	23.273493
593.832292	23.447594
594.259529	23.637625
594.686746	23.850281
595.113942	24.074528
595.541117	24.309735
595.968272	24.550568
596.395406	24.784990
596.822519	25.011803
597.249612	25.220204
597.676684	25.409738
598.103735	25.569699
598.530766	25.693213
598.957775	25.782710
599.384764	25.836474
599.811733	25.855811
600.238680	25.840404
600.665606	25.792520
601.092512	25.718492
601.519397	25.618283
601.946261	25.502736
602.373104	25.370649
602.799926	25.222188
603.226727	25.058577
603.653507	24.888736
604.080266	24.709966
604.507004	24.520157
604.933721	24.317012
605.360417	24.100871
605.787092	23.872116
606.213746	23.630840
606.640379	23.375264
607.066991	23.104082
607.493581	22.828362
607.920150	22.538768
608.346699	22.243874
608.773226	21.948579
609.199731	21.657239
609.626216	21.377552
610.052679	21.109743
610.479121	20.865618
610.905542	20.642027
611.331941	20.445602
611.758319	20.277027
612.184676	20.138318
612.611011	20.028937
613.037325	19.951786
613.463617	19.904005
613.889888	19.879008
614.316138	19.879371
614.742366	19.907731
615.168573	19.960856
615.594758	20.034887
616.020921	20.136704
616.447063	20.263874
616.873184	20.413622
617.299283	20.584855
617.725360	20.786533
618.151416	21.013798
618.577450	21.265340
619.003462	21.543388
619.429453	21.841302
619.855422	22.163532
620.281369	22.502678
620.707295	22.854584
621.133199	23.219897
621.559081	23.591202
621.984941	23.958636
622.410779	24.316790
622.836596	24.659467
623.262391	24.987084
623.688163	25.288622
624.113914	25.566619
624.539644	25.822079
624.965351	26.048714
625.391036	26.242858
625.816699	26.407433
626.242340	26.544675
626.667960	26.655942
627.093557	26.748997
627.519132	26.820805
627.944685	26.874852
628.370216	26.912880
628.795725	26.938970
629.221212	26.943437
629.646677	26.931821
630.072119	26.900480
630.497540	26.854149
630.922938	26.783791
631.348314	26.694689
631.773668	26.582893
632.198999	26.449630
632.624308	26.302207
633.049595	26.140522
633.474860	25.967214
633.900102	25.789778
634.325322	25.607710
634.750520	25.427770
635.175695	25.256702
635.600848	25.099755
636.025978	24.962002
636.451086	24.843438
636.876171	24.746460
637.301234	24.670714
637.726275	24.611549
638.151293	24.574429
638.576288	24.561242
639.001261	24.566549
639.426211	24.585625
639.851139	24.613719
640.276044	24.652123
640.700927	24.696507
641.125787	24.741777
641.550624	24.781384
641.975438	24.816084
642.400230	24.845173
642.824999	24.862219
643.249745	24.875529
643.674469	24.881775
644.099169	24.883469
644.523847	24.880034
644.948502	24.875311
645.373135	24.872031
645.797744	24.862615
646.222330	24.848001
646.646894	24.830011
647.071435	24.805162
647.495953	24.770889
647.920447	24.732058
648.344919	24.683946
648.769368	24.625058
649.193794	24.551476
649.618197	24.466874
650.042576	24.368539
650.466933	24.261929
650.891267	24.142714
651.315577	24.013995
651.739864	23.878085
652.164129	23.736575
652.588370	23.593164
653.012587	23.448012
653.436782	23.301906
653.860953	23.162219
654.285102	23.029265
654.709226	22.903925
655.133328	22.788441
655.557406	22.688497
655.981461	22.605192
656.405493	22.536150
656.829501	22.477788
657.253486	22.429154
657.677448	22.390437
658.101386	22.363896
658.525301	22.341116
658.949192	22.326634
659.373060	22.320096
659.796904	22.320102
660.220725	22.323975
660.644522	22.335519
661.068296	22.351904
661.492046	22.376776
661.915772	22.411369
662.339475	22.457184
662.763154	22.514751
663.186810	22.589228
663.610442	22.678221
664.034050	22.790761
664.457635	22.924035
664.881196	23.076889
665.304733	23.252222
665.728247	23.451658
666.151736	23.673173
666.575202	23.916724
666.998644	24.176208
667.422062	24.451084
667.845457	24.740310
668.268827	25.037601
668.692174	25.338874
669.115496	25.639162
669.538795	25.928160
669.962070	26.211008
670.385321	26.481195
670.808547	26.731387
671.231750	26.957235
671.654929	27.160037
672.078084	27.336855
672.501214	27.484251
672.924321	27.603981
673.347404	27.697526
673.770462	27.767566
674.193496	27.816535
674.616506	27.843758
675.039492	27.850031
675.462454	27.837150
675.885391	27.805228
676.308305	27.760652
676.731194	27.706541
677.154058	27.639295
677.576899	27.561395
677.999715	27.474987
678.422507	27.378177
678.845274	27.273627
679.268017	27.168709
679.690736	27.051254
680.113430	26.932831
680.536100	26.808334
680.958746	26.681349
681.381367	26.552038
681.803963	26.424285
682.226535	26.296350
682.649083	26.175930
683.071605	26.061972
683.494104	25.953602
683.916578	25.859513
684.339027	25.775642
684.761451	25.704573
685.183851	25.647235
685.606227	25.596731
686.028577	25.556393
686.450903	25.526000
686.873204	25.502390
687.295481	25.479124
687.717733	25.457773
688.139959	25.438532
688.562162	25.415548
688.984339	25.389511
689.406492	25.355562
689.828619	25.309237
690.250722	25.250830
690.672800	25.179005
691.094853	25.094714
691.516881	25.001367
691.938884	24.890279
692.360863	24.762757
692.782816	24.629758
693.204744	24.483735
693.626647	24.333554
694.048526	24.179233
694.470379	24.026353
694.892207	23.874125
695.314010	23.729852
695.735788	23.594140
696.157540	23.467729
696.579268	23.355019
697.000970	23.253947
697.422648	23.169773
697.844300	23.098450
698.265926	23.042233
698.687528	23.005802
699.109104	22.986082
699.530655	22.977033
699.952181	22.981869
