Time1=100ms:Average1=5:Objective=10X:Aperture=1: (11/21/2018 12:09:44 PM)
11/21/2018 12:09:44 PM
Reflectance
10X
Ap#: 1
Avg1: 5.000000
Avg2: 0.000000
Int.Time1:100.000000

420.190645	11.310211
420.624620	11.301849
421.058582	11.295517
421.492531	11.312964
421.926468	11.339299
422.360391	11.399801
422.794301	11.464455
423.228199	11.576612
423.662083	11.695725
424.095955	11.834643
424.529813	11.965800
424.963658	12.095623
425.397491	12.211321
425.831310	12.306674
426.265116	12.392439
426.698909	12.486652
427.132689	12.580558
427.566455	12.691915
428.000209	12.815014
428.433949	12.957924
428.867676	13.113039
429.301389	13.262615
429.735090	13.401798
430.168777	13.527061
430.602451	13.631447
431.036111	13.711293
431.469759	13.782933
431.903392	13.839537
432.337013	13.904379
432.770620	13.978765
433.204213	14.067570
433.637794	14.182602
434.071360	14.315218
434.504914	14.467835
434.938453	14.629648
435.371979	14.796810
435.805492	14.960774
436.238991	15.118974
436.672477	15.260580
437.105949	15.382614
437.539407	15.468383
437.972852	15.558935
438.406283	15.642885
438.839700	15.738915
439.273104	15.851575
439.706494	15.985892
440.139871	16.129229
440.573233	16.280849
441.006582	16.422763
441.439917	16.546390
441.873238	16.649769
442.306546	16.728012
442.739839	16.788158
443.173119	16.832325
443.606385	16.872258
444.039636	16.917541
444.472874	16.972229
444.906099	17.030940
445.339309	17.116623
445.772505	17.212673
446.205687	17.329801
446.638855	17.452345
447.072009	17.567764
447.505149	17.687355
447.938275	17.805060
448.371387	17.910341
448.804485	18.001403
449.237569	18.073678
449.670638	18.124536
450.103694	18.153887
450.536735	18.187625
450.969762	18.235477
451.402774	18.278877
451.835773	18.334032
452.268757	18.403888
452.701727	18.478014
453.134683	18.547644
453.567624	18.600089
454.000551	18.651428
454.433464	18.683399
454.866362	18.706801
455.299246	18.718401
455.732116	18.714739
456.164971	18.697801
456.597811	18.687104
457.030638	18.680111
457.463449	18.663265
457.896246	18.657478
458.329029	18.654377
458.761797	18.654388
459.194551	18.648451
459.627290	18.638584
460.060014	18.632794
460.492724	18.630733
460.925419	18.621889
461.358099	18.599975
461.790765	18.578345
462.223416	18.545803
462.656052	18.498324
463.088674	18.453090
463.521281	18.400847
463.953873	18.342272
464.386450	18.279517
464.819012	18.215898
465.251560	18.159786
465.684093	18.105496
466.116611	18.047433
466.549114	18.000002
466.981602	17.962606
467.414075	17.917975
467.846533	17.878218
468.278977	17.838736
468.711405	17.789597
469.143818	17.749332
469.576216	17.709813
470.008600	17.663000
470.440968	17.610826
470.873321	17.560642
471.305659	17.504999
471.737982	17.458790
472.170289	17.402652
472.602582	17.352147
473.034859	17.309257
473.467122	17.279897
473.899369	17.257810
474.331600	17.250760
474.763817	17.267997
475.196018	17.296051
475.628204	17.344406
476.060375	17.413166
476.492530	17.490152
476.924670	17.571031
477.356795	17.649357
477.788904	17.729920
478.220998	17.813622
478.653076	17.887653
479.085139	17.967507
479.517186	18.052770
479.949219	18.143356
480.381235	18.257286
480.813236	18.389840
481.245221	18.549396
481.677191	18.726496
482.109146	18.925584
482.541084	19.128324
482.973008	19.334842
483.404915	19.542751
483.836807	19.744623
484.268683	19.938105
484.700544	20.113303
485.132388	20.279204
485.564217	20.439603
485.996031	20.587753
486.427828	20.726665
486.859610	20.860426
487.291376	20.989156
487.723126	21.122379
488.154860	21.264026
488.586579	21.419270
489.018281	21.592827
489.449968	21.782462
489.881639	21.997669
490.313293	22.230113
490.744932	22.488260
491.176555	22.740845
491.608162	22.995168
492.039753	23.236049
492.471328	23.440641
492.902886	23.619727
493.334429	23.764902
493.765956	23.876965
494.197466	23.971885
494.628960	24.051445
495.060439	24.136022
495.491901	24.227209
495.923347	24.342956
496.354776	24.473162
496.786190	24.623132
497.217587	24.783400
497.648968	24.958927
498.080332	25.138556
498.511681	25.305749
498.943013	25.450394
499.374328	25.578884
499.805628	25.680990
500.236911	25.754000
500.668177	25.792365
501.099427	25.803039
501.530661	25.785596
501.961878	25.736555
502.393079	25.667149
502.824264	25.585260
503.255431	25.488476
503.686583	25.387922
504.117717	25.298640
504.548835	25.236540
504.979937	25.190470
505.411022	25.170919
505.842090	25.184076
506.273142	25.223917
506.704177	25.296135
507.135195	25.375658
507.566197	25.452653
507.997182	25.517274
508.428150	25.557238
508.859102	25.564796
509.290036	25.547849
509.720954	25.508719
510.151855	25.448369
510.582739	25.381094
511.013607	25.313346
511.444457	25.262647
511.875291	25.236231
512.306107	25.253064
512.736907	25.303604
513.167690	25.392140
513.598456	25.515106
514.029205	25.673535
514.459936	25.848191
514.890651	26.028561
515.321349	26.207588
515.752030	26.378059
516.182693	26.529550
516.613340	26.663405
517.043969	26.781703
517.474582	26.868245
517.905177	26.926877
518.335755	26.961350
518.766315	26.981132
519.196859	26.991619
519.627385	26.994565
520.057894	26.994267
520.488386	27.004554
520.918860	27.033739
521.349318	27.088043
521.779757	27.176647
522.210180	27.311564
522.640585	27.471874
523.070973	27.675362
523.501343	27.905939
523.931696	28.160247
524.362031	28.422500
524.792349	28.682925
525.222650	28.938151
525.652933	29.164734
526.083198	29.356735
526.513446	29.509726
526.943677	29.628807
527.373890	29.718318
527.804085	29.784360
528.234262	29.837827
528.664422	29.896417
529.094565	29.962788
529.524689	30.052762
529.954796	30.161400
530.384885	30.301647
530.814957	30.465983
531.245011	30.663469
531.675047	30.877655
532.105065	31.103131
532.535065	31.329861
532.965048	31.550300
533.395013	31.747286
533.824959	31.920896
534.254888	32.058876
534.684799	32.148078
535.114693	32.200599
535.544568	32.210462
535.974425	32.181908
536.404264	32.108996
536.834086	32.005966
537.263889	31.878930
537.693674	31.741916
538.123441	31.600064
538.553190	31.453162
538.982921	31.331588
539.412634	31.237588
539.842329	31.181439
540.272006	31.154707
540.701664	31.165601
541.131304	31.220458
541.560926	31.309535
541.990530	31.435301
542.420116	31.589155
542.849683	31.756819
543.279232	31.947246
543.708763	32.127695
544.138275	32.308069
544.567769	32.468589
544.997245	32.625769
545.426702	32.768300
545.856141	32.903078
546.285562	33.029700
546.714964	33.156043
547.144347	33.290780
547.573713	33.441711
548.003059	33.628748
548.432387	33.842927
548.861697	34.092337
549.290988	34.387377
549.720260	34.727855
550.149514	35.109773
550.578750	35.532479
551.007966	35.983251
551.437164	36.470218
551.866344	36.972627
552.295504	37.470922
552.724646	37.969543
553.153769	38.450559
553.582874	38.905958
554.011960	39.316879
554.441027	39.680022
554.870075	39.993600
555.299104	40.249809
555.728115	40.449218
556.157106	40.607107
556.586079	40.716549
557.015033	40.802164
557.443968	40.865325
557.872884	40.915755
558.301781	40.960785
558.730659	41.023494
559.159518	41.084955
559.588358	41.171241
560.017180	41.279946
560.445982	41.406566
560.874765	41.554889
561.303528	41.720600
561.732273	41.899692
562.160999	42.081187
562.589705	42.266078
563.018393	42.445771
563.447061	42.623060
563.875710	42.785317
564.304340	42.936153
564.732950	43.064064
565.161542	43.175269
565.590114	43.266251
566.018666	43.333648
566.447200	43.378178
566.875714	43.409450
567.304208	43.438131
567.732684	43.459299
568.161140	43.486272
568.589576	43.516804
569.017993	43.560863
569.446391	43.622432
569.874769	43.704610
570.303128	43.811877
570.731467	43.947479
571.159787	44.114406
571.588087	44.306393
572.016368	44.515869
572.444629	44.746746
572.872870	44.985531
573.301092	45.221939
573.729294	45.446932
574.157476	45.654725
574.585639	45.824040
575.013782	45.952192
575.441906	46.039137
575.870009	46.069781
576.298093	46.048966
576.726157	45.980147
577.154202	45.868534
577.582226	45.726354
578.010231	45.544539
578.438216	45.352383
578.866181	45.154377
579.294126	44.965557
579.722051	44.790556
580.149957	44.641715
580.577842	44.508679
581.005707	44.399038
581.433553	44.311750
581.861378	44.253660
582.289184	44.208312
582.716969	44.175212
583.144734	44.149423
583.572479	44.133735
584.000205	44.120044
584.427910	44.110149
584.855594	44.100876
585.283259	44.086709
585.710904	44.077961
586.138528	44.059190
586.566132	44.047532
586.993716	44.036374
587.421280	44.020827
587.848823	44.013881
588.276346	44.007891
588.703849	43.992049
589.131332	43.977811
589.558794	43.965604
589.986236	43.941409
590.413657	43.924064
590.841058	43.899954
591.268438	43.886421
591.695799	43.875441
592.123138	43.871173
592.550458	43.881330
592.977756	43.907213
593.405034	43.946141
593.832292	44.011805
594.259529	44.097564
594.686746	44.199370
595.113942	44.311722
595.541117	44.439898
595.968272	44.570842
596.395406	44.703490
596.822519	44.826231
597.249612	44.934056
597.676684	45.011878
598.103735	45.055981
598.530766	45.067074
598.957775	45.042029
599.384764	44.982341
599.811733	44.883461
600.238680	44.761351
600.665606	44.618228
601.092512	44.456922
601.519397	44.290147
601.946261	44.131357
602.373104	43.976792
602.799926	43.831631
603.226727	43.708409
603.653507	43.598599
604.080266	43.508107
604.507004	43.436600
604.933721	43.368140
605.360417	43.314119
605.787092	43.254390
606.213746	43.190915
606.640379	43.123183
607.066991	43.044499
607.493581	42.956153
607.920150	42.865254
608.346699	42.774000
608.773226	42.679076
609.199731	42.587927
609.626216	42.504528
610.052679	42.425683
610.479121	42.354893
610.905542	42.302500
611.331941	42.265508
611.758319	42.237519
612.184676	42.218486
612.611011	42.212329
613.037325	42.209689
613.463617	42.205460
613.889888	42.197060
614.316138	42.180168
614.742366	42.155243
615.168573	42.118487
615.594758	42.072650
616.020921	42.020229
616.447063	41.958340
616.873184	41.888435
617.299283	41.815251
617.725360	41.743720
618.151416	41.681823
618.577450	41.619883
619.003462	41.565370
619.429453	41.529560
619.855422	41.496922
620.281369	41.474176
620.707295	41.458669
621.133199	41.437435
621.559081	41.406396
621.984941	41.368090
622.410779	41.311830
622.836596	41.232792
623.262391	41.136958
623.688163	41.015388
624.113914	40.870947
624.539644	40.702709
624.965351	40.515543
625.391036	40.311233
625.816699	40.094496
626.242340	39.873496
626.667960	39.645601
627.093557	39.423420
627.519132	39.215901
627.944685	39.012892
628.370216	38.821943
628.795725	38.644174
629.221212	38.468597
629.646677	38.301958
630.072119	38.141625
630.497540	37.983141
630.922938	37.814536
631.348314	37.640582
631.773668	37.462425
632.198999	37.274586
632.624308	37.071096
633.049595	36.861911
633.474860	36.642021
633.900102	36.415953
634.325322	36.189658
634.750520	35.971493
635.175695	35.759751
635.600848	35.563506
636.025978	35.390228
636.451086	35.231406
636.876171	35.099433
637.301234	34.981873
637.726275	34.895926
638.151293	34.831792
638.576288	34.786509
639.001261	34.764053
639.426211	34.759616
639.851139	34.762103
640.276044	34.772903
640.700927	34.785836
641.125787	34.800594
641.550624	34.816692
641.975438	34.824819
642.400230	34.830362
642.824999	34.826188
643.249745	34.816429
643.674469	34.802233
644.099169	34.788741
644.523847	34.775784
644.948502	34.764463
645.373135	34.755638
645.797744	34.755755
646.222330	34.757279
646.646894	34.769074
647.071435	34.790010
647.495953	34.815619
647.920447	34.839933
648.344919	34.869649
648.769368	34.899245
649.193794	34.922268
649.618197	34.940782
650.042576	34.951950
650.466933	34.961681
650.891267	34.951009
651.315577	34.933503
651.739864	34.906282
652.164129	34.862471
652.588370	34.804747
653.012587	34.743459
653.436782	34.676666
653.860953	34.604300
654.285102	34.523993
654.709226	34.440007
655.133328	34.356259
655.557406	34.272146
655.981461	34.192036
656.405493	34.112261
656.829501	34.034137
657.253486	33.951548
657.677448	33.866122
658.101386	33.775764
658.525301	33.682848
658.949192	33.581417
659.373060	33.474185
659.796904	33.354925
660.220725	33.225027
660.644522	33.085169
661.068296	32.942248
661.492046	32.790039
661.915772	32.634714
662.339475	32.479813
662.763154	32.333395
663.186810	32.192507
663.610442	32.062669
664.034050	31.949567
664.457635	31.854079
664.881196	31.782898
665.304733	31.738144
665.728247	31.720283
666.151736	31.728979
666.575202	31.763360
666.998644	31.824872
667.422062	31.910870
667.845457	32.011350
668.268827	32.127636
668.692174	32.258871
669.115496	32.398092
669.538795	32.535472
669.962070	32.664875
670.385321	32.791424
670.808547	32.907606
671.231750	33.012944
671.654929	33.103223
672.078084	33.174291
672.501214	33.228333
672.924321	33.268809
673.347404	33.293779
673.770462	33.309156
674.193496	33.309107
674.616506	33.301530
675.039492	33.286926
675.462454	33.265125
675.885391	33.235353
676.308305	33.203015
676.731194	33.174317
677.154058	33.148667
677.576899	33.119538
677.999715	33.099331
678.422507	33.082864
678.845274	33.066223
679.268017	33.055213
679.690736	33.041287
680.113430	33.024818
680.536100	33.013035
680.958746	33.003262
681.381367	32.996212
681.803963	32.985122
682.226535	32.974509
682.649083	32.967297
683.071605	32.963965
683.494104	32.958259
683.916578	32.957431
684.339027	32.960242
684.761451	32.964337
685.183851	32.969979
685.606227	32.977134
686.028577	32.982508
686.450903	32.984678
686.873204	32.981057
687.295481	32.973272
687.717733	32.958617
688.139959	32.929792
688.562162	32.887066
688.984339	32.831846
689.406492	32.760513
689.828619	32.668458
690.250722	32.556234
690.672800	32.433970
691.094853	32.289299
691.516881	32.123298
691.938884	31.943818
692.360863	31.751586
692.782816	31.553833
693.204744	31.351962
693.626647	31.148934
694.048526	30.950353
694.470379	30.759686
694.892207	30.582295
695.314010	30.422815
695.735788	30.284308
696.157540	30.169201
696.579268	30.084000
697.000970	30.023764
697.422648	29.989159
697.844300	29.981717
698.265926	30.004359
698.687528	30.048947
699.109104	30.118067
699.530655	30.208979
699.952181	30.320207
