Time1=100ms:Average1=5:Objective=10X:Aperture=1: (11/28/2018 9:53:54 AM)
11/28/2018 9:53:54 AM
Reflectance
10X
Ap#: 1
Avg1: 5.000000
Avg2: 0.000000
Int.Time1:100.000000

420.190645	9.877599
420.624620	9.767602
421.058582	9.645973
421.492531	9.524356
421.926468	9.426055
422.360391	9.339884
422.794301	9.287712
423.228199	9.245789
423.662083	9.215383
424.095955	9.214056
424.529813	9.190609
424.963658	9.186278
425.397491	9.197351
425.831310	9.191993
426.265116	9.187898
426.698909	9.172507
427.132689	9.170153
427.566455	9.163035
428.000209	9.179297
428.433949	9.202946
428.867676	9.245278
429.301389	9.289809
429.735090	9.331696
430.168777	9.354560
430.602451	9.375114
431.036111	9.395262
431.469759	9.418694
431.903392	9.435374
432.337013	9.451673
432.770620	9.470909
433.204213	9.515097
433.637794	9.558619
434.071360	9.610460
434.504914	9.680209
434.938453	9.767924
435.371979	9.848551
435.805492	9.937138
436.238991	10.029023
436.672477	10.116513
437.105949	10.201845
437.539407	10.266497
437.972852	10.345235
438.406283	10.417515
438.839700	10.485790
439.273104	10.567956
439.706494	10.657507
440.139871	10.763299
440.573233	10.865946
441.006582	10.975243
441.439917	11.075007
441.873238	11.160322
442.306546	11.239804
442.739839	11.301035
443.173119	11.367631
443.606385	11.430318
444.039636	11.495788
444.472874	11.562544
444.906099	11.644299
445.339309	11.737666
445.772505	11.825081
446.205687	11.927270
446.638855	12.030740
447.072009	12.138577
447.505149	12.257423
447.938275	12.371609
448.371387	12.487514
448.804485	12.604133
449.237569	12.715688
449.670638	12.803541
450.103694	12.896298
450.536735	12.971291
450.969762	13.055808
451.402774	13.146551
451.835773	13.248918
452.268757	13.348005
452.701727	13.458102
453.134683	13.569581
453.567624	13.670490
454.000551	13.772506
454.433464	13.862396
454.866362	13.949563
455.299246	14.040255
455.732116	14.118999
456.164971	14.199979
456.597811	14.279787
457.030638	14.358401
457.463449	14.444603
457.896246	14.529441
458.329029	14.615003
458.761797	14.701740
459.194551	14.795391
459.627290	14.890032
460.060014	14.984261
460.492724	15.085373
460.925419	15.187819
461.358099	15.291881
461.790765	15.398180
462.223416	15.495517
462.656052	15.588205
463.088674	15.677895
463.521281	15.761665
463.953873	15.854690
464.386450	15.944301
464.819012	16.029889
465.251560	16.116212
465.684093	16.211707
466.116611	16.304627
466.549114	16.403719
466.981602	16.508498
467.414075	16.617979
467.846533	16.718214
468.278977	16.816936
468.711405	16.912182
469.143818	17.013481
469.576216	17.101683
470.008600	17.176944
470.440968	17.254765
470.873321	17.323143
471.305659	17.377623
471.737982	17.434917
472.170289	17.490910
472.602582	17.542838
473.034859	17.594779
473.467122	17.644004
473.899369	17.702851
474.331600	17.757357
474.763817	17.817753
475.196018	17.884015
475.628204	17.964952
476.060375	18.052043
476.492530	18.144559
476.924670	18.233991
477.356795	18.315122
477.788904	18.387952
478.220998	18.452966
478.653076	18.502190
479.085139	18.552806
479.517186	18.593579
479.949219	18.635918
480.381235	18.680501
480.813236	18.722604
481.245221	18.786584
481.677191	18.854646
482.109146	18.928999
482.541084	18.999104
482.973008	19.071098
483.404915	19.143490
483.836807	19.199301
484.268683	19.248847
484.700544	19.295682
485.132388	19.323501
485.564217	19.331572
485.996031	19.335009
486.427828	19.330487
486.859610	19.321124
487.291376	19.301870
487.723126	19.273009
488.154860	19.248079
488.586579	19.222545
489.018281	19.193279
489.449968	19.181291
489.881639	19.180330
490.313293	19.193979
490.744932	19.221151
491.176555	19.260056
491.608162	19.297228
492.039753	19.338953
492.471328	19.365758
492.902886	19.380499
493.334429	19.377797
493.765956	19.363025
494.197466	19.343139
494.628960	19.311520
495.060439	19.283214
495.491901	19.262608
495.923347	19.253290
496.354776	19.263971
496.786190	19.293970
497.217587	19.342208
497.648968	19.401676
498.080332	19.473963
498.511681	19.549847
498.943013	19.636105
499.374328	19.718785
499.805628	19.796666
500.236911	19.871548
500.668177	19.945644
501.099427	20.022782
501.530661	20.093091
501.961878	20.162023
502.393079	20.237354
502.824264	20.301096
503.255431	20.371225
503.686583	20.445271
504.117717	20.526719
504.548835	20.625420
504.979937	20.751704
505.411022	20.895516
505.842090	21.069841
506.273142	21.273299
506.704177	21.503915
507.135195	21.750368
507.566197	22.015556
507.997182	22.288207
508.428150	22.558305
508.859102	22.824929
509.290036	23.076425
509.720954	23.325864
510.151855	23.565338
510.582739	23.801073
511.013607	24.044360
511.444457	24.291142
511.875291	24.555056
512.306107	24.842784
512.736907	25.153730
513.167690	25.487945
513.598456	25.839044
514.029205	26.200813
514.459936	26.570315
514.890651	26.939344
515.321349	27.302504
515.752030	27.654789
516.182693	28.002224
516.613340	28.323651
517.043969	28.626504
517.474582	28.913251
517.905177	29.172198
518.335755	29.408909
518.766315	29.629156
519.196859	29.831420
519.627385	30.020553
520.057894	30.198498
520.488386	30.377581
520.918860	30.547573
521.349318	30.728821
521.779757	30.927553
522.210180	31.141374
522.640585	31.387359
523.070973	31.648912
523.501343	31.933636
523.931696	32.239240
524.362031	32.551370
524.792349	32.869485
525.222650	33.176836
525.652933	33.475182
526.083198	33.753117
526.513446	34.011139
526.943677	34.250908
527.373890	34.476275
527.804085	34.693240
528.234262	34.899610
528.664422	35.113346
529.094565	35.337697
529.524689	35.570943
529.954796	35.832644
530.384885	36.115936
530.814957	36.417800
531.245011	36.738455
531.675047	37.080633
532.105065	37.432137
532.535065	37.789206
532.965048	38.144202
533.395013	38.494448
533.824959	38.832729
534.254888	39.161642
534.684799	39.474170
535.114693	39.768197
535.544568	40.042094
535.974425	40.283668
536.404264	40.509489
536.834086	40.708204
537.263889	40.886518
537.693674	41.052949
538.123441	41.218730
538.553190	41.387965
538.982921	41.549967
539.412634	41.721145
539.842329	41.914385
540.272006	42.120158
540.701664	42.339508
541.131304	42.582559
541.560926	42.861313
541.990530	43.150576
542.420116	43.447931
542.849683	43.758904
543.279232	44.075352
543.708763	44.389699
544.138275	44.704609
544.567769	45.008611
544.997245	45.306026
545.426702	45.592760
545.856141	45.874196
546.285562	46.155301
546.714964	46.432064
547.144347	46.715426
547.573713	47.004369
548.003059	47.302164
548.432387	47.613175
548.861697	47.934095
549.290988	48.281104
549.720260	48.641187
550.149514	49.032121
550.578750	49.440482
551.007966	49.860520
551.437164	50.282998
551.866344	50.723928
552.295504	51.163420
552.724646	51.612494
553.153769	52.042339
553.582874	52.465802
554.011960	52.869712
554.441027	53.249387
554.870075	53.587539
555.299104	53.896239
555.728115	54.173790
556.157106	54.424209
556.586079	54.629164
557.015033	54.820750
557.443968	54.987998
557.872884	55.138795
558.301781	55.266245
558.730659	55.392538
559.159518	55.513701
559.588358	55.627529
560.017180	55.738708
560.445982	55.850423
560.874765	55.966250
561.303528	56.084772
561.732273	56.193783
562.160999	56.300998
562.589705	56.396441
563.018393	56.487226
563.447061	56.560669
563.875710	56.621165
564.304340	56.676142
564.732950	56.713188
565.161542	56.742269
565.590114	56.766849
566.018666	56.770607
566.447200	56.760163
566.875714	56.739180
567.304208	56.713148
567.732684	56.673170
568.161140	56.636670
568.589576	56.591621
569.017993	56.554251
569.446391	56.511409
569.874769	56.483809
570.303128	56.446336
570.731467	56.418445
571.159787	56.407514
571.588087	56.407012
572.016368	56.410128
572.444629	56.417192
572.872870	56.444956
573.301092	56.474295
573.729294	56.501804
574.157476	56.524189
574.585639	56.540233
575.013782	56.554250
575.441906	56.563850
575.870009	56.564997
576.298093	56.547965
576.726157	56.525139
577.154202	56.490920
577.582226	56.446085
578.010231	56.408579
578.438216	56.362126
578.866181	56.316630
579.294126	56.280605
579.722051	56.260068
580.149957	56.255610
580.577842	56.258936
581.005707	56.279259
581.433553	56.295696
581.861378	56.342320
582.289184	56.389599
582.716969	56.445178
583.144734	56.509955
583.572479	56.593599
584.000205	56.675672
584.427910	56.766945
584.855594	56.853331
585.283259	56.946107
585.710904	57.040500
586.138528	57.132607
586.566132	57.222281
586.993716	57.309216
587.421280	57.396818
587.848823	57.482066
588.276346	57.556381
588.703849	57.623193
589.131332	57.675909
589.558794	57.726046
589.986236	57.754879
590.413657	57.780386
590.841058	57.790590
591.268438	57.775643
591.695799	57.753265
592.123138	57.724686
592.550458	57.687234
592.977756	57.644850
593.405034	57.589256
593.832292	57.531967
594.259529	57.464416
594.686746	57.404870
595.113942	57.333734
595.541117	57.259348
595.968272	57.184463
596.395406	57.102084
596.822519	57.000382
597.249612	56.888387
597.676684	56.751036
598.103735	56.603133
598.530766	56.430272
598.957775	56.247685
599.384764	56.037178
599.811733	55.818653
600.238680	55.588665
600.665606	55.340702
601.092512	55.083229
601.519397	54.817036
601.946261	54.555370
602.373104	54.303142
602.799926	54.045318
603.226727	53.796061
603.653507	53.551462
604.080266	53.320001
604.507004	53.101703
604.933721	52.889380
605.360417	52.680700
605.787092	52.472920
606.213746	52.263138
606.640379	52.061337
607.066991	51.862585
607.493581	51.674964
607.920150	51.489073
608.346699	51.305032
608.773226	51.133595
609.199731	50.964434
609.626216	50.801556
610.052679	50.646824
610.479121	50.508706
610.905542	50.378866
611.331941	50.256296
611.758319	50.155845
612.184676	50.054316
612.611011	49.953885
613.037325	49.851831
613.463617	49.752507
613.889888	49.646812
614.316138	49.534290
614.742366	49.418240
615.168573	49.292561
615.594758	49.156545
616.020921	49.019224
616.447063	48.876235
616.873184	48.721227
617.299283	48.558663
617.725360	48.387217
618.151416	48.209874
618.577450	48.026813
619.003462	47.839818
619.429453	47.648731
619.855422	47.447868
620.281369	47.241845
620.707295	47.024704
621.133199	46.797115
621.559081	46.556777
621.984941	46.292424
622.410779	46.011050
622.836596	45.699382
623.262391	45.363071
623.688163	44.995075
624.113914	44.603928
624.539644	44.181258
624.965351	43.727394
625.391036	43.244522
625.816699	42.742847
626.242340	42.219226
626.667960	41.674429
627.093557	41.117811
627.519132	40.545372
627.944685	39.970500
628.370216	39.389750
628.795725	38.804174
629.221212	38.214206
629.646677	37.628151
630.072119	37.043431
630.497540	36.464621
630.922938	35.896666
631.348314	35.337646
631.773668	34.790340
632.198999	34.260039
632.624308	33.751645
633.049595	33.272398
633.474860	32.819665
633.900102	32.396811
634.325322	32.006785
634.750520	31.655167
635.175695	31.341034
635.600848	31.068115
636.025978	30.841678
636.451086	30.665204
636.876171	30.534284
637.301234	30.448179
637.726275	30.410927
638.151293	30.417037
638.576288	30.470627
639.001261	30.567191
639.426211	30.700346
639.851139	30.871384
640.276044	31.080721
640.700927	31.321317
641.125787	31.587538
641.550624	31.876092
641.975438	32.183958
642.400230	32.507516
642.824999	32.843012
643.249745	33.187148
643.674469	33.534728
644.099169	33.887683
644.523847	34.237049
644.948502	34.588052
645.373135	34.936518
645.797744	35.271283
646.222330	35.593125
646.646894	35.902738
647.071435	36.197781
647.495953	36.478515
647.920447	36.733800
648.344919	36.965131
648.769368	37.173955
649.193794	37.356303
649.618197	37.502542
650.042576	37.623418
650.466933	37.712157
650.891267	37.771415
651.315577	37.802285
651.739864	37.800203
652.164129	37.774427
652.588370	37.722370
653.012587	37.643952
653.436782	37.538980
653.860953	37.419647
654.285102	37.284559
654.709226	37.134022
655.133328	36.973119
655.557406	36.803947
655.981461	36.629523
656.405493	36.452879
656.829501	36.276519
657.253486	36.096726
657.677448	35.914624
658.101386	35.733239
658.525301	35.549052
658.949192	35.373859
659.373060	35.200039
659.796904	35.030888
660.220725	34.867099
660.644522	34.714382
661.068296	34.566536
661.492046	34.428332
661.915772	34.306098
662.339475	34.197048
662.763154	34.102090
663.186810	34.021979
663.610442	33.960519
664.034050	33.920176
664.457635	33.901803
664.881196	33.909617
665.304733	33.933679
665.728247	33.988702
666.151736	34.067366
666.575202	34.176499
666.998644	34.308063
667.422062	34.461072
667.845457	34.634592
668.268827	34.829139
668.692174	35.041391
669.115496	35.267229
669.538795	35.507297
669.962070	35.756123
670.385321	36.010570
670.808547	36.271144
671.231750	36.530732
671.654929	36.786800
672.078084	37.036348
672.501214	37.278861
672.924321	37.511144
673.347404	37.730269
673.770462	37.923731
674.193496	38.114564
674.616506	38.296826
675.039492	38.450609
675.462454	38.593057
675.885391	38.727972
676.308305	38.849411
676.731194	38.957071
677.154058	39.049926
677.576899	39.127373
677.999715	39.190368
678.422507	39.241414
678.845274	39.272911
679.268017	39.293516
679.690736	39.292920
680.113430	39.279988
680.536100	39.247680
680.958746	39.200493
681.381367	39.134198
681.803963	39.052240
682.226535	38.958586
682.649083	38.848340
683.071605	38.725263
683.494104	38.591968
683.916578	38.450819
684.339027	38.299058
684.761451	38.143368
685.183851	37.979462
685.606227	37.813997
686.028577	37.645229
686.450903	37.474082
686.873204	37.306431
687.295481	37.131855
687.717733	36.955712
688.139959	36.786332
688.562162	36.615552
688.984339	36.441168
689.406492	36.266131
689.828619	36.095454
690.250722	35.926290
690.672800	35.759492
691.094853	35.597164
691.516881	35.438641
691.938884	35.289028
692.360863	35.141296
692.782816	35.005084
693.204744	34.881665
693.626647	34.772269
694.048526	34.678460
694.470379	34.608307
694.892207	34.557548
695.314010	34.525864
695.735788	34.519430
696.157540	34.537477
696.579268	34.583681
697.000970	34.654016
697.422648	34.758058
697.844300	34.887932
698.265926	35.049577
698.687528	35.234292
699.109104	35.443304
699.530655	35.674418
699.952181	35.930510
