Time1=100ms:Average1=5:Objective=10X:Aperture=1: (11/21/2018 11:29:54 AM)
11/21/2018 11:29:54 AM
Reflectance
10X
Ap#: 1
Avg1: 5.000000
Avg2: 0.000000
Int.Time1:100.000000

420.190645	16.741570
420.624620	16.701947
421.058582	16.658833
421.492531	16.628838
421.926468	16.631998
422.360391	16.675664
422.794301	16.720952
423.228199	16.807569
423.662083	16.911667
424.095955	17.035860
424.529813	17.135535
424.963658	17.251187
425.397491	17.354855
425.831310	17.465166
426.265116	17.567208
426.698909	17.665963
427.132689	17.762936
427.566455	17.902040
428.000209	18.051864
428.433949	18.229854
428.867676	18.400372
429.301389	18.565337
429.735090	18.726686
430.168777	18.875681
430.602451	19.015421
431.036111	19.132001
431.469759	19.248495
431.903392	19.355842
432.337013	19.459831
432.770620	19.576714
433.204213	19.704743
433.637794	19.848631
434.071360	20.017306
434.504914	20.192489
434.938453	20.388581
435.371979	20.586980
435.805492	20.782279
436.238991	20.969031
436.672477	21.150755
437.105949	21.320860
437.539407	21.452909
437.972852	21.580857
438.406283	21.710274
438.839700	21.857145
439.273104	22.001736
439.706494	22.136451
440.139871	22.301866
440.573233	22.481263
441.006582	22.641251
441.439917	22.778855
441.873238	22.897772
442.306546	23.009957
442.739839	23.087401
443.173119	23.153558
443.606385	23.229042
444.039636	23.300064
444.472874	23.394296
444.906099	23.483577
445.339309	23.591762
445.772505	23.716104
446.205687	23.853725
446.638855	24.005651
447.072009	24.150253
447.505149	24.292548
447.938275	24.449414
448.371387	24.583497
448.804485	24.695121
449.237569	24.783844
449.670638	24.856958
450.103694	24.926639
450.536735	24.979625
450.969762	25.039538
451.402774	25.112419
451.835773	25.192396
452.268757	25.285099
452.701727	25.381166
453.134683	25.490460
453.567624	25.572863
454.000551	25.662351
454.433464	25.744753
454.866362	25.814741
455.299246	25.880440
455.732116	25.924623
456.164971	25.970764
456.597811	26.018514
457.030638	26.058457
457.463449	26.103851
457.896246	26.149074
458.329029	26.195540
458.761797	26.252190
459.194551	26.303787
459.627290	26.363940
460.060014	26.422828
460.492724	26.494288
460.925419	26.554998
461.358099	26.605818
461.790765	26.659657
462.223416	26.705807
462.656052	26.744478
463.088674	26.793809
463.521281	26.813704
463.953873	26.842189
464.386450	26.873202
464.819012	26.913035
465.251560	26.950127
465.684093	26.984231
466.116611	27.035902
466.549114	27.096645
466.981602	27.173041
467.414075	27.225900
467.846533	27.275525
468.278977	27.334784
468.711405	27.373155
469.143818	27.414508
469.576216	27.451693
470.008600	27.477994
470.440968	27.489937
470.873321	27.502282
471.305659	27.496678
471.737982	27.502558
472.170289	27.484288
472.602582	27.473711
473.034859	27.454747
473.467122	27.441283
473.899369	27.424006
474.331600	27.417862
474.763817	27.431199
475.196018	27.442496
475.628204	27.476927
476.060375	27.518722
476.492530	27.554174
476.924670	27.587907
477.356795	27.621943
477.788904	27.645196
478.220998	27.652900
478.653076	27.650085
479.085139	27.643055
479.517186	27.628211
479.949219	27.605538
480.381235	27.595796
480.813236	27.601730
481.245221	27.629511
481.677191	27.671249
482.109146	27.720953
482.541084	27.763170
482.973008	27.816211
483.404915	27.857005
483.836807	27.901386
484.268683	27.920164
484.700544	27.929387
485.132388	27.932489
485.564217	27.931655
485.996031	27.919213
486.427828	27.900037
486.859610	27.878696
487.291376	27.856996
487.723126	27.848251
488.154860	27.848209
488.586579	27.870718
489.018281	27.903151
489.449968	27.963907
489.881639	28.056400
490.313293	28.180033
490.744932	28.325926
491.176555	28.477321
491.608162	28.635762
492.039753	28.786265
492.471328	28.924471
492.902886	29.037061
493.334429	29.132873
493.765956	29.204028
494.197466	29.273857
494.628960	29.339576
495.060439	29.409359
495.491901	29.497000
495.923347	29.628982
496.354776	29.771616
496.786190	29.955928
497.217587	30.144827
497.648968	30.364833
498.080332	30.587267
498.511681	30.803885
498.943013	31.005973
499.374328	31.199371
499.805628	31.372988
500.236911	31.523816
500.668177	31.643797
501.099427	31.743703
501.530661	31.821903
501.961878	31.878267
502.393079	31.922552
502.824264	31.963753
503.255431	31.996274
503.686583	32.033736
504.117717	32.083188
504.548835	32.165341
504.979937	32.278020
505.411022	32.426603
505.842090	32.605985
506.273142	32.826870
506.704177	33.078409
507.135195	33.347245
507.566197	33.623682
507.997182	33.893960
508.428150	34.153629
508.859102	34.396317
509.290036	34.609645
509.720954	34.818960
510.151855	35.008461
510.582739	35.210027
511.013607	35.417063
511.444457	35.664257
511.875291	35.936322
512.306107	36.274093
512.736907	36.650148
513.167690	37.084291
513.598456	37.564787
514.029205	38.101204
514.459936	38.663746
514.890651	39.246293
515.321349	39.842275
515.752030	40.441058
516.182693	41.029315
516.613340	41.611283
517.043969	42.181221
517.474582	42.727245
517.905177	43.249031
518.335755	43.750252
518.766315	44.243304
519.196859	44.722611
519.627385	45.194527
520.057894	45.663288
520.488386	46.144641
520.918860	46.643923
521.349318	47.180467
521.779757	47.750708
522.210180	48.370417
522.640585	49.020826
523.070973	49.710907
523.501343	50.433293
523.931696	51.178892
524.362031	51.940099
524.792349	52.696774
525.222650	53.448543
525.652933	54.160771
526.083198	54.840007
526.513446	55.468198
526.943677	56.064684
527.373890	56.630167
527.804085	57.173400
528.234262	57.697378
528.664422	58.238163
529.094565	58.789446
529.524689	59.358263
529.954796	59.945586
530.384885	60.565884
530.814957	61.208567
531.245011	61.892367
531.675047	62.600032
532.105065	63.308821
532.535065	64.038816
532.965048	64.755312
533.395013	65.447791
533.824959	66.114706
534.254888	66.747352
534.684799	67.329299
535.114693	67.876535
535.544568	68.370648
535.974425	68.828060
536.404264	69.221950
536.834086	69.583110
537.263889	69.910494
537.693674	70.211001
538.123441	70.496367
538.553190	70.763127
538.982921	71.047882
539.412634	71.343658
539.842329	71.680394
540.272006	72.021062
540.701664	72.379265
541.131304	72.776041
541.560926	73.186875
541.990530	73.610191
542.420116	74.045574
542.849683	74.475480
543.279232	74.910808
543.708763	75.310986
544.138275	75.696938
544.567769	76.027137
544.997245	76.327566
545.426702	76.600424
545.856141	76.826292
546.285562	77.034227
546.714964	77.223728
547.144347	77.404474
547.573713	77.587972
548.003059	77.778420
548.432387	77.985198
548.861697	78.221556
549.290988	78.491281
549.720260	78.801893
550.149514	79.136769
550.578750	79.498909
551.007966	79.873728
551.437164	80.278915
551.866344	80.695354
552.295504	81.089504
552.724646	81.489304
553.153769	81.856044
553.582874	82.209048
554.011960	82.511517
554.441027	82.764063
554.870075	82.965372
555.299104	83.099905
555.728115	83.171805
556.157106	83.223704
556.586079	83.223791
557.015033	83.199285
557.443968	83.154428
557.872884	83.112122
558.301781	83.064174
558.730659	83.045679
559.159518	83.035499
559.588358	83.063880
560.017180	83.115132
560.445982	83.193973
560.874765	83.298956
561.303528	83.436731
561.732273	83.601474
562.160999	83.771305
562.589705	83.949190
563.018393	84.138489
563.447061	84.333945
563.875710	84.531539
564.304340	84.735127
564.732950	84.913532
565.161542	85.092865
565.590114	85.260477
566.018666	85.414393
566.447200	85.554869
566.875714	85.678739
567.304208	85.811994
567.732684	85.937898
568.161140	86.069485
568.589576	86.226720
569.017993	86.396095
569.446391	86.570997
569.874769	86.774617
570.303128	86.997400
570.731467	87.248396
571.159787	87.521957
571.588087	87.814901
572.016368	88.116230
572.444629	88.441272
572.872870	88.755490
573.301092	89.069185
573.729294	89.364946
574.157476	89.635751
574.585639	89.865271
575.013782	90.045472
575.441906	90.182708
575.870009	90.264203
576.298093	90.283897
576.726157	90.259208
577.154202	90.185274
577.582226	90.081900
578.010231	89.934470
578.438216	89.772730
578.866181	89.598731
579.294126	89.436802
579.722051	89.288328
580.149957	89.168041
580.577842	89.060152
581.005707	88.976619
581.433553	88.930578
581.861378	88.898143
582.289184	88.894135
582.716969	88.897183
583.144734	88.902339
583.572479	88.936407
584.000205	88.975299
584.427910	89.016478
584.855594	89.060884
585.283259	89.095595
585.710904	89.144673
586.138528	89.181527
586.566132	89.223004
586.993716	89.260902
587.421280	89.304998
587.848823	89.353805
588.276346	89.399387
588.703849	89.429745
589.131332	89.459252
589.558794	89.488885
589.986236	89.488236
590.413657	89.494218
590.841058	89.475790
591.268438	89.468542
591.695799	89.446609
592.123138	89.430770
592.550458	89.412080
592.977756	89.403138
593.405034	89.402800
593.832292	89.416101
594.259529	89.439408
594.686746	89.468791
595.113942	89.505451
595.541117	89.543105
595.968272	89.584559
596.395406	89.623840
596.822519	89.640650
597.249612	89.638747
597.676684	89.607467
598.103735	89.542386
598.530766	89.453320
598.957775	89.315471
599.384764	89.144864
599.811733	88.937797
600.238680	88.713987
600.665606	88.455349
601.092512	88.189639
601.519397	87.918073
601.946261	87.657212
602.373104	87.396081
602.799926	87.144944
603.226727	86.926387
603.653507	86.714975
604.080266	86.527651
604.507004	86.356521
604.933721	86.190192
605.360417	86.039078
605.787092	85.882496
606.213746	85.714744
606.640379	85.536236
607.066991	85.347774
607.493581	85.143741
607.920150	84.931757
608.346699	84.718492
608.773226	84.492576
609.199731	84.264694
609.626216	84.037607
610.052679	83.807457
610.479121	83.576285
610.905542	83.351057
611.331941	83.133806
611.758319	82.904148
612.184676	82.685836
612.611011	82.467165
613.037325	82.234680
613.463617	81.980446
613.889888	81.715386
614.316138	81.423962
614.742366	81.107879
615.168573	80.767773
615.594758	80.399987
616.020921	80.010977
616.447063	79.596601
616.873184	79.156605
617.299283	78.698486
617.725360	78.238713
618.151416	77.782203
618.577450	77.307002
619.003462	76.828647
619.429453	76.362304
619.855422	75.896273
620.281369	75.433253
620.707295	74.972734
621.133199	74.496158
621.559081	73.998955
621.984941	73.491257
622.410779	72.956171
622.836596	72.387169
623.262391	71.796072
623.688163	71.170952
624.113914	70.518871
624.539644	69.832508
624.965351	69.121106
625.391036	68.372353
625.816699	67.606498
626.242340	66.831853
626.667960	66.043322
627.093557	65.251353
627.519132	64.470308
627.944685	63.690079
628.370216	62.925092
628.795725	62.181423
629.221212	61.445388
629.646677	60.727609
630.072119	60.033025
630.497540	59.356869
630.922938	58.689073
631.348314	58.035320
631.773668	57.403761
632.198999	56.787850
632.624308	56.188025
633.049595	55.607323
633.474860	55.045925
633.900102	54.505256
634.325322	53.999922
634.750520	53.535163
635.175695	53.107505
635.600848	52.728530
636.025978	52.406819
636.451086	52.130767
636.876171	51.911657
637.301234	51.737140
637.726275	51.630943
638.151293	51.574161
638.576288	51.567657
639.001261	51.619141
639.426211	51.716330
639.851139	51.846770
640.276044	52.016477
640.700927	52.216011
641.125787	52.444263
641.550624	52.700925
641.975438	52.972520
642.400230	53.271383
642.824999	53.575504
643.249745	53.895142
643.674469	54.231748
644.099169	54.579706
644.523847	54.939731
644.948502	55.318295
645.373135	55.709902
645.797744	56.120864
646.222330	56.543937
646.646894	56.986606
647.071435	57.449013
647.495953	57.924623
647.920447	58.397664
648.344919	58.882462
648.769368	59.368427
649.193794	59.851974
649.618197	60.333096
650.042576	60.803145
650.466933	61.281219
650.891267	61.728396
651.315577	62.169682
651.739864	62.594631
652.164129	62.991287
652.588370	63.372887
653.012587	63.746877
653.436782	64.107235
653.860953	64.449545
654.285102	64.781160
654.709226	65.090264
655.133328	65.397918
655.557406	65.683316
655.981461	65.968716
656.405493	66.238791
656.829501	66.487782
657.253486	66.719195
657.677448	66.930981
658.101386	67.114246
658.525301	67.272917
658.949192	67.406020
659.373060	67.507639
659.796904	67.578314
660.220725	67.615513
660.644522	67.612867
661.068296	67.598962
661.492046	67.563817
661.915772	67.510704
662.339475	67.442939
662.763154	67.373443
663.186810	67.301113
663.610442	67.224653
664.034050	67.160907
664.457635	67.111602
664.881196	67.083781
665.304733	67.079450
665.728247	67.097584
666.151736	67.145145
666.575202	67.212073
666.998644	67.312688
667.422062	67.441540
667.845457	67.582121
668.268827	67.731154
668.692174	67.901804
669.115496	68.072866
669.538795	68.243318
669.962070	68.409419
670.385321	68.568427
670.808547	68.711738
671.231750	68.850683
671.654929	68.975934
672.078084	69.075787
672.501214	69.159438
672.924321	69.220680
673.347404	69.269171
673.770462	69.307968
674.193496	69.322680
674.616506	69.316225
675.039492	69.295092
675.462454	69.257461
675.885391	69.203423
676.308305	69.135928
676.731194	69.058952
677.154058	68.971574
677.576899	68.867738
677.999715	68.764105
678.422507	68.656828
678.845274	68.533242
679.268017	68.405772
679.690736	68.280015
680.113430	68.133601
680.536100	67.991142
680.958746	67.850171
681.381367	67.707235
681.803963	67.553788
682.226535	67.407164
682.649083	67.271868
683.071605	67.138959
683.494104	67.011103
683.916578	66.892065
684.339027	66.777997
684.761451	66.667934
685.183851	66.560251
685.606227	66.468017
686.028577	66.377983
686.450903	66.287644
686.873204	66.197628
687.295481	66.116392
687.717733	66.031462
688.139959	65.942163
688.562162	65.844910
688.984339	65.740920
689.406492	65.632121
689.828619	65.519363
690.250722	65.394984
690.672800	65.274767
691.094853	65.140780
691.516881	64.990899
691.938884	64.841007
692.360863	64.686824
692.782816	64.532932
693.204744	64.384630
693.626647	64.233870
694.048526	64.091874
694.470379	63.967118
694.892207	63.858772
695.314010	63.774297
695.735788	63.707463
696.157540	63.669164
696.579268	63.665904
697.000970	63.692610
697.422648	63.752474
697.844300	63.844829
698.265926	63.979652
698.687528	64.135086
699.109104	64.328549
699.530655	64.544745
699.952181	64.792256
