PE UV       SUBTECH     SPECTRUM    ASCII       PEDS        4.00        
   -1
CICIMAUCR0225-3.ASC
24/05/30
11:57:32.00
24/05/30
11:57:32.00
Vinicio Soto Monge
C. resplendens, F Ventral
250,000000
1
Lambda 1050
1050L1511233
PerkinElmer UV WinLab 6.3.2.0749 / 2.02.05 Lambda 900 UV/VIS/NIR, Aug  7 2015 09:38:08

0
0
3350/servo 860,8/2
0
0
UV/VIS
1
1
1
DoubleDePol,CommonBeamDepol,RBeamAtt,SBeamAtt,60mm sphere, WB InGaAs Detector
0
0
0
0
Program
Program
3350/servo 860,8/2
3350/0,2 860,8/0,2
3350/0,2 860,8/0,2
0
15.00
 
 
 
0
 
860,8
319,2
860,8
Front
100
on
S:100 R:100
0
0
0
0
 
0
 
 
 
0
 
 
0
0
0
0
0
 
 
 
 
0
0


0
0
#HDR
-1
-1
#GR
nm
%R
1.0
0.0
2500,000000
-1,000000
2251
8
54,354700
4,244400
#DATA
250.000000	4.621500
251.000000	4.618900
252.000000	4.594067
253.000000	4.589567
254.000000	4.594000
255.000000	4.577500
256.000000	4.574500
257.000000	4.544233
258.000000	4.548367
259.000000	4.545800
260.000000	4.543033
261.000000	4.509733
262.000000	4.503033
263.000000	4.477000
264.000000	4.467500
265.000000	4.442767
266.000000	4.417433
267.000000	4.407067
268.000000	4.404433
269.000000	4.392433
270.000000	4.374367
271.000000	4.361667
272.000000	4.364267
273.000000	4.355133
274.000000	4.346433
275.000000	4.349200
276.000000	4.321833
277.000000	4.311333
278.000000	4.319967
279.000000	4.295933
280.000000	4.276767
281.000000	4.282267
282.000000	4.281667
283.000000	4.276167
284.000000	4.283800
285.000000	4.280600
286.000000	4.278667
287.000000	4.259633
288.000000	4.240300
289.000000	4.238100
290.000000	4.244700
291.000000	4.255200
292.000000	4.268600
293.000000	4.243133
294.000000	4.228600
295.000000	4.256633
296.000000	4.262567
297.000000	4.240100
298.000000	4.235300
299.000000	4.240600
300.000000	4.268333
301.000000	4.250533
302.000000	4.221700
303.000000	4.216767
304.000000	4.209933
305.000000	4.201200
306.000000	4.201967
307.000000	4.229533
308.000000	4.226533
309.000000	4.221967
310.000000	4.209900
311.000000	4.209233
312.000000	4.214633
313.000000	4.214667
314.000000	4.219867
315.000000	4.208700
316.000000	4.648267
317.000000	5.257633
318.000000	5.245133
319.000000	4.890000
320.000000	4.701300
321.000000	4.752967
322.000000	4.658867
323.000000	4.788333
324.000000	4.701067
325.000000	4.515700
326.000000	4.448400
327.000000	4.399300
328.000000	4.337767
329.000000	4.342467
330.000000	4.426233
331.000000	4.453833
332.000000	4.428733
333.000000	4.449833
334.000000	4.434700
335.000000	4.366567
336.000000	4.393167
337.000000	4.486000
338.000000	4.563133
339.000000	4.487000
340.000000	4.448833
341.000000	4.457200
342.000000	4.405233
343.000000	4.372133
344.000000	4.383700
345.000000	4.451033
346.000000	4.434233
347.000000	4.379733
348.000000	4.388467
349.000000	4.365833
350.000000	4.299967
351.000000	4.326433
352.000000	4.405333
353.000000	4.451267
354.000000	4.449933
355.000000	4.537867
356.000000	4.491533
357.000000	4.415867
358.000000	4.476400
359.000000	4.475367
360.000000	4.450867
361.000000	4.475333
362.000000	4.553333
363.000000	4.534600
364.000000	4.534967
365.000000	4.539700
366.000000	4.494933
367.000000	4.512133
368.000000	4.542433
369.000000	4.470800
370.000000	4.476433
371.000000	4.521200
372.000000	4.586667
373.000000	4.571433
374.000000	4.449200
375.000000	4.689233
376.000000	4.920667
377.000000	4.986000
378.000000	5.024833
379.000000	5.063100
380.000000	5.103500
381.000000	5.131700
382.000000	5.170400
383.000000	5.218000
384.000000	5.267633
385.000000	5.300633
386.000000	5.334133
387.000000	5.373900
388.000000	5.421900
389.000000	5.477000
390.000000	5.518800
391.000000	5.556967
392.000000	5.595500
393.000000	5.649433
394.000000	5.681833
395.000000	5.717633
396.000000	5.759500
397.000000	5.814333
398.000000	5.865933
399.000000	5.911700
400.000000	5.948233
401.000000	5.983000
402.000000	6.026733
403.000000	6.069567
404.000000	6.115633
405.000000	6.145700
406.000000	6.192833
407.000000	6.233133
408.000000	6.264100
409.000000	6.304367
410.000000	6.351833
411.000000	6.382500
412.000000	6.417700
413.000000	6.459600
414.000000	6.492167
415.000000	6.530833
416.000000	6.573000
417.000000	6.605433
418.000000	6.644900
419.000000	6.688800
420.000000	6.706900
421.000000	6.747733
422.000000	6.780267
423.000000	6.823667
424.000000	6.855267
425.000000	6.887967
426.000000	6.936933
427.000000	6.977400
428.000000	7.001800
429.000000	7.048533
430.000000	7.075867
431.000000	7.120667
432.000000	7.162767
433.000000	7.199833
434.000000	7.236967
435.000000	7.273900
436.000000	7.317067
437.000000	7.361900
438.000000	7.395100
439.000000	7.440200
440.000000	7.495900
441.000000	7.535267
442.000000	7.571733
443.000000	7.615667
444.000000	7.664433
445.000000	7.706533
446.000000	7.740333
447.000000	7.780233
448.000000	7.811533
449.000000	7.860200
450.000000	7.898867
451.000000	7.945533
452.000000	7.981567
453.000000	8.030600
454.000000	8.066767
455.000000	8.108067
456.000000	8.152033
457.000000	8.205600
458.000000	8.251233
459.000000	8.284600
460.000000	8.337400
461.000000	8.389900
462.000000	8.450867
463.000000	8.492767
464.000000	8.548567
465.000000	8.602400
466.000000	8.661567
467.000000	8.711867
468.000000	8.772800
469.000000	8.840333
470.000000	8.896900
471.000000	8.968367
472.000000	9.048067
473.000000	9.116067
474.000000	9.194000
475.000000	9.282467
476.000000	9.359567
477.000000	9.436833
478.000000	9.516900
479.000000	9.607200
480.000000	9.703200
481.000000	9.800233
482.000000	9.890167
483.000000	9.984867
484.000000	10.072567
485.000000	10.153867
486.000000	10.251867
487.000000	10.337367
488.000000	10.438600
489.000000	10.519033
490.000000	10.617033
491.000000	10.719300
492.000000	10.828067
493.000000	10.942267
494.000000	11.051867
495.000000	11.180233
496.000000	11.302467
497.000000	11.418100
498.000000	11.548933
499.000000	11.680833
500.000000	11.830500
501.000000	11.981533
502.000000	12.137900
503.000000	12.288300
504.000000	12.432733
505.000000	12.585700
506.000000	12.761800
507.000000	12.927933
508.000000	13.110200
509.000000	13.284033
510.000000	13.471533
511.000000	13.662667
512.000000	13.860667
513.000000	14.062300
514.000000	14.272933
515.000000	14.470933
516.000000	14.685367
517.000000	14.906833
518.000000	15.124933
519.000000	15.337667
520.000000	15.567433
521.000000	15.786967
522.000000	16.009933
523.000000	16.236067
524.000000	16.462367
525.000000	16.686300
526.000000	16.917300
527.000000	17.132333
528.000000	17.355067
529.000000	17.579867
530.000000	17.800967
531.000000	18.016033
532.000000	18.227667
533.000000	18.442567
534.000000	18.648267
535.000000	18.867500
536.000000	19.075600
537.000000	19.267167
538.000000	19.458900
539.000000	19.647233
540.000000	19.838567
541.000000	20.025200
542.000000	20.215700
543.000000	20.399833
544.000000	20.566433
545.000000	20.741700
546.000000	20.905400
547.000000	21.058033
548.000000	21.210500
549.000000	21.344400
550.000000	21.482533
551.000000	21.627633
552.000000	21.762100
553.000000	21.887133
554.000000	22.015733
555.000000	22.113800
556.000000	22.239600
557.000000	22.333833
558.000000	22.425300
559.000000	22.504667
560.000000	22.576400
561.000000	22.650967
562.000000	22.726033
563.000000	22.801867
564.000000	22.884367
565.000000	22.949400
566.000000	23.005000
567.000000	23.056900
568.000000	23.100000
569.000000	23.136600
570.000000	23.174567
571.000000	23.210400
572.000000	23.248767
573.000000	23.273700
574.000000	23.294867
575.000000	23.315033
576.000000	23.327467
577.000000	23.338633
578.000000	23.344233
579.000000	23.352900
580.000000	23.346700
581.000000	23.341967
582.000000	23.342833
583.000000	23.345933
584.000000	23.330767
585.000000	23.313633
586.000000	23.306100
587.000000	23.290933
588.000000	23.264567
589.000000	23.247233
590.000000	23.229133
591.000000	23.203933
592.000000	23.181967
593.000000	23.153333
594.000000	23.114200
595.000000	23.084733
596.000000	23.060167
597.000000	23.030233
598.000000	22.995333
599.000000	22.964100
600.000000	22.939833
601.000000	22.903367
602.000000	22.867667
603.000000	22.833933
604.000000	22.808533
605.000000	22.773633
606.000000	22.735100
607.000000	22.699600
608.000000	22.671733
609.000000	22.639267
610.000000	22.612267
611.000000	22.592567
612.000000	22.579800
613.000000	22.564233
614.000000	22.541367
615.000000	22.529700
616.000000	22.520333
617.000000	22.506767
618.000000	22.490700
619.000000	22.479400
620.000000	22.486800
621.000000	22.497000
622.000000	22.503833
623.000000	22.510767
624.000000	22.518933
625.000000	22.530767
626.000000	22.549533
627.000000	22.559800
628.000000	22.574733
629.000000	22.604100
630.000000	22.632500
631.000000	22.665167
632.000000	22.695400
633.000000	22.731600
634.000000	22.767333
635.000000	22.804000
636.000000	22.849433
637.000000	22.895167
638.000000	22.938767
639.000000	22.983600
640.000000	23.029600
641.000000	23.088333
642.000000	23.153400
643.000000	23.204967
644.000000	23.256833
645.000000	23.315900
646.000000	23.388033
647.000000	23.452067
648.000000	23.531000
649.000000	23.609900
650.000000	23.678067
651.000000	23.755700
652.000000	23.839033
653.000000	23.928233
654.000000	24.012367
655.000000	24.113000
656.000000	24.211533
657.000000	24.300333
658.000000	24.403667
659.000000	24.513700
660.000000	24.626633
661.000000	24.733000
662.000000	24.839000
663.000000	24.954533
664.000000	25.057033
665.000000	25.162267
666.000000	25.273867
667.000000	25.398133
668.000000	25.523067
669.000000	25.636067
670.000000	25.777033
671.000000	25.931800
672.000000	26.061500
673.000000	26.194600
674.000000	26.347733
675.000000	26.492867
676.000000	26.616167
677.000000	26.768367
678.000000	26.894333
679.000000	27.035867
680.000000	27.176833
681.000000	27.329967
682.000000	27.494933
683.000000	27.666767
684.000000	27.816700
685.000000	27.970933
686.000000	28.147733
687.000000	28.319600
688.000000	28.483567
689.000000	28.659333
690.000000	28.849467
691.000000	29.012133
692.000000	29.186833
693.000000	29.392867
694.000000	29.572400
695.000000	29.759700
696.000000	29.941733
697.000000	30.152033
698.000000	30.362167
699.000000	30.539400
700.000000	30.738967
701.000000	30.934600
702.000000	31.126500
703.000000	31.345067
704.000000	31.553233
705.000000	31.766500
706.000000	31.973000
707.000000	32.171767
708.000000	32.370300
709.000000	32.599633
710.000000	32.851200
711.000000	33.059533
712.000000	33.284167
713.000000	33.457633
714.000000	33.675600
715.000000	33.903167
716.000000	34.121867
717.000000	34.329167
718.000000	34.529033
719.000000	34.761900
720.000000	34.985300
721.000000	35.179533
722.000000	35.380633
723.000000	35.604167
724.000000	35.821133
725.000000	36.036633
726.000000	36.240333
727.000000	36.438100
728.000000	36.631800
729.000000	36.804133
730.000000	37.049933
731.000000	37.246467
732.000000	37.398867
733.000000	37.576067
734.000000	37.787767
735.000000	37.975700
736.000000	38.116167
737.000000	38.317267
738.000000	38.478733
739.000000	38.705367
740.000000	38.805367
741.000000	38.981733
742.000000	39.161700
743.000000	39.295200
744.000000	39.475900
745.000000	39.624067
746.000000	39.718633
747.000000	39.852300
748.000000	40.050333
749.000000	40.141567
750.000000	40.308767
751.000000	40.419000
752.000000	40.544967
753.000000	40.635100
754.000000	40.771067
755.000000	40.889200
756.000000	40.986033
757.000000	41.082733
758.000000	41.186333
759.000000	41.269333
760.000000	41.413167
761.000000	41.503767
762.000000	41.613433
763.000000	41.673833
764.000000	41.744500
765.000000	41.893300
766.000000	41.953133
767.000000	42.026000
768.000000	42.040067
769.000000	42.137900
770.000000	42.172367
771.000000	42.195500
772.000000	42.344067
773.000000	42.368300
774.000000	42.419167
775.000000	42.541600
776.000000	42.559133
777.000000	42.650433
778.000000	42.761733
779.000000	42.801667
780.000000	42.867333
781.000000	42.903833
782.000000	42.934533
783.000000	42.964333
784.000000	43.054067
785.000000	43.134300
786.000000	43.176467
787.000000	43.193733
788.000000	43.231067
789.000000	43.261433
790.000000	43.229767
791.000000	43.329267
792.000000	43.411833
793.000000	43.433633
794.000000	43.454733
795.000000	43.481800
796.000000	43.573867
797.000000	43.613567
798.000000	43.668300
799.000000	43.637100
800.000000	43.768200
801.000000	43.802500
802.000000	43.801600
803.000000	43.881900
804.000000	43.889400
805.000000	43.938633
806.000000	43.934067
807.000000	44.030033
808.000000	43.941600
809.000000	44.082700
810.000000	44.039233
811.000000	44.175133
812.000000	44.236600
813.000000	44.196000
814.000000	44.251233
815.000000	44.254533
816.000000	44.307200
817.000000	44.396833
818.000000	44.468200
819.000000	44.431233
820.000000	44.524533
821.000000	44.417567
822.000000	44.603333
823.000000	44.646467
824.000000	44.679233
825.000000	44.718100
826.000000	44.644667
827.000000	44.741100
828.000000	44.731133
829.000000	44.761233
830.000000	44.744967
831.000000	44.855233
832.000000	44.732633
833.000000	44.841533
834.000000	44.824067
835.000000	44.858900
836.000000	44.863967
837.000000	44.901967
838.000000	44.944567
839.000000	44.783567
840.000000	44.966367
841.000000	45.027133
842.000000	44.946667
843.000000	44.849600
844.000000	44.923133
845.000000	44.918033
846.000000	44.952300
847.000000	44.909500
848.000000	44.942433
849.000000	44.680967
850.000000	44.708033
851.000000	44.653667
852.000000	44.736433
853.000000	44.784633
854.000000	44.662200
855.000000	44.642067
856.000000	44.514967
857.000000	43.844433
858.000000	44.333822
859.000000	44.334594
860.000000	44.340728
861.000000	44.331666
862.000000	44.338976
863.000000	44.346452
864.000000	44.354716
865.000000	44.355839
866.000000	44.374536
867.000000	44.376101
868.000000	44.376900
869.000000	44.368359
870.000000	44.371059
871.000000	44.401448
872.000000	44.492957
873.000000	44.649510
874.000000	44.861895
875.000000	45.050919
876.000000	45.232515
877.000000	45.422895
878.000000	45.583291
879.000000	45.692872
880.000000	45.812477
881.000000	45.922450
882.000000	46.040196
883.000000	46.139996
884.000000	46.239535
885.000000	46.338323
886.000000	46.441897
887.000000	46.520733
888.000000	46.604862
889.000000	46.679255
890.000000	46.751585
891.000000	46.831041
892.000000	46.887725
893.000000	46.921686
894.000000	46.979382
895.000000	47.041511
896.000000	47.061894
897.000000	47.093633
898.000000	47.130791
899.000000	47.153377
900.000000	47.181071
901.000000	47.218129
902.000000	47.244568
903.000000	47.277940
904.000000	47.307203
905.000000	47.342750
906.000000	47.399609
907.000000	47.463331
908.000000	47.516326
909.000000	47.576946
910.000000	47.658261
911.000000	47.740695
912.000000	47.820865
913.000000	47.909183
914.000000	48.003887
915.000000	48.102025
916.000000	48.189331
917.000000	48.261488
918.000000	48.316816
919.000000	48.395451
920.000000	48.472280
921.000000	48.539107
922.000000	48.603242
923.000000	48.670471
924.000000	48.732732
925.000000	48.788342
926.000000	48.848835
927.000000	48.908578
928.000000	48.974051
929.000000	49.039995
930.000000	49.090282
931.000000	49.137090
932.000000	49.189348
933.000000	49.251083
934.000000	49.297066
935.000000	49.354963
936.000000	49.404485
937.000000	49.452202
938.000000	49.513734
939.000000	49.565371
940.000000	49.625409
941.000000	49.686264
942.000000	49.737028
943.000000	49.781594
944.000000	49.827147
945.000000	49.876961
946.000000	49.925010
947.000000	49.965141
948.000000	50.010739
949.000000	50.050173
950.000000	50.082721
951.000000	50.120087
952.000000	50.158801
953.000000	50.197225
954.000000	50.226055
955.000000	50.243370
956.000000	50.272492
957.000000	50.296473
958.000000	50.306390
959.000000	50.322559
960.000000	50.335208
961.000000	50.346614
962.000000	50.358092
963.000000	50.372544
964.000000	50.391117
965.000000	50.416126
966.000000	50.442633
967.000000	50.465002
968.000000	50.493220
969.000000	50.529041
970.000000	50.553093
971.000000	50.585866
972.000000	50.613506
973.000000	50.638400
974.000000	50.659540
975.000000	50.687743
976.000000	50.719863
977.000000	50.744531
978.000000	50.758916
979.000000	50.790131
980.000000	50.818907
981.000000	50.840059
982.000000	50.863504
983.000000	50.881014
984.000000	50.908275
985.000000	50.930365
986.000000	50.951057
987.000000	50.962127
988.000000	50.995844
989.000000	51.022133
990.000000	51.045082
991.000000	51.088967
992.000000	51.123083
993.000000	51.148088
994.000000	51.191461
995.000000	51.229830
996.000000	51.252890
997.000000	51.297975
998.000000	51.334757
999.000000	51.374800
1000.000000	51.419454
1001.000000	51.452395
1002.000000	51.499338
1003.000000	51.530957
1004.000000	51.567927
1005.000000	51.615616
1006.000000	51.640959
1007.000000	51.681461
1008.000000	51.711445
1009.000000	51.764584
1010.000000	51.802193
1011.000000	51.860006
1012.000000	51.922407
1013.000000	51.975743
1014.000000	52.062287
1015.000000	52.164529
1016.000000	52.253047
1017.000000	52.357225
1018.000000	52.456457
1019.000000	52.550686
1020.000000	52.665552
1021.000000	52.787437
1022.000000	52.904736
1023.000000	53.026039
1024.000000	53.131802
1025.000000	53.244607
1026.000000	53.365507
1027.000000	53.480086
1028.000000	53.573973
1029.000000	53.664743
1030.000000	53.773552
1031.000000	53.874075
1032.000000	53.972971
1033.000000	54.074438
1034.000000	54.179270
1035.000000	54.256893
1036.000000	54.360030
1037.000000	54.428724
1038.000000	54.519571
1039.000000	54.592968
1040.000000	54.677055
1041.000000	54.753968
1042.000000	54.839366
1043.000000	54.909437
1044.000000	54.986377
1045.000000	55.072654
1046.000000	55.153766
1047.000000	55.233057
1048.000000	55.307486
1049.000000	55.392989
1050.000000	55.475414
1051.000000	55.550727
1052.000000	55.656572
1053.000000	55.745163
1054.000000	55.849958
1055.000000	55.937828
1056.000000	56.032147
1057.000000	56.132536
1058.000000	56.238849
1059.000000	56.320237
1060.000000	56.412001
1061.000000	56.508580
1062.000000	56.598113
1063.000000	56.687012
1064.000000	56.771473
1065.000000	56.848065
1066.000000	56.926695
1067.000000	57.016114
1068.000000	57.091754
1069.000000	57.176350
1070.000000	57.265966
1071.000000	57.342441
1072.000000	57.412417
1073.000000	57.494685
1074.000000	57.583426
1075.000000	57.636787
1076.000000	57.724523
1077.000000	57.795059
1078.000000	57.881580
1079.000000	57.943490
1080.000000	58.020978
1081.000000	58.080057
1082.000000	58.182241
1083.000000	58.251274
1084.000000	58.335592
1085.000000	58.409956
1086.000000	58.472850
1087.000000	58.558177
1088.000000	58.611776
1089.000000	58.687220
1090.000000	58.743587
1091.000000	58.811331
1092.000000	58.869636
1093.000000	58.920869
1094.000000	58.982400
1095.000000	59.032030
1096.000000	59.076458
1097.000000	59.119654
1098.000000	59.155629
1099.000000	59.179265
1100.000000	59.213419
1101.000000	59.239997
1102.000000	59.276027
1103.000000	59.304767
1104.000000	59.326036
1105.000000	59.337522
1106.000000	59.363739
1107.000000	59.375749
1108.000000	59.400123
1109.000000	59.425083
1110.000000	59.440568
1111.000000	59.454860
1112.000000	59.473210
1113.000000	59.482413
1114.000000	59.487267
1115.000000	59.498759
1116.000000	59.509464
1117.000000	59.502799
1118.000000	59.476588
1119.000000	59.443522
1120.000000	59.405105
1121.000000	59.340912
1122.000000	59.265803
1123.000000	59.147988
1124.000000	59.039693
1125.000000	58.919385
1126.000000	58.750497
1127.000000	58.544648
1128.000000	58.292111
1129.000000	57.978826
1130.000000	57.631708
1131.000000	57.212129
1132.000000	56.771745
1133.000000	56.307080
1134.000000	55.798984
1135.000000	55.220554
1136.000000	54.667648
1137.000000	54.141299
1138.000000	53.630367
1139.000000	53.133363
1140.000000	52.643124
1141.000000	52.178544
1142.000000	51.730763
1143.000000	51.330026
1144.000000	50.981851
1145.000000	50.687676
1146.000000	50.489317
1147.000000	50.361054
1148.000000	50.278947
1149.000000	50.221727
1150.000000	50.155909
1151.000000	50.068487
1152.000000	49.955440
1153.000000	49.779943
1154.000000	49.545676
1155.000000	49.248276
1156.000000	48.896169
1157.000000	48.483562
1158.000000	48.046715
1159.000000	47.586742
1160.000000	47.128284
1161.000000	46.658970
1162.000000	46.148430
1163.000000	45.659022
1164.000000	45.193933
1165.000000	44.713580
1166.000000	44.241085
1167.000000	43.777846
1168.000000	43.331143
1169.000000	42.893025
1170.000000	42.456196
1171.000000	42.024813
1172.000000	41.608357
1173.000000	41.191509
1174.000000	40.785535
1175.000000	40.379281
1176.000000	39.932318
1177.000000	39.433095
1178.000000	38.868317
1179.000000	38.237494
1180.000000	37.592605
1181.000000	36.976968
1182.000000	36.438722
1183.000000	36.019486
1184.000000	35.766277
1185.000000	35.682555
1186.000000	35.749743
1187.000000	35.980078
1188.000000	36.352151
1189.000000	36.827083
1190.000000	37.370051
1191.000000	37.939266
1192.000000	38.466594
1193.000000	38.924479
1194.000000	39.311246
1195.000000	39.630965
1196.000000	39.861833
1197.000000	40.034737
1198.000000	40.168972
1199.000000	40.264361
1200.000000	40.335681
1201.000000	40.396879
1202.000000	40.445449
1203.000000	40.491795
1204.000000	40.553120
1205.000000	40.620845
1206.000000	40.719883
1207.000000	40.844068
1208.000000	40.973788
1209.000000	41.124179
1210.000000	41.284921
1211.000000	41.444532
1212.000000	41.623888
1213.000000	41.810722
1214.000000	41.998376
1215.000000	42.193676
1216.000000	42.400027
1217.000000	42.616972
1218.000000	42.838943
1219.000000	43.068281
1220.000000	43.320777
1221.000000	43.571757
1222.000000	43.816008
1223.000000	44.071406
1224.000000	44.316972
1225.000000	44.569794
1226.000000	44.825021
1227.000000	45.071546
1228.000000	45.324778
1229.000000	45.571158
1230.000000	45.806251
1231.000000	46.038178
1232.000000	46.271977
1233.000000	46.497763
1234.000000	46.718090
1235.000000	46.932407
1236.000000	47.148234
1237.000000	47.353500
1238.000000	47.543627
1239.000000	47.741271
1240.000000	47.926455
1241.000000	48.103354
1242.000000	48.290182
1243.000000	48.466044
1244.000000	48.628498
1245.000000	48.784620
1246.000000	48.938888
1247.000000	49.086561
1248.000000	49.212054
1249.000000	49.328398
1250.000000	49.444837
1251.000000	49.548008
1252.000000	49.656717
1253.000000	49.754878
1254.000000	49.834282
1255.000000	49.928984
1256.000000	50.024232
1257.000000	50.099820
1258.000000	50.159847
1259.000000	50.230901
1260.000000	50.304879
1261.000000	50.367957
1262.000000	50.433916
1263.000000	50.499380
1264.000000	50.563910
1265.000000	50.620263
1266.000000	50.686701
1267.000000	50.750301
1268.000000	50.809128
1269.000000	50.859948
1270.000000	50.907665
1271.000000	50.969045
1272.000000	51.019951
1273.000000	51.072762
1274.000000	51.129285
1275.000000	51.190207
1276.000000	51.259558
1277.000000	51.327324
1278.000000	51.399272
1279.000000	51.479810
1280.000000	51.565687
1281.000000	51.632884
1282.000000	51.714244
1283.000000	51.784436
1284.000000	51.848236
1285.000000	51.917427
1286.000000	51.991079
1287.000000	52.040826
1288.000000	52.081741
1289.000000	52.110888
1290.000000	52.139078
1291.000000	52.158515
1292.000000	52.168369
1293.000000	52.178829
1294.000000	52.182117
1295.000000	52.170767
1296.000000	52.147956
1297.000000	52.132340
1298.000000	52.108888
1299.000000	52.078955
1300.000000	52.054807
1301.000000	52.017216
1302.000000	51.968505
1303.000000	51.920605
1304.000000	51.859872
1305.000000	51.786430
1306.000000	51.706544
1307.000000	51.613848
1308.000000	51.511144
1309.000000	51.403240
1310.000000	51.295645
1311.000000	51.154216
1312.000000	51.014228
1313.000000	50.883250
1314.000000	50.736271
1315.000000	50.570890
1316.000000	50.400882
1317.000000	50.237693
1318.000000	50.056292
1319.000000	49.870205
1320.000000	49.673530
1321.000000	49.468861
1322.000000	49.258671
1323.000000	49.049314
1324.000000	48.810703
1325.000000	48.572373
1326.000000	48.313685
1327.000000	48.044562
1328.000000	47.785342
1329.000000	47.499633
1330.000000	47.191520
1331.000000	46.876055
1332.000000	46.552309
1333.000000	46.215639
1334.000000	45.872972
1335.000000	45.524989
1336.000000	45.162584
1337.000000	44.784200
1338.000000	44.423903
1339.000000	44.019789
1340.000000	43.616555
1341.000000	43.217553
1342.000000	42.814718
1343.000000	42.391531
1344.000000	41.920897
1345.000000	41.461596
1346.000000	41.045210
1347.000000	40.520210
1348.000000	39.981512
1349.000000	39.442143
1350.000000	38.841373
1351.000000	38.189967
1352.000000	37.496539
1353.000000	36.925523
1354.000000	36.351048
1355.000000	35.891103
1356.000000	35.558281
1357.000000	35.354836
1358.000000	35.214863
1359.000000	35.086296
1360.000000	35.007339
1361.000000	34.813536
1362.000000	34.569074
1363.000000	34.343483
1364.000000	34.115726
1365.000000	33.828374
1366.000000	33.549711
1367.000000	33.225549
1368.000000	32.845022
1369.000000	32.451356
1370.000000	32.051397
1371.000000	31.573064
1372.000000	31.130534
1373.000000	30.743078
1374.000000	30.389063
1375.000000	30.122069
1376.000000	29.902178
1377.000000	29.679679
1378.000000	29.486267
1379.000000	29.217115
1380.000000	28.872051
1381.000000	28.412684
1382.000000	27.806146
1383.000000	27.178735
1384.000000	26.534961
1385.000000	26.007716
1386.000000	25.477666
1387.000000	25.030702
1388.000000	24.556702
1389.000000	24.176935
1390.000000	23.870843
1391.000000	23.561354
1392.000000	23.240271
1393.000000	22.981861
1394.000000	22.730587
1395.000000	22.404844
1396.000000	22.026029
1397.000000	21.715405
1398.000000	21.452962
1399.000000	21.132203
1400.000000	20.699403
1401.000000	20.249150
1402.000000	19.882618
1403.000000	19.509732
1404.000000	19.102923
1405.000000	18.696306
1406.000000	18.343126
1407.000000	17.987191
1408.000000	17.632116
1409.000000	17.285805
1410.000000	16.966608
1411.000000	16.702571
1412.000000	16.505549
1413.000000	16.272104
1414.000000	16.019438
1415.000000	15.798892
1416.000000	15.594682
1417.000000	15.402520
1418.000000	15.213196
1419.000000	15.010366
1420.000000	14.817546
1421.000000	14.641093
1422.000000	14.463131
1423.000000	14.300680
1424.000000	14.133722
1425.000000	13.970862
1426.000000	13.826478
1427.000000	13.698111
1428.000000	13.576610
1429.000000	13.459765
1430.000000	13.350133
1431.000000	13.244073
1432.000000	13.156700
1433.000000	13.058337
1434.000000	12.957913
1435.000000	12.869050
1436.000000	12.789055
1437.000000	12.700584
1438.000000	12.621133
1439.000000	12.539349
1440.000000	12.449890
1441.000000	12.380121
1442.000000	12.305465
1443.000000	12.225270
1444.000000	12.161723
1445.000000	12.088200
1446.000000	12.011807
1447.000000	11.946637
1448.000000	11.882070
1449.000000	11.828913
1450.000000	11.776886
1451.000000	11.711492
1452.000000	11.642290
1453.000000	11.590032
1454.000000	11.543569
1455.000000	11.493178
1456.000000	11.444963
1457.000000	11.385793
1458.000000	11.350113
1459.000000	11.339561
1460.000000	11.301161
1461.000000	11.270489
1462.000000	11.252190
1463.000000	11.223122
1464.000000	11.204396
1465.000000	11.195083
1466.000000	11.180102
1467.000000	11.171813
1468.000000	11.155003
1469.000000	11.153218
1470.000000	11.146690
1471.000000	11.146009
1472.000000	11.138827
1473.000000	11.129573
1474.000000	11.115074
1475.000000	11.122871
1476.000000	11.122339
1477.000000	11.119118
1478.000000	11.114017
1479.000000	11.120409
1480.000000	11.125402
1481.000000	11.119831
1482.000000	11.124747
1483.000000	11.128566
1484.000000	11.134620
1485.000000	11.147694
1486.000000	11.172101
1487.000000	11.200329
1488.000000	11.197942
1489.000000	11.204941
1490.000000	11.219590
1491.000000	11.229217
1492.000000	11.242120
1493.000000	11.258542
1494.000000	11.275022
1495.000000	11.301332
1496.000000	11.329683
1497.000000	11.352863
1498.000000	11.372047
1499.000000	11.395165
1500.000000	11.425556
1501.000000	11.457891
1502.000000	11.481100
1503.000000	11.507217
1504.000000	11.541650
1505.000000	11.575901
1506.000000	11.608978
1507.000000	11.645394
1508.000000	11.679921
1509.000000	11.708495
1510.000000	11.744179
1511.000000	11.778464
1512.000000	11.810571
1513.000000	11.840639
1514.000000	11.867424
1515.000000	11.892945
1516.000000	11.923383
1517.000000	11.958505
1518.000000	11.987808
1519.000000	12.015185
1520.000000	12.043354
1521.000000	12.073461
1522.000000	12.097688
1523.000000	12.120024
1524.000000	12.146459
1525.000000	12.170572
1526.000000	12.191979
1527.000000	12.211954
1528.000000	12.240540
1529.000000	12.264701
1530.000000	12.283627
1531.000000	12.300819
1532.000000	12.325514
1533.000000	12.337503
1534.000000	12.347431
1535.000000	12.354356
1536.000000	12.368132
1537.000000	12.378933
1538.000000	12.390022
1539.000000	12.401761
1540.000000	12.408063
1541.000000	12.414546
1542.000000	12.426366
1543.000000	12.435519
1544.000000	12.451199
1545.000000	12.458694
1546.000000	12.474599
1547.000000	12.491058
1548.000000	12.505402
1549.000000	12.524885
1550.000000	12.532747
1551.000000	12.543568
1552.000000	12.558250
1553.000000	12.574437
1554.000000	12.586193
1555.000000	12.576540
1556.000000	12.581837
1557.000000	12.599584
1558.000000	12.599035
1559.000000	12.589534
1560.000000	12.595275
1561.000000	12.581388
1562.000000	12.569453
1563.000000	12.566628
1564.000000	12.555161
1565.000000	12.551903
1566.000000	12.544928
1567.000000	12.523995
1568.000000	12.523444
1569.000000	12.523843
1570.000000	12.508392
1571.000000	12.509027
1572.000000	12.514576
1573.000000	12.520061
1574.000000	12.520096
1575.000000	12.525311
1576.000000	12.529865
1577.000000	12.546714
1578.000000	12.569701
1579.000000	12.573720
1580.000000	12.594947
1581.000000	12.619229
1582.000000	12.651931
1583.000000	12.677562
1584.000000	12.713074
1585.000000	12.741363
1586.000000	12.771911
1587.000000	12.806093
1588.000000	12.835074
1589.000000	12.870918
1590.000000	12.917840
1591.000000	12.956026
1592.000000	12.999810
1593.000000	13.051902
1594.000000	13.087354
1595.000000	13.142462
1596.000000	13.172699
1597.000000	13.225242
1598.000000	13.282677
1599.000000	13.343142
1600.000000	13.396516
1601.000000	13.453428
1602.000000	13.505030
1603.000000	13.555280
1604.000000	13.610414
1605.000000	13.666067
1606.000000	13.731451
1607.000000	13.791424
1608.000000	13.846888
1609.000000	13.894916
1610.000000	13.957945
1611.000000	14.006605
1612.000000	14.075440
1613.000000	14.118482
1614.000000	14.190708
1615.000000	14.251315
1616.000000	14.302941
1617.000000	14.358388
1618.000000	14.418901
1619.000000	14.492633
1620.000000	14.553563
1621.000000	14.614104
1622.000000	14.679906
1623.000000	14.752779
1624.000000	14.826127
1625.000000	14.886572
1626.000000	14.957124
1627.000000	15.031743
1628.000000	15.093965
1629.000000	15.170602
1630.000000	15.231924
1631.000000	15.309982
1632.000000	15.378468
1633.000000	15.445147
1634.000000	15.506334
1635.000000	15.555583
1636.000000	15.626932
1637.000000	15.682874
1638.000000	15.747756
1639.000000	15.804798
1640.000000	15.849816
1641.000000	15.911530
1642.000000	15.960585
1643.000000	16.009266
1644.000000	16.049165
1645.000000	16.094774
1646.000000	16.138181
1647.000000	16.181462
1648.000000	16.210494
1649.000000	16.250697
1650.000000	16.280764
1651.000000	16.304488
1652.000000	16.329296
1653.000000	16.340325
1654.000000	16.339323
1655.000000	16.344699
1656.000000	16.332002
1657.000000	16.318415
1658.000000	16.307827
1659.000000	16.258938
1660.000000	16.221505
1661.000000	16.161982
1662.000000	16.119660
1663.000000	16.040642
1664.000000	15.966258
1665.000000	15.881020
1666.000000	15.786428
1667.000000	15.683731
1668.000000	15.518058
1669.000000	15.375031
1670.000000	15.197278
1671.000000	15.009586
1672.000000	14.801608
1673.000000	14.526961
1674.000000	14.240962
1675.000000	13.906752
1676.000000	13.547545
1677.000000	13.129592
1678.000000	12.732129
1679.000000	12.322122
1680.000000	11.961813
1681.000000	11.656677
1682.000000	11.434730
1683.000000	11.280706
1684.000000	11.216552
1685.000000	11.186125
1686.000000	11.171984
1687.000000	11.128847
1688.000000	11.063574
1689.000000	10.989227
1690.000000	10.883616
1691.000000	10.789108
1692.000000	10.694627
1693.000000	10.627042
1694.000000	10.596594
1695.000000	10.605139
1696.000000	10.646795
1697.000000	10.703111
1698.000000	10.811768
1699.000000	10.909139
1700.000000	11.003103
1701.000000	11.083773
1702.000000	11.167722
1703.000000	11.219062
1704.000000	11.263177
1705.000000	11.304966
1706.000000	11.319280
1707.000000	11.348104
1708.000000	11.360087
1709.000000	11.351364
1710.000000	11.334971
1711.000000	11.312039
1712.000000	11.272897
1713.000000	11.225995
1714.000000	11.186801
1715.000000	11.141955
1716.000000	11.085011
1717.000000	11.047287
1718.000000	11.028768
1719.000000	11.013507
1720.000000	10.996401
1721.000000	10.974773
1722.000000	10.942909
1723.000000	10.920610
1724.000000	10.879228
1725.000000	10.823300
1726.000000	10.768689
1727.000000	10.689769
1728.000000	10.625795
1729.000000	10.551370
1730.000000	10.493026
1731.000000	10.447481
1732.000000	10.420411
1733.000000	10.428979
1734.000000	10.466924
1735.000000	10.534154
1736.000000	10.630790
1737.000000	10.737844
1738.000000	10.878361
1739.000000	11.024126
1740.000000	11.176623
1741.000000	11.325775
1742.000000	11.459067
1743.000000	11.570363
1744.000000	11.676077
1745.000000	11.754860
1746.000000	11.826277
1747.000000	11.883833
1748.000000	11.916533
1749.000000	11.960035
1750.000000	11.984932
1751.000000	11.994335
1752.000000	11.997635
1753.000000	11.976412
1754.000000	11.959914
1755.000000	11.926300
1756.000000	11.888586
1757.000000	11.844359
1758.000000	11.807132
1759.000000	11.758409
1760.000000	11.708982
1761.000000	11.686571
1762.000000	11.665414
1763.000000	11.678962
1764.000000	11.719064
1765.000000	11.771587
1766.000000	11.831315
1767.000000	11.897330
1768.000000	11.982588
1769.000000	12.072611
1770.000000	12.164532
1771.000000	12.258237
1772.000000	12.341881
1773.000000	12.433825
1774.000000	12.528813
1775.000000	12.610175
1776.000000	12.687472
1777.000000	12.761935
1778.000000	12.828458
1779.000000	12.890539
1780.000000	12.948117
1781.000000	13.007756
1782.000000	13.070628
1783.000000	13.134189
1784.000000	13.193417
1785.000000	13.247059
1786.000000	13.306652
1787.000000	13.359990
1788.000000	13.405202
1789.000000	13.448069
1790.000000	13.501817
1791.000000	13.545605
1792.000000	13.586902
1793.000000	13.634669
1794.000000	13.673218
1795.000000	13.712499
1796.000000	13.752747
1797.000000	13.789087
1798.000000	13.829293
1799.000000	13.871572
1800.000000	13.920391
1801.000000	13.967643
1802.000000	14.002329
1803.000000	14.040330
1804.000000	14.085528
1805.000000	14.126113
1806.000000	14.161312
1807.000000	14.201684
1808.000000	14.234383
1809.000000	14.255973
1810.000000	14.287730
1811.000000	14.322431
1812.000000	14.335289
1813.000000	14.339302
1814.000000	14.357050
1815.000000	14.364769
1816.000000	14.374176
1817.000000	14.386989
1818.000000	14.410921
1819.000000	14.446126
1820.000000	14.467879
1821.000000	14.484192
1822.000000	14.495539
1823.000000	14.524506
1824.000000	14.574244
1825.000000	14.628185
1826.000000	14.678750
1827.000000	14.744029
1828.000000	14.810301
1829.000000	14.865797
1830.000000	14.922133
1831.000000	14.964130
1832.000000	15.022239
1833.000000	15.085822
1834.000000	15.145300
1835.000000	15.207502
1836.000000	15.241007
1837.000000	15.268657
1838.000000	15.303364
1839.000000	15.332033
1840.000000	15.358115
1841.000000	15.375312
1842.000000	15.360273
1843.000000	15.373599
1844.000000	15.420814
1845.000000	15.463451
1846.000000	15.509943
1847.000000	15.547538
1848.000000	15.561564
1849.000000	15.556912
1850.000000	15.572072
1851.000000	15.584106
1852.000000	15.601478
1853.000000	15.616746
1854.000000	15.601620
1855.000000	15.586655
1856.000000	15.566709
1857.000000	15.530048
1858.000000	15.475499
1859.000000	15.384780
1860.000000	15.293903
1861.000000	15.187381
1862.000000	15.082987
1863.000000	14.986174
1864.000000	14.890830
1865.000000	14.775881
1866.000000	14.650847
1867.000000	14.493792
1868.000000	14.311105
1869.000000	14.064798
1870.000000	13.814826
1871.000000	13.555404
1872.000000	13.269510
1873.000000	12.952295
1874.000000	12.649098
1875.000000	12.327379
1876.000000	11.998056
1877.000000	11.658074
1878.000000	11.337425
1879.000000	11.026711
1880.000000	10.717869
1881.000000	10.410287
1882.000000	10.102394
1883.000000	9.800898
1884.000000	9.506067
1885.000000	9.246347
1886.000000	9.033028
1887.000000	8.843471
1888.000000	8.666632
1889.000000	8.497385
1890.000000	8.337189
1891.000000	8.183970
1892.000000	8.009172
1893.000000	7.873259
1894.000000	7.762426
1895.000000	7.664324
1896.000000	7.561790
1897.000000	7.454476
1898.000000	7.358623
1899.000000	7.232692
1900.000000	7.139764
1901.000000	7.050831
1902.000000	6.966409
1903.000000	6.878643
1904.000000	6.792035
1905.000000	6.698025
1906.000000	6.613875
1907.000000	6.536149
1908.000000	6.486857
1909.000000	6.428055
1910.000000	6.372726
1911.000000	6.329484
1912.000000	6.254301
1913.000000	6.213822
1914.000000	6.158555
1915.000000	6.103136
1916.000000	6.063757
1917.000000	6.032149
1918.000000	5.995897
1919.000000	5.954904
1920.000000	5.932339
1921.000000	5.893253
1922.000000	5.851135
1923.000000	5.808893
1924.000000	5.799060
1925.000000	5.779015
1926.000000	5.743647
1927.000000	5.731051
1928.000000	5.721846
1929.000000	5.681738
1930.000000	5.671289
1931.000000	5.645552
1932.000000	5.646220
1933.000000	5.625024
1934.000000	5.639471
1935.000000	5.620115
1936.000000	5.628979
1937.000000	5.631165
1938.000000	5.626654
1939.000000	5.604015
1940.000000	5.619347
1941.000000	5.620089
1942.000000	5.623990
1943.000000	5.638007
1944.000000	5.628645
1945.000000	5.640605
1946.000000	5.644238
1947.000000	5.645698
1948.000000	5.663415
1949.000000	5.683613
1950.000000	5.697520
1951.000000	5.704785
1952.000000	5.714647
1953.000000	5.734926
1954.000000	5.740544
1955.000000	5.757847
1956.000000	5.775188
1957.000000	5.792910
1958.000000	5.805108
1959.000000	5.828974
1960.000000	5.834159
1961.000000	5.862334
1962.000000	5.876866
1963.000000	5.883841
1964.000000	5.894454
1965.000000	5.917436
1966.000000	5.944026
1967.000000	5.970084
1968.000000	5.982011
1969.000000	5.999265
1970.000000	6.016158
1971.000000	6.038760
1972.000000	6.064532
1973.000000	6.087970
1974.000000	6.106183
1975.000000	6.116390
1976.000000	6.150752
1977.000000	6.184992
1978.000000	6.203844
1979.000000	6.221276
1980.000000	6.244143
1981.000000	6.271350
1982.000000	6.306425
1983.000000	6.331104
1984.000000	6.349872
1985.000000	6.374290
1986.000000	6.394368
1987.000000	6.416008
1988.000000	6.445308
1989.000000	6.464773
1990.000000	6.477336
1991.000000	6.503581
1992.000000	6.543051
1993.000000	6.567970
1994.000000	6.578707
1995.000000	6.601019
1996.000000	6.619243
1997.000000	6.643074
1998.000000	6.664019
1999.000000	6.680324
2000.000000	6.688352
2001.000000	6.695480
2002.000000	6.726457
2003.000000	6.736670
2004.000000	6.739580
2005.000000	6.747544
2006.000000	6.770096
2007.000000	6.775015
2008.000000	6.776839
2009.000000	6.782212
2010.000000	6.792939
2011.000000	6.795331
2012.000000	6.791867
2013.000000	6.803055
2014.000000	6.794660
2015.000000	6.799660
2016.000000	6.802338
2017.000000	6.795691
2018.000000	6.789208
2019.000000	6.786355
2020.000000	6.768979
2021.000000	6.761014
2022.000000	6.751049
2023.000000	6.747060
2024.000000	6.740592
2025.000000	6.733649
2026.000000	6.722314
2027.000000	6.716498
2028.000000	6.690623
2029.000000	6.666963
2030.000000	6.650010
2031.000000	6.632625
2032.000000	6.610909
2033.000000	6.589279
2034.000000	6.578430
2035.000000	6.553924
2036.000000	6.526937
2037.000000	6.499438
2038.000000	6.477982
2039.000000	6.445491
2040.000000	6.407218
2041.000000	6.384913
2042.000000	6.364588
2043.000000	6.329227
2044.000000	6.298700
2045.000000	6.281476
2046.000000	6.255568
2047.000000	6.230261
2048.000000	6.204141
2049.000000	6.187003
2050.000000	6.168097
2051.000000	6.148587
2052.000000	6.135772
2053.000000	6.129583
2054.000000	6.121181
2055.000000	6.106592
2056.000000	6.114461
2057.000000	6.121278
2058.000000	6.118689
2059.000000	6.122302
2060.000000	6.134322
2061.000000	6.140812
2062.000000	6.151109
2063.000000	6.163767
2064.000000	6.166682
2065.000000	6.184991
2066.000000	6.194870
2067.000000	6.205153
2068.000000	6.226268
2069.000000	6.234650
2070.000000	6.242856
2071.000000	6.254407
2072.000000	6.271375
2073.000000	6.286727
2074.000000	6.296521
2075.000000	6.300410
2076.000000	6.313856
2077.000000	6.323652
2078.000000	6.323045
2079.000000	6.341216
2080.000000	6.349859
2081.000000	6.354742
2082.000000	6.363839
2083.000000	6.368666
2084.000000	6.376027
2085.000000	6.393668
2086.000000	6.404327
2087.000000	6.408018
2088.000000	6.407989
2089.000000	6.405004
2090.000000	6.416872
2091.000000	6.429213
2092.000000	6.433311
2093.000000	6.437118
2094.000000	6.443641
2095.000000	6.452302
2096.000000	6.453096
2097.000000	6.457737
2098.000000	6.469476
2099.000000	6.479032
2100.000000	6.489714
2101.000000	6.499726
2102.000000	6.501736
2103.000000	6.511900
2104.000000	6.525656
2105.000000	6.534502
2106.000000	6.544659
2107.000000	6.550613
2108.000000	6.564437
2109.000000	6.580608
2110.000000	6.581231
2111.000000	6.593719
2112.000000	6.597021
2113.000000	6.608122
2114.000000	6.622814
2115.000000	6.619075
2116.000000	6.627552
2117.000000	6.643115
2118.000000	6.654786
2119.000000	6.667675
2120.000000	6.676025
2121.000000	6.672413
2122.000000	6.676998
2123.000000	6.688231
2124.000000	6.686843
2125.000000	6.692642
2126.000000	6.699929
2127.000000	6.698063
2128.000000	6.698036
2129.000000	6.691511
2130.000000	6.693391
2131.000000	6.695700
2132.000000	6.688177
2133.000000	6.686727
2134.000000	6.683285
2135.000000	6.678122
2136.000000	6.662081
2137.000000	6.665585
2138.000000	6.648075
2139.000000	6.634399
2140.000000	6.632507
2141.000000	6.622852
2142.000000	6.618295
2143.000000	6.613015
2144.000000	6.588366
2145.000000	6.584210
2146.000000	6.563267
2147.000000	6.555710
2148.000000	6.544688
2149.000000	6.530420
2150.000000	6.511672
2151.000000	6.499728
2152.000000	6.496112
2153.000000	6.482281
2154.000000	6.462726
2155.000000	6.450032
2156.000000	6.444607
2157.000000	6.432117
2158.000000	6.423785
2159.000000	6.400542
2160.000000	6.400924
2161.000000	6.396969
2162.000000	6.383358
2163.000000	6.366470
2164.000000	6.365018
2165.000000	6.356895
2166.000000	6.336390
2167.000000	6.343868
2168.000000	6.332223
2169.000000	6.331747
2170.000000	6.334149
2171.000000	6.320851
2172.000000	6.312377
2173.000000	6.319389
2174.000000	6.312970
2175.000000	6.324775
2176.000000	6.316612
2177.000000	6.313510
2178.000000	6.319992
2179.000000	6.327621
2180.000000	6.325412
2181.000000	6.328538
2182.000000	6.336831
2183.000000	6.336126
2184.000000	6.334215
2185.000000	6.345129
2186.000000	6.357211
2187.000000	6.340249
2188.000000	6.350181
2189.000000	6.364702
2190.000000	6.357789
2191.000000	6.364740
2192.000000	6.362740
2193.000000	6.370285
2194.000000	6.385389
2195.000000	6.382813
2196.000000	6.379108
2197.000000	6.367185
2198.000000	6.391380
2199.000000	6.382115
2200.000000	6.394449
2201.000000	6.390434
2202.000000	6.402608
2203.000000	6.404262
2204.000000	6.386303
2205.000000	6.410214
2206.000000	6.419645
2207.000000	6.425729
2208.000000	6.428851
2209.000000	6.436675
2210.000000	6.442964
2211.000000	6.432938
2212.000000	6.441834
2213.000000	6.457568
2214.000000	6.453793
2215.000000	6.462042
2216.000000	6.462198
2217.000000	6.481900
2218.000000	6.481920
2219.000000	6.484082
2220.000000	6.500817
2221.000000	6.508339
2222.000000	6.507677
2223.000000	6.500656
2224.000000	6.507581
2225.000000	6.501401
2226.000000	6.504270
2227.000000	6.494290
2228.000000	6.493318
2229.000000	6.490327
2230.000000	6.468301
2231.000000	6.460750
2232.000000	6.429488
2233.000000	6.420842
2234.000000	6.402909
2235.000000	6.380060
2236.000000	6.349693
2237.000000	6.331466
2238.000000	6.299676
2239.000000	6.264329
2240.000000	6.231174
2241.000000	6.210218
2242.000000	6.159496
2243.000000	6.126358
2244.000000	6.075193
2245.000000	6.028116
2246.000000	5.993247
2247.000000	5.946092
2248.000000	5.886856
2249.000000	5.844041
2250.000000	5.790285
2251.000000	5.719097
2252.000000	5.673892
2253.000000	5.634589
2254.000000	5.567332
2255.000000	5.506323
2256.000000	5.456277
2257.000000	5.399313
2258.000000	5.348222
2259.000000	5.307723
2260.000000	5.275253
2261.000000	5.224330
2262.000000	5.196039
2263.000000	5.171271
2264.000000	5.137052
2265.000000	5.112427
2266.000000	5.079357
2267.000000	5.084052
2268.000000	5.070645
2269.000000	5.056792
2270.000000	5.050440
2271.000000	5.049402
2272.000000	5.053095
2273.000000	5.040604
2274.000000	5.047420
2275.000000	5.048736
2276.000000	5.054092
2277.000000	5.067829
2278.000000	5.068206
2279.000000	5.080954
2280.000000	5.076862
2281.000000	5.092030
2282.000000	5.093389
2283.000000	5.092429
2284.000000	5.101088
2285.000000	5.103198
2286.000000	5.095974
2287.000000	5.109384
2288.000000	5.101813
2289.000000	5.097400
2290.000000	5.105236
2291.000000	5.100527
2292.000000	5.080648
2293.000000	5.068326
2294.000000	5.055969
2295.000000	5.050835
2296.000000	5.042507
2297.000000	5.022527
2298.000000	5.013136
2299.000000	5.003072
2300.000000	4.982356
2301.000000	4.972705
2302.000000	4.967842
2303.000000	4.958381
2304.000000	4.945929
2305.000000	4.956899
2306.000000	4.959632
2307.000000	4.972966
2308.000000	4.979833
2309.000000	4.997592
2310.000000	5.013696
2311.000000	5.023129
2312.000000	5.034490
2313.000000	5.055858
2314.000000	5.074465
2315.000000	5.088918
2316.000000	5.122631
2317.000000	5.145886
2318.000000	5.160253
2319.000000	5.183008
2320.000000	5.197815
2321.000000	5.211059
2322.000000	5.231651
2323.000000	5.249979
2324.000000	5.259734
2325.000000	5.281297
2326.000000	5.295177
2327.000000	5.300624
2328.000000	5.305775
2329.000000	5.327912
2330.000000	5.346358
2331.000000	5.344565
2332.000000	5.338787
2333.000000	5.338631
2334.000000	5.352038
2335.000000	5.363416
2336.000000	5.356010
2337.000000	5.354761
2338.000000	5.351235
2339.000000	5.343644
2340.000000	5.338087
2341.000000	5.334000
2342.000000	5.329032
2343.000000	5.323543
2344.000000	5.320988
2345.000000	5.306874
2346.000000	5.302339
2347.000000	5.295764
2348.000000	5.293102
2349.000000	5.292589
2350.000000	5.290613
2351.000000	5.284422
2352.000000	5.290086
2353.000000	5.299304
2354.000000	5.299496
2355.000000	5.305982
2356.000000	5.301956
2357.000000	5.314755
2358.000000	5.337878
2359.000000	5.347529
2360.000000	5.356741
2361.000000	5.366817
2362.000000	5.373104
2363.000000	5.382090
2364.000000	5.391341
2365.000000	5.403519
2366.000000	5.413903
2367.000000	5.419989
2368.000000	5.431628
2369.000000	5.443526
2370.000000	5.449676
2371.000000	5.452753
2372.000000	5.459199
2373.000000	5.458878
2374.000000	5.452221
2375.000000	5.457367
2376.000000	5.473679
2377.000000	5.482863
2378.000000	5.479221
2379.000000	5.475185
2380.000000	5.486155
2381.000000	5.497576
2382.000000	5.492729
2383.000000	5.487357
2384.000000	5.489986
2385.000000	5.487403
2386.000000	5.479920
2387.000000	5.471867
2388.000000	5.475132
2389.000000	5.481145
2390.000000	5.476558
2391.000000	5.472986
2392.000000	5.466980
2393.000000	5.464026
2394.000000	5.459183
2395.000000	5.453283
2396.000000	5.447889
2397.000000	5.439223
2398.000000	5.436519
2399.000000	5.434380
2400.000000	5.423819
2401.000000	5.412768
2402.000000	5.405180
2403.000000	5.398540
2404.000000	5.403594
2405.000000	5.393514
2406.000000	5.388852
2407.000000	5.374858
2408.000000	5.369260
2409.000000	5.369899
2410.000000	5.358526
2411.000000	5.353659
2412.000000	5.349689
2413.000000	5.340733
2414.000000	5.341625
2415.000000	5.335975
2416.000000	5.321335
2417.000000	5.320091
2418.000000	5.321137
2419.000000	5.300596
2420.000000	5.291148
2421.000000	5.290422
2422.000000	5.286619
2423.000000	5.278710
2424.000000	5.264666
2425.000000	5.255207
2426.000000	5.249436
2427.000000	5.245436
2428.000000	5.224687
2429.000000	5.214794
2430.000000	5.208158
2431.000000	5.198534
2432.000000	5.189144
2433.000000	5.170900
2434.000000	5.161474
2435.000000	5.166192
2436.000000	5.156542
2437.000000	5.151966
2438.000000	5.138300
2439.000000	5.114475
2440.000000	5.095263
2441.000000	5.102300
2442.000000	5.080988
2443.000000	5.066033
2444.000000	5.051003
2445.000000	5.033974
2446.000000	5.027156
2447.000000	5.021244
2448.000000	4.998831
2449.000000	4.982901
2450.000000	4.982652
2451.000000	4.976472
2452.000000	4.961132
2453.000000	4.948862
2454.000000	4.945405
2455.000000	4.957217
2456.000000	4.935424
2457.000000	4.919736
2458.000000	4.927106
2459.000000	4.897971
2460.000000	4.923313
2461.000000	4.902748
2462.000000	4.884120
2463.000000	4.908528
2464.000000	4.908677
2465.000000	4.884709
2466.000000	4.878914
2467.000000	4.912903
2468.000000	4.919819
2469.000000	4.906160
2470.000000	4.924999
2471.000000	4.894983
2472.000000	4.893891
2473.000000	4.931948
2474.000000	4.924669
2475.000000	4.955258
2476.000000	4.939246
2477.000000	4.964448
2478.000000	4.965199
2479.000000	4.993259
2480.000000	5.001228
2481.000000	5.005485
2482.000000	5.052373
2483.000000	5.015746
2484.000000	4.987655
2485.000000	5.050919
2486.000000	4.982689
2487.000000	5.062165
2488.000000	5.071207
2489.000000	5.044807
2490.000000	5.016493
2491.000000	5.126919
2492.000000	5.124985
2493.000000	5.082252
2494.000000	5.117670
2495.000000	5.180119
2496.000000	5.092778
2497.000000	5.127088
2498.000000	5.128054
2499.000000	5.239056
2500.000000	5.266861
