PE UV       SUBTECH     SPECTRUM    ASCII       PEDS        4.00        
   -1
CICIMAUCR0205-4.ASC
24/06/06
14:47:53.00
24/06/06
14:47:53.00
Vinicio Soto Monge
C. cupreomarginata. Sex F. Ventral
250,000000
1
Lambda 1050
1050L1511233
PerkinElmer UV WinLab 6.3.2.0749 / 2.02.05 Lambda 900 UV/VIS/NIR, Aug  7 2015 09:38:08

0
0
3350/servo 860,8/2
0
0
UV/VIS
1
1
1
DoubleDePol,CommonBeamDepol,RBeamAtt,SBeamAtt,60mm sphere, WB InGaAs Detector
0
0
0
0
Program
Program
3350/servo 860,8/2
3350/0,2 860,8/0,2
3350/0,2 860,8/0,2
0
15.00
 
 
 
0
 
860,8
319,2
860,8
Front
100
on
S:100 R:100
0
0
0
0
 
0
 
 
 
0
 
 
0
0
0
0
0
 
 
 
 
0
0


0
0
#HDR
-1
-1
#GR
nm
%R
1.0
0.0
2500,000000
-1,000000
2251
8
59,445600
4,483100
#DATA
250.000000	5.562550
251.000000	5.558175
252.000000	5.555800
253.000000	5.529250
254.000000	5.520550
255.000000	5.532825
256.000000	5.509850
257.000000	5.474475
258.000000	5.457750
259.000000	5.446625
260.000000	5.445975
261.000000	5.419875
262.000000	5.377675
263.000000	5.356550
264.000000	5.328825
265.000000	5.311250
266.000000	5.279325
267.000000	5.260500
268.000000	5.243950
269.000000	5.257425
270.000000	5.247450
271.000000	5.222200
272.000000	5.190225
273.000000	5.185975
274.000000	5.175450
275.000000	5.156300
276.000000	5.147375
277.000000	5.141900
278.000000	5.110650
279.000000	5.092950
280.000000	5.115675
281.000000	5.100625
282.000000	5.095725
283.000000	5.089475
284.000000	5.077325
285.000000	5.076000
286.000000	5.078250
287.000000	5.071575
288.000000	5.067075
289.000000	5.065675
290.000000	5.058600
291.000000	5.065825
292.000000	5.052275
293.000000	5.047175
294.000000	5.034450
295.000000	5.031925
296.000000	5.022100
297.000000	5.025875
298.000000	5.013125
299.000000	5.008925
300.000000	4.994750
301.000000	4.988925
302.000000	4.975400
303.000000	4.976500
304.000000	4.977425
305.000000	4.976075
306.000000	4.997175
307.000000	4.990875
308.000000	4.976900
309.000000	4.966275
310.000000	4.941550
311.000000	4.930025
312.000000	4.945200
313.000000	4.944150
314.000000	4.941925
315.000000	4.924075
316.000000	5.391375
317.000000	5.993650
318.000000	5.913475
319.000000	5.806375
320.000000	5.917050
321.000000	5.902150
322.000000	5.504275
323.000000	5.336600
324.000000	5.271075
325.000000	5.306300
326.000000	5.392950
327.000000	5.258825
328.000000	5.146625
329.000000	5.086650
330.000000	5.117975
331.000000	5.121100
332.000000	5.060225
333.000000	5.030900
334.000000	4.944575
335.000000	4.971300
336.000000	5.041850
337.000000	4.972825
338.000000	4.876625
339.000000	4.936825
340.000000	4.977700
341.000000	4.957225
342.000000	5.015875
343.000000	4.944650
344.000000	4.967275
345.000000	4.953400
346.000000	4.884975
347.000000	4.883675
348.000000	4.842900
349.000000	4.907350
350.000000	4.930225
351.000000	4.882475
352.000000	4.874675
353.000000	4.821000
354.000000	4.813975
355.000000	4.906050
356.000000	4.831075
357.000000	4.814250
358.000000	4.862125
359.000000	4.833400
360.000000	4.801050
361.000000	4.729550
362.000000	4.701000
363.000000	4.775650
364.000000	4.787675
365.000000	4.770675
366.000000	4.792075
367.000000	4.747000
368.000000	4.722550
369.000000	4.671375
370.000000	4.698200
371.000000	4.606125
372.000000	4.432750
373.000000	4.425300
374.000000	4.332600
375.000000	4.659100
376.000000	4.964050
377.000000	4.999625
378.000000	5.002525
379.000000	5.023025
380.000000	5.048700
381.000000	5.065750
382.000000	5.077675
383.000000	5.095600
384.000000	5.113225
385.000000	5.137900
386.000000	5.173775
387.000000	5.195800
388.000000	5.224975
389.000000	5.240950
390.000000	5.265625
391.000000	5.311500
392.000000	5.345750
393.000000	5.371500
394.000000	5.414025
395.000000	5.449900
396.000000	5.484800
397.000000	5.530250
398.000000	5.568325
399.000000	5.611825
400.000000	5.664325
401.000000	5.701725
402.000000	5.748800
403.000000	5.793500
404.000000	5.849875
405.000000	5.903350
406.000000	5.956900
407.000000	6.001175
408.000000	6.059950
409.000000	6.124025
410.000000	6.187725
411.000000	6.245375
412.000000	6.308200
413.000000	6.375425
414.000000	6.442750
415.000000	6.509375
416.000000	6.579925
417.000000	6.647900
418.000000	6.724150
419.000000	6.792000
420.000000	6.865225
421.000000	6.954600
422.000000	7.032150
423.000000	7.114975
424.000000	7.194275
425.000000	7.282075
426.000000	7.372650
427.000000	7.453000
428.000000	7.547075
429.000000	7.636125
430.000000	7.733850
431.000000	7.835675
432.000000	7.935200
433.000000	8.034150
434.000000	8.134875
435.000000	8.243375
436.000000	8.351050
437.000000	8.450775
438.000000	8.562625
439.000000	8.675000
440.000000	8.781325
441.000000	8.900125
442.000000	9.017600
443.000000	9.138200
444.000000	9.230750
445.000000	9.345200
446.000000	9.442550
447.000000	9.545425
448.000000	9.645825
449.000000	9.748600
450.000000	9.848150
451.000000	9.960025
452.000000	10.062375
453.000000	10.149250
454.000000	10.243475
455.000000	10.338675
456.000000	10.421250
457.000000	10.511600
458.000000	10.593325
459.000000	10.680200
460.000000	10.766575
461.000000	10.855900
462.000000	10.943150
463.000000	11.010775
464.000000	11.100825
465.000000	11.183225
466.000000	11.264025
467.000000	11.357025
468.000000	11.445325
469.000000	11.525400
470.000000	11.608225
471.000000	11.690925
472.000000	11.780375
473.000000	11.863650
474.000000	11.945175
475.000000	12.027425
476.000000	12.123775
477.000000	12.200925
478.000000	12.286450
479.000000	12.368850
480.000000	12.464750
481.000000	12.558950
482.000000	12.641500
483.000000	12.720850
484.000000	12.790625
485.000000	12.854700
486.000000	12.927900
487.000000	12.998125
488.000000	13.084425
489.000000	13.129550
490.000000	13.219200
491.000000	13.296975
492.000000	13.381050
493.000000	13.469675
494.000000	13.564225
495.000000	13.656550
496.000000	13.758600
497.000000	13.856625
498.000000	13.965000
499.000000	14.090300
500.000000	14.209725
501.000000	14.338575
502.000000	14.486500
503.000000	14.627500
504.000000	14.783250
505.000000	14.940875
506.000000	15.110350
507.000000	15.286350
508.000000	15.476475
509.000000	15.668300
510.000000	15.873800
511.000000	16.074125
512.000000	16.301000
513.000000	16.529675
514.000000	16.756300
515.000000	17.005500
516.000000	17.256225
517.000000	17.509775
518.000000	17.768250
519.000000	18.031000
520.000000	18.314975
521.000000	18.584850
522.000000	18.866025
523.000000	19.154525
524.000000	19.449725
525.000000	19.754775
526.000000	20.039850
527.000000	20.340675
528.000000	20.634250
529.000000	20.931075
530.000000	21.235500
531.000000	21.531625
532.000000	21.836875
533.000000	22.154400
534.000000	22.459575
535.000000	22.767250
536.000000	23.066525
537.000000	23.374250
538.000000	23.675375
539.000000	23.980875
540.000000	24.276625
541.000000	24.588225
542.000000	24.900100
543.000000	25.211900
544.000000	25.509025
545.000000	25.815050
546.000000	26.118600
547.000000	26.412875
548.000000	26.714800
549.000000	26.995200
550.000000	27.287300
551.000000	27.568925
552.000000	27.858100
553.000000	28.145050
554.000000	28.412750
555.000000	28.683325
556.000000	28.934150
557.000000	29.183025
558.000000	29.419775
559.000000	29.672250
560.000000	29.957500
561.000000	30.176900
562.000000	30.408375
563.000000	30.621450
564.000000	30.821950
565.000000	31.031050
566.000000	31.210800
567.000000	31.392525
568.000000	31.561075
569.000000	31.727350
570.000000	31.870650
571.000000	32.018375
572.000000	32.160200
573.000000	32.288300
574.000000	32.406425
575.000000	32.524400
576.000000	32.632825
577.000000	32.736500
578.000000	32.821000
579.000000	32.904950
580.000000	32.987900
581.000000	33.056350
582.000000	33.122600
583.000000	33.171300
584.000000	33.225250
585.000000	33.274175
586.000000	33.308700
587.000000	33.327350
588.000000	33.340075
589.000000	33.364050
590.000000	33.376825
591.000000	33.379025
592.000000	33.379450
593.000000	33.371300
594.000000	33.357475
595.000000	33.334325
596.000000	33.314300
597.000000	33.274775
598.000000	33.221025
599.000000	33.169675
600.000000	33.114425
601.000000	33.058000
602.000000	32.993975
603.000000	32.911550
604.000000	32.824725
605.000000	32.734425
606.000000	32.645575
607.000000	32.556125
608.000000	32.453900
609.000000	32.344325
610.000000	32.227875
611.000000	32.107025
612.000000	31.972675
613.000000	31.831975
614.000000	31.701025
615.000000	31.568375
616.000000	31.437100
617.000000	31.300000
618.000000	31.165225
619.000000	31.025425
620.000000	30.861925
621.000000	30.715150
622.000000	30.572025
623.000000	30.420275
624.000000	30.256700
625.000000	30.100050
626.000000	29.945625
627.000000	29.777950
628.000000	29.610875
629.000000	29.445000
630.000000	29.275550
631.000000	29.111475
632.000000	28.946300
633.000000	28.767700
634.000000	28.583150
635.000000	28.417525
636.000000	28.251900
637.000000	28.070600
638.000000	27.884375
639.000000	27.718050
640.000000	27.549675
641.000000	27.389025
642.000000	27.241150
643.000000	27.087625
644.000000	26.944925
645.000000	26.822525
646.000000	26.708325
647.000000	26.594525
648.000000	26.495200
649.000000	26.406025
650.000000	26.321225
651.000000	26.252275
652.000000	26.197425
653.000000	26.158550
654.000000	26.132450
655.000000	26.104375
656.000000	26.091000
657.000000	26.101550
658.000000	26.125525
659.000000	26.156525
660.000000	26.189575
661.000000	26.242775
662.000000	26.299200
663.000000	26.354600
664.000000	26.426050
665.000000	26.493325
666.000000	26.576475
667.000000	26.679450
668.000000	26.784925
669.000000	26.901950
670.000000	27.031600
671.000000	27.160575
672.000000	27.314050
673.000000	27.474550
674.000000	27.627775
675.000000	27.796050
676.000000	27.974025
677.000000	28.155975
678.000000	28.352050
679.000000	28.560425
680.000000	28.764925
681.000000	29.001075
682.000000	29.231800
683.000000	29.465700
684.000000	29.719250
685.000000	29.992600
686.000000	30.233525
687.000000	30.482650
688.000000	30.771625
689.000000	31.054000
690.000000	31.308550
691.000000	31.586850
692.000000	31.866300
693.000000	32.164475
694.000000	32.446675
695.000000	32.732275
696.000000	33.043300
697.000000	33.352725
698.000000	33.635850
699.000000	33.934625
700.000000	34.222250
701.000000	34.549750
702.000000	34.875250
703.000000	35.192200
704.000000	35.518650
705.000000	35.801075
706.000000	36.111650
707.000000	36.434400
708.000000	36.771175
709.000000	37.084100
710.000000	37.387100
711.000000	37.687200
712.000000	37.991400
713.000000	38.258425
714.000000	38.528600
715.000000	38.816050
716.000000	39.114150
717.000000	39.351100
718.000000	39.646075
719.000000	39.905425
720.000000	40.149200
721.000000	40.444625
722.000000	40.694300
723.000000	40.940225
724.000000	41.206875
725.000000	41.450600
726.000000	41.691350
727.000000	41.990750
728.000000	42.244975
729.000000	42.464675
730.000000	42.714925
731.000000	42.923700
732.000000	43.129975
733.000000	43.380050
734.000000	43.614925
735.000000	43.808050
736.000000	43.991325
737.000000	44.210775
738.000000	44.384375
739.000000	44.612825
740.000000	44.831950
741.000000	44.977250
742.000000	45.161900
743.000000	45.366425
744.000000	45.525025
745.000000	45.673650
746.000000	45.813775
747.000000	45.996775
748.000000	46.124075
749.000000	46.269400
750.000000	46.414275
751.000000	46.538100
752.000000	46.667050
753.000000	46.807300
754.000000	46.941500
755.000000	47.050975
756.000000	47.189200
757.000000	47.302750
758.000000	47.445500
759.000000	47.538925
760.000000	47.694400
761.000000	47.860175
762.000000	47.984575
763.000000	48.080175
764.000000	48.178725
765.000000	48.248325
766.000000	48.447825
767.000000	48.505050
768.000000	48.550825
769.000000	48.720025
770.000000	48.748075
771.000000	48.859950
772.000000	48.976900
773.000000	49.083925
774.000000	49.137025
775.000000	49.154675
776.000000	49.273500
777.000000	49.339375
778.000000	49.440925
779.000000	49.496750
780.000000	49.564725
781.000000	49.654850
782.000000	49.719250
783.000000	49.745325
784.000000	49.812800
785.000000	49.891925
786.000000	49.978375
787.000000	50.025475
788.000000	50.097950
789.000000	50.130300
790.000000	50.108025
791.000000	50.165825
792.000000	50.184925
793.000000	50.241675
794.000000	50.236475
795.000000	50.321025
796.000000	50.370250
797.000000	50.325925
798.000000	50.351450
799.000000	50.356400
800.000000	50.389675
801.000000	50.422425
802.000000	50.461800
803.000000	50.443875
804.000000	50.474250
805.000000	50.433375
806.000000	50.432725
807.000000	50.291675
808.000000	50.409775
809.000000	50.341225
810.000000	50.304100
811.000000	50.246350
812.000000	50.320725
813.000000	50.295850
814.000000	50.294900
815.000000	50.253700
816.000000	50.140150
817.000000	49.997275
818.000000	50.039975
819.000000	49.996925
820.000000	49.955900
821.000000	49.824775
822.000000	49.848725
823.000000	49.766000
824.000000	49.666175
825.000000	49.599725
826.000000	49.557050
827.000000	49.467000
828.000000	49.415650
829.000000	49.343775
830.000000	49.263650
831.000000	49.244225
832.000000	49.054000
833.000000	48.919525
834.000000	48.837325
835.000000	48.731625
836.000000	48.532125
837.000000	48.481350
838.000000	48.363275
839.000000	48.208825
840.000000	48.056325
841.000000	47.985750
842.000000	47.713200
843.000000	47.616475
844.000000	47.383550
845.000000	47.235050
846.000000	47.139050
847.000000	46.981850
848.000000	46.825975
849.000000	46.502950
850.000000	46.445025
851.000000	46.003375
852.000000	45.927400
853.000000	45.724200
854.000000	45.525950
855.000000	45.365200
856.000000	45.379400
857.000000	44.230725
858.000000	44.991775
859.000000	44.844428
860.000000	44.708295
861.000000	44.572588
862.000000	44.445752
863.000000	44.306835
864.000000	44.178749
865.000000	44.035601
866.000000	43.918775
867.000000	43.790429
868.000000	43.668328
869.000000	43.535112
870.000000	43.419035
871.000000	43.326394
872.000000	43.282628
873.000000	43.305767
874.000000	43.361093
875.000000	43.401928
876.000000	43.440163
877.000000	43.479900
878.000000	43.502877
879.000000	43.493085
880.000000	43.511745
881.000000	43.518821
882.000000	43.519812
883.000000	43.521431
884.000000	43.529687
885.000000	43.532648
886.000000	43.540897
887.000000	43.543545
888.000000	43.546937
889.000000	43.543456
890.000000	43.552270
891.000000	43.569831
892.000000	43.569656
893.000000	43.583308
894.000000	43.598771
895.000000	43.602984
896.000000	43.608185
897.000000	43.622208
898.000000	43.638026
899.000000	43.651066
900.000000	43.662291
901.000000	43.680903
902.000000	43.705985
903.000000	43.734574
904.000000	43.751139
905.000000	43.777311
906.000000	43.813676
907.000000	43.855270
908.000000	43.890645
909.000000	43.928907
910.000000	43.966887
911.000000	44.015706
912.000000	44.057290
913.000000	44.112468
914.000000	44.159092
915.000000	44.214581
916.000000	44.278781
917.000000	44.330786
918.000000	44.400395
919.000000	44.464958
920.000000	44.535673
921.000000	44.612447
922.000000	44.682758
923.000000	44.765418
924.000000	44.836253
925.000000	44.910992
926.000000	44.997789
927.000000	45.097972
928.000000	45.192583
929.000000	45.273183
930.000000	45.353268
931.000000	45.449036
932.000000	45.557690
933.000000	45.643876
934.000000	45.720965
935.000000	45.823406
936.000000	45.928550
937.000000	46.034534
938.000000	46.139677
939.000000	46.235133
940.000000	46.332458
941.000000	46.447530
942.000000	46.554447
943.000000	46.649552
944.000000	46.749979
945.000000	46.865926
946.000000	46.972647
947.000000	47.064693
948.000000	47.164124
949.000000	47.269011
950.000000	47.362009
951.000000	47.457169
952.000000	47.567852
953.000000	47.663030
954.000000	47.756288
955.000000	47.852328
956.000000	47.941472
957.000000	48.038185
958.000000	48.149361
959.000000	48.259211
960.000000	48.349931
961.000000	48.436756
962.000000	48.542549
963.000000	48.647936
964.000000	48.750632
965.000000	48.860314
966.000000	48.960454
967.000000	49.058447
968.000000	49.167265
969.000000	49.282739
970.000000	49.397604
971.000000	49.501876
972.000000	49.615361
973.000000	49.726393
974.000000	49.835737
975.000000	49.947139
976.000000	50.059086
977.000000	50.160458
978.000000	50.275988
979.000000	50.383952
980.000000	50.498932
981.000000	50.605235
982.000000	50.721605
983.000000	50.834735
984.000000	50.942611
985.000000	51.052151
986.000000	51.174843
987.000000	51.280964
988.000000	51.396722
989.000000	51.509328
990.000000	51.629934
991.000000	51.746825
992.000000	51.860905
993.000000	51.976510
994.000000	52.081304
995.000000	52.195366
996.000000	52.305098
997.000000	52.420523
998.000000	52.533141
999.000000	52.654254
1000.000000	52.767788
1001.000000	52.878106
1002.000000	52.991256
1003.000000	53.102958
1004.000000	53.211693
1005.000000	53.314382
1006.000000	53.417298
1007.000000	53.535113
1008.000000	53.642153
1009.000000	53.755414
1010.000000	53.856387
1011.000000	53.959393
1012.000000	54.068576
1013.000000	54.171294
1014.000000	54.298313
1015.000000	54.399555
1016.000000	54.506554
1017.000000	54.624702
1018.000000	54.748812
1019.000000	54.868499
1020.000000	54.984309
1021.000000	55.113807
1022.000000	55.226277
1023.000000	55.344817
1024.000000	55.475567
1025.000000	55.592873
1026.000000	55.725961
1027.000000	55.844599
1028.000000	55.960380
1029.000000	56.084925
1030.000000	56.208434
1031.000000	56.326041
1032.000000	56.447239
1033.000000	56.574458
1034.000000	56.701004
1035.000000	56.809040
1036.000000	56.943944
1037.000000	57.064106
1038.000000	57.190131
1039.000000	57.302739
1040.000000	57.410504
1041.000000	57.535557
1042.000000	57.665174
1043.000000	57.771059
1044.000000	57.905337
1045.000000	58.029477
1046.000000	58.154556
1047.000000	58.267916
1048.000000	58.382471
1049.000000	58.509161
1050.000000	58.633848
1051.000000	58.757438
1052.000000	58.882070
1053.000000	59.008895
1054.000000	59.146321
1055.000000	59.252459
1056.000000	59.394042
1057.000000	59.525211
1058.000000	59.638005
1059.000000	59.764970
1060.000000	59.889775
1061.000000	60.032103
1062.000000	60.164913
1063.000000	60.289111
1064.000000	60.406756
1065.000000	60.529150
1066.000000	60.647343
1067.000000	60.782809
1068.000000	60.899033
1069.000000	61.013006
1070.000000	61.138787
1071.000000	61.263789
1072.000000	61.377871
1073.000000	61.496679
1074.000000	61.599692
1075.000000	61.732311
1076.000000	61.842982
1077.000000	61.943948
1078.000000	62.072616
1079.000000	62.186811
1080.000000	62.287765
1081.000000	62.388924
1082.000000	62.513197
1083.000000	62.613469
1084.000000	62.722158
1085.000000	62.839080
1086.000000	62.930227
1087.000000	63.049841
1088.000000	63.139230
1089.000000	63.245705
1090.000000	63.344310
1091.000000	63.430421
1092.000000	63.541330
1093.000000	63.619888
1094.000000	63.710118
1095.000000	63.800761
1096.000000	63.881459
1097.000000	63.962922
1098.000000	64.054669
1099.000000	64.135142
1100.000000	64.191676
1101.000000	64.278433
1102.000000	64.352434
1103.000000	64.425584
1104.000000	64.498751
1105.000000	64.570446
1106.000000	64.643718
1107.000000	64.715472
1108.000000	64.785288
1109.000000	64.858398
1110.000000	64.926504
1111.000000	64.992134
1112.000000	65.045944
1113.000000	65.116335
1114.000000	65.176383
1115.000000	65.242966
1116.000000	65.311919
1117.000000	65.362542
1118.000000	65.411896
1119.000000	65.458216
1120.000000	65.506625
1121.000000	65.540080
1122.000000	65.574788
1123.000000	65.591807
1124.000000	65.576510
1125.000000	65.576954
1126.000000	65.534003
1127.000000	65.503940
1128.000000	65.451165
1129.000000	65.381239
1130.000000	65.284066
1131.000000	65.196057
1132.000000	65.109365
1133.000000	65.019756
1134.000000	64.894062
1135.000000	64.716774
1136.000000	64.546894
1137.000000	64.380595
1138.000000	64.230592
1139.000000	64.091262
1140.000000	63.947430
1141.000000	63.815306
1142.000000	63.696002
1143.000000	63.573383
1144.000000	63.452957
1145.000000	63.328915
1146.000000	63.193229
1147.000000	63.068659
1148.000000	62.950376
1149.000000	62.840810
1150.000000	62.725359
1151.000000	62.606102
1152.000000	62.487760
1153.000000	62.353387
1154.000000	62.211676
1155.000000	62.049311
1156.000000	61.881754
1157.000000	61.703645
1158.000000	61.496878
1159.000000	61.283963
1160.000000	61.070415
1161.000000	60.848725
1162.000000	60.633742
1163.000000	60.434741
1164.000000	60.239997
1165.000000	60.055022
1166.000000	59.882024
1167.000000	59.728387
1168.000000	59.594633
1169.000000	59.466463
1170.000000	59.350328
1171.000000	59.239424
1172.000000	59.137744
1173.000000	59.026888
1174.000000	58.919419
1175.000000	58.815277
1176.000000	58.711467
1177.000000	58.594201
1178.000000	58.476869
1179.000000	58.348702
1180.000000	58.219741
1181.000000	58.104764
1182.000000	57.976907
1183.000000	57.875512
1184.000000	57.798258
1185.000000	57.742370
1186.000000	57.704197
1187.000000	57.701355
1188.000000	57.716279
1189.000000	57.769189
1190.000000	57.848776
1191.000000	57.940213
1192.000000	58.041519
1193.000000	58.151946
1194.000000	58.273599
1195.000000	58.393670
1196.000000	58.514831
1197.000000	58.633308
1198.000000	58.733964
1199.000000	58.836454
1200.000000	58.937694
1201.000000	59.037180
1202.000000	59.127863
1203.000000	59.223329
1204.000000	59.329827
1205.000000	59.424203
1206.000000	59.524152
1207.000000	59.637295
1208.000000	59.750307
1209.000000	59.873216
1210.000000	60.006730
1211.000000	60.155026
1212.000000	60.297140
1213.000000	60.453318
1214.000000	60.612651
1215.000000	60.777167
1216.000000	60.953162
1217.000000	61.147168
1218.000000	61.346067
1219.000000	61.551789
1220.000000	61.759518
1221.000000	61.967825
1222.000000	62.176947
1223.000000	62.370987
1224.000000	62.563244
1225.000000	62.760911
1226.000000	62.945132
1227.000000	63.110899
1228.000000	63.270285
1229.000000	63.420835
1230.000000	63.565283
1231.000000	63.700130
1232.000000	63.825728
1233.000000	63.948991
1234.000000	64.069048
1235.000000	64.178974
1236.000000	64.285627
1237.000000	64.390058
1238.000000	64.498102
1239.000000	64.607634
1240.000000	64.715631
1241.000000	64.827439
1242.000000	64.947253
1243.000000	65.055046
1244.000000	65.161751
1245.000000	65.285122
1246.000000	65.396194
1247.000000	65.505995
1248.000000	65.614388
1249.000000	65.721339
1250.000000	65.818264
1251.000000	65.903966
1252.000000	65.990727
1253.000000	66.060527
1254.000000	66.126612
1255.000000	66.195017
1256.000000	66.241343
1257.000000	66.289229
1258.000000	66.335003
1259.000000	66.370969
1260.000000	66.403030
1261.000000	66.426884
1262.000000	66.448664
1263.000000	66.462511
1264.000000	66.477183
1265.000000	66.490133
1266.000000	66.488655
1267.000000	66.485329
1268.000000	66.486701
1269.000000	66.490132
1270.000000	66.487351
1271.000000	66.477898
1272.000000	66.480226
1273.000000	66.492143
1274.000000	66.502034
1275.000000	66.519567
1276.000000	66.535119
1277.000000	66.558751
1278.000000	66.592432
1279.000000	66.631513
1280.000000	66.678406
1281.000000	66.724445
1282.000000	66.784674
1283.000000	66.836817
1284.000000	66.882480
1285.000000	66.937855
1286.000000	66.993361
1287.000000	67.032277
1288.000000	67.075004
1289.000000	67.106845
1290.000000	67.147327
1291.000000	67.189183
1292.000000	67.216395
1293.000000	67.233575
1294.000000	67.257281
1295.000000	67.277234
1296.000000	67.284554
1297.000000	67.291331
1298.000000	67.305379
1299.000000	67.307448
1300.000000	67.305966
1301.000000	67.306255
1302.000000	67.305856
1303.000000	67.299679
1304.000000	67.285741
1305.000000	67.266484
1306.000000	67.248735
1307.000000	67.232825
1308.000000	67.196299
1309.000000	67.159209
1310.000000	67.117805
1311.000000	67.076203
1312.000000	67.023775
1313.000000	66.975538
1314.000000	66.898130
1315.000000	66.825155
1316.000000	66.758848
1317.000000	66.694450
1318.000000	66.628358
1319.000000	66.547580
1320.000000	66.465563
1321.000000	66.379844
1322.000000	66.289575
1323.000000	66.194757
1324.000000	66.098553
1325.000000	66.009347
1326.000000	65.903148
1327.000000	65.776476
1328.000000	65.659447
1329.000000	65.538229
1330.000000	65.393165
1331.000000	65.250435
1332.000000	65.094608
1333.000000	64.942697
1334.000000	64.772608
1335.000000	64.609669
1336.000000	64.435608
1337.000000	64.243949
1338.000000	64.054551
1339.000000	63.844569
1340.000000	63.640285
1341.000000	63.404502
1342.000000	63.192386
1343.000000	62.970107
1344.000000	62.716400
1345.000000	62.456283
1346.000000	62.218871
1347.000000	61.978526
1348.000000	61.700050
1349.000000	61.436677
1350.000000	61.184964
1351.000000	60.926177
1352.000000	60.670600
1353.000000	60.495695
1354.000000	60.258413
1355.000000	60.011205
1356.000000	59.798052
1357.000000	59.638576
1358.000000	59.507431
1359.000000	59.359547
1360.000000	59.319780
1361.000000	59.122796
1362.000000	58.933706
1363.000000	58.742904
1364.000000	58.604950
1365.000000	58.382141
1366.000000	58.214489
1367.000000	58.026792
1368.000000	57.775166
1369.000000	57.541983
1370.000000	57.344307
1371.000000	57.084202
1372.000000	56.796762
1373.000000	56.559939
1374.000000	56.338045
1375.000000	56.127485
1376.000000	55.903656
1377.000000	55.654989
1378.000000	55.469277
1379.000000	55.230462
1380.000000	54.992387
1381.000000	54.660632
1382.000000	54.229688
1383.000000	53.795087
1384.000000	53.328604
1385.000000	52.900135
1386.000000	52.460784
1387.000000	51.981234
1388.000000	51.424152
1389.000000	50.865219
1390.000000	50.488584
1391.000000	50.026073
1392.000000	49.519826
1393.000000	49.110349
1394.000000	48.755550
1395.000000	48.223545
1396.000000	47.606643
1397.000000	47.127379
1398.000000	46.787586
1399.000000	46.390990
1400.000000	45.758910
1401.000000	45.080820
1402.000000	44.605695
1403.000000	44.147228
1404.000000	43.634932
1405.000000	43.070260
1406.000000	42.550283
1407.000000	42.088586
1408.000000	41.566092
1409.000000	41.062145
1410.000000	40.545761
1411.000000	40.118898
1412.000000	39.758801
1413.000000	39.379515
1414.000000	38.945232
1415.000000	38.535696
1416.000000	38.207354
1417.000000	37.924297
1418.000000	37.638012
1419.000000	37.302867
1420.000000	36.970222
1421.000000	36.691263
1422.000000	36.460405
1423.000000	36.209273
1424.000000	35.952574
1425.000000	35.723387
1426.000000	35.519722
1427.000000	35.317111
1428.000000	35.115628
1429.000000	34.937591
1430.000000	34.782375
1431.000000	34.621352
1432.000000	34.459678
1433.000000	34.299350
1434.000000	34.164002
1435.000000	34.027294
1436.000000	33.909837
1437.000000	33.796104
1438.000000	33.654685
1439.000000	33.536023
1440.000000	33.430744
1441.000000	33.335335
1442.000000	33.223391
1443.000000	33.136453
1444.000000	33.065860
1445.000000	32.963924
1446.000000	32.851292
1447.000000	32.748209
1448.000000	32.676066
1449.000000	32.608540
1450.000000	32.524360
1451.000000	32.421721
1452.000000	32.329934
1453.000000	32.237353
1454.000000	32.161346
1455.000000	32.078822
1456.000000	31.986089
1457.000000	31.895480
1458.000000	31.812720
1459.000000	31.741807
1460.000000	31.670949
1461.000000	31.594216
1462.000000	31.522811
1463.000000	31.456274
1464.000000	31.387627
1465.000000	31.330240
1466.000000	31.278031
1467.000000	31.227158
1468.000000	31.173625
1469.000000	31.136798
1470.000000	31.095948
1471.000000	31.063644
1472.000000	31.019414
1473.000000	30.971298
1474.000000	30.942522
1475.000000	30.913597
1476.000000	30.893888
1477.000000	30.874226
1478.000000	30.855907
1479.000000	30.841017
1480.000000	30.828347
1481.000000	30.801545
1482.000000	30.776204
1483.000000	30.758489
1484.000000	30.737695
1485.000000	30.716500
1486.000000	30.701939
1487.000000	30.676974
1488.000000	30.657093
1489.000000	30.638569
1490.000000	30.614175
1491.000000	30.602085
1492.000000	30.599924
1493.000000	30.595855
1494.000000	30.597739
1495.000000	30.603126
1496.000000	30.622964
1497.000000	30.645258
1498.000000	30.664676
1499.000000	30.700470
1500.000000	30.739226
1501.000000	30.770225
1502.000000	30.816942
1503.000000	30.871543
1504.000000	30.923913
1505.000000	30.974117
1506.000000	31.027045
1507.000000	31.079735
1508.000000	31.135441
1509.000000	31.194958
1510.000000	31.261061
1511.000000	31.320407
1512.000000	31.371061
1513.000000	31.426450
1514.000000	31.492543
1515.000000	31.567014
1516.000000	31.632135
1517.000000	31.690157
1518.000000	31.756444
1519.000000	31.823777
1520.000000	31.892333
1521.000000	31.961857
1522.000000	32.022561
1523.000000	32.085008
1524.000000	32.150234
1525.000000	32.214890
1526.000000	32.278499
1527.000000	32.342657
1528.000000	32.406543
1529.000000	32.471130
1530.000000	32.530668
1531.000000	32.585588
1532.000000	32.645488
1533.000000	32.701437
1534.000000	32.755745
1535.000000	32.818280
1536.000000	32.875532
1537.000000	32.921779
1538.000000	32.972843
1539.000000	33.027343
1540.000000	33.084368
1541.000000	33.139839
1542.000000	33.199912
1543.000000	33.268136
1544.000000	33.340558
1545.000000	33.420873
1546.000000	33.510316
1547.000000	33.603290
1548.000000	33.706848
1549.000000	33.806677
1550.000000	33.907642
1551.000000	34.012621
1552.000000	34.109496
1553.000000	34.196207
1554.000000	34.280517
1555.000000	34.356488
1556.000000	34.432807
1557.000000	34.496116
1558.000000	34.546680
1559.000000	34.586997
1560.000000	34.627100
1561.000000	34.646782
1562.000000	34.662782
1563.000000	34.671255
1564.000000	34.666429
1565.000000	34.666783
1566.000000	34.663144
1567.000000	34.655617
1568.000000	34.648562
1569.000000	34.643428
1570.000000	34.640046
1571.000000	34.644987
1572.000000	34.659525
1573.000000	34.670786
1574.000000	34.682060
1575.000000	34.706091
1576.000000	34.736634
1577.000000	34.773668
1578.000000	34.811724
1579.000000	34.857619
1580.000000	34.899912
1581.000000	34.940326
1582.000000	35.003840
1583.000000	35.055831
1584.000000	35.112625
1585.000000	35.169344
1586.000000	35.233933
1587.000000	35.300026
1588.000000	35.361692
1589.000000	35.420295
1590.000000	35.490489
1591.000000	35.559675
1592.000000	35.629330
1593.000000	35.700960
1594.000000	35.779592
1595.000000	35.859351
1596.000000	35.944037
1597.000000	36.025314
1598.000000	36.114113
1599.000000	36.199889
1600.000000	36.296502
1601.000000	36.379799
1602.000000	36.475684
1603.000000	36.555244
1604.000000	36.645570
1605.000000	36.724761
1606.000000	36.814106
1607.000000	36.896598
1608.000000	36.970822
1609.000000	37.037079
1610.000000	37.105295
1611.000000	37.171281
1612.000000	37.222784
1613.000000	37.284818
1614.000000	37.334719
1615.000000	37.377214
1616.000000	37.426671
1617.000000	37.472933
1618.000000	37.504560
1619.000000	37.547161
1620.000000	37.610104
1621.000000	37.649706
1622.000000	37.690799
1623.000000	37.743981
1624.000000	37.800047
1625.000000	37.850187
1626.000000	37.901495
1627.000000	37.951882
1628.000000	38.013449
1629.000000	38.071013
1630.000000	38.122842
1631.000000	38.174729
1632.000000	38.219091
1633.000000	38.259884
1634.000000	38.294882
1635.000000	38.324426
1636.000000	38.353983
1637.000000	38.374975
1638.000000	38.409940
1639.000000	38.428125
1640.000000	38.444159
1641.000000	38.455263
1642.000000	38.479686
1643.000000	38.495434
1644.000000	38.513144
1645.000000	38.526388
1646.000000	38.540594
1647.000000	38.546769
1648.000000	38.548328
1649.000000	38.553959
1650.000000	38.546850
1651.000000	38.526571
1652.000000	38.508322
1653.000000	38.477364
1654.000000	38.431458
1655.000000	38.350644
1656.000000	38.283424
1657.000000	38.189998
1658.000000	38.070058
1659.000000	37.952496
1660.000000	37.805205
1661.000000	37.659177
1662.000000	37.504503
1663.000000	37.355765
1664.000000	37.198240
1665.000000	37.029014
1666.000000	36.862060
1667.000000	36.692967
1668.000000	36.478753
1669.000000	36.259717
1670.000000	36.056478
1671.000000	35.857496
1672.000000	35.639388
1673.000000	35.433574
1674.000000	35.203766
1675.000000	34.990914
1676.000000	34.782094
1677.000000	34.555192
1678.000000	34.300055
1679.000000	34.057329
1680.000000	33.798540
1681.000000	33.545911
1682.000000	33.283711
1683.000000	33.034536
1684.000000	32.796954
1685.000000	32.581649
1686.000000	32.395360
1687.000000	32.245190
1688.000000	32.133761
1689.000000	32.066649
1690.000000	32.021166
1691.000000	32.000708
1692.000000	32.001925
1693.000000	32.003227
1694.000000	31.996556
1695.000000	31.990691
1696.000000	31.950907
1697.000000	31.914738
1698.000000	31.871281
1699.000000	31.811383
1700.000000	31.756173
1701.000000	31.704083
1702.000000	31.638319
1703.000000	31.582110
1704.000000	31.534438
1705.000000	31.473774
1706.000000	31.418457
1707.000000	31.334715
1708.000000	31.231426
1709.000000	31.132387
1710.000000	31.018011
1711.000000	30.890717
1712.000000	30.750553
1713.000000	30.606556
1714.000000	30.450910
1715.000000	30.276072
1716.000000	30.101833
1717.000000	29.938792
1718.000000	29.766209
1719.000000	29.621751
1720.000000	29.487884
1721.000000	29.376055
1722.000000	29.290159
1723.000000	29.241124
1724.000000	29.212957
1725.000000	29.206207
1726.000000	29.206291
1727.000000	29.220384
1728.000000	29.253355
1729.000000	29.298137
1730.000000	29.349547
1731.000000	29.396747
1732.000000	29.459046
1733.000000	29.527323
1734.000000	29.594497
1735.000000	29.657508
1736.000000	29.729370
1737.000000	29.802845
1738.000000	29.871495
1739.000000	29.944874
1740.000000	30.023996
1741.000000	30.097747
1742.000000	30.173790
1743.000000	30.239121
1744.000000	30.287602
1745.000000	30.337329
1746.000000	30.397369
1747.000000	30.446704
1748.000000	30.475543
1749.000000	30.516328
1750.000000	30.554023
1751.000000	30.574699
1752.000000	30.593082
1753.000000	30.612326
1754.000000	30.623690
1755.000000	30.632940
1756.000000	30.641807
1757.000000	30.654211
1758.000000	30.665082
1759.000000	30.676211
1760.000000	30.702091
1761.000000	30.725514
1762.000000	30.757925
1763.000000	30.795759
1764.000000	30.847077
1765.000000	30.911994
1766.000000	30.978466
1767.000000	31.058369
1768.000000	31.136893
1769.000000	31.211681
1770.000000	31.288981
1771.000000	31.360538
1772.000000	31.436997
1773.000000	31.501832
1774.000000	31.559747
1775.000000	31.619539
1776.000000	31.674714
1777.000000	31.726145
1778.000000	31.781346
1779.000000	31.818739
1780.000000	31.851644
1781.000000	31.886506
1782.000000	31.915939
1783.000000	31.934718
1784.000000	31.957109
1785.000000	31.971032
1786.000000	31.981029
1787.000000	31.991989
1788.000000	31.999019
1789.000000	32.014094
1790.000000	32.035874
1791.000000	32.053767
1792.000000	32.072461
1793.000000	32.098029
1794.000000	32.120549
1795.000000	32.141115
1796.000000	32.166120
1797.000000	32.196085
1798.000000	32.227989
1799.000000	32.267492
1800.000000	32.308596
1801.000000	32.334660
1802.000000	32.352151
1803.000000	32.386560
1804.000000	32.423979
1805.000000	32.454844
1806.000000	32.481706
1807.000000	32.510257
1808.000000	32.549507
1809.000000	32.604920
1810.000000	32.649673
1811.000000	32.670217
1812.000000	32.692612
1813.000000	32.721997
1814.000000	32.750074
1815.000000	32.769726
1816.000000	32.790425
1817.000000	32.842579
1818.000000	32.896124
1819.000000	32.933710
1820.000000	32.929936
1821.000000	32.892388
1822.000000	32.864126
1823.000000	32.903633
1824.000000	32.968141
1825.000000	33.025282
1826.000000	33.048796
1827.000000	33.079982
1828.000000	33.123051
1829.000000	33.157649
1830.000000	33.178726
1831.000000	33.208963
1832.000000	33.263528
1833.000000	33.349990
1834.000000	33.438558
1835.000000	33.492972
1836.000000	33.516953
1837.000000	33.541188
1838.000000	33.583753
1839.000000	33.623768
1840.000000	33.642044
1841.000000	33.628827
1842.000000	33.592357
1843.000000	33.612092
1844.000000	33.699236
1845.000000	33.762654
1846.000000	33.825383
1847.000000	33.794274
1848.000000	33.695132
1849.000000	33.648338
1850.000000	33.641451
1851.000000	33.648482
1852.000000	33.644161
1853.000000	33.616507
1854.000000	33.552137
1855.000000	33.490817
1856.000000	33.455913
1857.000000	33.398432
1858.000000	33.306800
1859.000000	33.176274
1860.000000	33.045354
1861.000000	32.913983
1862.000000	32.786076
1863.000000	32.709520
1864.000000	32.635621
1865.000000	32.548042
1866.000000	32.465036
1867.000000	32.327513
1868.000000	32.154547
1869.000000	31.901104
1870.000000	31.622726
1871.000000	31.331315
1872.000000	31.046416
1873.000000	30.699277
1874.000000	30.364883
1875.000000	30.037371
1876.000000	29.698118
1877.000000	29.359784
1878.000000	28.987693
1879.000000	28.624463
1880.000000	28.283309
1881.000000	27.878585
1882.000000	27.457492
1883.000000	26.993156
1884.000000	26.461588
1885.000000	25.966269
1886.000000	25.484445
1887.000000	24.993181
1888.000000	24.511556
1889.000000	24.002683
1890.000000	23.475043
1891.000000	22.913608
1892.000000	22.317071
1893.000000	21.807434
1894.000000	21.360173
1895.000000	20.967243
1896.000000	20.572036
1897.000000	20.159066
1898.000000	19.709191
1899.000000	19.225926
1900.000000	18.776352
1901.000000	18.383620
1902.000000	18.033653
1903.000000	17.692631
1904.000000	17.370482
1905.000000	16.999931
1906.000000	16.660090
1907.000000	16.367811
1908.000000	16.137623
1909.000000	15.947367
1910.000000	15.761424
1911.000000	15.567577
1912.000000	15.356567
1913.000000	15.138510
1914.000000	14.931814
1915.000000	14.773655
1916.000000	14.657561
1917.000000	14.535193
1918.000000	14.399188
1919.000000	14.294644
1920.000000	14.174153
1921.000000	14.028378
1922.000000	13.920246
1923.000000	13.828321
1924.000000	13.762151
1925.000000	13.698671
1926.000000	13.628266
1927.000000	13.564287
1928.000000	13.513478
1929.000000	13.468923
1930.000000	13.420039
1931.000000	13.378655
1932.000000	13.372545
1933.000000	13.347013
1934.000000	13.328428
1935.000000	13.334744
1936.000000	13.346357
1937.000000	13.347745
1938.000000	13.339609
1939.000000	13.358233
1940.000000	13.363720
1941.000000	13.395761
1942.000000	13.417587
1943.000000	13.458615
1944.000000	13.500269
1945.000000	13.528467
1946.000000	13.580777
1947.000000	13.613915
1948.000000	13.667361
1949.000000	13.732547
1950.000000	13.771928
1951.000000	13.814543
1952.000000	13.879967
1953.000000	13.948835
1954.000000	13.983241
1955.000000	14.058533
1956.000000	14.115987
1957.000000	14.164370
1958.000000	14.233155
1959.000000	14.301295
1960.000000	14.349153
1961.000000	14.428093
1962.000000	14.484851
1963.000000	14.537547
1964.000000	14.603540
1965.000000	14.657908
1966.000000	14.716957
1967.000000	14.779006
1968.000000	14.834791
1969.000000	14.899307
1970.000000	14.955944
1971.000000	15.020557
1972.000000	15.083713
1973.000000	15.138089
1974.000000	15.202924
1975.000000	15.280532
1976.000000	15.336458
1977.000000	15.409928
1978.000000	15.483732
1979.000000	15.556100
1980.000000	15.624651
1981.000000	15.689499
1982.000000	15.756010
1983.000000	15.825857
1984.000000	15.903676
1985.000000	15.975093
1986.000000	16.058988
1987.000000	16.128188
1988.000000	16.201251
1989.000000	16.271614
1990.000000	16.330803
1991.000000	16.411193
1992.000000	16.476050
1993.000000	16.545199
1994.000000	16.604444
1995.000000	16.669770
1996.000000	16.744243
1997.000000	16.784579
1998.000000	16.834684
1999.000000	16.894385
2000.000000	16.948860
2001.000000	17.005560
2002.000000	17.038352
2003.000000	17.075421
2004.000000	17.121458
2005.000000	17.158424
2006.000000	17.191964
2007.000000	17.219895
2008.000000	17.245396
2009.000000	17.271718
2010.000000	17.278784
2011.000000	17.290156
2012.000000	17.307375
2013.000000	17.312949
2014.000000	17.308429
2015.000000	17.315465
2016.000000	17.314918
2017.000000	17.307386
2018.000000	17.293353
2019.000000	17.275661
2020.000000	17.253397
2021.000000	17.235994
2022.000000	17.217242
2023.000000	17.193072
2024.000000	17.155675
2025.000000	17.120355
2026.000000	17.089028
2027.000000	17.046733
2028.000000	17.005090
2029.000000	16.962678
2030.000000	16.916959
2031.000000	16.860943
2032.000000	16.794827
2033.000000	16.733439
2034.000000	16.668493
2035.000000	16.598297
2036.000000	16.519840
2037.000000	16.442764
2038.000000	16.360715
2039.000000	16.268863
2040.000000	16.178466
2041.000000	16.093056
2042.000000	16.003298
2043.000000	15.910475
2044.000000	15.815335
2045.000000	15.720069
2046.000000	15.639845
2047.000000	15.561195
2048.000000	15.487155
2049.000000	15.428848
2050.000000	15.369596
2051.000000	15.331923
2052.000000	15.301710
2053.000000	15.286466
2054.000000	15.280996
2055.000000	15.286528
2056.000000	15.306033
2057.000000	15.340654
2058.000000	15.382948
2059.000000	15.441281
2060.000000	15.505345
2061.000000	15.559922
2062.000000	15.626263
2063.000000	15.709733
2064.000000	15.792437
2065.000000	15.872063
2066.000000	15.955783
2067.000000	16.035314
2068.000000	16.117209
2069.000000	16.199361
2070.000000	16.281540
2071.000000	16.362338
2072.000000	16.436670
2073.000000	16.510189
2074.000000	16.583490
2075.000000	16.653931
2076.000000	16.716479
2077.000000	16.774572
2078.000000	16.821334
2079.000000	16.861647
2080.000000	16.902657
2081.000000	16.941280
2082.000000	16.977211
2083.000000	17.009249
2084.000000	17.030327
2085.000000	17.041301
2086.000000	17.055670
2087.000000	17.070223
2088.000000	17.074965
2089.000000	17.078794
2090.000000	17.081955
2091.000000	17.072754
2092.000000	17.075405
2093.000000	17.077799
2094.000000	17.069541
2095.000000	17.067490
2096.000000	17.064682
2097.000000	17.070334
2098.000000	17.077611
2099.000000	17.075684
2100.000000	17.078319
2101.000000	17.077435
2102.000000	17.080161
2103.000000	17.080273
2104.000000	17.088711
2105.000000	17.090074
2106.000000	17.086140
2107.000000	17.081241
2108.000000	17.082107
2109.000000	17.080186
2110.000000	17.064803
2111.000000	17.055794
2112.000000	17.052749
2113.000000	17.042686
2114.000000	17.038074
2115.000000	17.024103
2116.000000	16.997675
2117.000000	16.977273
2118.000000	16.963228
2119.000000	16.944649
2120.000000	16.920390
2121.000000	16.892636
2122.000000	16.863281
2123.000000	16.834316
2124.000000	16.798961
2125.000000	16.763499
2126.000000	16.731981
2127.000000	16.685849
2128.000000	16.646368
2129.000000	16.599521
2130.000000	16.549973
2131.000000	16.502622
2132.000000	16.458307
2133.000000	16.410983
2134.000000	16.346080
2135.000000	16.278536
2136.000000	16.226818
2137.000000	16.157478
2138.000000	16.082693
2139.000000	16.019102
2140.000000	15.956439
2141.000000	15.885014
2142.000000	15.806407
2143.000000	15.747560
2144.000000	15.674422
2145.000000	15.606501
2146.000000	15.537763
2147.000000	15.460560
2148.000000	15.388386
2149.000000	15.324600
2150.000000	15.265408
2151.000000	15.189503
2152.000000	15.125784
2153.000000	15.056384
2154.000000	14.987184
2155.000000	14.924044
2156.000000	14.866990
2157.000000	14.807436
2158.000000	14.764003
2159.000000	14.710630
2160.000000	14.672880
2161.000000	14.624079
2162.000000	14.597696
2163.000000	14.563613
2164.000000	14.534662
2165.000000	14.508021
2166.000000	14.482808
2167.000000	14.458489
2168.000000	14.449606
2169.000000	14.433917
2170.000000	14.429796
2171.000000	14.415646
2172.000000	14.409216
2173.000000	14.390503
2174.000000	14.400777
2175.000000	14.399076
2176.000000	14.409410
2177.000000	14.409918
2178.000000	14.428912
2179.000000	14.422423
2180.000000	14.428093
2181.000000	14.434211
2182.000000	14.453106
2183.000000	14.463855
2184.000000	14.471813
2185.000000	14.483718
2186.000000	14.494851
2187.000000	14.510710
2188.000000	14.530365
2189.000000	14.531929
2190.000000	14.549624
2191.000000	14.558071
2192.000000	14.567462
2193.000000	14.579553
2194.000000	14.603374
2195.000000	14.608326
2196.000000	14.630330
2197.000000	14.651133
2198.000000	14.676575
2199.000000	14.694169
2200.000000	14.705686
2201.000000	14.728591
2202.000000	14.745332
2203.000000	14.767914
2204.000000	14.798625
2205.000000	14.823217
2206.000000	14.852533
2207.000000	14.879818
2208.000000	14.912396
2209.000000	14.954900
2210.000000	14.999426
2211.000000	15.036732
2212.000000	15.089751
2213.000000	15.128129
2214.000000	15.174634
2215.000000	15.216865
2216.000000	15.268777
2217.000000	15.321060
2218.000000	15.369326
2219.000000	15.422770
2220.000000	15.481377
2221.000000	15.521536
2222.000000	15.558461
2223.000000	15.606778
2224.000000	15.635667
2225.000000	15.700294
2226.000000	15.732773
2227.000000	15.751218
2228.000000	15.761790
2229.000000	15.782749
2230.000000	15.805748
2231.000000	15.808626
2232.000000	15.807958
2233.000000	15.803309
2234.000000	15.794120
2235.000000	15.785772
2236.000000	15.775169
2237.000000	15.730380
2238.000000	15.711066
2239.000000	15.663493
2240.000000	15.607506
2241.000000	15.557098
2242.000000	15.498929
2243.000000	15.435057
2244.000000	15.350117
2245.000000	15.274413
2246.000000	15.181902
2247.000000	15.099187
2248.000000	15.007279
2249.000000	14.907642
2250.000000	14.808989
2251.000000	14.693580
2252.000000	14.604408
2253.000000	14.483918
2254.000000	14.387426
2255.000000	14.276656
2256.000000	14.175878
2257.000000	14.088535
2258.000000	13.992643
2259.000000	13.917269
2260.000000	13.824549
2261.000000	13.763399
2262.000000	13.689193
2263.000000	13.629271
2264.000000	13.570045
2265.000000	13.514660
2266.000000	13.477790
2267.000000	13.442064
2268.000000	13.389882
2269.000000	13.375851
2270.000000	13.341480
2271.000000	13.321817
2272.000000	13.295478
2273.000000	13.267959
2274.000000	13.254749
2275.000000	13.228841
2276.000000	13.198422
2277.000000	13.177933
2278.000000	13.153226
2279.000000	13.130097
2280.000000	13.100950
2281.000000	13.077744
2282.000000	13.053418
2283.000000	13.028574
2284.000000	12.996635
2285.000000	12.960959
2286.000000	12.945380
2287.000000	12.928271
2288.000000	12.906975
2289.000000	12.886221
2290.000000	12.870274
2291.000000	12.846096
2292.000000	12.816135
2293.000000	12.812936
2294.000000	12.801278
2295.000000	12.784420
2296.000000	12.779519
2297.000000	12.764746
2298.000000	12.769362
2299.000000	12.769787
2300.000000	12.777390
2301.000000	12.781516
2302.000000	12.781330
2303.000000	12.785797
2304.000000	12.811599
2305.000000	12.831622
2306.000000	12.841193
2307.000000	12.868754
2308.000000	12.888340
2309.000000	12.913750
2310.000000	12.938373
2311.000000	12.965598
2312.000000	12.990342
2313.000000	13.019037
2314.000000	13.034292
2315.000000	13.049850
2316.000000	13.073203
2317.000000	13.096723
2318.000000	13.098517
2319.000000	13.110703
2320.000000	13.121746
2321.000000	13.124439
2322.000000	13.123910
2323.000000	13.116427
2324.000000	13.107767
2325.000000	13.105710
2326.000000	13.093917
2327.000000	13.091612
2328.000000	13.079746
2329.000000	13.074755
2330.000000	13.068314
2331.000000	13.060254
2332.000000	13.048381
2333.000000	13.045588
2334.000000	13.043547
2335.000000	13.037495
2336.000000	13.036240
2337.000000	13.033221
2338.000000	13.034491
2339.000000	13.032711
2340.000000	13.038748
2341.000000	13.047985
2342.000000	13.051483
2343.000000	13.043991
2344.000000	13.046166
2345.000000	13.054020
2346.000000	13.057442
2347.000000	13.068469
2348.000000	13.081540
2349.000000	13.087081
2350.000000	13.097722
2351.000000	13.103941
2352.000000	13.107101
2353.000000	13.127057
2354.000000	13.145707
2355.000000	13.142131
2356.000000	13.155031
2357.000000	13.173339
2358.000000	13.180770
2359.000000	13.195916
2360.000000	13.195711
2361.000000	13.195444
2362.000000	13.208390
2363.000000	13.218671
2364.000000	13.227612
2365.000000	13.231592
2366.000000	13.241112
2367.000000	13.249227
2368.000000	13.255533
2369.000000	13.264204
2370.000000	13.272938
2371.000000	13.281790
2372.000000	13.282527
2373.000000	13.297663
2374.000000	13.309244
2375.000000	13.316933
2376.000000	13.333109
2377.000000	13.341107
2378.000000	13.342451
2379.000000	13.352351
2380.000000	13.356955
2381.000000	13.362728
2382.000000	13.373530
2383.000000	13.372695
2384.000000	13.381209
2385.000000	13.387330
2386.000000	13.384272
2387.000000	13.384759
2388.000000	13.378350
2389.000000	13.376746
2390.000000	13.368467
2391.000000	13.357229
2392.000000	13.349969
2393.000000	13.345209
2394.000000	13.340623
2395.000000	13.323704
2396.000000	13.315131
2397.000000	13.297315
2398.000000	13.287506
2399.000000	13.276553
2400.000000	13.260371
2401.000000	13.241912
2402.000000	13.222948
2403.000000	13.197082
2404.000000	13.177932
2405.000000	13.161884
2406.000000	13.145024
2407.000000	13.122319
2408.000000	13.100068
2409.000000	13.070498
2410.000000	13.047418
2411.000000	13.012014
2412.000000	12.976066
2413.000000	12.943746
2414.000000	12.920115
2415.000000	12.881970
2416.000000	12.847049
2417.000000	12.806382
2418.000000	12.766920
2419.000000	12.725639
2420.000000	12.685687
2421.000000	12.649259
2422.000000	12.601658
2423.000000	12.548364
2424.000000	12.507727
2425.000000	12.453519
2426.000000	12.403346
2427.000000	12.360068
2428.000000	12.319032
2429.000000	12.269499
2430.000000	12.205103
2431.000000	12.153344
2432.000000	12.101941
2433.000000	12.039234
2434.000000	11.984542
2435.000000	11.920710
2436.000000	11.859661
2437.000000	11.808642
2438.000000	11.753017
2439.000000	11.691240
2440.000000	11.629725
2441.000000	11.561548
2442.000000	11.496094
2443.000000	11.444695
2444.000000	11.377089
2445.000000	11.323928
2446.000000	11.259803
2447.000000	11.202761
2448.000000	11.136356
2449.000000	11.086474
2450.000000	11.039172
2451.000000	10.979518
2452.000000	10.915420
2453.000000	10.873341
2454.000000	10.837168
2455.000000	10.788968
2456.000000	10.741384
2457.000000	10.689431
2458.000000	10.646622
2459.000000	10.597466
2460.000000	10.577858
2461.000000	10.560715
2462.000000	10.513761
2463.000000	10.479993
2464.000000	10.472057
2465.000000	10.429362
2466.000000	10.390763
2467.000000	10.403527
2468.000000	10.370877
2469.000000	10.322510
2470.000000	10.325420
2471.000000	10.299224
2472.000000	10.311282
2473.000000	10.272178
2474.000000	10.285575
2475.000000	10.240842
2476.000000	10.246476
2477.000000	10.252332
2478.000000	10.233943
2479.000000	10.208810
2480.000000	10.239360
2481.000000	10.257994
2482.000000	10.245740
2483.000000	10.220317
2484.000000	10.264222
2485.000000	10.196827
2486.000000	10.227700
2487.000000	10.248941
2488.000000	10.236165
2489.000000	10.275931
2490.000000	10.302783
2491.000000	10.281512
2492.000000	10.286221
2493.000000	10.352801
2494.000000	10.343041
2495.000000	10.316303
2496.000000	10.387448
2497.000000	10.357368
2498.000000	10.372752
2499.000000	10.373174
2500.000000	10.348923
