PE UV       SUBTECH     SPECTRUM    ASCII       PEDS        4.00        
   -1
CICIMAUCR0013-5.Sample.ASC
24/04/23
11:02:20.00
24/04/23
11:02:20.00
Vinicio Soto Monge
C. resplendens
250,000000
1
Lambda 1050
1050L1511233
PerkinElmer UV WinLab 6.3.2.0749 / 2.02.05 Lambda 900 UV/VIS/NIR, Aug  7 2015 09:38:08

0
0
3350/servo 860,8/2
0
0
UV/VIS
1
1
1
DoubleDePol,CommonBeamDepol,RBeamAtt,SBeamAtt,60mm sphere, WB InGaAs Detector
0
0
0
0
Program
Program
3350/servo 860,8/2
3350/0,2 860,8/0,2
3350/0,2 860,8/0,2
0
15.00
 
 
 
0
 
860,8
319,2
860,8
Front
100
on
S:100 R:100
0
0
0
0
 
0
 
 
 
0
 
 
0
0
0
0
0
 
 
 
 
0
0


0
0
#HDR
-1
-1
#GR
nm
%R
1.0
0.0
2500,000000
-1,000000
2251
8
89,800900
5,734500
#DATA
250.000000	5.819072
251.000000	5.805950
252.000000	5.770876
253.000000	5.787360
254.000000	5.766898
255.000000	5.738352
256.000000	5.733915
257.000000	5.726328
258.000000	5.702150
259.000000	5.691677
260.000000	5.662729
261.000000	5.637247
262.000000	5.624910
263.000000	5.595848
264.000000	5.562685
265.000000	5.552972
266.000000	5.529967
267.000000	5.520491
268.000000	5.474948
269.000000	5.456347
270.000000	5.452839
271.000000	5.444888
272.000000	5.426643
273.000000	5.425752
274.000000	5.391098
275.000000	5.383297
276.000000	5.373253
277.000000	5.384466
278.000000	5.362478
279.000000	5.376908
280.000000	5.350105
281.000000	5.343702
282.000000	5.350601
283.000000	5.333498
284.000000	5.311790
285.000000	5.325348
286.000000	5.308322
287.000000	5.303901
288.000000	5.284388
289.000000	5.300224
290.000000	5.292583
291.000000	5.286791
292.000000	5.278144
293.000000	5.296198
294.000000	5.306985
295.000000	5.296058
296.000000	5.286427
297.000000	5.313550
298.000000	5.304220
299.000000	5.294395
300.000000	5.284358
301.000000	5.283876
302.000000	5.299083
303.000000	5.289198
304.000000	5.275573
305.000000	5.272061
306.000000	5.254889
307.000000	5.268903
308.000000	5.277923
309.000000	5.270716
310.000000	5.277731
311.000000	5.263047
312.000000	5.280555
313.000000	5.265669
314.000000	5.267102
315.000000	5.249979
316.000000	5.270677
317.000000	5.364897
318.000000	5.324495
319.000000	5.302397
320.000000	5.290118
321.000000	5.286709
322.000000	5.299173
323.000000	5.303094
324.000000	5.327766
325.000000	5.248170
326.000000	5.297207
327.000000	5.287593
328.000000	5.303571
329.000000	5.269025
330.000000	5.280712
331.000000	5.311683
332.000000	5.327604
333.000000	5.342943
334.000000	5.347289
335.000000	5.343732
336.000000	5.380306
337.000000	5.374905
338.000000	5.325992
339.000000	5.360495
340.000000	5.359239
341.000000	5.395457
342.000000	5.401548
343.000000	5.382835
344.000000	5.385325
345.000000	5.407836
346.000000	5.413436
347.000000	5.433122
348.000000	5.451699
349.000000	5.478956
350.000000	5.509295
351.000000	5.567610
352.000000	5.583110
353.000000	5.606625
354.000000	5.651904
355.000000	5.689179
356.000000	5.744899
357.000000	5.773441
358.000000	5.836074
359.000000	5.915060
360.000000	5.946975
361.000000	5.963038
362.000000	6.023574
363.000000	6.106636
364.000000	6.172494
365.000000	6.238014
366.000000	6.318506
367.000000	6.397490
368.000000	6.446760
369.000000	6.537808
370.000000	6.647874
371.000000	6.757534
372.000000	6.878232
373.000000	6.969736
374.000000	7.094105
375.000000	7.277224
376.000000	7.412392
377.000000	7.610181
378.000000	7.801093
379.000000	8.009928
380.000000	8.226319
381.000000	8.464614
382.000000	8.706922
383.000000	8.970728
384.000000	9.249500
385.000000	9.547211
386.000000	9.857416
387.000000	10.158156
388.000000	10.473834
389.000000	10.807397
390.000000	11.160512
391.000000	11.506921
392.000000	11.866657
393.000000	12.236040
394.000000	12.590174
395.000000	12.950653
396.000000	13.317421
397.000000	13.664737
398.000000	14.017880
399.000000	14.369249
400.000000	14.718327
401.000000	15.057289
402.000000	15.376801
403.000000	15.701659
404.000000	16.014608
405.000000	16.318864
406.000000	16.611353
407.000000	16.900969
408.000000	17.170559
409.000000	17.440525
410.000000	17.679216
411.000000	17.928842
412.000000	18.151119
413.000000	18.369329
414.000000	18.579122
415.000000	18.759322
416.000000	18.945793
417.000000	19.126350
418.000000	19.267702
419.000000	19.414038
420.000000	19.553207
421.000000	19.662820
422.000000	19.756026
423.000000	19.845654
424.000000	19.921406
425.000000	19.983349
426.000000	20.022880
427.000000	20.074229
428.000000	20.086634
429.000000	20.077836
430.000000	20.050785
431.000000	19.997740
432.000000	19.928772
433.000000	19.850225
434.000000	19.762408
435.000000	19.666932
436.000000	19.540692
437.000000	19.396638
438.000000	19.259627
439.000000	19.136198
440.000000	18.996310
441.000000	18.881154
442.000000	18.776319
443.000000	18.682303
444.000000	18.596368
445.000000	18.545862
446.000000	18.528149
447.000000	18.540660
448.000000	18.600473
449.000000	18.691872
450.000000	18.836312
451.000000	19.017267
452.000000	19.244046
453.000000	19.520844
454.000000	19.830600
455.000000	20.167347
456.000000	20.520920
457.000000	20.915725
458.000000	21.321015
459.000000	21.733914
460.000000	22.154812
461.000000	22.598678
462.000000	23.022123
463.000000	23.435091
464.000000	23.853254
465.000000	24.236335
466.000000	24.578762
467.000000	24.910195
468.000000	25.222507
469.000000	25.502308
470.000000	25.754273
471.000000	25.993468
472.000000	26.187566
473.000000	26.360668
474.000000	26.521416
475.000000	26.640859
476.000000	26.745558
477.000000	26.831713
478.000000	26.932427
479.000000	26.988569
480.000000	27.064881
481.000000	27.142338
482.000000	27.231726
483.000000	27.348698
484.000000	27.476904
485.000000	27.645661
486.000000	27.846034
487.000000	28.066098
488.000000	28.322602
489.000000	28.618043
490.000000	28.956210
491.000000	29.329641
492.000000	29.719340
493.000000	30.163151
494.000000	30.643516
495.000000	31.136436
496.000000	31.669754
497.000000	32.231856
498.000000	32.797560
499.000000	33.414262
500.000000	34.039479
501.000000	34.692381
502.000000	35.392769
503.000000	36.122715
504.000000	36.852555
505.000000	37.618001
506.000000	38.420674
507.000000	39.231480
508.000000	40.094907
509.000000	41.021022
510.000000	41.939358
511.000000	42.924568
512.000000	43.929850
513.000000	44.968937
514.000000	46.050324
515.000000	47.159391
516.000000	48.282735
517.000000	49.423840
518.000000	50.592170
519.000000	51.786350
520.000000	52.979260
521.000000	54.193997
522.000000	55.408278
523.000000	56.618254
524.000000	57.800200
525.000000	58.985543
526.000000	60.147190
527.000000	61.240762
528.000000	62.303203
529.000000	63.333653
530.000000	64.311341
531.000000	65.258067
532.000000	66.164192
533.000000	67.014389
534.000000	67.821637
535.000000	68.573618
536.000000	69.309398
537.000000	70.002733
538.000000	70.650081
539.000000	71.264966
540.000000	71.853093
541.000000	72.415282
542.000000	72.953451
543.000000	73.463710
544.000000	73.938186
545.000000	74.386315
546.000000	74.772950
547.000000	75.159430
548.000000	75.517732
549.000000	75.841838
550.000000	76.152986
551.000000	76.418991
552.000000	76.694040
553.000000	76.957124
554.000000	77.145161
555.000000	77.361738
556.000000	77.576770
557.000000	77.748074
558.000000	77.963508
559.000000	78.114316
560.000000	78.198630
561.000000	78.348759
562.000000	78.463902
563.000000	78.563073
564.000000	78.685261
565.000000	78.764371
566.000000	78.828695
567.000000	78.873261
568.000000	78.927183
569.000000	78.922655
570.000000	78.906368
571.000000	78.860789
572.000000	78.796929
573.000000	78.712009
574.000000	78.616094
575.000000	78.524221
576.000000	78.404945
577.000000	78.283704
578.000000	78.146196
579.000000	77.992414
580.000000	77.847805
581.000000	77.694375
582.000000	77.510969
583.000000	77.320914
584.000000	77.098720
585.000000	76.895413
586.000000	76.676125
587.000000	76.429788
588.000000	76.173966
589.000000	75.902581
590.000000	75.638497
591.000000	75.326723
592.000000	74.976023
593.000000	74.675957
594.000000	74.359829
595.000000	74.013911
596.000000	73.728856
597.000000	73.386479
598.000000	73.047003
599.000000	72.722024
600.000000	72.352004
601.000000	71.990965
602.000000	71.608123
603.000000	71.207663
604.000000	70.776269
605.000000	70.339415
606.000000	69.859261
607.000000	69.344941
608.000000	68.815628
609.000000	68.236598
610.000000	67.648315
611.000000	67.020868
612.000000	66.376223
613.000000	65.732833
614.000000	65.070557
615.000000	64.390975
616.000000	63.696460
617.000000	63.005109
618.000000	62.280201
619.000000	61.568833
620.000000	60.799094
621.000000	60.045289
622.000000	59.250909
623.000000	58.440187
624.000000	57.605066
625.000000	56.761022
626.000000	55.910380
627.000000	55.107886
628.000000	54.301238
629.000000	53.505449
630.000000	52.721081
631.000000	52.007100
632.000000	51.335374
633.000000	50.747883
634.000000	50.241065
635.000000	49.831743
636.000000	49.473278
637.000000	49.209534
638.000000	49.063662
639.000000	49.015939
640.000000	49.030948
641.000000	49.109735
642.000000	49.300379
643.000000	49.554577
644.000000	49.874942
645.000000	50.266910
646.000000	50.710261
647.000000	51.174133
648.000000	51.685878
649.000000	52.242514
650.000000	52.819970
651.000000	53.428623
652.000000	54.055396
653.000000	54.710800
654.000000	55.327059
655.000000	55.948799
656.000000	56.595101
657.000000	57.195011
658.000000	57.773007
659.000000	58.349623
660.000000	58.901050
661.000000	59.459700
662.000000	59.968255
663.000000	60.435821
664.000000	60.910751
665.000000	61.359935
666.000000	61.777196
667.000000	62.168782
668.000000	62.522715
669.000000	62.871223
670.000000	63.227270
671.000000	63.532224
672.000000	63.839490
673.000000	64.163146
674.000000	64.465533
675.000000	64.708920
676.000000	64.976442
677.000000	65.200911
678.000000	65.392892
679.000000	65.611624
680.000000	65.795330
681.000000	65.913892
682.000000	66.003569
683.000000	66.047257
684.000000	66.082296
685.000000	66.080668
686.000000	66.039867
687.000000	65.969318
688.000000	65.836221
689.000000	65.706722
690.000000	65.577529
691.000000	65.395440
692.000000	65.220858
693.000000	65.037968
694.000000	64.851456
695.000000	64.642546
696.000000	64.405106
697.000000	64.196407
698.000000	64.006778
699.000000	63.798410
700.000000	63.551088
701.000000	63.300301
702.000000	63.102966
703.000000	62.910841
704.000000	62.721810
705.000000	62.546787
706.000000	62.412093
707.000000	62.306958
708.000000	62.208598
709.000000	62.144785
710.000000	62.126864
711.000000	62.182832
712.000000	62.294820
713.000000	62.404916
714.000000	62.517969
715.000000	62.734964
716.000000	62.982616
717.000000	63.223127
718.000000	63.504916
719.000000	63.808584
720.000000	64.146149
721.000000	64.460716
722.000000	64.828961
723.000000	65.195567
724.000000	65.611434
725.000000	66.012572
726.000000	66.449571
727.000000	66.899435
728.000000	67.355029
729.000000	67.822673
730.000000	68.272284
731.000000	68.700822
732.000000	69.189595
733.000000	69.683466
734.000000	70.126393
735.000000	70.589499
736.000000	71.011723
737.000000	71.410300
738.000000	71.804422
739.000000	72.171315
740.000000	72.504209
741.000000	72.859245
742.000000	73.167795
743.000000	73.464640
744.000000	73.772469
745.000000	74.037744
746.000000	74.281163
747.000000	74.497324
748.000000	74.717445
749.000000	74.914161
750.000000	75.084165
751.000000	75.288168
752.000000	75.478022
753.000000	75.607136
754.000000	75.794024
755.000000	75.935060
756.000000	76.041260
757.000000	76.194124
758.000000	76.327299
759.000000	76.447843
760.000000	76.592587
761.000000	76.749296
762.000000	76.876521
763.000000	76.999666
764.000000	77.128825
765.000000	77.253318
766.000000	77.392071
767.000000	77.558233
768.000000	77.730753
769.000000	77.811907
770.000000	77.931216
771.000000	78.053020
772.000000	78.173915
773.000000	78.195182
774.000000	78.259759
775.000000	78.287605
776.000000	78.203936
777.000000	78.246738
778.000000	78.183486
779.000000	78.085118
780.000000	78.098681
781.000000	77.966086
782.000000	77.870854
783.000000	77.814739
784.000000	77.724775
785.000000	77.636223
786.000000	77.621789
787.000000	77.464629
788.000000	77.484590
789.000000	77.420053
790.000000	77.482524
791.000000	77.483661
792.000000	77.419847
793.000000	77.415153
794.000000	77.393290
795.000000	77.547384
796.000000	77.560639
797.000000	77.604533
798.000000	77.643789
799.000000	77.808163
800.000000	77.973497
801.000000	78.013756
802.000000	78.047684
803.000000	78.270204
804.000000	78.267932
805.000000	78.394388
806.000000	78.483644
807.000000	78.620763
808.000000	78.683789
809.000000	78.759525
810.000000	78.718247
811.000000	78.718350
812.000000	78.734067
813.000000	78.594827
814.000000	78.545338
815.000000	78.340682
816.000000	78.114228
817.000000	77.965936
818.000000	77.799275
819.000000	77.603042
820.000000	77.383778
821.000000	77.203229
822.000000	76.949848
823.000000	76.667055
824.000000	76.471359
825.000000	76.289986
826.000000	75.992930
827.000000	75.786392
828.000000	75.565418
829.000000	75.380236
830.000000	75.117801
831.000000	74.816472
832.000000	74.573143
833.000000	74.368169
834.000000	74.181559
835.000000	73.927873
836.000000	73.717801
837.000000	73.511410
838.000000	73.111899
839.000000	72.828563
840.000000	72.538342
841.000000	72.342508
842.000000	72.142966
843.000000	71.836488
844.000000	71.621587
845.000000	71.283938
846.000000	71.070766
847.000000	70.719633
848.000000	70.355406
849.000000	70.029945
850.000000	69.623085
851.000000	69.447063
852.000000	69.077805
853.000000	68.898634
854.000000	68.363401
855.000000	68.183015
856.000000	67.887028
857.000000	67.659107
858.000000	67.626333
859.000000	67.776100
860.000000	67.631033
861.000000	68.141600
862.000000	68.122600
863.000000	68.227567
864.000000	68.337100
865.000000	68.381267
866.000000	68.539933
867.000000	68.588367
868.000000	68.285400
869.000000	68.500700
870.000000	68.628633
871.000000	68.452033
872.000000	68.373267
873.000000	68.188167
874.000000	68.288767
875.000000	68.349400
876.000000	68.224733
877.000000	68.123433
878.000000	68.153700
879.000000	68.175900
880.000000	68.078067
881.000000	68.065600
882.000000	67.852900
883.000000	67.749033
884.000000	67.714833
885.000000	67.645433
886.000000	67.592167
887.000000	67.433600
888.000000	67.354133
889.000000	67.263667
890.000000	67.107567
891.000000	67.052033
892.000000	66.952000
893.000000	66.885467
894.000000	66.753167
895.000000	66.614000
896.000000	66.560200
897.000000	66.369600
898.000000	66.221933
899.000000	66.148467
900.000000	66.043400
901.000000	65.939567
902.000000	65.851833
903.000000	65.697933
904.000000	65.539667
905.000000	65.420900
906.000000	65.219767
907.000000	65.066567
908.000000	64.946767
909.000000	64.813933
910.000000	64.663467
911.000000	64.566767
912.000000	64.527133
913.000000	64.382467
914.000000	64.251800
915.000000	64.227600
916.000000	64.128900
917.000000	64.008500
918.000000	63.950200
919.000000	63.853133
920.000000	63.753533
921.000000	63.694033
922.000000	63.636100
923.000000	63.553800
924.000000	63.477733
925.000000	63.405800
926.000000	63.370967
927.000000	63.289967
928.000000	63.241167
929.000000	63.173700
930.000000	63.125467
931.000000	63.077333
932.000000	62.996000
933.000000	62.929067
934.000000	62.851367
935.000000	62.764233
936.000000	62.675233
937.000000	62.646000
938.000000	62.592267
939.000000	62.478967
940.000000	62.379167
941.000000	62.277233
942.000000	62.201833
943.000000	62.110300
944.000000	62.015533
945.000000	61.894667
946.000000	61.813867
947.000000	61.725467
948.000000	61.654533
949.000000	61.561267
950.000000	61.470833
951.000000	61.375700
952.000000	61.246667
953.000000	61.181667
954.000000	61.101300
955.000000	61.014767
956.000000	60.913767
957.000000	60.812067
958.000000	60.757100
959.000000	60.697700
960.000000	60.588600
961.000000	60.509300
962.000000	60.451867
963.000000	60.383933
964.000000	60.298533
965.000000	60.216967
966.000000	60.191167
967.000000	60.144500
968.000000	60.104033
969.000000	60.061333
970.000000	60.007733
971.000000	59.965133
972.000000	59.914200
973.000000	59.874433
974.000000	59.803433
975.000000	59.744333
976.000000	59.673067
977.000000	59.616067
978.000000	59.541500
979.000000	59.461733
980.000000	59.418800
981.000000	59.341900
982.000000	59.275667
983.000000	59.221733
984.000000	59.125967
985.000000	59.037833
986.000000	58.985633
987.000000	58.923567
988.000000	58.855667
989.000000	58.778800
990.000000	58.724233
991.000000	58.664100
992.000000	58.609800
993.000000	58.555633
994.000000	58.520367
995.000000	58.494433
996.000000	58.444100
997.000000	58.388267
998.000000	58.363800
999.000000	58.321300
1000.000000	58.280400
1001.000000	58.241400
1002.000000	58.228600
1003.000000	58.221167
1004.000000	58.192967
1005.000000	58.171767
1006.000000	58.157067
1007.000000	58.143500
1008.000000	58.115467
1009.000000	58.081533
1010.000000	58.072233
1011.000000	58.047667
1012.000000	58.049667
1013.000000	58.066633
1014.000000	58.074133
1015.000000	58.067433
1016.000000	58.095933
1017.000000	58.127867
1018.000000	58.162333
1019.000000	58.175400
1020.000000	58.205633
1021.000000	58.235767
1022.000000	58.293333
1023.000000	58.335500
1024.000000	58.381733
1025.000000	58.429067
1026.000000	58.466633
1027.000000	58.532900
1028.000000	58.580500
1029.000000	58.638033
1030.000000	58.681333
1031.000000	58.725567
1032.000000	58.773133
1033.000000	58.811900
1034.000000	58.875300
1035.000000	58.921367
1036.000000	58.984667
1037.000000	59.018033
1038.000000	59.084267
1039.000000	59.138733
1040.000000	59.189633
1041.000000	59.231833
1042.000000	59.282267
1043.000000	59.329433
1044.000000	59.392500
1045.000000	59.431400
1046.000000	59.474067
1047.000000	59.523267
1048.000000	59.590633
1049.000000	59.636633
1050.000000	59.680967
1051.000000	59.751300
1052.000000	59.823600
1053.000000	59.874633
1054.000000	59.934333
1055.000000	59.998900
1056.000000	60.053533
1057.000000	60.132133
1058.000000	60.213333
1059.000000	60.273067
1060.000000	60.332000
1061.000000	60.381467
1062.000000	60.447267
1063.000000	60.517433
1064.000000	60.578000
1065.000000	60.644100
1066.000000	60.704767
1067.000000	60.772100
1068.000000	60.826967
1069.000000	60.895433
1070.000000	60.942067
1071.000000	61.002067
1072.000000	61.072733
1073.000000	61.123700
1074.000000	61.180433
1075.000000	61.227567
1076.000000	61.295200
1077.000000	61.355500
1078.000000	61.404267
1079.000000	61.482833
1080.000000	61.548133
1081.000000	61.593233
1082.000000	61.667200
1083.000000	61.728633
1084.000000	61.805500
1085.000000	61.869600
1086.000000	61.932733
1087.000000	61.995367
1088.000000	62.060233
1089.000000	62.107867
1090.000000	62.169333
1091.000000	62.227400
1092.000000	62.295633
1093.000000	62.352800
1094.000000	62.402967
1095.000000	62.456133
1096.000000	62.499467
1097.000000	62.543500
1098.000000	62.596833
1099.000000	62.636367
1100.000000	62.678533
1101.000000	62.705967
1102.000000	62.751967
1103.000000	62.779233
1104.000000	62.805200
1105.000000	62.847500
1106.000000	62.888500
1107.000000	62.910933
1108.000000	62.946100
1109.000000	62.968933
1110.000000	62.992200
1111.000000	63.007800
1112.000000	63.031100
1113.000000	63.063100
1114.000000	63.094467
1115.000000	63.131300
1116.000000	63.152900
1117.000000	63.182233
1118.000000	63.202300
1119.000000	63.202667
1120.000000	63.187500
1121.000000	63.180333
1122.000000	63.178467
1123.000000	63.151733
1124.000000	63.112933
1125.000000	63.049833
1126.000000	63.003500
1127.000000	62.925667
1128.000000	62.837500
1129.000000	62.735400
1130.000000	62.590933
1131.000000	62.375067
1132.000000	62.148833
1133.000000	61.910033
1134.000000	61.697433
1135.000000	61.453967
1136.000000	61.115733
1137.000000	60.745267
1138.000000	60.383667
1139.000000	60.065067
1140.000000	59.733733
1141.000000	59.447000
1142.000000	59.127933
1143.000000	58.827567
1144.000000	58.555400
1145.000000	58.318300
1146.000000	58.148033
1147.000000	58.036433
1148.000000	57.988533
1149.000000	58.004600
1150.000000	58.026567
1151.000000	58.042633
1152.000000	58.056200
1153.000000	58.051000
1154.000000	57.998200
1155.000000	57.879400
1156.000000	57.721367
1157.000000	57.498433
1158.000000	57.252633
1159.000000	56.943633
1160.000000	56.625433
1161.000000	56.298000
1162.000000	55.964567
1163.000000	55.622333
1164.000000	55.253933
1165.000000	54.909567
1166.000000	54.545367
1167.000000	54.201067
1168.000000	53.860733
1169.000000	53.516800
1170.000000	53.183033
1171.000000	52.839600
1172.000000	52.519133
1173.000000	52.197233
1174.000000	51.890333
1175.000000	51.614033
1176.000000	51.318633
1177.000000	51.003333
1178.000000	50.657100
1179.000000	50.252667
1180.000000	49.788400
1181.000000	49.288400
1182.000000	48.784967
1183.000000	48.325233
1184.000000	47.955500
1185.000000	47.719767
1186.000000	47.621000
1187.000000	47.636467
1188.000000	47.788167
1189.000000	48.077567
1190.000000	48.460433
1191.000000	48.910967
1192.000000	49.403067
1193.000000	49.867500
1194.000000	50.271200
1195.000000	50.617300
1196.000000	50.892000
1197.000000	51.101633
1198.000000	51.260900
1199.000000	51.367933
1200.000000	51.455133
1201.000000	51.521067
1202.000000	51.563000
1203.000000	51.590767
1204.000000	51.611367
1205.000000	51.641667
1206.000000	51.677800
1207.000000	51.733967
1208.000000	51.794833
1209.000000	51.882667
1210.000000	51.974300
1211.000000	52.070967
1212.000000	52.178567
1213.000000	52.291500
1214.000000	52.408133
1215.000000	52.526433
1216.000000	52.654633
1217.000000	52.785700
1218.000000	52.919700
1219.000000	53.063933
1220.000000	53.219567
1221.000000	53.382000
1222.000000	53.554000
1223.000000	53.729467
1224.000000	53.910867
1225.000000	54.100633
1226.000000	54.282967
1227.000000	54.470500
1228.000000	54.652667
1229.000000	54.844067
1230.000000	55.034733
1231.000000	55.214867
1232.000000	55.399033
1233.000000	55.584433
1234.000000	55.771700
1235.000000	55.948467
1236.000000	56.124233
1237.000000	56.295200
1238.000000	56.464933
1239.000000	56.624733
1240.000000	56.791300
1241.000000	56.954767
1242.000000	57.116067
1243.000000	57.266900
1244.000000	57.407800
1245.000000	57.540467
1246.000000	57.675000
1247.000000	57.800867
1248.000000	57.908433
1249.000000	58.013067
1250.000000	58.112933
1251.000000	58.201700
1252.000000	58.282933
1253.000000	58.362367
1254.000000	58.439633
1255.000000	58.511333
1256.000000	58.581400
1257.000000	58.654800
1258.000000	58.709267
1259.000000	58.763633
1260.000000	58.817200
1261.000000	58.866400
1262.000000	58.921533
1263.000000	58.973333
1264.000000	59.024933
1265.000000	59.072967
1266.000000	59.119900
1267.000000	59.166467
1268.000000	59.207667
1269.000000	59.253967
1270.000000	59.295800
1271.000000	59.332600
1272.000000	59.373933
1273.000000	59.422800
1274.000000	59.455667
1275.000000	59.513400
1276.000000	59.561133
1277.000000	59.613000
1278.000000	59.675967
1279.000000	59.742300
1280.000000	59.800867
1281.000000	59.865567
1282.000000	59.924467
1283.000000	59.992500
1284.000000	60.060133
1285.000000	60.124667
1286.000000	60.193200
1287.000000	60.245833
1288.000000	60.298800
1289.000000	60.353433
1290.000000	60.395333
1291.000000	60.433533
1292.000000	60.456733
1293.000000	60.483567
1294.000000	60.509867
1295.000000	60.525233
1296.000000	60.544333
1297.000000	60.556533
1298.000000	60.561533
1299.000000	60.571700
1300.000000	60.580000
1301.000000	60.583833
1302.000000	60.592000
1303.000000	60.598000
1304.000000	60.592133
1305.000000	60.584533
1306.000000	60.568733
1307.000000	60.548367
1308.000000	60.517033
1309.000000	60.480633
1310.000000	60.443967
1311.000000	60.398567
1312.000000	60.347567
1313.000000	60.293033
1314.000000	60.241967
1315.000000	60.176767
1316.000000	60.110633
1317.000000	60.038767
1318.000000	59.964400
1319.000000	59.894567
1320.000000	59.805033
1321.000000	59.711333
1322.000000	59.631267
1323.000000	59.528400
1324.000000	59.435067
1325.000000	59.328033
1326.000000	59.210633
1327.000000	59.100433
1328.000000	58.967867
1329.000000	58.837600
1330.000000	58.701133
1331.000000	58.543600
1332.000000	58.376333
1333.000000	58.208867
1334.000000	58.030700
1335.000000	57.831300
1336.000000	57.639900
1337.000000	57.414567
1338.000000	57.197367
1339.000000	56.965067
1340.000000	56.712400
1341.000000	56.446667
1342.000000	56.168467
1343.000000	55.877600
1344.000000	55.589600
1345.000000	55.268567
1346.000000	54.902867
1347.000000	54.561233
1348.000000	54.202800
1349.000000	53.779533
1350.000000	53.319467
1351.000000	52.807000
1352.000000	52.245467
1353.000000	51.630500
1354.000000	51.107100
1355.000000	50.599567
1356.000000	50.160267
1357.000000	49.834333
1358.000000	49.616767
1359.000000	49.499167
1360.000000	49.407700
1361.000000	49.411200
1362.000000	49.392400
1363.000000	49.160400
1364.000000	48.950500
1365.000000	48.809900
1366.000000	48.561433
1367.000000	48.323600
1368.000000	48.096467
1369.000000	47.778300
1370.000000	47.432200
1371.000000	47.121133
1372.000000	46.760100
1373.000000	46.352233
1374.000000	45.977867
1375.000000	45.675300
1376.000000	45.475033
1377.000000	45.323100
1378.000000	45.216467
1379.000000	45.156700
1380.000000	45.087033
1381.000000	44.989300
1382.000000	44.820600
1383.000000	44.567167
1384.000000	44.166500
1385.000000	43.757333
1386.000000	43.302300
1387.000000	42.943400
1388.000000	42.685067
1389.000000	42.382000
1390.000000	42.072867
1391.000000	41.848633
1392.000000	41.702900
1393.000000	41.523133
1394.000000	41.333033
1395.000000	41.220367
1396.000000	41.119300
1397.000000	40.845433
1398.000000	40.504600
1399.000000	40.247633
1400.000000	40.049900
1401.000000	39.766967
1402.000000	39.306933
1403.000000	38.861300
1404.000000	38.490967
1405.000000	38.140533
1406.000000	37.733333
1407.000000	37.358100
1408.000000	36.981467
1409.000000	36.638300
1410.000000	36.318800
1411.000000	35.985733
1412.000000	35.683100
1413.000000	35.485400
1414.000000	35.310667
1415.000000	35.100333
1416.000000	34.817067
1417.000000	34.546933
1418.000000	34.356167
1419.000000	34.165900
1420.000000	33.923400
1421.000000	33.662033
1422.000000	33.401600
1423.000000	33.193767
1424.000000	32.987200
1425.000000	32.735167
1426.000000	32.501933
1427.000000	32.272567
1428.000000	32.078633
1429.000000	31.912900
1430.000000	31.702367
1431.000000	31.550333
1432.000000	31.418500
1433.000000	31.273767
1434.000000	31.117133
1435.000000	30.971167
1436.000000	30.813833
1437.000000	30.697600
1438.000000	30.583233
1439.000000	30.431833
1440.000000	30.290133
1441.000000	30.148600
1442.000000	30.013200
1443.000000	29.875467
1444.000000	29.721133
1445.000000	29.608167
1446.000000	29.487100
1447.000000	29.329300
1448.000000	29.176500
1449.000000	29.037233
1450.000000	28.935300
1451.000000	28.831933
1452.000000	28.709700
1453.000000	28.575100
1454.000000	28.445033
1455.000000	28.350167
1456.000000	28.263633
1457.000000	28.149133
1458.000000	28.051933
1459.000000	27.956367
1460.000000	27.870767
1461.000000	27.791267
1462.000000	27.716567
1463.000000	27.637500
1464.000000	27.576867
1465.000000	27.516800
1466.000000	27.471767
1467.000000	27.436533
1468.000000	27.384567
1469.000000	27.342833
1470.000000	27.307467
1471.000000	27.281067
1472.000000	27.237833
1473.000000	27.207800
1474.000000	27.165700
1475.000000	27.130000
1476.000000	27.081667
1477.000000	27.053500
1478.000000	27.025300
1479.000000	26.978600
1480.000000	26.967033
1481.000000	26.947733
1482.000000	26.925400
1483.000000	26.897800
1484.000000	26.873633
1485.000000	26.857833
1486.000000	26.854500
1487.000000	26.851167
1488.000000	26.840500
1489.000000	26.833900
1490.000000	26.835533
1491.000000	26.834033
1492.000000	26.819900
1493.000000	26.828267
1494.000000	26.834600
1495.000000	26.838433
1496.000000	26.839700
1497.000000	26.858700
1498.000000	26.878200
1499.000000	26.899067
1500.000000	26.917000
1501.000000	26.938733
1502.000000	26.958600
1503.000000	26.986733
1504.000000	27.024167
1505.000000	27.054733
1506.000000	27.084800
1507.000000	27.117033
1508.000000	27.144100
1509.000000	27.185867
1510.000000	27.220333
1511.000000	27.253200
1512.000000	27.289967
1513.000000	27.315533
1514.000000	27.356800
1515.000000	27.383400
1516.000000	27.409633
1517.000000	27.449733
1518.000000	27.487433
1519.000000	27.512567
1520.000000	27.540367
1521.000000	27.574433
1522.000000	27.599233
1523.000000	27.624100
1524.000000	27.654500
1525.000000	27.687300
1526.000000	27.705433
1527.000000	27.725700
1528.000000	27.753333
1529.000000	27.785833
1530.000000	27.800867
1531.000000	27.818300
1532.000000	27.832633
1533.000000	27.845300
1534.000000	27.868500
1535.000000	27.869033
1536.000000	27.878567
1537.000000	27.887133
1538.000000	27.883467
1539.000000	27.889533
1540.000000	27.893267
1541.000000	27.899533
1542.000000	27.905400
1543.000000	27.915467
1544.000000	27.902233
1545.000000	27.899733
1546.000000	27.908633
1547.000000	27.914467
1548.000000	27.916500
1549.000000	27.921433
1550.000000	27.939800
1551.000000	27.944533
1552.000000	27.953400
1553.000000	27.947633
1554.000000	27.952033
1555.000000	27.949533
1556.000000	27.933700
1557.000000	27.919967
1558.000000	27.914200
1559.000000	27.900933
1560.000000	27.888133
1561.000000	27.871133
1562.000000	27.828567
1563.000000	27.807000
1564.000000	27.780033
1565.000000	27.750333
1566.000000	27.725967
1567.000000	27.695367
1568.000000	27.681633
1569.000000	27.638967
1570.000000	27.598033
1571.000000	27.578600
1572.000000	27.561233
1573.000000	27.545567
1574.000000	27.546733
1575.000000	27.541633
1576.000000	27.531233
1577.000000	27.522167
1578.000000	27.515433
1579.000000	27.516133
1580.000000	27.538767
1581.000000	27.552833
1582.000000	27.569967
1583.000000	27.577533
1584.000000	27.598667
1585.000000	27.628467
1586.000000	27.666500
1587.000000	27.693433
1588.000000	27.731367
1589.000000	27.770467
1590.000000	27.804033
1591.000000	27.841367
1592.000000	27.902033
1593.000000	27.949067
1594.000000	27.996700
1595.000000	28.049267
1596.000000	28.101333
1597.000000	28.151067
1598.000000	28.222433
1599.000000	28.279067
1600.000000	28.346133
1601.000000	28.409933
1602.000000	28.474267
1603.000000	28.557700
1604.000000	28.633933
1605.000000	28.702533
1606.000000	28.783233
1607.000000	28.842333
1608.000000	28.909800
1609.000000	28.991433
1610.000000	29.066233
1611.000000	29.139867
1612.000000	29.211533
1613.000000	29.299600
1614.000000	29.367500
1615.000000	29.449500
1616.000000	29.539933
1617.000000	29.612133
1618.000000	29.711600
1619.000000	29.788333
1620.000000	29.867333
1621.000000	29.962333
1622.000000	30.039233
1623.000000	30.137267
1624.000000	30.210367
1625.000000	30.314467
1626.000000	30.403900
1627.000000	30.493400
1628.000000	30.581433
1629.000000	30.667200
1630.000000	30.762233
1631.000000	30.861733
1632.000000	30.951233
1633.000000	31.020933
1634.000000	31.110600
1635.000000	31.185200
1636.000000	31.275900
1637.000000	31.351000
1638.000000	31.414233
1639.000000	31.490133
1640.000000	31.558067
1641.000000	31.630500
1642.000000	31.689267
1643.000000	31.771900
1644.000000	31.818600
1645.000000	31.875233
1646.000000	31.948367
1647.000000	31.998267
1648.000000	32.047767
1649.000000	32.103267
1650.000000	32.149367
1651.000000	32.166500
1652.000000	32.192033
1653.000000	32.219933
1654.000000	32.234833
1655.000000	32.243400
1656.000000	32.246233
1657.000000	32.238133
1658.000000	32.216300
1659.000000	32.187567
1660.000000	32.169333
1661.000000	32.116700
1662.000000	32.079267
1663.000000	32.010167
1664.000000	31.943300
1665.000000	31.854067
1666.000000	31.755200
1667.000000	31.655200
1668.000000	31.522467
1669.000000	31.376333
1670.000000	31.210500
1671.000000	31.001867
1672.000000	30.763733
1673.000000	30.507233
1674.000000	30.200000
1675.000000	29.821100
1676.000000	29.415767
1677.000000	28.921933
1678.000000	28.382933
1679.000000	27.776567
1680.000000	27.181967
1681.000000	26.601400
1682.000000	26.115200
1683.000000	25.757567
1684.000000	25.545233
1685.000000	25.446433
1686.000000	25.426333
1687.000000	25.421533
1688.000000	25.384633
1689.000000	25.320633
1690.000000	25.192567
1691.000000	25.023233
1692.000000	24.830667
1693.000000	24.656333
1694.000000	24.501867
1695.000000	24.440333
1696.000000	24.435967
1697.000000	24.479300
1698.000000	24.605800
1699.000000	24.767167
1700.000000	24.935333
1701.000000	25.089867
1702.000000	25.237633
1703.000000	25.358167
1704.000000	25.443167
1705.000000	25.502167
1706.000000	25.550033
1707.000000	25.593167
1708.000000	25.613333
1709.000000	25.627167
1710.000000	25.628267
1711.000000	25.621200
1712.000000	25.593100
1713.000000	25.550700
1714.000000	25.487800
1715.000000	25.437067
1716.000000	25.375133
1717.000000	25.315433
1718.000000	25.287067
1719.000000	25.246767
1720.000000	25.229767
1721.000000	25.243100
1722.000000	25.222867
1723.000000	25.188133
1724.000000	25.163767
1725.000000	25.099867
1726.000000	25.022833
1727.000000	24.914633
1728.000000	24.780533
1729.000000	24.662467
1730.000000	24.533067
1731.000000	24.399600
1732.000000	24.300067
1733.000000	24.249167
1734.000000	24.239533
1735.000000	24.266100
1736.000000	24.355033
1737.000000	24.501033
1738.000000	24.690867
1739.000000	24.927467
1740.000000	25.156400
1741.000000	25.415033
1742.000000	25.664467
1743.000000	25.891367
1744.000000	26.091933
1745.000000	26.259667
1746.000000	26.406167
1747.000000	26.538267
1748.000000	26.645233
1749.000000	26.744300
1750.000000	26.816733
1751.000000	26.876967
1752.000000	26.915800
1753.000000	26.929600
1754.000000	26.943400
1755.000000	26.930967
1756.000000	26.900033
1757.000000	26.860667
1758.000000	26.800833
1759.000000	26.714567
1760.000000	26.652633
1761.000000	26.603900
1762.000000	26.569900
1763.000000	26.563167
1764.000000	26.565767
1765.000000	26.611133
1766.000000	26.683567
1767.000000	26.769800
1768.000000	26.891133
1769.000000	27.027200
1770.000000	27.170067
1771.000000	27.299933
1772.000000	27.449767
1773.000000	27.599200
1774.000000	27.746900
1775.000000	27.880400
1776.000000	28.000400
1777.000000	28.109467
1778.000000	28.211667
1779.000000	28.322633
1780.000000	28.421633
1781.000000	28.508800
1782.000000	28.590900
1783.000000	28.683167
1784.000000	28.773933
1785.000000	28.858500
1786.000000	28.942000
1787.000000	29.009967
1788.000000	29.080833
1789.000000	29.159200
1790.000000	29.215367
1791.000000	29.267433
1792.000000	29.340367
1793.000000	29.398700
1794.000000	29.456600
1795.000000	29.517267
1796.000000	29.562233
1797.000000	29.619233
1798.000000	29.636200
1799.000000	29.675033
1800.000000	29.750700
1801.000000	29.822633
1802.000000	29.876900
1803.000000	29.913067
1804.000000	29.931567
1805.000000	29.990167
1806.000000	30.059933
1807.000000	30.123233
1808.000000	30.153000
1809.000000	30.186133
1810.000000	30.226233
1811.000000	30.269600
1812.000000	30.325367
1813.000000	30.339367
1814.000000	30.323867
1815.000000	30.350067
1816.000000	30.346700
1817.000000	30.348733
1818.000000	30.325700
1819.000000	30.333500
1820.000000	30.426600
1821.000000	30.518033
1822.000000	30.547133
1823.000000	30.520600
1824.000000	30.459400
1825.000000	30.512767
1826.000000	30.640167
1827.000000	30.697867
1828.000000	30.769700
1829.000000	30.853200
1830.000000	30.964167
1831.000000	31.081800
1832.000000	31.139033
1833.000000	31.171933
1834.000000	31.212367
1835.000000	31.316233
1836.000000	31.476867
1837.000000	31.573267
1838.000000	31.592933
1839.000000	31.589033
1840.000000	31.638600
1841.000000	31.739967
1842.000000	31.821767
1843.000000	31.796767
1844.000000	31.743433
1845.000000	31.703633
1846.000000	31.772333
1847.000000	31.985033
1848.000000	32.185967
1849.000000	32.198400
1850.000000	32.182400
1851.000000	32.164500
1852.000000	32.135867
1853.000000	32.265233
1854.000000	32.384767
1855.000000	32.354400
1856.000000	32.414967
1857.000000	32.420600
1858.000000	32.393533
1859.000000	32.444100
1860.000000	32.533100
1861.000000	32.438067
1862.000000	32.325700
1863.000000	32.265200
1864.000000	32.207200
1865.000000	32.113233
1866.000000	31.958100
1867.000000	31.960533
1868.000000	31.921467
1869.000000	31.708000
1870.000000	31.530733
1871.000000	31.382433
1872.000000	31.148733
1873.000000	30.941200
1874.000000	30.591733
1875.000000	30.224000
1876.000000	29.890567
1877.000000	29.549433
1878.000000	29.065833
1879.000000	28.626967
1880.000000	28.148633
1881.000000	27.668067
1882.000000	27.140733
1883.000000	26.684300
1884.000000	26.242033
1885.000000	25.781733
1886.000000	25.360400
1887.000000	24.969400
1888.000000	24.617933
1889.000000	24.295067
1890.000000	24.011400
1891.000000	23.690600
1892.000000	23.395333
1893.000000	23.089500
1894.000000	22.751167
1895.000000	22.438133
1896.000000	22.184133
1897.000000	21.883900
1898.000000	21.622367
1899.000000	21.386233
1900.000000	21.137933
1901.000000	20.757700
1902.000000	20.535667
1903.000000	20.264600
1904.000000	20.017967
1905.000000	19.854500
1906.000000	19.608167
1907.000000	19.322467
1908.000000	18.989000
1909.000000	18.738700
1910.000000	18.551900
1911.000000	18.352933
1912.000000	18.138200
1913.000000	17.934967
1914.000000	17.747100
1915.000000	17.521233
1916.000000	17.375800
1917.000000	17.129467
1918.000000	16.930833
1919.000000	16.813033
1920.000000	16.726667
1921.000000	16.519500
1922.000000	16.344533
1923.000000	16.227767
1924.000000	16.104500
1925.000000	15.969300
1926.000000	15.818933
1927.000000	15.719467
1928.000000	15.639567
1929.000000	15.566800
1930.000000	15.486133
1931.000000	15.422233
1932.000000	15.333800
1933.000000	15.286400
1934.000000	15.253267
1935.000000	15.208800
1936.000000	15.148733
1937.000000	15.127800
1938.000000	15.145233
1939.000000	15.160767
1940.000000	15.171067
1941.000000	15.152633
1942.000000	15.148233
1943.000000	15.133100
1944.000000	15.157900
1945.000000	15.175433
1946.000000	15.237167
1947.000000	15.263200
1948.000000	15.309533
1949.000000	15.355400
1950.000000	15.387800
1951.000000	15.457033
1952.000000	15.518300
1953.000000	15.564333
1954.000000	15.634267
1955.000000	15.684300
1956.000000	15.756533
1957.000000	15.841733
1958.000000	15.888533
1959.000000	15.953133
1960.000000	16.011533
1961.000000	16.070600
1962.000000	16.127467
1963.000000	16.202633
1964.000000	16.269767
1965.000000	16.328833
1966.000000	16.390900
1967.000000	16.465333
1968.000000	16.538100
1969.000000	16.597133
1970.000000	16.659800
1971.000000	16.741967
1972.000000	16.825867
1973.000000	16.886767
1974.000000	16.949700
1975.000000	17.029500
1976.000000	17.078967
1977.000000	17.156433
1978.000000	17.248300
1979.000000	17.321167
1980.000000	17.393400
1981.000000	17.461867
1982.000000	17.537600
1983.000000	17.622867
1984.000000	17.675800
1985.000000	17.735467
1986.000000	17.820300
1987.000000	17.887433
1988.000000	17.941367
1989.000000	18.021467
1990.000000	18.085033
1991.000000	18.141667
1992.000000	18.187400
1993.000000	18.232867
1994.000000	18.283600
1995.000000	18.349167
1996.000000	18.413467
1997.000000	18.468200
1998.000000	18.510200
1999.000000	18.520033
2000.000000	18.553800
2001.000000	18.564367
2002.000000	18.590167
2003.000000	18.628133
2004.000000	18.655367
2005.000000	18.677233
2006.000000	18.676233
2007.000000	18.690867
2008.000000	18.666333
2009.000000	18.707000
2010.000000	18.739033
2011.000000	18.706133
2012.000000	18.662833
2013.000000	18.665667
2014.000000	18.670867
2015.000000	18.634267
2016.000000	18.571300
2017.000000	18.519633
2018.000000	18.497067
2019.000000	18.466167
2020.000000	18.443233
2021.000000	18.374533
2022.000000	18.298233
2023.000000	18.269567
2024.000000	18.236367
2025.000000	18.207000
2026.000000	18.113767
2027.000000	18.047300
2028.000000	17.951367
2029.000000	17.889967
2030.000000	17.831867
2031.000000	17.749900
2032.000000	17.650100
2033.000000	17.569867
2034.000000	17.524200
2035.000000	17.411333
2036.000000	17.308933
2037.000000	17.249667
2038.000000	17.158667
2039.000000	17.028367
2040.000000	16.889633
2041.000000	16.793800
2042.000000	16.670333
2043.000000	16.553800
2044.000000	16.426000
2045.000000	16.299933
2046.000000	16.246200
2047.000000	16.094933
2048.000000	15.980767
2049.000000	15.890833
2050.000000	15.864133
2051.000000	15.751500
2052.000000	15.657433
2053.000000	15.622133
2054.000000	15.584933
2055.000000	15.535933
2056.000000	15.513900
2057.000000	15.447500
2058.000000	15.456567
2059.000000	15.509067
2060.000000	15.546833
2061.000000	15.425800
2062.000000	15.435833
2063.000000	15.493300
2064.000000	15.465867
2065.000000	15.539000
2066.000000	15.490867
2067.000000	15.600233
2068.000000	15.569500
2069.000000	15.545933
2070.000000	15.627233
2071.000000	15.739567
2072.000000	15.723167
2073.000000	15.653867
2074.000000	15.682567
2075.000000	15.756533
2076.000000	15.804367
2077.000000	15.778367
2078.000000	15.805133
2079.000000	15.849833
2080.000000	15.951233
2081.000000	15.960667
2082.000000	15.860733
2083.000000	15.973300
2084.000000	16.008600
2085.000000	16.095933
2086.000000	16.018100
2087.000000	16.006767
2088.000000	15.962300
2089.000000	16.082600
2090.000000	16.088367
2091.000000	16.041767
2092.000000	16.108500
2093.000000	16.130367
2094.000000	16.186667
2095.000000	16.193067
2096.000000	16.158967
2097.000000	16.185700
2098.000000	16.245200
2099.000000	16.263900
2100.000000	16.280267
2101.000000	16.450867
2102.000000	16.367400
2103.000000	16.305067
2104.000000	16.530033
2105.000000	16.500233
2106.000000	16.521733
2107.000000	16.622833
2108.000000	16.636700
2109.000000	16.748800
2110.000000	16.680400
2111.000000	16.772567
2112.000000	16.700267
2113.000000	16.659500
2114.000000	16.803167
2115.000000	16.869300
2116.000000	16.862467
2117.000000	16.891133
2118.000000	16.907833
2119.000000	16.927400
2120.000000	16.917100
2121.000000	17.068633
2122.000000	17.071467
2123.000000	16.910700
2124.000000	17.021533
2125.000000	17.161167
2126.000000	17.078533
2127.000000	17.125067
2128.000000	17.068167
2129.000000	16.913500
2130.000000	17.236800
2131.000000	17.159500
2132.000000	17.078033
2133.000000	17.106333
2134.000000	16.992700
2135.000000	16.941600
2136.000000	17.066767
2137.000000	17.059100
2138.000000	17.006000
2139.000000	17.059533
2140.000000	17.123333
2141.000000	16.996700
2142.000000	17.076667
2143.000000	16.897700
2144.000000	16.917667
2145.000000	16.823433
2146.000000	16.801700
2147.000000	16.709233
2148.000000	16.724800
2149.000000	16.646533
2150.000000	16.803467
2151.000000	16.767133
2152.000000	16.643433
2153.000000	16.614800
2154.000000	16.639167
2155.000000	16.562000
2156.000000	16.479033
2157.000000	16.476867
2158.000000	16.381767
2159.000000	16.341367
2160.000000	16.502933
2161.000000	16.419367
2162.000000	16.436100
2163.000000	16.447133
2164.000000	16.368633
2165.000000	16.211500
2166.000000	16.334067
2167.000000	16.298433
2168.000000	16.256633
2169.000000	16.305300
2170.000000	16.252167
2171.000000	16.250467
2172.000000	16.172033
2173.000000	16.144167
2174.000000	16.162167
2175.000000	16.250600
2176.000000	16.193700
2177.000000	16.194833
2178.000000	16.255100
2179.000000	16.290300
2180.000000	16.319200
2181.000000	16.300867
2182.000000	16.160300
2183.000000	16.195267
2184.000000	16.181900
2185.000000	16.284000
2186.000000	16.206500
2187.000000	16.255833
2188.000000	16.250300
2189.000000	16.384933
2190.000000	16.282167
2191.000000	16.295933
2192.000000	16.299567
2193.000000	16.250800
2194.000000	16.350933
2195.000000	16.369733
2196.000000	16.299267
2197.000000	16.357733
2198.000000	16.418467
2199.000000	16.375500
2200.000000	16.386533
2201.000000	16.431867
2202.000000	16.462467
2203.000000	16.467433
2204.000000	16.340333
2205.000000	16.457833
2206.000000	16.551633
2207.000000	16.468033
2208.000000	16.467133
2209.000000	16.508900
2210.000000	16.555533
2211.000000	16.444600
2212.000000	16.454000
2213.000000	16.517267
2214.000000	16.587667
2215.000000	16.540267
2216.000000	16.573767
2217.000000	16.574533
2218.000000	16.604133
2219.000000	16.681700
2220.000000	16.725833
2221.000000	16.771100
2222.000000	16.720433
2223.000000	16.705500
2224.000000	16.690267
2225.000000	16.677100
2226.000000	16.659500
2227.000000	16.670900
2228.000000	16.675567
2229.000000	16.616900
2230.000000	16.611133
2231.000000	16.562900
2232.000000	16.498500
2233.000000	16.394600
2234.000000	16.349667
2235.000000	16.303667
2236.000000	16.129133
2237.000000	16.106667
2238.000000	16.029600
2239.000000	16.002100
2240.000000	15.921400
2241.000000	15.835567
2242.000000	15.717933
2243.000000	15.555867
2244.000000	15.388200
2245.000000	15.183733
2246.000000	15.146700
2247.000000	14.991667
2248.000000	14.655600
2249.000000	14.511433
2250.000000	14.388667
2251.000000	14.098033
2252.000000	13.822400
2253.000000	13.681700
2254.000000	13.459367
2255.000000	13.267867
2256.000000	12.984033
2257.000000	12.740333
2258.000000	12.531100
2259.000000	12.262233
2260.000000	11.964000
2261.000000	11.752800
2262.000000	11.577700
2263.000000	11.372033
2264.000000	11.211433
2265.000000	11.086633
2266.000000	10.962500
2267.000000	10.867300
2268.000000	10.761867
2269.000000	10.749433
2270.000000	10.808100
2271.000000	10.815800
2272.000000	10.780733
2273.000000	10.739100
2274.000000	10.687567
2275.000000	10.727700
2276.000000	10.768533
2277.000000	10.813067
2278.000000	10.872200
2279.000000	10.915933
2280.000000	11.072833
2281.000000	11.127333
2282.000000	11.031000
2283.000000	11.009667
2284.000000	11.069900
2285.000000	11.271100
2286.000000	11.399433
2287.000000	11.425500
2288.000000	11.354700
2289.000000	11.293067
2290.000000	11.286500
2291.000000	11.224400
2292.000000	11.183967
2293.000000	11.084267
2294.000000	11.070733
2295.000000	10.995900
2296.000000	10.891333
2297.000000	10.760867
2298.000000	10.798700
2299.000000	10.774000
2300.000000	10.443233
2301.000000	10.504900
2302.000000	10.527533
2303.000000	10.427533
2304.000000	10.282767
2305.000000	10.136133
2306.000000	10.101600
2307.000000	10.203067
2308.000000	10.338133
2309.000000	10.246833
2310.000000	10.273900
2311.000000	10.354567
2312.000000	10.405100
2313.000000	10.483300
2314.000000	10.629467
2315.000000	10.827833
2316.000000	11.008400
2317.000000	11.038233
2318.000000	11.227600
2319.000000	11.348133
2320.000000	11.432467
2321.000000	11.650400
2322.000000	11.642333
2323.000000	11.655000
2324.000000	11.885233
2325.000000	12.031067
2326.000000	12.025467
2327.000000	12.112667
2328.000000	12.233667
2329.000000	12.270333
2330.000000	12.459333
2331.000000	12.436467
2332.000000	12.634500
2333.000000	12.583567
2334.000000	12.498167
2335.000000	12.635400
2336.000000	12.472733
2337.000000	12.648867
2338.000000	12.702167
2339.000000	12.647367
2340.000000	12.621933
2341.000000	12.688533
2342.000000	12.607867
2343.000000	12.454667
2344.000000	11.996433
2345.000000	12.241333
2346.000000	12.257167
2347.000000	12.303467
2348.000000	11.859833
2349.000000	11.913400
2350.000000	12.161333
2351.000000	12.259000
2352.000000	12.008567
2353.000000	11.820533
2354.000000	12.104433
2355.000000	12.071333
2356.000000	12.009933
2357.000000	12.252567
2358.000000	12.355400
2359.000000	12.212567
2360.000000	12.466033
2361.000000	12.485167
2362.000000	12.763133
2363.000000	12.855600
2364.000000	12.849267
2365.000000	12.714067
2366.000000	12.873200
2367.000000	12.937767
2368.000000	13.040533
2369.000000	13.130533
2370.000000	13.081133
2371.000000	13.108500
2372.000000	13.316600
2373.000000	12.992900
2374.000000	13.150933
2375.000000	13.159767
2376.000000	13.091000
2377.000000	13.174600
2378.000000	13.328167
2379.000000	13.154100
2380.000000	13.390167
2381.000000	13.500933
2382.000000	13.488533
2383.000000	13.384467
2384.000000	13.026300
2385.000000	13.445800
2386.000000	13.147767
2387.000000	13.453667
2388.000000	13.033467
2389.000000	13.208967
2390.000000	13.241800
2391.000000	12.987133
2392.000000	13.201700
2393.000000	13.089167
2394.000000	13.382933
2395.000000	13.146700
2396.000000	12.962233
2397.000000	12.851333
2398.000000	12.883133
2399.000000	13.331067
2400.000000	13.081000
2401.000000	10.715900
2402.000000	10.686450
2403.000000	10.650950
2404.000000	10.631750
2405.000000	10.596350
2406.000000	10.562900
2407.000000	10.531400
2408.000000	10.509550
2409.000000	10.485050
2410.000000	10.452850
2411.000000	10.412800
2412.000000	10.382500
2413.000000	10.363700
2414.000000	10.316900
2415.000000	10.286450
2416.000000	10.250900
2417.000000	10.228250
2418.000000	10.198050
2419.000000	10.170450
2420.000000	10.130850
2421.000000	10.092800
2422.000000	10.047200
2423.000000	9.982450
2424.000000	9.914750
2425.000000	9.848400
2426.000000	9.795750
2427.000000	9.749050
2428.000000	9.718450
2429.000000	9.686850
2430.000000	9.649750
2431.000000	9.603450
2432.000000	9.553450
2433.000000	9.520100
2434.000000	9.477350
2435.000000	9.430100
2436.000000	9.384200
2437.000000	9.331300
2438.000000	9.258900
2439.000000	9.214300
2440.000000	9.155200
2441.000000	9.118350
2442.000000	9.040250
2443.000000	8.981800
2444.000000	8.913100
2445.000000	8.865150
2446.000000	8.795200
2447.000000	8.723450
2448.000000	8.655900
2449.000000	8.589000
2450.000000	8.549350
2451.000000	8.481050
2452.000000	8.428200
2453.000000	8.361650
2454.000000	8.312450
2455.000000	8.254350
2456.000000	8.216550
2457.000000	8.178800
2458.000000	8.115000
2459.000000	8.079000
2460.000000	8.047000
2461.000000	8.017750
2462.000000	7.977200
2463.000000	7.944600
2464.000000	7.920900
2465.000000	7.927600
2466.000000	7.903750
2467.000000	7.882400
2468.000000	7.881150
2469.000000	7.884500
2470.000000	7.845700
2471.000000	7.836450
2472.000000	7.846400
2473.000000	7.879200
2474.000000	7.847350
2475.000000	7.852000
2476.000000	7.840250
2477.000000	7.818750
2478.000000	7.871950
2479.000000	7.882100
2480.000000	7.895750
2481.000000	7.828400
2482.000000	7.855050
2483.000000	7.846050
2484.000000	7.850850
2485.000000	7.862350
2486.000000	7.905200
2487.000000	7.908050
2488.000000	7.864650
2489.000000	7.885200
2490.000000	7.923700
2491.000000	7.952900
2492.000000	7.925250
2493.000000	7.925800
2494.000000	7.946500
2495.000000	8.044450
2496.000000	8.026450
2497.000000	8.076550
2498.000000	8.078000
2499.000000	8.079350
2500.000000	8.106550
