PE UV       SUBTECH     SPECTRUM    ASCII       PEDS        4.00        
   -1
CICIMAUCR0021-3.Sample.ASC
24/04/17
14:19:58.00
24/04/17
14:19:58.00
Vinicio Soto Monge
C. resplendens. 
250,000000
1
Lambda 1050
1050L1511233
PerkinElmer UV WinLab 6.3.2.0749 / 2.02.05 Lambda 900 UV/VIS/NIR, Aug  7 2015 09:38:08

0
0
3350/servo 860,8/2
0
0
UV/VIS
1
1
1
DoubleDePol,CommonBeamDepol,RBeamAtt,SBeamAtt,60mm sphere, WB InGaAs Detector
0
0
0
0
Program
Program
3350/servo 860,8/2
3350/0,2 860,8/0,2
3350/0,2 860,8/0,2
0
15.00
 
 
 
0
 
860,8
319,2
860,8
Front
100
on
S:100 R:100
0
0
0
0
 
0
 
 
 
0
 
 
0
0
0
0
0
 
 
 
 
0
0


0
0
#HDR
-1
-1
#GR
nm
%R
1.0
0.0
2500,000000
-1,000000
2251
8
79,251800
5,023200
#DATA
250.000000	4.810733
251.000000	4.811067
252.000000	4.789733
253.000000	4.784733
254.000000	4.791533
255.000000	4.778300
256.000000	4.767100
257.000000	4.784533
258.000000	4.746667
259.000000	4.762067
260.000000	4.725000
261.000000	4.704700
262.000000	4.703633
263.000000	4.659867
264.000000	4.655500
265.000000	4.650700
266.000000	4.596200
267.000000	4.623333
268.000000	4.605300
269.000000	4.603867
270.000000	4.542467
271.000000	4.537067
272.000000	4.550467
273.000000	4.527033
274.000000	4.489000
275.000000	4.518667
276.000000	4.509867
277.000000	4.492800
278.000000	4.531367
279.000000	4.522467
280.000000	4.432033
281.000000	4.460267
282.000000	4.473233
283.000000	4.480533
284.000000	4.463933
285.000000	4.461033
286.000000	4.478333
287.000000	4.492900
288.000000	4.476367
289.000000	4.467200
290.000000	4.423900
291.000000	4.465900
292.000000	4.471967
293.000000	4.439233
294.000000	4.422800
295.000000	4.435100
296.000000	4.431400
297.000000	4.448233
298.000000	4.415333
299.000000	4.396767
300.000000	4.397333
301.000000	4.399800
302.000000	4.432133
303.000000	4.434533
304.000000	4.371000
305.000000	4.372467
306.000000	4.398633
307.000000	4.396567
308.000000	4.374233
309.000000	4.412833
310.000000	4.397467
311.000000	4.371667
312.000000	4.378533
313.000000	4.373633
314.000000	4.376600
315.000000	4.385000
316.000000	4.369200
317.000000	4.717467
318.000000	4.764567
319.000000	4.568967
320.000000	4.714933
321.000000	4.870200
322.000000	4.584767
323.000000	4.604467
324.000000	4.819133
325.000000	4.713600
326.000000	4.757700
327.000000	4.635533
328.000000	4.665567
329.000000	4.564500
330.000000	4.587000
331.000000	4.569100
332.000000	4.566600
333.000000	4.600400
334.000000	4.604333
335.000000	4.545167
336.000000	4.569233
337.000000	4.679833
338.000000	4.588900
339.000000	4.637633
340.000000	4.651133
341.000000	4.668233
342.000000	4.664900
343.000000	4.685133
344.000000	4.654167
345.000000	4.658433
346.000000	4.675767
347.000000	4.608533
348.000000	4.704067
349.000000	4.722867
350.000000	4.744767
351.000000	4.759533
352.000000	4.787733
353.000000	4.737867
354.000000	4.840433
355.000000	4.910000
356.000000	4.864600
357.000000	4.923400
358.000000	4.936533
359.000000	5.035333
360.000000	5.034433
361.000000	5.068567
362.000000	5.140033
363.000000	5.163033
364.000000	5.204567
365.000000	5.212200
366.000000	5.191267
367.000000	5.231967
368.000000	5.271000
369.000000	5.296100
370.000000	5.287567
371.000000	5.380733
372.000000	5.454867
373.000000	5.452600
374.000000	5.529900
375.000000	5.561133
376.000000	5.639133
377.000000	5.551000
378.000000	5.619067
379.000000	5.692933
380.000000	5.783700
381.000000	5.879833
382.000000	5.987867
383.000000	6.073600
384.000000	6.172900
385.000000	6.284767
386.000000	6.409967
387.000000	6.531300
388.000000	6.673000
389.000000	6.823533
390.000000	6.972467
391.000000	7.130133
392.000000	7.293633
393.000000	7.459567
394.000000	7.639567
395.000000	7.824467
396.000000	8.019867
397.000000	8.226767
398.000000	8.426933
399.000000	8.638333
400.000000	8.861100
401.000000	9.086700
402.000000	9.319533
403.000000	9.565467
404.000000	9.815800
405.000000	10.064367
406.000000	10.319300
407.000000	10.584333
408.000000	10.849500
409.000000	11.118533
410.000000	11.385133
411.000000	11.666233
412.000000	11.958233
413.000000	12.245200
414.000000	12.532200
415.000000	12.820367
416.000000	13.113367
417.000000	13.404700
418.000000	13.703733
419.000000	13.990800
420.000000	14.280500
421.000000	14.584033
422.000000	14.875333
423.000000	15.172467
424.000000	15.466833
425.000000	15.745567
426.000000	16.024367
427.000000	16.297667
428.000000	16.554133
429.000000	16.807633
430.000000	17.060667
431.000000	17.303533
432.000000	17.547967
433.000000	17.793300
434.000000	18.024733
435.000000	18.251833
436.000000	18.468233
437.000000	18.669833
438.000000	18.861000
439.000000	19.050667
440.000000	19.236600
441.000000	19.410367
442.000000	19.567433
443.000000	19.729167
444.000000	19.883667
445.000000	19.995933
446.000000	20.096467
447.000000	20.198767
448.000000	20.290633
449.000000	20.383533
450.000000	20.477433
451.000000	20.559167
452.000000	20.622367
453.000000	20.682467
454.000000	20.745233
455.000000	20.790467
456.000000	20.824100
457.000000	20.870900
458.000000	20.904533
459.000000	20.925100
460.000000	20.952400
461.000000	20.969567
462.000000	20.983933
463.000000	20.997733
464.000000	21.009967
465.000000	21.021033
466.000000	21.029133
467.000000	21.027367
468.000000	21.037367
469.000000	21.042500
470.000000	21.042367
471.000000	21.042800
472.000000	21.036367
473.000000	21.021833
474.000000	21.014700
475.000000	21.020800
476.000000	21.019367
477.000000	21.012700
478.000000	21.020067
479.000000	21.033333
480.000000	21.090567
481.000000	21.178633
482.000000	21.278533
483.000000	21.392067
484.000000	21.498600
485.000000	21.617933
486.000000	21.766100
487.000000	21.952800
488.000000	22.164133
489.000000	22.391667
490.000000	22.659400
491.000000	22.957433
492.000000	23.287767
493.000000	23.655733
494.000000	24.060400
495.000000	24.481300
496.000000	24.922967
497.000000	25.395733
498.000000	25.896767
499.000000	26.419067
500.000000	26.974800
501.000000	27.531800
502.000000	28.098767
503.000000	28.682833
504.000000	29.278100
505.000000	29.894133
506.000000	30.497633
507.000000	31.091167
508.000000	31.696267
509.000000	32.297533
510.000000	32.901567
511.000000	33.510267
512.000000	34.125767
513.000000	34.725667
514.000000	35.320500
515.000000	35.920700
516.000000	36.519367
517.000000	37.118667
518.000000	37.719633
519.000000	38.323467
520.000000	38.946067
521.000000	39.568533
522.000000	40.190300
523.000000	40.829667
524.000000	41.481100
525.000000	42.154000
526.000000	42.817600
527.000000	43.479500
528.000000	44.136100
529.000000	44.810167
530.000000	45.489833
531.000000	46.184067
532.000000	46.878033
533.000000	47.557833
534.000000	48.229367
535.000000	48.908967
536.000000	49.576433
537.000000	50.235200
538.000000	50.864467
539.000000	51.472300
540.000000	52.129600
541.000000	52.732200
542.000000	53.344533
543.000000	53.932767
544.000000	54.488767
545.000000	55.026867
546.000000	55.530600
547.000000	56.014767
548.000000	56.494133
549.000000	56.965867
550.000000	57.403933
551.000000	57.809933
552.000000	58.222333
553.000000	58.562200
554.000000	58.915033
555.000000	59.254300
556.000000	59.562367
557.000000	59.867100
558.000000	60.142733
559.000000	60.393233
560.000000	60.107900
561.000000	60.279200
562.000000	60.495100
563.000000	60.669133
564.000000	60.856767
565.000000	61.038000
566.000000	61.193533
567.000000	61.351033
568.000000	61.464267
569.000000	61.608400
570.000000	61.689733
571.000000	61.786433
572.000000	61.868367
573.000000	61.923567
574.000000	61.949467
575.000000	62.002900
576.000000	62.013933
577.000000	62.050833
578.000000	62.047900
579.000000	62.043433
580.000000	62.035100
581.000000	61.998600
582.000000	61.955333
583.000000	61.912000
584.000000	61.834200
585.000000	61.764433
586.000000	61.700633
587.000000	61.642600
588.000000	61.516700
589.000000	61.410267
590.000000	61.275433
591.000000	61.129700
592.000000	60.948367
593.000000	60.781033
594.000000	60.613333
595.000000	60.415567
596.000000	60.198433
597.000000	59.979767
598.000000	59.722533
599.000000	59.491200
600.000000	59.253167
601.000000	58.962533
602.000000	58.711700
603.000000	58.438133
604.000000	58.140767
605.000000	57.820067
606.000000	57.555133
607.000000	57.287733
608.000000	56.984733
609.000000	56.678867
610.000000	56.380033
611.000000	56.075633
612.000000	55.778533
613.000000	55.458400
614.000000	55.144500
615.000000	54.870233
616.000000	54.540633
617.000000	54.211533
618.000000	53.882500
619.000000	53.546900
620.000000	53.253933
621.000000	52.903500
622.000000	52.573433
623.000000	52.227033
624.000000	51.870733
625.000000	51.525967
626.000000	51.181967
627.000000	50.841267
628.000000	50.519367
629.000000	50.175200
630.000000	49.814033
631.000000	49.460267
632.000000	49.117200
633.000000	48.764767
634.000000	48.456233
635.000000	48.185467
636.000000	47.923367
637.000000	47.640833
638.000000	47.380900
639.000000	47.089600
640.000000	46.853300
641.000000	46.583067
642.000000	46.318400
643.000000	46.046133
644.000000	45.821867
645.000000	45.564500
646.000000	45.316233
647.000000	45.032333
648.000000	44.774767
649.000000	44.511267
650.000000	44.247533
651.000000	44.050800
652.000000	43.825433
653.000000	43.615767
654.000000	43.421767
655.000000	43.271533
656.000000	43.147167
657.000000	43.030500
658.000000	42.947967
659.000000	42.853333
660.000000	42.786300
661.000000	42.762900
662.000000	42.740500
663.000000	42.715967
664.000000	42.727867
665.000000	42.763100
666.000000	42.793833
667.000000	42.835667
668.000000	42.915133
669.000000	42.992267
670.000000	43.075333
671.000000	43.178333
672.000000	43.291200
673.000000	43.430100
674.000000	43.600267
675.000000	43.813133
676.000000	43.998767
677.000000	44.194767
678.000000	44.396467
679.000000	44.622700
680.000000	44.873067
681.000000	45.133000
682.000000	45.391333
683.000000	45.686000
684.000000	45.963267
685.000000	46.242333
686.000000	46.532433
687.000000	46.781233
688.000000	47.014500
689.000000	47.315433
690.000000	47.595967
691.000000	47.910900
692.000000	48.184567
693.000000	48.441100
694.000000	48.725667
695.000000	48.970467
696.000000	49.199167
697.000000	49.444567
698.000000	49.671567
699.000000	49.900633
700.000000	50.132600
701.000000	50.340167
702.000000	50.541833
703.000000	50.743267
704.000000	50.955633
705.000000	51.144233
706.000000	51.329467
707.000000	51.511833
708.000000	51.717867
709.000000	51.877267
710.000000	52.041267
711.000000	52.226200
712.000000	52.369900
713.000000	52.506400
714.000000	52.658233
715.000000	52.807533
716.000000	52.959633
717.000000	53.093567
718.000000	53.240200
719.000000	53.385033
720.000000	53.521800
721.000000	53.650900
722.000000	53.760600
723.000000	53.890533
724.000000	54.013900
725.000000	54.130367
726.000000	54.247767
727.000000	54.371233
728.000000	54.481533
729.000000	54.598700
730.000000	54.695000
731.000000	54.804700
732.000000	54.939433
733.000000	55.072233
734.000000	55.207400
735.000000	55.317500
736.000000	55.412300
737.000000	55.538567
738.000000	55.679700
739.000000	55.808567
740.000000	55.943500
741.000000	56.060933
742.000000	56.183267
743.000000	56.315333
744.000000	56.422467
745.000000	56.524500
746.000000	56.640067
747.000000	56.765800
748.000000	56.900867
749.000000	57.027733
750.000000	57.128733
751.000000	57.247467
752.000000	57.399633
753.000000	57.493100
754.000000	57.628800
755.000000	57.792000
756.000000	57.886900
757.000000	58.009833
758.000000	58.126633
759.000000	58.271267
760.000000	58.459500
761.000000	58.573067
762.000000	58.699600
763.000000	58.875633
764.000000	59.026267
765.000000	59.166667
766.000000	59.314567
767.000000	59.463233
768.000000	59.585333
769.000000	59.706867
770.000000	59.865333
771.000000	60.036967
772.000000	60.182533
773.000000	60.321033
774.000000	60.510433
775.000000	60.657033
776.000000	60.780400
777.000000	60.957500
778.000000	61.108467
779.000000	61.247033
780.000000	61.389233
781.000000	61.521633
782.000000	61.684000
783.000000	61.792633
784.000000	61.956567
785.000000	62.109767
786.000000	62.248167
787.000000	62.318500
788.000000	62.450567
789.000000	62.537300
790.000000	62.595900
791.000000	62.691433
792.000000	62.768600
793.000000	62.888767
794.000000	62.940600
795.000000	63.021133
796.000000	63.046800
797.000000	63.138633
798.000000	63.147533
799.000000	63.214400
800.000000	63.288367
801.000000	63.280700
802.000000	63.318300
803.000000	63.339200
804.000000	63.325700
805.000000	63.323267
806.000000	63.308267
807.000000	63.250333
808.000000	63.304467
809.000000	63.330433
810.000000	63.246067
811.000000	63.172767
812.000000	63.105033
813.000000	63.082000
814.000000	62.991433
815.000000	62.951333
816.000000	62.921233
817.000000	62.802000
818.000000	62.788767
819.000000	62.695933
820.000000	62.584233
821.000000	62.546700
822.000000	62.464100
823.000000	62.340667
824.000000	62.212033
825.000000	62.225833
826.000000	62.075167
827.000000	61.980733
828.000000	61.940900
829.000000	61.790033
830.000000	61.593433
831.000000	61.518833
832.000000	61.412567
833.000000	61.230567
834.000000	61.106900
835.000000	61.053033
836.000000	60.936233
837.000000	60.750767
838.000000	60.706300
839.000000	60.519067
840.000000	60.373567
841.000000	60.190600
842.000000	60.058600
843.000000	59.826133
844.000000	59.769033
845.000000	59.673733
846.000000	59.395600
847.000000	59.140633
848.000000	59.089067
849.000000	58.725567
850.000000	58.574200
851.000000	58.487200
852.000000	58.379633
853.000000	58.026000
854.000000	57.830100
855.000000	57.568033
856.000000	57.381200
857.000000	57.351467
858.000000	57.433567
859.000000	56.232709
860.000000	56.214706
861.000000	56.222876
862.000000	56.258426
863.000000	56.268534
864.000000	56.240963
865.000000	56.226750
866.000000	56.188785
867.000000	56.149902
868.000000	56.122351
869.000000	56.088415
870.000000	56.048186
871.000000	55.988175
872.000000	55.974515
873.000000	55.891056
874.000000	55.889309
875.000000	55.824343
876.000000	55.794372
877.000000	55.730038
878.000000	55.675382
879.000000	55.600238
880.000000	55.563751
881.000000	55.496008
882.000000	55.381719
883.000000	55.301250
884.000000	55.250905
885.000000	55.153139
886.000000	55.064142
887.000000	54.957220
888.000000	54.843802
889.000000	54.794044
890.000000	54.705291
891.000000	54.591366
892.000000	54.487880
893.000000	54.392465
894.000000	54.295228
895.000000	54.191567
896.000000	54.072338
897.000000	53.979431
898.000000	53.879853
899.000000	53.697838
900.000000	53.584918
901.000000	53.486398
902.000000	53.405316
903.000000	53.305601
904.000000	53.217373
905.000000	53.082114
906.000000	52.981886
907.000000	52.883148
908.000000	52.806560
909.000000	52.711525
910.000000	52.575635
911.000000	52.528534
912.000000	52.473732
913.000000	52.423394
914.000000	52.354985
915.000000	52.268282
916.000000	52.198245
917.000000	52.122100
918.000000	52.053955
919.000000	52.000657
920.000000	51.938520
921.000000	51.868295
922.000000	51.805592
923.000000	51.735862
924.000000	51.684012
925.000000	51.644820
926.000000	51.626027
927.000000	51.546991
928.000000	51.497321
929.000000	51.472128
930.000000	51.429875
931.000000	51.370223
932.000000	51.334454
933.000000	51.264855
934.000000	51.212755
935.000000	51.161375
936.000000	51.117430
937.000000	51.075945
938.000000	51.057347
939.000000	51.023471
940.000000	51.000473
941.000000	51.001575
942.000000	51.009811
943.000000	50.993859
944.000000	50.969873
945.000000	50.948302
946.000000	50.916635
947.000000	50.949475
948.000000	50.957850
949.000000	50.932746
950.000000	50.922768
951.000000	50.930029
952.000000	50.905985
953.000000	50.891176
954.000000	50.892210
955.000000	50.892549
956.000000	50.884164
957.000000	50.854711
958.000000	50.841493
959.000000	50.823994
960.000000	50.817108
961.000000	50.784726
962.000000	50.745974
963.000000	50.736597
964.000000	50.724504
965.000000	50.719530
966.000000	50.693728
967.000000	50.672930
968.000000	50.681724
969.000000	50.680062
970.000000	50.655468
971.000000	50.641950
972.000000	50.623481
973.000000	50.615431
974.000000	50.615412
975.000000	50.596580
976.000000	50.561258
977.000000	50.550623
978.000000	50.539522
979.000000	50.532170
980.000000	50.523342
981.000000	50.507990
982.000000	50.497327
983.000000	50.493091
984.000000	50.481615
985.000000	50.464588
986.000000	50.447463
987.000000	50.441874
988.000000	50.444841
989.000000	50.431059
990.000000	50.424807
991.000000	50.422339
992.000000	50.426149
993.000000	50.428207
994.000000	50.437878
995.000000	50.447038
996.000000	50.444761
997.000000	50.445638
998.000000	50.459893
999.000000	50.460186
1000.000000	50.458339
1001.000000	50.473500
1002.000000	50.481901
1003.000000	50.497375
1004.000000	50.510772
1005.000000	50.511395
1006.000000	50.519393
1007.000000	50.535923
1008.000000	50.546704
1009.000000	50.562455
1010.000000	50.565797
1011.000000	50.577121
1012.000000	50.597588
1013.000000	50.624118
1014.000000	50.655115
1015.000000	50.685885
1016.000000	50.719033
1017.000000	50.764678
1018.000000	50.820643
1019.000000	50.856464
1020.000000	50.903297
1021.000000	50.966791
1022.000000	51.016267
1023.000000	51.073191
1024.000000	51.137551
1025.000000	51.184596
1026.000000	51.240449
1027.000000	51.299887
1028.000000	51.346750
1029.000000	51.393673
1030.000000	51.448862
1031.000000	51.502854
1032.000000	51.548633
1033.000000	51.598484
1034.000000	51.652687
1035.000000	51.700636
1036.000000	51.739399
1037.000000	51.781277
1038.000000	51.824076
1039.000000	51.866023
1040.000000	51.905281
1041.000000	51.944322
1042.000000	51.982029
1043.000000	52.018082
1044.000000	52.065245
1045.000000	52.114575
1046.000000	52.156314
1047.000000	52.210503
1048.000000	52.266404
1049.000000	52.308680
1050.000000	52.358381
1051.000000	52.405966
1052.000000	52.452215
1053.000000	52.490487
1054.000000	52.543186
1055.000000	52.602751
1056.000000	52.664153
1057.000000	52.729319
1058.000000	52.786366
1059.000000	52.852032
1060.000000	52.911011
1061.000000	52.967698
1062.000000	53.025884
1063.000000	53.083342
1064.000000	53.145326
1065.000000	53.195016
1066.000000	53.250475
1067.000000	53.305423
1068.000000	53.366518
1069.000000	53.421278
1070.000000	53.474897
1071.000000	53.534816
1072.000000	53.584744
1073.000000	53.631784
1074.000000	53.693678
1075.000000	53.748680
1076.000000	53.800755
1077.000000	53.861018
1078.000000	53.923048
1079.000000	53.974947
1080.000000	54.029845
1081.000000	54.092985
1082.000000	54.151996
1083.000000	54.211618
1084.000000	54.262190
1085.000000	54.334403
1086.000000	54.393004
1087.000000	54.445073
1088.000000	54.495077
1089.000000	54.555699
1090.000000	54.610242
1091.000000	54.660496
1092.000000	54.708576
1093.000000	54.753828
1094.000000	54.819494
1095.000000	54.856651
1096.000000	54.897789
1097.000000	54.938620
1098.000000	54.998564
1099.000000	55.049353
1100.000000	55.081878
1101.000000	55.115945
1102.000000	55.162943
1103.000000	55.201735
1104.000000	55.247199
1105.000000	55.277205
1106.000000	55.314817
1107.000000	55.340962
1108.000000	55.368110
1109.000000	55.411526
1110.000000	55.443757
1111.000000	55.470034
1112.000000	55.487585
1113.000000	55.522451
1114.000000	55.549364
1115.000000	55.580412
1116.000000	55.628384
1117.000000	55.640075
1118.000000	55.655695
1119.000000	55.658258
1120.000000	55.656685
1121.000000	55.663792
1122.000000	55.655372
1123.000000	55.621832
1124.000000	55.587212
1125.000000	55.548337
1126.000000	55.488478
1127.000000	55.436888
1128.000000	55.373753
1129.000000	55.269536
1130.000000	55.132119
1131.000000	54.976609
1132.000000	54.838885
1133.000000	54.700910
1134.000000	54.537477
1135.000000	54.251537
1136.000000	53.962187
1137.000000	53.746767
1138.000000	53.526551
1139.000000	53.286634
1140.000000	53.049473
1141.000000	52.815709
1142.000000	52.598792
1143.000000	52.395483
1144.000000	52.195648
1145.000000	52.028886
1146.000000	51.906194
1147.000000	51.821874
1148.000000	51.817703
1149.000000	51.831518
1150.000000	51.841200
1151.000000	51.847384
1152.000000	51.857589
1153.000000	51.825055
1154.000000	51.786832
1155.000000	51.671492
1156.000000	51.521896
1157.000000	51.308137
1158.000000	51.083857
1159.000000	50.863500
1160.000000	50.608048
1161.000000	50.335550
1162.000000	50.071998
1163.000000	49.791402
1164.000000	49.513152
1165.000000	49.240486
1166.000000	48.952676
1167.000000	48.675284
1168.000000	48.407969
1169.000000	48.141135
1170.000000	47.891286
1171.000000	47.618942
1172.000000	47.356368
1173.000000	47.098038
1174.000000	46.871649
1175.000000	46.626354
1176.000000	46.392512
1177.000000	46.166370
1178.000000	45.877865
1179.000000	45.541863
1180.000000	45.175971
1181.000000	44.788039
1182.000000	44.398067
1183.000000	44.063639
1184.000000	43.807990
1185.000000	43.664897
1186.000000	43.605830
1187.000000	43.671251
1188.000000	43.864046
1189.000000	44.134609
1190.000000	44.459511
1191.000000	44.838313
1192.000000	45.227560
1193.000000	45.577413
1194.000000	45.892684
1195.000000	46.148466
1196.000000	46.334750
1197.000000	46.487913
1198.000000	46.596556
1199.000000	46.673177
1200.000000	46.734946
1201.000000	46.761620
1202.000000	46.800488
1203.000000	46.829326
1204.000000	46.846793
1205.000000	46.858155
1206.000000	46.883367
1207.000000	46.929214
1208.000000	46.987015
1209.000000	47.056004
1210.000000	47.132650
1211.000000	47.228150
1212.000000	47.330840
1213.000000	47.429648
1214.000000	47.544288
1215.000000	47.654751
1216.000000	47.765304
1217.000000	47.877775
1218.000000	48.010250
1219.000000	48.137008
1220.000000	48.267120
1221.000000	48.409764
1222.000000	48.549950
1223.000000	48.697447
1224.000000	48.853237
1225.000000	49.009424
1226.000000	49.152242
1227.000000	49.295570
1228.000000	49.452012
1229.000000	49.597989
1230.000000	49.739089
1231.000000	49.891054
1232.000000	50.036578
1233.000000	50.180581
1234.000000	50.335481
1235.000000	50.482542
1236.000000	50.621750
1237.000000	50.754417
1238.000000	50.885043
1239.000000	50.999516
1240.000000	51.131033
1241.000000	51.242432
1242.000000	51.350462
1243.000000	51.461613
1244.000000	51.574960
1245.000000	51.685996
1246.000000	51.771421
1247.000000	51.849517
1248.000000	51.925918
1249.000000	52.003272
1250.000000	52.092828
1251.000000	52.168023
1252.000000	52.225763
1253.000000	52.300410
1254.000000	52.364100
1255.000000	52.421720
1256.000000	52.494775
1257.000000	52.558255
1258.000000	52.609446
1259.000000	52.663454
1260.000000	52.711437
1261.000000	52.761923
1262.000000	52.811582
1263.000000	52.860553
1264.000000	52.899595
1265.000000	52.939927
1266.000000	52.994412
1267.000000	53.056563
1268.000000	53.113823
1269.000000	53.156966
1270.000000	53.201306
1271.000000	53.236682
1272.000000	53.276129
1273.000000	53.314012
1274.000000	53.356963
1275.000000	53.415168
1276.000000	53.460750
1277.000000	53.500447
1278.000000	53.547500
1279.000000	53.601485
1280.000000	53.664912
1281.000000	53.729503
1282.000000	53.790220
1283.000000	53.847047
1284.000000	53.896822
1285.000000	53.947869
1286.000000	53.995317
1287.000000	54.039761
1288.000000	54.079831
1289.000000	54.128947
1290.000000	54.173363
1291.000000	54.200190
1292.000000	54.226662
1293.000000	54.257017
1294.000000	54.281717
1295.000000	54.311363
1296.000000	54.339246
1297.000000	54.348628
1298.000000	54.350781
1299.000000	54.365544
1300.000000	54.380300
1301.000000	54.396082
1302.000000	54.402928
1303.000000	54.402901
1304.000000	54.400074
1305.000000	54.395845
1306.000000	54.393387
1307.000000	54.379198
1308.000000	54.351276
1309.000000	54.331146
1310.000000	54.307710
1311.000000	54.274936
1312.000000	54.244854
1313.000000	54.213675
1314.000000	54.161693
1315.000000	54.102659
1316.000000	54.051385
1317.000000	53.999921
1318.000000	53.934724
1319.000000	53.858338
1320.000000	53.784789
1321.000000	53.708011
1322.000000	53.628052
1323.000000	53.558371
1324.000000	53.486699
1325.000000	53.400087
1326.000000	53.302031
1327.000000	53.196165
1328.000000	53.080419
1329.000000	52.963913
1330.000000	52.842934
1331.000000	52.707704
1332.000000	52.556700
1333.000000	52.395483
1334.000000	52.233781
1335.000000	52.077764
1336.000000	51.896883
1337.000000	51.709832
1338.000000	51.513690
1339.000000	51.313411
1340.000000	51.103574
1341.000000	50.876726
1342.000000	50.632082
1343.000000	50.394607
1344.000000	50.133608
1345.000000	49.837379
1346.000000	49.587192
1347.000000	49.300825
1348.000000	48.958696
1349.000000	48.615786
1350.000000	48.255881
1351.000000	47.852723
1352.000000	47.408931
1353.000000	46.967004
1354.000000	46.541173
1355.000000	46.081152
1356.000000	45.708186
1357.000000	45.504305
1358.000000	45.395967
1359.000000	45.333670
1360.000000	45.359205
1361.000000	45.262273
1362.000000	45.055999
1363.000000	44.919589
1364.000000	44.810086
1365.000000	44.595277
1366.000000	44.410903
1367.000000	44.260770
1368.000000	43.992661
1369.000000	43.710969
1370.000000	43.505649
1371.000000	43.210282
1372.000000	42.855858
1373.000000	42.578851
1374.000000	42.329217
1375.000000	42.146413
1376.000000	41.985766
1377.000000	41.882188
1378.000000	41.860808
1379.000000	41.830582
1380.000000	41.747825
1381.000000	41.659193
1382.000000	41.377702
1383.000000	41.013836
1384.000000	40.710101
1385.000000	40.371028
1386.000000	40.112518
1387.000000	39.891896
1388.000000	39.623530
1389.000000	39.327601
1390.000000	39.220485
1391.000000	39.119079
1392.000000	38.928226
1393.000000	38.748604
1394.000000	38.715700
1395.000000	38.600612
1396.000000	38.262326
1397.000000	37.967246
1398.000000	37.867598
1399.000000	37.803705
1400.000000	37.478396
1401.000000	36.974919
1402.000000	36.564237
1403.000000	36.361586
1404.000000	36.014739
1405.000000	35.583311
1406.000000	35.192560
1407.000000	34.888582
1408.000000	34.524499
1409.000000	34.222626
1410.000000	33.852487
1411.000000	33.597375
1412.000000	33.409237
1413.000000	33.255334
1414.000000	33.027184
1415.000000	32.708453
1416.000000	32.488282
1417.000000	32.307670
1418.000000	32.138821
1419.000000	31.884779
1420.000000	31.594028
1421.000000	31.365420
1422.000000	31.185113
1423.000000	30.958578
1424.000000	30.711640
1425.000000	30.498694
1426.000000	30.290612
1427.000000	30.091002
1428.000000	29.917961
1429.000000	29.705563
1430.000000	29.541756
1431.000000	29.410583
1432.000000	29.263548
1433.000000	29.103204
1434.000000	28.977520
1435.000000	28.802034
1436.000000	28.696797
1437.000000	28.577607
1438.000000	28.441370
1439.000000	28.295784
1440.000000	28.174178
1441.000000	28.054598
1442.000000	27.896218
1443.000000	27.771723
1444.000000	27.674719
1445.000000	27.570332
1446.000000	27.399101
1447.000000	27.260034
1448.000000	27.150984
1449.000000	27.081589
1450.000000	26.973197
1451.000000	26.839700
1452.000000	26.732254
1453.000000	26.619200
1454.000000	26.537152
1455.000000	26.440648
1456.000000	26.335614
1457.000000	26.238024
1458.000000	26.150609
1459.000000	26.075101
1460.000000	26.021747
1461.000000	25.939010
1462.000000	25.874876
1463.000000	25.819263
1464.000000	25.738496
1465.000000	25.711649
1466.000000	25.669600
1467.000000	25.615600
1468.000000	25.578197
1469.000000	25.545422
1470.000000	25.517470
1471.000000	25.480660
1472.000000	25.429631
1473.000000	25.390154
1474.000000	25.346279
1475.000000	25.318028
1476.000000	25.285492
1477.000000	25.253307
1478.000000	25.217780
1479.000000	25.187063
1480.000000	25.159108
1481.000000	25.133355
1482.000000	25.106696
1483.000000	25.082940
1484.000000	25.057472
1485.000000	25.048114
1486.000000	25.020401
1487.000000	25.015972
1488.000000	25.002565
1489.000000	24.991060
1490.000000	24.978086
1491.000000	24.963431
1492.000000	24.958018
1493.000000	24.945365
1494.000000	24.950346
1495.000000	24.958424
1496.000000	24.940864
1497.000000	24.951223
1498.000000	24.959006
1499.000000	24.965309
1500.000000	24.983732
1501.000000	24.993763
1502.000000	25.012848
1503.000000	25.040893
1504.000000	25.057752
1505.000000	25.080171
1506.000000	25.108004
1507.000000	25.126160
1508.000000	25.156538
1509.000000	25.189118
1510.000000	25.217791
1511.000000	25.247297
1512.000000	25.280760
1513.000000	25.320379
1514.000000	25.337934
1515.000000	25.357061
1516.000000	25.387186
1517.000000	25.406451
1518.000000	25.433285
1519.000000	25.458642
1520.000000	25.478031
1521.000000	25.505655
1522.000000	25.528497
1523.000000	25.549810
1524.000000	25.570724
1525.000000	25.592736
1526.000000	25.614167
1527.000000	25.627178
1528.000000	25.650449
1529.000000	25.676751
1530.000000	25.690281
1531.000000	25.703355
1532.000000	25.709008
1533.000000	25.705963
1534.000000	25.722572
1535.000000	25.736297
1536.000000	25.740316
1537.000000	25.738208
1538.000000	25.730839
1539.000000	25.731917
1540.000000	25.742584
1541.000000	25.742884
1542.000000	25.747570
1543.000000	25.754767
1544.000000	25.758804
1545.000000	25.761317
1546.000000	25.757920
1547.000000	25.764440
1548.000000	25.772704
1549.000000	25.772942
1550.000000	25.772822
1551.000000	25.779418
1552.000000	25.796556
1553.000000	25.804710
1554.000000	25.796979
1555.000000	25.788592
1556.000000	25.780728
1557.000000	25.769788
1558.000000	25.761050
1559.000000	25.753944
1560.000000	25.735056
1561.000000	25.711893
1562.000000	25.682833
1563.000000	25.649368
1564.000000	25.621124
1565.000000	25.597937
1566.000000	25.571463
1567.000000	25.545761
1568.000000	25.526157
1569.000000	25.511449
1570.000000	25.489116
1571.000000	25.461987
1572.000000	25.440818
1573.000000	25.424508
1574.000000	25.424392
1575.000000	25.424992
1576.000000	25.419193
1577.000000	25.420544
1578.000000	25.426505
1579.000000	25.424555
1580.000000	25.431278
1581.000000	25.449737
1582.000000	25.466124
1583.000000	25.482981
1584.000000	25.509370
1585.000000	25.536174
1586.000000	25.567068
1587.000000	25.600623
1588.000000	25.637055
1589.000000	25.671097
1590.000000	25.697921
1591.000000	25.737725
1592.000000	25.779355
1593.000000	25.823857
1594.000000	25.868371
1595.000000	25.908894
1596.000000	25.963317
1597.000000	26.023840
1598.000000	26.080337
1599.000000	26.128654
1600.000000	26.187013
1601.000000	26.250894
1602.000000	26.321216
1603.000000	26.373758
1604.000000	26.431716
1605.000000	26.501323
1606.000000	26.561128
1607.000000	26.626180
1608.000000	26.688460
1609.000000	26.743912
1610.000000	26.811185
1611.000000	26.868048
1612.000000	26.921313
1613.000000	26.989302
1614.000000	27.063724
1615.000000	27.141531
1616.000000	27.203863
1617.000000	27.273489
1618.000000	27.346431
1619.000000	27.426857
1620.000000	27.506657
1621.000000	27.575556
1622.000000	27.643776
1623.000000	27.729384
1624.000000	27.799525
1625.000000	27.881952
1626.000000	27.970786
1627.000000	28.044963
1628.000000	28.117541
1629.000000	28.198908
1630.000000	28.281894
1631.000000	28.348014
1632.000000	28.414197
1633.000000	28.481731
1634.000000	28.561352
1635.000000	28.625709
1636.000000	28.701840
1637.000000	28.763974
1638.000000	28.829525
1639.000000	28.891552
1640.000000	28.950004
1641.000000	29.016433
1642.000000	29.075205
1643.000000	29.124434
1644.000000	29.176970
1645.000000	29.217483
1646.000000	29.267141
1647.000000	29.305040
1648.000000	29.352307
1649.000000	29.388092
1650.000000	29.405159
1651.000000	29.424433
1652.000000	29.435741
1653.000000	29.458134
1654.000000	29.464135
1655.000000	29.458102
1656.000000	29.441498
1657.000000	29.415561
1658.000000	29.371129
1659.000000	29.318897
1660.000000	29.275496
1661.000000	29.205909
1662.000000	29.131965
1663.000000	29.035028
1664.000000	28.936293
1665.000000	28.822073
1666.000000	28.698418
1667.000000	28.579664
1668.000000	28.405032
1669.000000	28.244290
1670.000000	28.073021
1671.000000	27.891669
1672.000000	27.664700
1673.000000	27.407099
1674.000000	27.116715
1675.000000	26.782082
1676.000000	26.384480
1677.000000	25.904887
1678.000000	25.386036
1679.000000	24.843312
1680.000000	24.254005
1681.000000	23.736977
1682.000000	23.299345
1683.000000	22.982748
1684.000000	22.819958
1685.000000	22.762719
1686.000000	22.757291
1687.000000	22.786825
1688.000000	22.790018
1689.000000	22.745876
1690.000000	22.640674
1691.000000	22.494238
1692.000000	22.321961
1693.000000	22.185721
1694.000000	22.078565
1695.000000	22.021828
1696.000000	22.037272
1697.000000	22.098474
1698.000000	22.219644
1699.000000	22.374940
1700.000000	22.494806
1701.000000	22.637132
1702.000000	22.766490
1703.000000	22.842784
1704.000000	22.894429
1705.000000	22.949613
1706.000000	22.965342
1707.000000	22.995452
1708.000000	23.008256
1709.000000	23.005030
1710.000000	22.980142
1711.000000	22.964368
1712.000000	22.909590
1713.000000	22.849286
1714.000000	22.796005
1715.000000	22.718941
1716.000000	22.654709
1717.000000	22.611976
1718.000000	22.561614
1719.000000	22.525036
1720.000000	22.512603
1721.000000	22.504359
1722.000000	22.500082
1723.000000	22.486423
1724.000000	22.442731
1725.000000	22.396999
1726.000000	22.324269
1727.000000	22.232477
1728.000000	22.141920
1729.000000	22.031343
1730.000000	21.934354
1731.000000	21.842556
1732.000000	21.779142
1733.000000	21.735221
1734.000000	21.749910
1735.000000	21.812982
1736.000000	21.911055
1737.000000	22.064915
1738.000000	22.264694
1739.000000	22.476964
1740.000000	22.714135
1741.000000	22.953291
1742.000000	23.191612
1743.000000	23.386953
1744.000000	23.569388
1745.000000	23.724309
1746.000000	23.849079
1747.000000	23.948601
1748.000000	24.046596
1749.000000	24.121631
1750.000000	24.167831
1751.000000	24.215003
1752.000000	24.258667
1753.000000	24.278573
1754.000000	24.280196
1755.000000	24.265202
1756.000000	24.233258
1757.000000	24.192621
1758.000000	24.139874
1759.000000	24.082218
1760.000000	24.011049
1761.000000	23.957577
1762.000000	23.931519
1763.000000	23.938191
1764.000000	23.961963
1765.000000	24.015135
1766.000000	24.096659
1767.000000	24.183470
1768.000000	24.297193
1769.000000	24.412622
1770.000000	24.534118
1771.000000	24.669149
1772.000000	24.813007
1773.000000	24.944384
1774.000000	25.062024
1775.000000	25.172540
1776.000000	25.287829
1777.000000	25.400135
1778.000000	25.491306
1779.000000	25.578288
1780.000000	25.649845
1781.000000	25.723344
1782.000000	25.805115
1783.000000	25.890492
1784.000000	25.973248
1785.000000	26.047194
1786.000000	26.108796
1787.000000	26.170047
1788.000000	26.228554
1789.000000	26.292617
1790.000000	26.358267
1791.000000	26.418933
1792.000000	26.466993
1793.000000	26.508107
1794.000000	26.557192
1795.000000	26.595763
1796.000000	26.636356
1797.000000	26.675234
1798.000000	26.728606
1799.000000	26.779057
1800.000000	26.834670
1801.000000	26.877252
1802.000000	26.893303
1803.000000	26.930318
1804.000000	26.994417
1805.000000	27.060883
1806.000000	27.100223
1807.000000	27.115526
1808.000000	27.149169
1809.000000	27.206892
1810.000000	27.264484
1811.000000	27.293979
1812.000000	27.296563
1813.000000	27.328307
1814.000000	27.357469
1815.000000	27.360037
1816.000000	27.340775
1817.000000	27.354771
1818.000000	27.437275
1819.000000	27.506215
1820.000000	27.508807
1821.000000	27.440195
1822.000000	27.385232
1823.000000	27.447117
1824.000000	27.588530
1825.000000	27.697933
1826.000000	27.755014
1827.000000	27.783641
1828.000000	27.849089
1829.000000	27.943006
1830.000000	28.009429
1831.000000	28.041505
1832.000000	28.123751
1833.000000	28.270683
1834.000000	28.450944
1835.000000	28.543991
1836.000000	28.557050
1837.000000	28.550725
1838.000000	28.573884
1839.000000	28.660525
1840.000000	28.721166
1841.000000	28.715472
1842.000000	28.638478
1843.000000	28.643658
1844.000000	28.811556
1845.000000	29.032758
1846.000000	29.184059
1847.000000	29.176494
1848.000000	29.040543
1849.000000	28.986211
1850.000000	29.086474
1851.000000	29.256229
1852.000000	29.366910
1853.000000	29.430047
1854.000000	29.462831
1855.000000	29.459538
1856.000000	29.515890
1857.000000	29.593776
1858.000000	29.594560
1859.000000	29.548762
1860.000000	29.492494
1861.000000	29.444235
1862.000000	29.417214
1863.000000	29.445976
1864.000000	29.490300
1865.000000	29.506504
1866.000000	29.490626
1867.000000	29.470779
1868.000000	29.362974
1869.000000	29.170512
1870.000000	28.929178
1871.000000	28.628512
1872.000000	28.356037
1873.000000	28.054005
1874.000000	27.743262
1875.000000	27.464087
1876.000000	27.143483
1877.000000	26.832736
1878.000000	26.496705
1879.000000	26.130809
1880.000000	25.791449
1881.000000	25.416375
1882.000000	24.990661
1883.000000	24.540709
1884.000000	24.059767
1885.000000	23.602803
1886.000000	23.222587
1887.000000	22.908345
1888.000000	22.644425
1889.000000	22.336760
1890.000000	22.031144
1891.000000	21.679258
1892.000000	21.289880
1893.000000	20.940969
1894.000000	20.663946
1895.000000	20.433923
1896.000000	20.253815
1897.000000	20.017384
1898.000000	19.695663
1899.000000	19.349384
1900.000000	18.937208
1901.000000	18.613596
1902.000000	18.399440
1903.000000	18.168599
1904.000000	17.928792
1905.000000	17.600298
1906.000000	17.243553
1907.000000	16.958950
1908.000000	16.739516
1909.000000	16.608215
1910.000000	16.490917
1911.000000	16.303559
1912.000000	16.083280
1913.000000	15.819499
1914.000000	15.523318
1915.000000	15.318440
1916.000000	15.174982
1917.000000	15.065241
1918.000000	14.939796
1919.000000	14.799181
1920.000000	14.628059
1921.000000	14.421884
1922.000000	14.230784
1923.000000	14.104899
1924.000000	14.035369
1925.000000	13.961146
1926.000000	13.845272
1927.000000	13.735761
1928.000000	13.631003
1929.000000	13.531802
1930.000000	13.459802
1931.000000	13.401738
1932.000000	13.351878
1933.000000	13.311180
1934.000000	13.283377
1935.000000	13.267739
1936.000000	13.248212
1937.000000	13.234442
1938.000000	13.212202
1939.000000	13.200991
1940.000000	13.194277
1941.000000	13.196738
1942.000000	13.209720
1943.000000	13.253027
1944.000000	13.275666
1945.000000	13.307807
1946.000000	13.349466
1947.000000	13.378292
1948.000000	13.421889
1949.000000	13.469626
1950.000000	13.506327
1951.000000	13.572690
1952.000000	13.639662
1953.000000	13.686501
1954.000000	13.737203
1955.000000	13.799659
1956.000000	13.856446
1957.000000	13.921106
1958.000000	13.983000
1959.000000	14.042859
1960.000000	14.105870
1961.000000	14.158363
1962.000000	14.227742
1963.000000	14.279110
1964.000000	14.343398
1965.000000	14.412402
1966.000000	14.462940
1967.000000	14.539662
1968.000000	14.590837
1969.000000	14.658122
1970.000000	14.725789
1971.000000	14.794085
1972.000000	14.846164
1973.000000	14.915724
1974.000000	14.981730
1975.000000	15.049658
1976.000000	15.137556
1977.000000	15.202157
1978.000000	15.269907
1979.000000	15.332257
1980.000000	15.396633
1981.000000	15.463353
1982.000000	15.532607
1983.000000	15.603040
1984.000000	15.665574
1985.000000	15.736972
1986.000000	15.789144
1987.000000	15.863940
1988.000000	15.927764
1989.000000	15.985736
1990.000000	16.033884
1991.000000	16.108922
1992.000000	16.153437
1993.000000	16.200991
1994.000000	16.256316
1995.000000	16.311758
1996.000000	16.331233
1997.000000	16.379431
1998.000000	16.421291
1999.000000	16.439879
2000.000000	16.472366
2001.000000	16.503976
2002.000000	16.516985
2003.000000	16.528089
2004.000000	16.547968
2005.000000	16.555950
2006.000000	16.558656
2007.000000	16.560994
2008.000000	16.559891
2009.000000	16.545736
2010.000000	16.534884
2011.000000	16.528317
2012.000000	16.510855
2013.000000	16.481385
2014.000000	16.453295
2015.000000	16.408839
2016.000000	16.370438
2017.000000	16.328088
2018.000000	16.282473
2019.000000	16.243177
2020.000000	16.191404
2021.000000	16.124749
2022.000000	16.061776
2023.000000	15.997811
2024.000000	15.926344
2025.000000	15.873556
2026.000000	15.806631
2027.000000	15.726528
2028.000000	15.649860
2029.000000	15.582402
2030.000000	15.514480
2031.000000	15.437028
2032.000000	15.343664
2033.000000	15.247624
2034.000000	15.156049
2035.000000	15.056139
2036.000000	14.948245
2037.000000	14.854385
2038.000000	14.751101
2039.000000	14.645561
2040.000000	14.528571
2041.000000	14.400733
2042.000000	14.288484
2043.000000	14.178250
2044.000000	14.060099
2045.000000	13.936609
2046.000000	13.829517
2047.000000	13.723268
2048.000000	13.624760
2049.000000	13.544494
2050.000000	13.458290
2051.000000	13.381561
2052.000000	13.314509
2053.000000	13.238004
2054.000000	13.187557
2055.000000	13.144920
2056.000000	13.102331
2057.000000	13.076292
2058.000000	13.067230
2059.000000	13.046146
2060.000000	13.037644
2061.000000	13.035497
2062.000000	13.035475
2063.000000	13.043763
2064.000000	13.044277
2065.000000	13.049402
2066.000000	13.058344
2067.000000	13.073423
2068.000000	13.082872
2069.000000	13.101317
2070.000000	13.114084
2071.000000	13.118520
2072.000000	13.130965
2073.000000	13.140375
2074.000000	13.151036
2075.000000	13.164901
2076.000000	13.183193
2077.000000	13.193341
2078.000000	13.192428
2079.000000	13.206113
2080.000000	13.214000
2081.000000	13.217910
2082.000000	13.220453
2083.000000	13.227620
2084.000000	13.227296
2085.000000	13.228803
2086.000000	13.228033
2087.000000	13.219387
2088.000000	13.215653
2089.000000	13.218618
2090.000000	13.212957
2091.000000	13.210529
2092.000000	13.218383
2093.000000	13.215981
2094.000000	13.207010
2095.000000	13.212363
2096.000000	13.225072
2097.000000	13.239768
2098.000000	13.249090
2099.000000	13.253687
2100.000000	13.275350
2101.000000	13.303155
2102.000000	13.321402
2103.000000	13.328573
2104.000000	13.340658
2105.000000	13.361969
2106.000000	13.369575
2107.000000	13.384677
2108.000000	13.412252
2109.000000	13.429626
2110.000000	13.451916
2111.000000	13.470453
2112.000000	13.476025
2113.000000	13.486818
2114.000000	13.510139
2115.000000	13.534736
2116.000000	13.550277
2117.000000	13.567784
2118.000000	13.583032
2119.000000	13.600843
2120.000000	13.619030
2121.000000	13.632125
2122.000000	13.651071
2123.000000	13.668019
2124.000000	13.682074
2125.000000	13.696883
2126.000000	13.701921
2127.000000	13.709481
2128.000000	13.716178
2129.000000	13.720688
2130.000000	13.726995
2131.000000	13.726811
2132.000000	13.729109
2133.000000	13.721502
2134.000000	13.698699
2135.000000	13.689330
2136.000000	13.696509
2137.000000	13.683824
2138.000000	13.659832
2139.000000	13.648180
2140.000000	13.627963
2141.000000	13.609633
2142.000000	13.583694
2143.000000	13.567319
2144.000000	13.546855
2145.000000	13.521780
2146.000000	13.494479
2147.000000	13.474207
2148.000000	13.441005
2149.000000	13.404168
2150.000000	13.381726
2151.000000	13.358290
2152.000000	13.332101
2153.000000	13.296520
2154.000000	13.268620
2155.000000	13.240996
2156.000000	13.223373
2157.000000	13.192004
2158.000000	13.164293
2159.000000	13.133187
2160.000000	13.116793
2161.000000	13.102026
2162.000000	13.072968
2163.000000	13.059863
2164.000000	13.045255
2165.000000	13.034677
2166.000000	13.020472
2167.000000	13.009848
2168.000000	12.996929
2169.000000	12.997863
2170.000000	12.993232
2171.000000	12.989311
2172.000000	12.988753
2173.000000	12.985146
2174.000000	12.985056
2175.000000	12.988488
2176.000000	13.004168
2177.000000	13.011893
2178.000000	13.023507
2179.000000	13.033045
2180.000000	13.043690
2181.000000	13.062886
2182.000000	13.073687
2183.000000	13.104348
2184.000000	13.120501
2185.000000	13.128254
2186.000000	13.159077
2187.000000	13.167512
2188.000000	13.195505
2189.000000	13.218003
2190.000000	13.224438
2191.000000	13.240124
2192.000000	13.266295
2193.000000	13.271958
2194.000000	13.276203
2195.000000	13.302644
2196.000000	13.324457
2197.000000	13.338627
2198.000000	13.357532
2199.000000	13.360802
2200.000000	13.377068
2201.000000	13.387061
2202.000000	13.390111
2203.000000	13.414772
2204.000000	13.416560
2205.000000	13.438218
2206.000000	13.440621
2207.000000	13.448323
2208.000000	13.463738
2209.000000	13.483814
2210.000000	13.494976
2211.000000	13.506249
2212.000000	13.527401
2213.000000	13.531994
2214.000000	13.552646
2215.000000	13.585373
2216.000000	13.599204
2217.000000	13.587516
2218.000000	13.614402
2219.000000	13.634661
2220.000000	13.634856
2221.000000	13.648073
2222.000000	13.664353
2223.000000	13.657739
2224.000000	13.659102
2225.000000	13.645415
2226.000000	13.643922
2227.000000	13.626944
2228.000000	13.599847
2229.000000	13.574213
2230.000000	13.537512
2231.000000	13.507997
2232.000000	13.458245
2233.000000	13.414843
2234.000000	13.333520
2235.000000	13.274921
2236.000000	13.211577
2237.000000	13.139148
2238.000000	13.056049
2239.000000	12.961663
2240.000000	12.864679
2241.000000	12.775746
2242.000000	12.670817
2243.000000	12.562234
2244.000000	12.432535
2245.000000	12.320088
2246.000000	12.202580
2247.000000	12.061195
2248.000000	11.902797
2249.000000	11.754685
2250.000000	11.563429
2251.000000	11.411308
2252.000000	11.218520
2253.000000	11.018381
2254.000000	10.823502
2255.000000	10.609888
2256.000000	10.412325
2257.000000	10.219024
2258.000000	9.997150
2259.000000	9.797194
2260.000000	9.614941
2261.000000	9.431789
2262.000000	9.251757
2263.000000	9.092533
2264.000000	8.960043
2265.000000	8.823730
2266.000000	8.716619
2267.000000	8.634204
2268.000000	8.555692
2269.000000	8.507845
2270.000000	8.451521
2271.000000	8.423657
2272.000000	8.415231
2273.000000	8.421600
2274.000000	8.420212
2275.000000	8.439612
2276.000000	8.450519
2277.000000	8.478881
2278.000000	8.506932
2279.000000	8.546662
2280.000000	8.582009
2281.000000	8.618650
2282.000000	8.678148
2283.000000	8.704971
2284.000000	8.735757
2285.000000	8.772763
2286.000000	8.792143
2287.000000	8.814043
2288.000000	8.838011
2289.000000	8.835139
2290.000000	8.822011
2291.000000	8.818154
2292.000000	8.803887
2293.000000	8.769608
2294.000000	8.719523
2295.000000	8.681460
2296.000000	8.604278
2297.000000	8.535073
2298.000000	8.471799
2299.000000	8.398225
2300.000000	8.321763
2301.000000	8.249825
2302.000000	8.193458
2303.000000	8.130808
2304.000000	8.081364
2305.000000	8.051498
2306.000000	8.026145
2307.000000	8.004347
2308.000000	8.021576
2309.000000	8.038628
2310.000000	8.070929
2311.000000	8.126591
2312.000000	8.193238
2313.000000	8.259735
2314.000000	8.325378
2315.000000	8.418251
2316.000000	8.515797
2317.000000	8.606568
2318.000000	8.702394
2319.000000	8.796272
2320.000000	8.886538
2321.000000	8.972681
2322.000000	9.053705
2323.000000	9.118769
2324.000000	9.205003
2325.000000	9.274239
2326.000000	9.342936
2327.000000	9.404674
2328.000000	9.458624
2329.000000	9.501674
2330.000000	9.548615
2331.000000	9.599377
2332.000000	9.645974
2333.000000	9.682840
2334.000000	9.701796
2335.000000	9.718018
2336.000000	9.732294
2337.000000	9.743782
2338.000000	9.748041
2339.000000	9.739791
2340.000000	9.726948
2341.000000	9.705942
2342.000000	9.684382
2343.000000	9.658028
2344.000000	9.619556
2345.000000	9.580902
2346.000000	9.549700
2347.000000	9.499441
2348.000000	9.469326
2349.000000	9.439041
2350.000000	9.395226
2351.000000	9.363715
2352.000000	9.351074
2353.000000	9.345511
2354.000000	9.348843
2355.000000	9.364667
2356.000000	9.390470
2357.000000	9.410997
2358.000000	9.439244
2359.000000	9.485593
2360.000000	9.535616
2361.000000	9.587041
2362.000000	9.629295
2363.000000	9.681275
2364.000000	9.746949
2365.000000	9.795658
2366.000000	9.842600
2367.000000	9.892667
2368.000000	9.933639
2369.000000	9.968663
2370.000000	10.007888
2371.000000	10.045394
2372.000000	10.065628
2373.000000	10.088818
2374.000000	10.123529
2375.000000	10.146100
2376.000000	10.152378
2377.000000	10.170077
2378.000000	10.184525
2379.000000	10.191994
2380.000000	10.207809
2381.000000	10.214802
2382.000000	10.225815
2383.000000	10.230874
2384.000000	10.231722
2385.000000	10.234443
2386.000000	10.233172
2387.000000	10.237254
2388.000000	10.236695
2389.000000	10.231989
2390.000000	10.217295
2391.000000	10.195448
2392.000000	10.190215
2393.000000	10.178865
2394.000000	10.159452
2395.000000	10.146179
2396.000000	10.128191
2397.000000	10.104309
2398.000000	10.078410
2399.000000	10.056018
2400.000000	10.040380
2401.000000	10.020928
2402.000000	9.998559
2403.000000	9.969589
2404.000000	9.954812
2405.000000	9.944979
2406.000000	9.919668
2407.000000	9.900294
2408.000000	9.886336
2409.000000	9.863774
2410.000000	9.848807
2411.000000	9.833514
2412.000000	9.815827
2413.000000	9.797250
2414.000000	9.787937
2415.000000	9.763896
2416.000000	9.734989
2417.000000	9.714864
2418.000000	9.694252
2419.000000	9.693044
2420.000000	9.702626
2421.000000	9.713618
2422.000000	9.693009
2423.000000	9.675677
2424.000000	9.647153
2425.000000	9.623773
2426.000000	9.588122
2427.000000	9.561751
2428.000000	9.538246
2429.000000	9.505353
2430.000000	9.463993
2431.000000	9.440872
2432.000000	9.408057
2433.000000	9.356274
2434.000000	9.323885
2435.000000	9.272745
2436.000000	9.226463
2437.000000	9.165552
2438.000000	9.129594
2439.000000	9.085968
2440.000000	9.032022
2441.000000	8.965641
2442.000000	8.918543
2443.000000	8.861471
2444.000000	8.800943
2445.000000	8.752072
2446.000000	8.677008
2447.000000	8.621690
2448.000000	8.577064
2449.000000	8.537986
2450.000000	8.464307
2451.000000	8.403064
2452.000000	8.341116
2453.000000	8.289608
2454.000000	8.237084
2455.000000	8.173064
2456.000000	8.116177
2457.000000	8.066902
2458.000000	8.024633
2459.000000	7.975102
2460.000000	7.955130
2461.000000	7.912606
2462.000000	7.898510
2463.000000	7.859675
2464.000000	7.832831
2465.000000	7.828461
2466.000000	7.797624
2467.000000	7.779521
2468.000000	7.751311
2469.000000	7.767923
2470.000000	7.756460
2471.000000	7.757742
2472.000000	7.762956
2473.000000	7.740825
2474.000000	7.769356
2475.000000	7.740520
2476.000000	7.803148
2477.000000	7.757256
2478.000000	7.779689
2479.000000	7.787135
2480.000000	7.786089
2481.000000	7.769511
2482.000000	7.775591
2483.000000	7.818175
2484.000000	7.827425
2485.000000	7.832059
2486.000000	7.849453
2487.000000	7.872692
2488.000000	7.806761
2489.000000	7.840311
2490.000000	7.876873
2491.000000	7.922134
2492.000000	7.865079
2493.000000	7.922296
2494.000000	7.924974
2495.000000	7.992055
2496.000000	7.979957
2497.000000	8.022425
2498.000000	8.104256
2499.000000	8.124593
2500.000000	8.187762
