PE UV       SUBTECH     SPECTRUM    ASCII       PEDS        4.00        
   -1
CICIMAUCR0020-7.Sample.ASC
24/04/25
16:24:51.00
24/04/25
16:24:51.00
Vinicio Soto Monge
C. resplendens
250,000000
1
Lambda 1050
1050L1511233
PerkinElmer UV WinLab 6.3.2.0749 / 2.02.05 Lambda 900 UV/VIS/NIR, Aug  7 2015 09:38:08

0
0
3350/servo 860,8/2
0
0
UV/VIS
1
1
1
DoubleDePol,CommonBeamDepol,RBeamAtt,SBeamAtt,60mm sphere, WB InGaAs Detector
0
0
0
0
Program
Program
3350/servo 860,8/2
3350/0,2 860,8/0,2
3350/0,2 860,8/0,2
0
15.00
 
 
 
0
 
860,8
319,2
860,8
Front
100
on
S:100 R:100
0
0
0
0
 
0
 
 
 
0
 
 
0
0
0
0
0
 
 
 
 
0
0


0
0
#HDR
-1
-1
#GR
nm
%R
1.0
0.0
2500,000000
-1,000000
2251
8
81,082400
5,554700
#DATA
250.000000	5.691060
251.000000	5.661860
252.000000	5.673480
253.000000	5.679480
254.000000	5.647980
255.000000	5.611720
256.000000	5.588360
257.000000	5.593600
258.000000	5.597700
259.000000	5.602440
260.000000	5.557140
261.000000	5.522140
262.000000	5.509440
263.000000	5.491820
264.000000	5.472980
265.000000	5.428360
266.000000	5.433280
267.000000	5.411900
268.000000	5.419720
269.000000	5.375500
270.000000	5.371000
271.000000	5.368900
272.000000	5.370160
273.000000	5.342180
274.000000	5.342420
275.000000	5.346200
276.000000	5.312260
277.000000	5.343500
278.000000	5.308520
279.000000	5.329080
280.000000	5.327780
281.000000	5.323680
282.000000	5.322660
283.000000	5.303600
284.000000	5.318500
285.000000	5.336280
286.000000	5.313400
287.000000	5.327760
288.000000	5.326860
289.000000	5.295860
290.000000	5.325820
291.000000	5.317400
292.000000	5.280860
293.000000	5.314520
294.000000	5.313880
295.000000	5.291900
296.000000	5.319200
297.000000	5.272840
298.000000	5.274440
299.000000	5.292500
300.000000	5.305380
301.000000	5.313880
302.000000	5.283280
303.000000	5.282100
304.000000	5.319520
305.000000	5.269080
306.000000	5.275720
307.000000	5.298600
308.000000	5.281000
309.000000	5.284700
310.000000	5.265220
311.000000	5.279940
312.000000	5.266700
313.000000	5.274120
314.000000	5.228260
315.000000	5.287100
316.000000	5.331140
317.000000	6.007920
318.000000	5.779840
319.000000	5.759540
320.000000	5.778020
321.000000	5.860760
322.000000	5.727300
323.000000	5.721940
324.000000	5.699780
325.000000	5.510380
326.000000	5.531380
327.000000	5.512060
328.000000	5.559460
329.000000	5.357420
330.000000	5.474540
331.000000	5.526280
332.000000	5.431140
333.000000	5.516960
334.000000	5.484780
335.000000	5.533120
336.000000	5.532000
337.000000	5.506280
338.000000	5.477960
339.000000	5.520420
340.000000	5.530860
341.000000	5.538320
342.000000	5.579600
343.000000	5.500720
344.000000	5.542880
345.000000	5.643460
346.000000	5.596940
347.000000	5.575840
348.000000	5.627240
349.000000	5.579640
350.000000	5.698640
351.000000	5.735520
352.000000	5.702380
353.000000	5.813300
354.000000	5.813140
355.000000	5.805000
356.000000	5.830820
357.000000	5.893660
358.000000	5.905260
359.000000	5.926800
360.000000	5.978240
361.000000	6.003100
362.000000	5.998380
363.000000	6.029480
364.000000	6.055480
365.000000	6.100960
366.000000	6.075900
367.000000	6.149080
368.000000	6.187100
369.000000	6.218200
370.000000	6.187780
371.000000	6.209280
372.000000	6.242900
373.000000	6.290460
374.000000	6.309000
375.000000	6.372860
376.000000	6.685600
377.000000	6.722300
378.000000	6.791840
379.000000	6.864200
380.000000	6.934340
381.000000	7.016420
382.000000	7.116720
383.000000	7.218300
384.000000	7.309620
385.000000	7.419440
386.000000	7.536640
387.000000	7.654600
388.000000	7.774500
389.000000	7.908340
390.000000	8.051360
391.000000	8.194080
392.000000	8.352640
393.000000	8.517500
394.000000	8.701380
395.000000	8.879720
396.000000	9.059940
397.000000	9.268520
398.000000	9.476680
399.000000	9.687560
400.000000	9.915260
401.000000	10.153700
402.000000	10.404940
403.000000	10.660600
404.000000	10.925520
405.000000	11.216860
406.000000	11.507140
407.000000	11.803300
408.000000	12.101700
409.000000	12.410580
410.000000	12.738160
411.000000	13.068860
412.000000	13.403860
413.000000	13.735760
414.000000	14.082900
415.000000	14.438760
416.000000	14.790860
417.000000	15.136520
418.000000	15.485780
419.000000	15.837660
420.000000	16.183260
421.000000	16.523280
422.000000	16.869380
423.000000	17.204420
424.000000	17.525460
425.000000	17.849660
426.000000	18.175240
427.000000	18.484340
428.000000	18.777760
429.000000	19.072800
430.000000	19.353440
431.000000	19.624680
432.000000	19.894340
433.000000	20.146740
434.000000	20.391120
435.000000	20.625800
436.000000	20.846380
437.000000	21.048480
438.000000	21.245180
439.000000	21.444800
440.000000	21.628840
441.000000	21.793320
442.000000	21.959300
443.000000	22.113960
444.000000	22.245860
445.000000	22.351500
446.000000	22.441720
447.000000	22.522240
448.000000	22.588600
449.000000	22.654460
450.000000	22.710460
451.000000	22.747060
452.000000	22.768700
453.000000	22.772580
454.000000	22.765440
455.000000	22.762160
456.000000	22.751900
457.000000	22.719720
458.000000	22.677160
459.000000	22.634420
460.000000	22.584400
461.000000	22.522080
462.000000	22.445660
463.000000	22.366980
464.000000	22.288820
465.000000	22.207320
466.000000	22.124240
467.000000	22.038480
468.000000	21.965400
469.000000	21.899500
470.000000	21.832120
471.000000	21.777760
472.000000	21.744640
473.000000	21.725720
474.000000	21.727220
475.000000	21.747640
476.000000	21.787360
477.000000	21.861740
478.000000	21.966320
479.000000	22.097980
480.000000	22.273680
481.000000	22.496620
482.000000	22.757000
483.000000	23.043180
484.000000	23.373220
485.000000	23.729380
486.000000	24.127220
487.000000	24.572020
488.000000	25.052980
489.000000	25.572240
490.000000	26.123040
491.000000	26.709420
492.000000	27.336080
493.000000	27.976560
494.000000	28.641580
495.000000	29.321340
496.000000	30.004880
497.000000	30.683300
498.000000	31.373680
499.000000	32.079200
500.000000	32.792440
501.000000	33.498880
502.000000	34.206960
503.000000	34.910920
504.000000	35.607120
505.000000	36.305360
506.000000	36.985580
507.000000	37.652340
508.000000	38.318220
509.000000	39.000500
510.000000	39.674800
511.000000	40.348760
512.000000	41.021860
513.000000	41.692700
514.000000	42.370560
515.000000	43.040000
516.000000	43.704540
517.000000	44.364900
518.000000	45.030060
519.000000	45.697920
520.000000	46.357860
521.000000	47.028480
522.000000	47.696220
523.000000	48.379920
524.000000	49.091700
525.000000	49.774160
526.000000	50.469420
527.000000	51.180420
528.000000	51.897820
529.000000	52.640240
530.000000	53.397760
531.000000	54.178200
532.000000	54.965300
533.000000	55.771480
534.000000	56.593140
535.000000	57.412820
536.000000	58.244820
537.000000	59.074320
538.000000	59.895980
539.000000	60.733420
540.000000	61.577900
541.000000	62.375180
542.000000	63.153600
543.000000	63.932700
544.000000	64.694760
545.000000	65.420320
546.000000	66.141820
547.000000	66.796340
548.000000	67.414800
549.000000	68.002440
550.000000	68.558720
551.000000	69.100980
552.000000	69.587000
553.000000	70.047460
554.000000	70.478580
555.000000	70.873080
556.000000	71.236340
557.000000	71.577200
558.000000	71.871500
559.000000	72.176040
560.000000	72.406300
561.000000	72.657700
562.000000	72.914500
563.000000	73.141180
564.000000	73.340740
565.000000	73.508900
566.000000	73.665960
567.000000	73.823260
568.000000	73.973380
569.000000	74.084060
570.000000	74.215440
571.000000	74.294920
572.000000	74.389880
573.000000	74.477980
574.000000	74.597120
575.000000	74.692160
576.000000	74.768140
577.000000	74.837620
578.000000	74.869120
579.000000	74.913040
580.000000	74.971600
581.000000	75.010800
582.000000	75.051300
583.000000	75.074640
584.000000	75.065500
585.000000	75.087800
586.000000	75.071000
587.000000	75.050260
588.000000	74.987760
589.000000	74.929380
590.000000	74.843080
591.000000	74.745620
592.000000	74.575320
593.000000	74.432320
594.000000	74.237820
595.000000	74.020480
596.000000	73.838060
597.000000	73.595980
598.000000	73.314880
599.000000	73.002680
600.000000	72.666240
601.000000	72.325760
602.000000	71.964300
603.000000	71.582980
604.000000	71.181240
605.000000	70.788840
606.000000	70.342160
607.000000	69.919000
608.000000	69.472580
609.000000	69.014520
610.000000	68.565320
611.000000	68.103080
612.000000	67.610120
613.000000	67.132780
614.000000	66.658920
615.000000	66.205660
616.000000	65.735540
617.000000	65.272640
618.000000	64.813160
619.000000	64.316640
620.000000	63.805040
621.000000	63.306960
622.000000	62.786940
623.000000	62.267960
624.000000	61.733720
625.000000	61.199080
626.000000	60.630860
627.000000	60.067260
628.000000	59.470120
629.000000	58.880420
630.000000	58.258280
631.000000	57.633840
632.000000	57.011420
633.000000	56.367640
634.000000	55.757920
635.000000	55.180340
636.000000	54.614540
637.000000	54.086180
638.000000	53.614920
639.000000	53.132800
640.000000	52.730940
641.000000	52.350640
642.000000	52.040760
643.000000	51.759420
644.000000	51.562380
645.000000	51.417980
646.000000	51.291540
647.000000	51.295880
648.000000	51.312920
649.000000	51.374020
650.000000	51.499380
651.000000	51.700380
652.000000	51.917360
653.000000	52.208620
654.000000	52.524700
655.000000	52.866280
656.000000	53.242460
657.000000	53.661740
658.000000	54.105800
659.000000	54.581620
660.000000	55.092860
661.000000	55.612940
662.000000	56.132000
663.000000	56.710880
664.000000	57.311700
665.000000	57.883740
666.000000	58.475040
667.000000	59.088020
668.000000	59.674900
669.000000	60.291820
670.000000	60.878480
671.000000	61.490680
672.000000	62.075500
673.000000	62.654800
674.000000	63.216000
675.000000	63.719540
676.000000	64.268600
677.000000	64.725600
678.000000	65.237740
679.000000	65.698360
680.000000	66.120060
681.000000	66.524400
682.000000	66.910960
683.000000	67.290740
684.000000	67.641320
685.000000	67.980920
686.000000	68.288240
687.000000	68.565640
688.000000	68.814240
689.000000	69.082500
690.000000	69.313580
691.000000	69.535840
692.000000	69.785100
693.000000	69.987920
694.000000	70.166780
695.000000	70.318360
696.000000	70.470380
697.000000	70.601680
698.000000	70.750460
699.000000	70.867440
700.000000	70.963740
701.000000	71.065680
702.000000	71.127280
703.000000	71.203600
704.000000	71.264780
705.000000	71.293140
706.000000	71.325740
707.000000	71.349740
708.000000	71.371160
709.000000	71.367740
710.000000	71.380820
711.000000	71.363360
712.000000	71.357200
713.000000	71.335960
714.000000	71.325000
715.000000	71.288260
716.000000	71.265940
717.000000	71.250720
718.000000	71.238420
719.000000	71.229860
720.000000	71.220100
721.000000	71.193500
722.000000	71.211340
723.000000	71.234860
724.000000	71.246180
725.000000	71.264720
726.000000	71.251300
727.000000	71.297920
728.000000	71.349460
729.000000	71.377520
730.000000	71.447680
731.000000	71.504460
732.000000	71.557980
733.000000	71.650820
734.000000	71.728960
735.000000	71.837220
736.000000	71.963660
737.000000	72.067100
738.000000	72.207100
739.000000	72.346980
740.000000	72.481780
741.000000	72.645180
742.000000	72.796120
743.000000	72.958060
744.000000	73.114920
745.000000	73.277620
746.000000	73.455780
747.000000	73.637560
748.000000	73.805900
749.000000	73.962620
750.000000	74.120520
751.000000	74.279540
752.000000	74.468340
753.000000	74.664620
754.000000	74.835040
755.000000	74.987600
756.000000	75.117660
757.000000	75.282300
758.000000	75.453280
759.000000	75.591700
760.000000	75.742580
761.000000	75.848580
762.000000	76.008880
763.000000	76.148760
764.000000	76.229160
765.000000	76.367500
766.000000	76.464660
767.000000	76.506320
768.000000	76.596480
769.000000	76.730300
770.000000	76.841140
771.000000	76.900440
772.000000	76.941020
773.000000	76.991720
774.000000	77.027860
775.000000	77.091240
776.000000	77.135060
777.000000	77.144080
778.000000	77.138700
779.000000	77.153920
780.000000	77.186060
781.000000	77.198640
782.000000	77.176480
783.000000	77.199280
784.000000	77.234880
785.000000	77.184380
786.000000	77.182440
787.000000	77.126060
788.000000	77.096960
789.000000	77.084600
790.000000	77.041120
791.000000	76.992600
792.000000	76.885860
793.000000	76.840800
794.000000	76.773580
795.000000	76.717720
796.000000	76.632280
797.000000	76.541160
798.000000	76.451320
799.000000	76.374280
800.000000	76.225500
801.000000	76.163800
802.000000	76.010600
803.000000	75.874240
804.000000	75.814940
805.000000	75.700480
806.000000	75.591320
807.000000	75.429200
808.000000	75.328320
809.000000	75.263540
810.000000	75.019080
811.000000	74.923240
812.000000	74.759120
813.000000	74.658700
814.000000	74.488120
815.000000	74.337420
816.000000	74.199720
817.000000	73.988780
818.000000	73.958040
819.000000	73.839780
820.000000	73.710880
821.000000	73.542780
822.000000	73.444400
823.000000	73.293940
824.000000	73.076360
825.000000	73.008000
826.000000	72.909620
827.000000	72.788920
828.000000	72.634860
829.000000	72.541320
830.000000	72.353520
831.000000	72.285920
832.000000	72.253620
833.000000	72.151140
834.000000	72.007280
835.000000	71.920280
836.000000	71.713520
837.000000	71.575380
838.000000	71.521660
839.000000	71.496760
840.000000	71.391680
841.000000	71.270580
842.000000	71.244200
843.000000	71.162800
844.000000	70.829820
845.000000	70.778680
846.000000	70.745060
847.000000	70.717900
848.000000	70.547940
849.000000	70.463580
850.000000	70.461920
851.000000	70.243860
852.000000	69.969840
853.000000	69.863920
854.000000	69.705120
855.000000	69.595820
856.000000	69.319580
857.000000	69.352400
858.000000	69.422600
859.000000	67.592503
860.000000	67.378034
861.000000	67.175390
862.000000	66.941456
863.000000	66.714722
864.000000	66.471481
865.000000	66.257456
866.000000	66.157939
867.000000	66.212762
868.000000	66.348974
869.000000	66.578875
870.000000	66.797459
871.000000	67.009716
872.000000	67.182898
873.000000	67.271642
874.000000	67.373053
875.000000	67.462575
876.000000	67.529288
877.000000	67.595296
878.000000	67.654624
879.000000	67.706687
880.000000	67.775126
881.000000	67.785034
882.000000	67.822763
883.000000	67.881765
884.000000	67.921009
885.000000	67.964327
886.000000	67.975952
887.000000	67.969183
888.000000	67.975980
889.000000	68.004423
890.000000	68.043900
891.000000	68.064661
892.000000	68.085008
893.000000	68.114427
894.000000	68.122708
895.000000	68.129596
896.000000	68.144403
897.000000	68.133682
898.000000	68.160927
899.000000	68.153952
900.000000	68.161970
901.000000	68.195870
902.000000	68.196985
903.000000	68.181833
904.000000	68.179712
905.000000	68.165435
906.000000	68.162150
907.000000	68.165135
908.000000	68.180668
909.000000	68.188223
910.000000	68.210945
911.000000	68.201330
912.000000	68.173517
913.000000	68.183230
914.000000	68.191220
915.000000	68.184909
916.000000	68.185372
917.000000	68.199443
918.000000	68.165189
919.000000	68.110882
920.000000	68.082596
921.000000	68.040136
922.000000	68.004166
923.000000	67.965238
924.000000	67.918543
925.000000	67.863924
926.000000	67.795799
927.000000	67.723795
928.000000	67.666113
929.000000	67.586478
930.000000	67.509568
931.000000	67.432468
932.000000	67.353188
933.000000	67.277022
934.000000	67.164485
935.000000	67.067350
936.000000	66.955357
937.000000	66.854578
938.000000	66.775333
939.000000	66.666546
940.000000	66.594223
941.000000	66.509463
942.000000	66.435898
943.000000	66.359208
944.000000	66.248479
945.000000	66.150472
946.000000	66.052072
947.000000	65.962909
948.000000	65.875146
949.000000	65.784991
950.000000	65.704393
951.000000	65.612685
952.000000	65.514654
953.000000	65.427802
954.000000	65.355488
955.000000	65.273381
956.000000	65.187344
957.000000	65.109202
958.000000	65.025144
959.000000	64.943536
960.000000	64.874086
961.000000	64.796232
962.000000	64.723913
963.000000	64.656285
964.000000	64.588686
965.000000	64.520628
966.000000	64.459404
967.000000	64.386402
968.000000	64.327675
969.000000	64.255912
970.000000	64.205742
971.000000	64.143239
972.000000	64.087554
973.000000	64.033405
974.000000	63.982508
975.000000	63.927922
976.000000	63.871837
977.000000	63.826067
978.000000	63.782695
979.000000	63.743658
980.000000	63.696126
981.000000	63.648319
982.000000	63.617442
983.000000	63.584914
984.000000	63.546365
985.000000	63.507724
986.000000	63.476413
987.000000	63.449085
988.000000	63.424680
989.000000	63.399921
990.000000	63.373224
991.000000	63.342973
992.000000	63.322117
993.000000	63.295922
994.000000	63.264775
995.000000	63.249193
996.000000	63.229274
997.000000	63.187275
998.000000	63.152274
999.000000	63.127683
1000.000000	63.095119
1001.000000	63.054049
1002.000000	63.009185
1003.000000	62.970018
1004.000000	62.925270
1005.000000	62.870737
1006.000000	62.818386
1007.000000	62.753012
1008.000000	62.690605
1009.000000	62.622659
1010.000000	62.547103
1011.000000	62.475373
1012.000000	62.406739
1013.000000	62.342404
1014.000000	62.271745
1015.000000	62.204330
1016.000000	62.148253
1017.000000	62.089188
1018.000000	62.023720
1019.000000	61.967584
1020.000000	61.917007
1021.000000	61.864583
1022.000000	61.813154
1023.000000	61.762179
1024.000000	61.718438
1025.000000	61.689283
1026.000000	61.659562
1027.000000	61.623328
1028.000000	61.591430
1029.000000	61.558821
1030.000000	61.528675
1031.000000	61.516924
1032.000000	61.498231
1033.000000	61.472088
1034.000000	61.455809
1035.000000	61.442923
1036.000000	61.437179
1037.000000	61.437130
1038.000000	61.434528
1039.000000	61.429412
1040.000000	61.432868
1041.000000	61.435783
1042.000000	61.436637
1043.000000	61.441460
1044.000000	61.452982
1045.000000	61.468903
1046.000000	61.480169
1047.000000	61.497577
1048.000000	61.517865
1049.000000	61.534346
1050.000000	61.550138
1051.000000	61.579182
1052.000000	61.613576
1053.000000	61.638715
1054.000000	61.661345
1055.000000	61.693452
1056.000000	61.722842
1057.000000	61.752709
1058.000000	61.781269
1059.000000	61.808510
1060.000000	61.831277
1061.000000	61.849365
1062.000000	61.866084
1063.000000	61.883863
1064.000000	61.901767
1065.000000	61.922612
1066.000000	61.937301
1067.000000	61.954829
1068.000000	61.956560
1069.000000	61.961402
1070.000000	61.978216
1071.000000	61.982544
1072.000000	61.981437
1073.000000	61.980879
1074.000000	61.987048
1075.000000	61.992102
1076.000000	61.989169
1077.000000	61.991554
1078.000000	61.997862
1079.000000	61.993806
1080.000000	61.996996
1081.000000	61.999948
1082.000000	62.004077
1083.000000	62.009922
1084.000000	62.013338
1085.000000	62.010910
1086.000000	62.019524
1087.000000	62.029639
1088.000000	62.037373
1089.000000	62.035212
1090.000000	62.045379
1091.000000	62.049298
1092.000000	62.055382
1093.000000	62.072506
1094.000000	62.080791
1095.000000	62.084387
1096.000000	62.084477
1097.000000	62.092424
1098.000000	62.095473
1099.000000	62.102735
1100.000000	62.106740
1101.000000	62.102152
1102.000000	62.104638
1103.000000	62.107098
1104.000000	62.104230
1105.000000	62.108523
1106.000000	62.111518
1107.000000	62.111000
1108.000000	62.100319
1109.000000	62.105538
1110.000000	62.105113
1111.000000	62.094700
1112.000000	62.077004
1113.000000	62.083900
1114.000000	62.089575
1115.000000	62.088548
1116.000000	62.085178
1117.000000	62.081037
1118.000000	62.065946
1119.000000	62.047079
1120.000000	62.026809
1121.000000	62.004519
1122.000000	61.969108
1123.000000	61.917820
1124.000000	61.868445
1125.000000	61.809425
1126.000000	61.747356
1127.000000	61.670244
1128.000000	61.592063
1129.000000	61.477528
1130.000000	61.341497
1131.000000	61.197194
1132.000000	61.032723
1133.000000	60.864590
1134.000000	60.688969
1135.000000	60.464101
1136.000000	60.186790
1137.000000	59.927883
1138.000000	59.669957
1139.000000	59.422475
1140.000000	59.194225
1141.000000	58.966412
1142.000000	58.734294
1143.000000	58.525962
1144.000000	58.319824
1145.000000	58.136137
1146.000000	58.000980
1147.000000	57.889933
1148.000000	57.831602
1149.000000	57.813193
1150.000000	57.819509
1151.000000	57.821105
1152.000000	57.816910
1153.000000	57.799334
1154.000000	57.745602
1155.000000	57.666327
1156.000000	57.556646
1157.000000	57.388922
1158.000000	57.202581
1159.000000	56.980975
1160.000000	56.763151
1161.000000	56.524268
1162.000000	56.271369
1163.000000	56.010613
1164.000000	55.739229
1165.000000	55.470997
1166.000000	55.195497
1167.000000	54.936196
1168.000000	54.662373
1169.000000	54.404065
1170.000000	54.134816
1171.000000	53.874090
1172.000000	53.624343
1173.000000	53.370347
1174.000000	53.131628
1175.000000	52.893177
1176.000000	52.660937
1177.000000	52.413759
1178.000000	52.135326
1179.000000	51.818377
1180.000000	51.456430
1181.000000	51.043872
1182.000000	50.647481
1183.000000	50.263465
1184.000000	49.946363
1185.000000	49.720641
1186.000000	49.600380
1187.000000	49.589591
1188.000000	49.676453
1189.000000	49.882127
1190.000000	50.165989
1191.000000	50.504765
1192.000000	50.881954
1193.000000	51.237862
1194.000000	51.563631
1195.000000	51.835761
1196.000000	52.049736
1197.000000	52.215061
1198.000000	52.344900
1199.000000	52.444359
1200.000000	52.515259
1201.000000	52.559431
1202.000000	52.593322
1203.000000	52.620021
1204.000000	52.633953
1205.000000	52.650311
1206.000000	52.681134
1207.000000	52.721090
1208.000000	52.766452
1209.000000	52.828493
1210.000000	52.896120
1211.000000	52.990341
1212.000000	53.071930
1213.000000	53.158237
1214.000000	53.253146
1215.000000	53.344836
1216.000000	53.444890
1217.000000	53.547857
1218.000000	53.647457
1219.000000	53.765262
1220.000000	53.886494
1221.000000	54.000692
1222.000000	54.129616
1223.000000	54.262163
1224.000000	54.402562
1225.000000	54.536581
1226.000000	54.668394
1227.000000	54.807423
1228.000000	54.943689
1229.000000	55.073007
1230.000000	55.212531
1231.000000	55.348928
1232.000000	55.484378
1233.000000	55.609570
1234.000000	55.744435
1235.000000	55.873852
1236.000000	56.003063
1237.000000	56.121055
1238.000000	56.239546
1239.000000	56.352757
1240.000000	56.468474
1241.000000	56.580811
1242.000000	56.697476
1243.000000	56.804752
1244.000000	56.912058
1245.000000	57.027506
1246.000000	57.123880
1247.000000	57.214725
1248.000000	57.302156
1249.000000	57.379823
1250.000000	57.444691
1251.000000	57.527860
1252.000000	57.594534
1253.000000	57.656501
1254.000000	57.734143
1255.000000	57.795250
1256.000000	57.838341
1257.000000	57.894132
1258.000000	57.945372
1259.000000	57.996669
1260.000000	58.042359
1261.000000	58.077129
1262.000000	58.116415
1263.000000	58.165475
1264.000000	58.210997
1265.000000	58.254103
1266.000000	58.287527
1267.000000	58.326478
1268.000000	58.364743
1269.000000	58.402435
1270.000000	58.432855
1271.000000	58.467852
1272.000000	58.507698
1273.000000	58.546445
1274.000000	58.585698
1275.000000	58.620981
1276.000000	58.652883
1277.000000	58.699667
1278.000000	58.749890
1279.000000	58.795135
1280.000000	58.847974
1281.000000	58.903850
1282.000000	58.955366
1283.000000	59.006155
1284.000000	59.057428
1285.000000	59.110858
1286.000000	59.166397
1287.000000	59.219648
1288.000000	59.266967
1289.000000	59.307477
1290.000000	59.338949
1291.000000	59.371318
1292.000000	59.396808
1293.000000	59.421560
1294.000000	59.446188
1295.000000	59.465543
1296.000000	59.476032
1297.000000	59.483620
1298.000000	59.489013
1299.000000	59.493600
1300.000000	59.500632
1301.000000	59.502803
1302.000000	59.504177
1303.000000	59.498317
1304.000000	59.486364
1305.000000	59.474030
1306.000000	59.455942
1307.000000	59.438000
1308.000000	59.409826
1309.000000	59.371386
1310.000000	59.336248
1311.000000	59.300677
1312.000000	59.264128
1313.000000	59.213685
1314.000000	59.161776
1315.000000	59.106788
1316.000000	59.043704
1317.000000	58.975306
1318.000000	58.913338
1319.000000	58.846602
1320.000000	58.772157
1321.000000	58.691211
1322.000000	58.607821
1323.000000	58.524821
1324.000000	58.437497
1325.000000	58.345250
1326.000000	58.243871
1327.000000	58.137433
1328.000000	58.031050
1329.000000	57.917679
1330.000000	57.785261
1331.000000	57.658757
1332.000000	57.525261
1333.000000	57.369455
1334.000000	57.215721
1335.000000	57.062033
1336.000000	56.894288
1337.000000	56.714313
1338.000000	56.520842
1339.000000	56.318408
1340.000000	56.119466
1341.000000	55.908631
1342.000000	55.678129
1343.000000	55.445818
1344.000000	55.215322
1345.000000	54.951242
1346.000000	54.674310
1347.000000	54.395852
1348.000000	54.093646
1349.000000	53.765756
1350.000000	53.434909
1351.000000	53.063249
1352.000000	52.632004
1353.000000	52.177948
1354.000000	51.767044
1355.000000	51.353950
1356.000000	50.973548
1357.000000	50.693482
1358.000000	50.521675
1359.000000	50.422498
1360.000000	50.368514
1361.000000	50.336930
1362.000000	50.190100
1363.000000	50.046097
1364.000000	49.914618
1365.000000	49.749072
1366.000000	49.562554
1367.000000	49.391326
1368.000000	49.169627
1369.000000	48.907322
1370.000000	48.653787
1371.000000	48.372917
1372.000000	48.018129
1373.000000	47.700630
1374.000000	47.418555
1375.000000	47.176536
1376.000000	46.977388
1377.000000	46.836322
1378.000000	46.717203
1379.000000	46.678844
1380.000000	46.564344
1381.000000	46.471254
1382.000000	46.237983
1383.000000	45.905528
1384.000000	45.522601
1385.000000	45.135713
1386.000000	44.764356
1387.000000	44.420899
1388.000000	44.096953
1389.000000	43.744042
1390.000000	43.467799
1391.000000	43.295369
1392.000000	43.073181
1393.000000	42.842871
1394.000000	42.685564
1395.000000	42.540553
1396.000000	42.298230
1397.000000	41.981467
1398.000000	41.745563
1399.000000	41.575413
1400.000000	41.332918
1401.000000	40.961986
1402.000000	40.552468
1403.000000	40.210338
1404.000000	39.854994
1405.000000	39.460509
1406.000000	39.087659
1407.000000	38.714947
1408.000000	38.359101
1409.000000	37.990074
1410.000000	37.626454
1411.000000	37.297673
1412.000000	37.007898
1413.000000	36.789889
1414.000000	36.554169
1415.000000	36.272528
1416.000000	35.999684
1417.000000	35.753897
1418.000000	35.552215
1419.000000	35.305526
1420.000000	35.057882
1421.000000	34.790145
1422.000000	34.547933
1423.000000	34.311043
1424.000000	34.072881
1425.000000	33.841770
1426.000000	33.616322
1427.000000	33.383957
1428.000000	33.196325
1429.000000	32.989579
1430.000000	32.803555
1431.000000	32.648691
1432.000000	32.475093
1433.000000	32.329184
1434.000000	32.191354
1435.000000	32.025718
1436.000000	31.879549
1437.000000	31.747255
1438.000000	31.627613
1439.000000	31.465169
1440.000000	31.325159
1441.000000	31.174094
1442.000000	31.038781
1443.000000	30.891555
1444.000000	30.758703
1445.000000	30.650023
1446.000000	30.502018
1447.000000	30.361419
1448.000000	30.227901
1449.000000	30.102703
1450.000000	29.996244
1451.000000	29.869069
1452.000000	29.747493
1453.000000	29.626987
1454.000000	29.512078
1455.000000	29.404111
1456.000000	29.301700
1457.000000	29.203539
1458.000000	29.098483
1459.000000	29.015935
1460.000000	28.932375
1461.000000	28.840170
1462.000000	28.764413
1463.000000	28.685525
1464.000000	28.622321
1465.000000	28.561990
1466.000000	28.518648
1467.000000	28.462826
1468.000000	28.415035
1469.000000	28.367541
1470.000000	28.332811
1471.000000	28.291387
1472.000000	28.253823
1473.000000	28.208482
1474.000000	28.169382
1475.000000	28.122707
1476.000000	28.082155
1477.000000	28.053006
1478.000000	28.021551
1479.000000	27.992448
1480.000000	27.952323
1481.000000	27.928305
1482.000000	27.899418
1483.000000	27.876749
1484.000000	27.859743
1485.000000	27.831036
1486.000000	27.830403
1487.000000	27.816030
1488.000000	27.809013
1489.000000	27.794203
1490.000000	27.787410
1491.000000	27.783261
1492.000000	27.775591
1493.000000	27.783339
1494.000000	27.775657
1495.000000	27.773999
1496.000000	27.778116
1497.000000	27.799147
1498.000000	27.815898
1499.000000	27.834698
1500.000000	27.852633
1501.000000	27.882058
1502.000000	27.904950
1503.000000	27.930571
1504.000000	27.961851
1505.000000	27.994053
1506.000000	28.027620
1507.000000	28.066494
1508.000000	28.108244
1509.000000	28.134226
1510.000000	28.177687
1511.000000	28.222101
1512.000000	28.264386
1513.000000	28.301304
1514.000000	28.348196
1515.000000	28.386388
1516.000000	28.424654
1517.000000	28.466358
1518.000000	28.498805
1519.000000	28.537248
1520.000000	28.583670
1521.000000	28.614085
1522.000000	28.646017
1523.000000	28.682797
1524.000000	28.727350
1525.000000	28.762774
1526.000000	28.792824
1527.000000	28.822204
1528.000000	28.862280
1529.000000	28.884628
1530.000000	28.904938
1531.000000	28.939222
1532.000000	28.976258
1533.000000	29.001853
1534.000000	29.015158
1535.000000	29.032338
1536.000000	29.053999
1537.000000	29.064356
1538.000000	29.083887
1539.000000	29.099224
1540.000000	29.104730
1541.000000	29.117821
1542.000000	29.129077
1543.000000	29.135335
1544.000000	29.144581
1545.000000	29.158675
1546.000000	29.174754
1547.000000	29.195142
1548.000000	29.215083
1549.000000	29.226521
1550.000000	29.244191
1551.000000	29.267282
1552.000000	29.282459
1553.000000	29.294325
1554.000000	29.306438
1555.000000	29.321408
1556.000000	29.324421
1557.000000	29.321974
1558.000000	29.318463
1559.000000	29.305888
1560.000000	29.293100
1561.000000	29.278135
1562.000000	29.259920
1563.000000	29.241067
1564.000000	29.217528
1565.000000	29.203671
1566.000000	29.176497
1567.000000	29.145377
1568.000000	29.126148
1569.000000	29.099486
1570.000000	29.085063
1571.000000	29.068197
1572.000000	29.045318
1573.000000	29.029840
1574.000000	29.018888
1575.000000	29.009150
1576.000000	29.007850
1577.000000	29.011405
1578.000000	29.015528
1579.000000	29.020190
1580.000000	29.027232
1581.000000	29.047231
1582.000000	29.072102
1583.000000	29.089373
1584.000000	29.116241
1585.000000	29.147204
1586.000000	29.175084
1587.000000	29.211097
1588.000000	29.248133
1589.000000	29.290390
1590.000000	29.334456
1591.000000	29.372319
1592.000000	29.419008
1593.000000	29.469045
1594.000000	29.515590
1595.000000	29.569936
1596.000000	29.625471
1597.000000	29.681394
1598.000000	29.741422
1599.000000	29.808665
1600.000000	29.874318
1601.000000	29.945235
1602.000000	30.011984
1603.000000	30.084971
1604.000000	30.165876
1605.000000	30.237065
1606.000000	30.313490
1607.000000	30.384935
1608.000000	30.459423
1609.000000	30.535737
1610.000000	30.602519
1611.000000	30.683274
1612.000000	30.755302
1613.000000	30.828618
1614.000000	30.905330
1615.000000	30.975843
1616.000000	31.055346
1617.000000	31.137443
1618.000000	31.211715
1619.000000	31.302773
1620.000000	31.388922
1621.000000	31.470162
1622.000000	31.558731
1623.000000	31.648833
1624.000000	31.732775
1625.000000	31.814622
1626.000000	31.900677
1627.000000	31.994550
1628.000000	32.090121
1629.000000	32.181252
1630.000000	32.273212
1631.000000	32.360940
1632.000000	32.443321
1633.000000	32.528630
1634.000000	32.608712
1635.000000	32.684855
1636.000000	32.765812
1637.000000	32.844834
1638.000000	32.921179
1639.000000	32.998836
1640.000000	33.066516
1641.000000	33.130136
1642.000000	33.195405
1643.000000	33.255603
1644.000000	33.323157
1645.000000	33.386956
1646.000000	33.445485
1647.000000	33.499958
1648.000000	33.549125
1649.000000	33.591689
1650.000000	33.640854
1651.000000	33.676662
1652.000000	33.697767
1653.000000	33.726189
1654.000000	33.738888
1655.000000	33.753306
1656.000000	33.755166
1657.000000	33.748866
1658.000000	33.733836
1659.000000	33.706516
1660.000000	33.680996
1661.000000	33.635800
1662.000000	33.594115
1663.000000	33.534662
1664.000000	33.450393
1665.000000	33.362533
1666.000000	33.261252
1667.000000	33.162895
1668.000000	33.024600
1669.000000	32.865577
1670.000000	32.689424
1671.000000	32.492748
1672.000000	32.265418
1673.000000	32.010291
1674.000000	31.703281
1675.000000	31.357050
1676.000000	30.944651
1677.000000	30.481225
1678.000000	29.942196
1679.000000	29.371510
1680.000000	28.761365
1681.000000	28.187232
1682.000000	27.666273
1683.000000	27.274366
1684.000000	26.998767
1685.000000	26.868374
1686.000000	26.810526
1687.000000	26.788742
1688.000000	26.761817
1689.000000	26.698705
1690.000000	26.585913
1691.000000	26.412367
1692.000000	26.222749
1693.000000	26.042237
1694.000000	25.890496
1695.000000	25.816087
1696.000000	25.803658
1697.000000	25.860191
1698.000000	25.975241
1699.000000	26.125214
1700.000000	26.301716
1701.000000	26.484493
1702.000000	26.630307
1703.000000	26.752970
1704.000000	26.847473
1705.000000	26.930912
1706.000000	26.990672
1707.000000	27.035801
1708.000000	27.062479
1709.000000	27.084552
1710.000000	27.085183
1711.000000	27.067555
1712.000000	27.043314
1713.000000	26.992007
1714.000000	26.920681
1715.000000	26.851140
1716.000000	26.775766
1717.000000	26.713533
1718.000000	26.655779
1719.000000	26.616251
1720.000000	26.574468
1721.000000	26.548106
1722.000000	26.535884
1723.000000	26.503069
1724.000000	26.465169
1725.000000	26.395814
1726.000000	26.314776
1727.000000	26.209167
1728.000000	26.075878
1729.000000	25.947971
1730.000000	25.814443
1731.000000	25.674423
1732.000000	25.567312
1733.000000	25.498643
1734.000000	25.476393
1735.000000	25.502455
1736.000000	25.574413
1737.000000	25.711901
1738.000000	25.895965
1739.000000	26.115996
1740.000000	26.354286
1741.000000	26.610367
1742.000000	26.856557
1743.000000	27.100351
1744.000000	27.294934
1745.000000	27.466326
1746.000000	27.623431
1747.000000	27.750952
1748.000000	27.849973
1749.000000	27.941734
1750.000000	28.002995
1751.000000	28.058426
1752.000000	28.101745
1753.000000	28.120263
1754.000000	28.119421
1755.000000	28.105108
1756.000000	28.071438
1757.000000	28.019015
1758.000000	27.956298
1759.000000	27.882881
1760.000000	27.812198
1761.000000	27.742810
1762.000000	27.694850
1763.000000	27.668409
1764.000000	27.675596
1765.000000	27.718777
1766.000000	27.787701
1767.000000	27.877784
1768.000000	27.991803
1769.000000	28.112074
1770.000000	28.235882
1771.000000	28.371090
1772.000000	28.511454
1773.000000	28.659507
1774.000000	28.801478
1775.000000	28.937867
1776.000000	29.065370
1777.000000	29.179736
1778.000000	29.298117
1779.000000	29.394386
1780.000000	29.481168
1781.000000	29.566297
1782.000000	29.658583
1783.000000	29.745832
1784.000000	29.830280
1785.000000	29.914817
1786.000000	29.997055
1787.000000	30.078790
1788.000000	30.157601
1789.000000	30.222388
1790.000000	30.285439
1791.000000	30.355445
1792.000000	30.416552
1793.000000	30.478338
1794.000000	30.539579
1795.000000	30.598240
1796.000000	30.644860
1797.000000	30.692528
1798.000000	30.752623
1799.000000	30.808339
1800.000000	30.867707
1801.000000	30.931756
1802.000000	30.981361
1803.000000	31.028439
1804.000000	31.084409
1805.000000	31.138766
1806.000000	31.192557
1807.000000	31.242755
1808.000000	31.289333
1809.000000	31.348738
1810.000000	31.403339
1811.000000	31.450316
1812.000000	31.477059
1813.000000	31.497217
1814.000000	31.522261
1815.000000	31.542105
1816.000000	31.552211
1817.000000	31.557286
1818.000000	31.594345
1819.000000	31.647171
1820.000000	31.676780
1821.000000	31.672946
1822.000000	31.665315
1823.000000	31.688827
1824.000000	31.746418
1825.000000	31.826732
1826.000000	31.895376
1827.000000	31.945320
1828.000000	32.015364
1829.000000	32.116092
1830.000000	32.196172
1831.000000	32.255288
1832.000000	32.322179
1833.000000	32.424875
1834.000000	32.553015
1835.000000	32.657724
1836.000000	32.718432
1837.000000	32.745900
1838.000000	32.785128
1839.000000	32.848559
1840.000000	32.902956
1841.000000	32.925467
1842.000000	32.915669
1843.000000	32.910677
1844.000000	32.971259
1845.000000	33.092757
1846.000000	33.201098
1847.000000	33.247101
1848.000000	33.232856
1849.000000	33.213634
1850.000000	33.263512
1851.000000	33.358398
1852.000000	33.420826
1853.000000	33.463452
1854.000000	33.504845
1855.000000	33.509789
1856.000000	33.510531
1857.000000	33.552887
1858.000000	33.564766
1859.000000	33.509884
1860.000000	33.446463
1861.000000	33.382942
1862.000000	33.316796
1863.000000	33.255704
1864.000000	33.216382
1865.000000	33.179643
1866.000000	33.105646
1867.000000	33.030391
1868.000000	32.920919
1869.000000	32.741433
1870.000000	32.473175
1871.000000	32.193548
1872.000000	31.891131
1873.000000	31.566183
1874.000000	31.226964
1875.000000	30.867594
1876.000000	30.486324
1877.000000	30.100416
1878.000000	29.690206
1879.000000	29.233989
1880.000000	28.794244
1881.000000	28.349995
1882.000000	27.843488
1883.000000	27.335225
1884.000000	26.825127
1885.000000	26.302389
1886.000000	25.825241
1887.000000	25.409034
1888.000000	25.057289
1889.000000	24.694016
1890.000000	24.345522
1891.000000	23.990033
1892.000000	23.604389
1893.000000	23.221765
1894.000000	22.900183
1895.000000	22.609853
1896.000000	22.363011
1897.000000	22.123665
1898.000000	21.813830
1899.000000	21.466935
1900.000000	21.126571
1901.000000	20.799361
1902.000000	20.507317
1903.000000	20.256017
1904.000000	19.994878
1905.000000	19.696195
1906.000000	19.373260
1907.000000	19.073463
1908.000000	18.811447
1909.000000	18.601073
1910.000000	18.424704
1911.000000	18.225611
1912.000000	18.005112
1913.000000	17.757600
1914.000000	17.501077
1915.000000	17.254114
1916.000000	17.068112
1917.000000	16.926414
1918.000000	16.774697
1919.000000	16.598514
1920.000000	16.430497
1921.000000	16.239491
1922.000000	16.039250
1923.000000	15.880518
1924.000000	15.775092
1925.000000	15.673960
1926.000000	15.547524
1927.000000	15.432934
1928.000000	15.325526
1929.000000	15.226023
1930.000000	15.128876
1931.000000	15.057837
1932.000000	14.995947
1933.000000	14.942185
1934.000000	14.886894
1935.000000	14.855933
1936.000000	14.827887
1937.000000	14.806682
1938.000000	14.776424
1939.000000	14.754486
1940.000000	14.744430
1941.000000	14.760456
1942.000000	14.752680
1943.000000	14.788845
1944.000000	14.806611
1945.000000	14.838842
1946.000000	14.862687
1947.000000	14.885454
1948.000000	14.940086
1949.000000	14.980373
1950.000000	15.020108
1951.000000	15.074777
1952.000000	15.136534
1953.000000	15.187203
1954.000000	15.246091
1955.000000	15.299040
1956.000000	15.366097
1957.000000	15.430992
1958.000000	15.487826
1959.000000	15.555948
1960.000000	15.621797
1961.000000	15.699706
1962.000000	15.750971
1963.000000	15.821081
1964.000000	15.887378
1965.000000	15.942993
1966.000000	16.009747
1967.000000	16.074865
1968.000000	16.139572
1969.000000	16.216435
1970.000000	16.292887
1971.000000	16.356653
1972.000000	16.425990
1973.000000	16.497872
1974.000000	16.579126
1975.000000	16.660002
1976.000000	16.728198
1977.000000	16.807843
1978.000000	16.885947
1979.000000	16.955721
1980.000000	17.034677
1981.000000	17.119736
1982.000000	17.190147
1983.000000	17.265153
1984.000000	17.352908
1985.000000	17.434356
1986.000000	17.492626
1987.000000	17.590410
1988.000000	17.646388
1989.000000	17.730446
1990.000000	17.809860
1991.000000	17.861484
1992.000000	17.926411
1993.000000	17.995199
1994.000000	18.043764
1995.000000	18.102704
1996.000000	18.168534
1997.000000	18.218921
1998.000000	18.262135
1999.000000	18.307018
2000.000000	18.351256
2001.000000	18.382126
2002.000000	18.419220
2003.000000	18.468215
2004.000000	18.478535
2005.000000	18.516219
2006.000000	18.534762
2007.000000	18.550232
2008.000000	18.559707
2009.000000	18.569902
2010.000000	18.574859
2011.000000	18.582765
2012.000000	18.566354
2013.000000	18.562527
2014.000000	18.544501
2015.000000	18.529841
2016.000000	18.500327
2017.000000	18.474396
2018.000000	18.442746
2019.000000	18.406583
2020.000000	18.379666
2021.000000	18.333557
2022.000000	18.292777
2023.000000	18.240297
2024.000000	18.186453
2025.000000	18.146880
2026.000000	18.091835
2027.000000	18.027511
2028.000000	17.960936
2029.000000	17.898118
2030.000000	17.831378
2031.000000	17.760567
2032.000000	17.678416
2033.000000	17.594307
2034.000000	17.509693
2035.000000	17.417285
2036.000000	17.325292
2037.000000	17.227633
2038.000000	17.127466
2039.000000	17.020824
2040.000000	16.910911
2041.000000	16.789403
2042.000000	16.668549
2043.000000	16.562616
2044.000000	16.455443
2045.000000	16.341857
2046.000000	16.220182
2047.000000	16.109662
2048.000000	16.018180
2049.000000	15.913757
2050.000000	15.825341
2051.000000	15.749147
2052.000000	15.678368
2053.000000	15.607792
2054.000000	15.550384
2055.000000	15.495304
2056.000000	15.460278
2057.000000	15.436977
2058.000000	15.410379
2059.000000	15.399303
2060.000000	15.390851
2061.000000	15.386893
2062.000000	15.386290
2063.000000	15.403511
2064.000000	15.411114
2065.000000	15.416865
2066.000000	15.434265
2067.000000	15.455586
2068.000000	15.468508
2069.000000	15.486757
2070.000000	15.507924
2071.000000	15.534114
2072.000000	15.558249
2073.000000	15.577200
2074.000000	15.590078
2075.000000	15.608660
2076.000000	15.628537
2077.000000	15.655184
2078.000000	15.682234
2079.000000	15.701451
2080.000000	15.719828
2081.000000	15.738076
2082.000000	15.764407
2083.000000	15.784848
2084.000000	15.797004
2085.000000	15.803244
2086.000000	15.814043
2087.000000	15.835044
2088.000000	15.850543
2089.000000	15.865846
2090.000000	15.877596
2091.000000	15.886965
2092.000000	15.901305
2093.000000	15.919153
2094.000000	15.937199
2095.000000	15.953624
2096.000000	15.977569
2097.000000	15.996019
2098.000000	16.008021
2099.000000	16.024286
2100.000000	16.047805
2101.000000	16.076313
2102.000000	16.102880
2103.000000	16.122279
2104.000000	16.143159
2105.000000	16.165338
2106.000000	16.179392
2107.000000	16.204376
2108.000000	16.239193
2109.000000	16.260994
2110.000000	16.281659
2111.000000	16.306767
2112.000000	16.334045
2113.000000	16.363695
2114.000000	16.386364
2115.000000	16.403077
2116.000000	16.420535
2117.000000	16.439682
2118.000000	16.463762
2119.000000	16.485132
2120.000000	16.500327
2121.000000	16.510980
2122.000000	16.519919
2123.000000	16.530742
2124.000000	16.540993
2125.000000	16.552689
2126.000000	16.554176
2127.000000	16.552139
2128.000000	16.554479
2129.000000	16.549228
2130.000000	16.539448
2131.000000	16.534130
2132.000000	16.520562
2133.000000	16.512580
2134.000000	16.500962
2135.000000	16.488479
2136.000000	16.471312
2137.000000	16.445113
2138.000000	16.431624
2139.000000	16.410660
2140.000000	16.379728
2141.000000	16.358202
2142.000000	16.332135
2143.000000	16.304802
2144.000000	16.280729
2145.000000	16.241521
2146.000000	16.213842
2147.000000	16.183751
2148.000000	16.143880
2149.000000	16.107596
2150.000000	16.076295
2151.000000	16.042011
2152.000000	16.008419
2153.000000	15.974943
2154.000000	15.945497
2155.000000	15.902899
2156.000000	15.855413
2157.000000	15.838948
2158.000000	15.807857
2159.000000	15.783010
2160.000000	15.758069
2161.000000	15.736185
2162.000000	15.713086
2163.000000	15.687933
2164.000000	15.673828
2165.000000	15.651780
2166.000000	15.637294
2167.000000	15.623859
2168.000000	15.609247
2169.000000	15.596791
2170.000000	15.595421
2171.000000	15.576602
2172.000000	15.579931
2173.000000	15.585411
2174.000000	15.591213
2175.000000	15.591453
2176.000000	15.603097
2177.000000	15.597166
2178.000000	15.603036
2179.000000	15.617756
2180.000000	15.631925
2181.000000	15.644590
2182.000000	15.666693
2183.000000	15.685607
2184.000000	15.697688
2185.000000	15.714763
2186.000000	15.749087
2187.000000	15.760744
2188.000000	15.778830
2189.000000	15.790583
2190.000000	15.801333
2191.000000	15.818401
2192.000000	15.838171
2193.000000	15.843151
2194.000000	15.862492
2195.000000	15.879869
2196.000000	15.898197
2197.000000	15.912487
2198.000000	15.925841
2199.000000	15.934180
2200.000000	15.943386
2201.000000	15.951454
2202.000000	15.960152
2203.000000	15.982176
2204.000000	15.993253
2205.000000	16.009319
2206.000000	16.024287
2207.000000	16.037964
2208.000000	16.056894
2209.000000	16.062324
2210.000000	16.088062
2211.000000	16.107460
2212.000000	16.130578
2213.000000	16.155892
2214.000000	16.181045
2215.000000	16.207239
2216.000000	16.221895
2217.000000	16.245492
2218.000000	16.268309
2219.000000	16.275547
2220.000000	16.300610
2221.000000	16.321686
2222.000000	16.334970
2223.000000	16.341267
2224.000000	16.347122
2225.000000	16.359101
2226.000000	16.334300
2227.000000	16.328963
2228.000000	16.312078
2229.000000	16.293261
2230.000000	16.264775
2231.000000	16.228799
2232.000000	16.191132
2233.000000	16.134107
2234.000000	16.083220
2235.000000	16.018667
2236.000000	15.934455
2237.000000	15.862567
2238.000000	15.768551
2239.000000	15.681765
2240.000000	15.562156
2241.000000	15.471566
2242.000000	15.365538
2243.000000	15.228829
2244.000000	15.091076
2245.000000	14.956645
2246.000000	14.805968
2247.000000	14.640213
2248.000000	14.477045
2249.000000	14.288125
2250.000000	14.109168
2251.000000	13.886715
2252.000000	13.663375
2253.000000	13.439383
2254.000000	13.202911
2255.000000	12.976333
2256.000000	12.721013
2257.000000	12.464236
2258.000000	12.204975
2259.000000	11.965549
2260.000000	11.732134
2261.000000	11.497826
2262.000000	11.290711
2263.000000	11.110876
2264.000000	10.927079
2265.000000	10.765558
2266.000000	10.632980
2267.000000	10.515577
2268.000000	10.433048
2269.000000	10.354469
2270.000000	10.293819
2271.000000	10.267180
2272.000000	10.252618
2273.000000	10.234601
2274.000000	10.247729
2275.000000	10.264040
2276.000000	10.293607
2277.000000	10.325291
2278.000000	10.358570
2279.000000	10.408862
2280.000000	10.464486
2281.000000	10.509580
2282.000000	10.550280
2283.000000	10.607193
2284.000000	10.654117
2285.000000	10.688031
2286.000000	10.725896
2287.000000	10.758786
2288.000000	10.768584
2289.000000	10.781327
2290.000000	10.770522
2291.000000	10.764715
2292.000000	10.738148
2293.000000	10.681013
2294.000000	10.628034
2295.000000	10.550436
2296.000000	10.473143
2297.000000	10.396661
2298.000000	10.316102
2299.000000	10.202928
2300.000000	10.115817
2301.000000	10.022212
2302.000000	9.928246
2303.000000	9.853627
2304.000000	9.789934
2305.000000	9.741238
2306.000000	9.701085
2307.000000	9.686588
2308.000000	9.695147
2309.000000	9.712622
2310.000000	9.743353
2311.000000	9.788676
2312.000000	9.859308
2313.000000	9.935983
2314.000000	10.018578
2315.000000	10.109409
2316.000000	10.215639
2317.000000	10.314030
2318.000000	10.416763
2319.000000	10.521700
2320.000000	10.626687
2321.000000	10.734622
2322.000000	10.836371
2323.000000	10.922121
2324.000000	10.999546
2325.000000	11.084425
2326.000000	11.163057
2327.000000	11.242882
2328.000000	11.307234
2329.000000	11.363058
2330.000000	11.406297
2331.000000	11.443106
2332.000000	11.492037
2333.000000	11.536001
2334.000000	11.558872
2335.000000	11.579793
2336.000000	11.592735
2337.000000	11.595703
2338.000000	11.596210
2339.000000	11.573223
2340.000000	11.551984
2341.000000	11.525658
2342.000000	11.486609
2343.000000	11.439850
2344.000000	11.389322
2345.000000	11.349657
2346.000000	11.293659
2347.000000	11.226271
2348.000000	11.173596
2349.000000	11.124446
2350.000000	11.079544
2351.000000	11.053054
2352.000000	11.027916
2353.000000	11.008473
2354.000000	11.002491
2355.000000	11.007013
2356.000000	11.025640
2357.000000	11.055658
2358.000000	11.095301
2359.000000	11.141018
2360.000000	11.184072
2361.000000	11.236521
2362.000000	11.301407
2363.000000	11.353930
2364.000000	11.411862
2365.000000	11.476165
2366.000000	11.536461
2367.000000	11.579844
2368.000000	11.627707
2369.000000	11.674359
2370.000000	11.703278
2371.000000	11.734801
2372.000000	11.767767
2373.000000	11.797434
2374.000000	11.817114
2375.000000	11.829232
2376.000000	11.847663
2377.000000	11.860774
2378.000000	11.865248
2379.000000	11.879443
2380.000000	11.890244
2381.000000	11.893412
2382.000000	11.896637
2383.000000	11.889479
2384.000000	11.888551
2385.000000	11.889158
2386.000000	11.883748
2387.000000	11.871049
2388.000000	11.862870
2389.000000	11.854255
2390.000000	11.829682
2391.000000	11.814474
2392.000000	11.802025
2393.000000	11.769547
2394.000000	11.746047
2395.000000	11.719162
2396.000000	11.690920
2397.000000	11.660800
2398.000000	11.623861
2399.000000	11.586539
2400.000000	11.568956
2401.000000	11.547703
2402.000000	11.506907
2403.000000	11.464469
2404.000000	11.437363
2405.000000	11.420845
2406.000000	11.394366
2407.000000	11.383782
2408.000000	11.352860
2409.000000	11.310310
2410.000000	11.253984
2411.000000	11.203421
2412.000000	11.176749
2413.000000	11.158138
2414.000000	11.134741
2415.000000	11.108258
2416.000000	11.089522
2417.000000	11.079259
2418.000000	11.074783
2419.000000	11.036059
2420.000000	11.014157
2421.000000	10.997300
2422.000000	10.965743
2423.000000	10.939953
2424.000000	10.935208
2425.000000	10.929616
2426.000000	10.910851
2427.000000	10.885361
2428.000000	10.859822
2429.000000	10.822861
2430.000000	10.781095
2431.000000	10.740030
2432.000000	10.690351
2433.000000	10.648994
2434.000000	10.607404
2435.000000	10.556976
2436.000000	10.511844
2437.000000	10.462582
2438.000000	10.405184
2439.000000	10.344983
2440.000000	10.289793
2441.000000	10.228054
2442.000000	10.175261
2443.000000	10.105903
2444.000000	10.045691
2445.000000	9.993671
2446.000000	9.925025
2447.000000	9.860035
2448.000000	9.789801
2449.000000	9.715785
2450.000000	9.671186
2451.000000	9.589390
2452.000000	9.531764
2453.000000	9.465319
2454.000000	9.412192
2455.000000	9.354407
2456.000000	9.285087
2457.000000	9.246169
2458.000000	9.190641
2459.000000	9.142006
2460.000000	9.094207
2461.000000	9.040855
2462.000000	9.019575
2463.000000	8.971769
2464.000000	8.971184
2465.000000	8.936112
2466.000000	8.919518
2467.000000	8.885512
2468.000000	8.891809
2469.000000	8.892400
2470.000000	8.874104
2471.000000	8.852161
2472.000000	8.854371
2473.000000	8.880593
2474.000000	8.892921
2475.000000	8.893944
2476.000000	8.868776
2477.000000	8.867096
2478.000000	8.881388
2479.000000	8.893857
2480.000000	8.881108
2481.000000	8.910873
2482.000000	8.902557
2483.000000	8.899608
2484.000000	8.874670
2485.000000	8.937446
2486.000000	8.933970
2487.000000	8.951670
2488.000000	8.968880
2489.000000	8.946235
2490.000000	8.990623
2491.000000	8.976743
2492.000000	8.997180
2493.000000	9.073163
2494.000000	9.017932
2495.000000	9.083202
2496.000000	9.076912
2497.000000	9.109742
2498.000000	9.150981
2499.000000	9.257845
2500.000000	9.234612
