PE UV       SUBTECH     SPECTRUM    ASCII       PEDS        4.00        
   -1
CICIMAUCR0013-5.Sample.ASC
24/04/23
11:02:20.00
24/04/23
11:02:20.00
Vinicio Soto Monge
C. resplendens
250,000000
1
Lambda 1050
1050L1511233
PerkinElmer UV WinLab 6.3.2.0749 / 2.02.05 Lambda 900 UV/VIS/NIR, Aug  7 2015 09:38:08

0
0
3350/servo 860,8/2
0
0
UV/VIS
1
1
1
DoubleDePol,CommonBeamDepol,RBeamAtt,SBeamAtt,60mm sphere, WB InGaAs Detector
0
0
0
0
Program
Program
3350/servo 860,8/2
3350/0,2 860,8/0,2
3350/0,2 860,8/0,2
0
15.00
 
 
 
0
 
860,8
319,2
860,8
Front
100
on
S:100 R:100
0
0
0
0
 
0
 
 
 
0
 
 
0
0
0
0
0
 
 
 
 
0
0


0
0
#HDR
-1
-1
#GR
nm
%R
1.0
0.0
2500,000000
-1,000000
2251
8
89,800900
5,734500
#DATA
250.000000	6.227900
251.000000	6.212500
252.000000	6.174433
253.000000	6.191967
254.000000	6.170433
255.000000	6.140200
256.000000	6.135267
257.000000	6.127000
258.000000	6.100667
259.000000	6.088700
260.000000	6.058033
261.000000	6.029533
262.000000	6.017267
263.000000	5.987000
264.000000	5.949400
265.000000	5.939067
266.000000	5.915433
267.000000	5.905967
268.000000	5.855567
269.000000	5.837233
270.000000	5.832833
271.000000	5.822933
272.000000	5.803667
273.000000	5.803100
274.000000	5.765967
275.000000	5.757567
276.000000	5.747433
277.000000	5.759200
278.000000	5.734967
279.000000	5.751400
280.000000	5.721733
281.000000	5.715267
282.000000	5.723167
283.000000	5.704533
284.000000	5.681300
285.000000	5.695133
286.000000	5.677100
287.000000	5.671567
288.000000	5.651333
289.000000	5.668667
290.000000	5.660700
291.000000	5.654067
292.000000	5.644367
293.000000	5.662400
294.000000	5.672867
295.000000	5.661900
296.000000	5.650033
297.000000	5.678133
298.000000	5.669100
299.000000	5.659567
300.000000	5.646700
301.000000	5.645033
302.000000	5.661933
303.000000	5.651600
304.000000	5.636633
305.000000	5.633100
306.000000	5.613133
307.000000	5.628200
308.000000	5.637367
309.000000	5.629733
310.000000	5.637133
311.000000	5.621100
312.000000	5.639667
313.000000	5.622600
314.000000	5.626067
315.000000	5.606433
316.000000	5.625167
317.000000	5.724833
318.000000	5.677500
319.000000	5.654333
320.000000	5.646267
321.000000	5.642100
322.000000	5.652300
323.000000	5.658033
324.000000	5.691000
325.000000	5.600167
326.000000	5.648167
327.000000	5.638967
328.000000	5.657867
329.000000	5.621600
330.000000	5.633767
331.000000	5.665167
332.000000	5.681200
333.000000	5.697600
334.000000	5.703467
335.000000	5.696867
336.000000	5.736900
337.000000	5.732233
338.000000	5.677000
339.000000	5.716533
340.000000	5.714467
341.000000	5.753933
342.000000	5.761900
343.000000	5.741500
344.000000	5.743967
345.000000	5.768433
346.000000	5.773300
347.000000	5.794800
348.000000	5.813567
349.000000	5.841967
350.000000	5.874133
351.000000	5.938067
352.000000	5.953800
353.000000	5.980567
354.000000	6.028633
355.000000	6.068600
356.000000	6.127767
357.000000	6.157067
358.000000	6.223033
359.000000	6.308167
360.000000	6.342167
361.000000	6.359433
362.000000	6.424600
363.000000	6.512933
364.000000	6.585800
365.000000	6.655567
366.000000	6.741133
367.000000	6.824267
368.000000	6.875333
369.000000	6.971333
370.000000	7.089267
371.000000	7.208300
372.000000	7.336067
373.000000	7.431500
374.000000	7.565933
375.000000	7.764100
376.000000	7.908700
377.000000	8.121967
378.000000	8.325967
379.000000	8.549733
380.000000	8.780533
381.000000	9.035467
382.000000	9.294667
383.000000	9.577067
384.000000	9.875367
385.000000	10.193367
386.000000	10.525133
387.000000	10.847600
388.000000	11.184233
389.000000	11.541300
390.000000	11.919267
391.000000	12.289800
392.000000	12.675500
393.000000	13.070967
394.000000	13.449300
395.000000	13.834400
396.000000	14.227200
397.000000	14.598800
398.000000	14.976700
399.000000	15.353600
400.000000	15.727533
401.000000	16.090333
402.000000	16.432600
403.000000	16.780100
404.000000	17.115233
405.000000	17.441200
406.000000	17.754800
407.000000	18.064367
408.000000	18.353600
409.000000	18.643167
410.000000	18.900133
411.000000	19.167167
412.000000	19.405333
413.000000	19.638867
414.000000	19.863767
415.000000	20.057033
416.000000	20.256433
417.000000	20.449833
418.000000	20.602333
419.000000	20.759167
420.000000	20.907967
421.000000	21.024767
422.000000	21.125067
423.000000	21.221300
424.000000	21.301600
425.000000	21.367500
426.000000	21.410267
427.000000	21.461867
428.000000	21.473767
429.000000	21.463033
430.000000	21.434000
431.000000	21.377467
432.000000	21.304000
433.000000	21.218967
434.000000	21.123967
435.000000	21.020533
436.000000	20.884433
437.000000	20.730500
438.000000	20.583333
439.000000	20.450667
440.000000	20.301667
441.000000	20.177333
442.000000	20.064900
443.000000	19.963033
444.000000	19.871400
445.000000	19.817000
446.000000	19.797267
447.000000	19.810700
448.000000	19.873333
449.000000	19.971100
450.000000	20.125200
451.000000	20.318900
452.000000	20.560933
453.000000	20.855733
454.000000	21.186600
455.000000	21.546533
456.000000	21.925700
457.000000	22.347367
458.000000	22.781533
459.000000	23.224567
460.000000	23.675767
461.000000	24.150600
462.000000	24.605633
463.000000	25.048667
464.000000	25.496667
465.000000	25.907367
466.000000	26.275333
467.000000	26.631233
468.000000	26.966200
469.000000	27.267033
470.000000	27.537833
471.000000	27.794733
472.000000	28.004500
473.000000	28.190767
474.000000	28.362400
475.000000	28.491900
476.000000	28.604800
477.000000	28.698700
478.000000	28.804500
479.000000	28.864767
480.000000	28.945867
481.000000	29.029967
482.000000	29.125300
483.000000	29.249367
484.000000	29.385200
485.000000	29.563900
486.000000	29.776667
487.000000	30.010267
488.000000	30.282467
489.000000	30.596667
490.000000	30.958233
491.000000	31.356133
492.000000	31.772433
493.000000	32.246233
494.000000	32.760433
495.000000	33.289233
496.000000	33.860700
497.000000	34.462900
498.000000	35.070100
499.000000	35.731067
500.000000	36.400933
501.000000	37.102400
502.000000	37.852900
503.000000	38.634867
504.000000	39.418067
505.000000	40.241033
506.000000	41.102533
507.000000	41.972567
508.000000	42.900100
509.000000	43.890933
510.000000	44.877433
511.000000	45.934167
512.000000	47.012167
513.000000	48.126033
514.000000	49.286233
515.000000	50.475267
516.000000	51.678933
517.000000	52.900367
518.000000	54.149700
519.000000	55.426000
520.000000	56.704067
521.000000	58.002200
522.000000	59.300900
523.000000	60.595033
524.000000	61.859800
525.000000	63.125867
526.000000	64.366467
527.000000	65.537800
528.000000	66.673367
529.000000	67.776467
530.000000	68.823667
531.000000	69.837600
532.000000	70.807867
533.000000	71.718100
534.000000	72.582333
535.000000	73.387033
536.000000	74.173933
537.000000	74.916133
538.000000	75.607900
539.000000	76.265200
540.000000	76.893967
541.000000	77.494367
542.000000	78.069500
543.000000	78.614567
544.000000	79.123000
545.000000	79.601867
546.000000	80.014833
547.000000	80.429267
548.000000	80.814033
549.000000	81.159800
550.000000	81.494200
551.000000	81.779433
552.000000	82.073167
553.000000	82.357000
554.000000	82.558833
555.000000	82.790667
556.000000	83.022433
557.000000	83.205133
558.000000	83.433267
559.000000	83.593300
560.000000	83.689200
561.000000	83.852600
562.000000	83.975567
563.000000	84.081633
564.000000	84.212233
565.000000	84.296467
566.000000	84.367833
567.000000	84.415467
568.000000	84.471600
569.000000	84.467833
570.000000	84.451800
571.000000	84.405267
572.000000	84.338000
573.000000	84.246800
574.000000	84.145200
575.000000	84.047767
576.000000	83.920600
577.000000	83.790233
578.000000	83.642067
579.000000	83.477500
580.000000	83.321333
581.000000	83.155000
582.000000	82.958967
583.000000	82.754433
584.000000	82.516633
585.000000	82.299400
586.000000	82.062500
587.000000	81.798233
588.000000	81.524833
589.000000	81.234233
590.000000	80.952167
591.000000	80.617867
592.000000	80.241967
593.000000	79.921367
594.000000	79.582367
595.000000	79.209567
596.000000	78.904567
597.000000	78.538767
598.000000	78.175333
599.000000	77.827433
600.000000	77.429567
601.000000	77.042867
602.000000	76.631467
603.000000	76.202533
604.000000	75.741433
605.000000	75.273300
606.000000	74.759833
607.000000	74.208533
608.000000	73.642600
609.000000	73.021633
610.000000	72.392200
611.000000	71.719433
612.000000	71.028067
613.000000	70.338500
614.000000	69.627900
615.000000	68.897700
616.000000	68.151367
617.000000	67.409533
618.000000	66.631533
619.000000	65.868200
620.000000	65.039533
621.000000	64.231500
622.000000	63.379100
623.000000	62.509833
624.000000	61.614500
625.000000	60.710133
626.000000	59.798433
627.000000	58.939200
628.000000	58.075233
629.000000	57.224267
630.000000	56.383567
631.000000	55.617533
632.000000	54.895400
633.000000	54.264033
634.000000	53.717500
635.000000	53.274400
636.000000	52.885200
637.000000	52.598800
638.000000	52.436933
639.000000	52.380500
640.000000	52.392700
641.000000	52.473800
642.000000	52.674367
643.000000	52.941167
644.000000	53.279967
645.000000	53.696100
646.000000	54.168100
647.000000	54.663267
648.000000	55.209833
649.000000	55.803967
650.000000	56.421167
651.000000	57.073333
652.000000	57.743933
653.000000	58.445367
654.000000	59.104100
655.000000	59.771967
656.000000	60.465800
657.000000	61.107000
658.000000	61.727300
659.000000	62.345933
660.000000	62.935933
661.000000	63.536500
662.000000	64.081767
663.000000	64.585000
664.000000	65.093700
665.000000	65.574900
666.000000	66.023900
667.000000	66.444667
668.000000	66.824233
669.000000	67.200733
670.000000	67.585600
671.000000	67.914133
672.000000	68.243433
673.000000	68.591100
674.000000	68.915100
675.000000	69.176200
676.000000	69.467467
677.000000	69.710667
678.000000	69.916733
679.000000	70.151767
680.000000	70.350433
681.000000	70.479000
682.000000	70.576900
683.000000	70.626567
684.000000	70.665633
685.000000	70.663933
686.000000	70.621967
687.000000	70.549033
688.000000	70.409933
689.000000	70.275700
690.000000	70.138200
691.000000	69.943033
692.000000	69.756533
693.000000	69.558800
694.000000	69.359800
695.000000	69.138700
696.000000	68.883733
697.000000	68.658333
698.000000	68.452600
699.000000	68.229067
700.000000	67.964467
701.000000	67.692300
702.000000	67.477567
703.000000	67.269933
704.000000	67.064267
705.000000	66.872800
706.000000	66.721900
707.000000	66.606733
708.000000	66.497900
709.000000	66.426867
710.000000	66.401833
711.000000	66.459300
712.000000	66.576067
713.000000	66.688767
714.000000	66.804133
715.000000	67.033600
716.000000	67.294433
717.000000	67.547033
718.000000	67.845600
719.000000	68.167967
720.000000	68.525433
721.000000	68.862467
722.000000	69.254667
723.000000	69.646000
724.000000	70.090233
725.000000	70.520333
726.000000	70.985600
727.000000	71.467767
728.000000	71.957933
729.000000	72.456367
730.000000	72.937233
731.000000	73.399100
732.000000	73.923367
733.000000	74.450767
734.000000	74.928967
735.000000	75.425467
736.000000	75.880067
737.000000	76.311167
738.000000	76.734500
739.000000	77.131900
740.000000	77.491133
741.000000	77.873000
742.000000	78.209233
743.000000	78.531000
744.000000	78.860600
745.000000	79.150000
746.000000	79.415733
747.000000	79.649533
748.000000	79.887867
749.000000	80.100600
750.000000	80.286700
751.000000	80.509200
752.000000	80.712833
753.000000	80.855067
754.000000	81.057267
755.000000	81.209833
756.000000	81.322767
757.000000	81.486100
758.000000	81.628867
759.000000	81.757100
760.000000	81.913433
761.000000	82.084567
762.000000	82.221800
763.000000	82.353333
764.000000	82.494200
765.000000	82.629133
766.000000	82.778400
767.000000	82.957367
768.000000	83.141000
769.000000	83.228767
770.000000	83.357333
771.000000	83.489600
772.000000	83.616933
773.000000	83.646000
774.000000	83.716133
775.000000	83.746167
776.000000	83.665733
777.000000	83.708100
778.000000	83.641467
779.000000	83.540633
780.000000	83.550167
781.000000	83.412167
782.000000	83.312533
783.000000	83.252233
784.000000	83.153267
785.000000	83.057300
786.000000	83.046367
787.000000	82.877233
788.000000	82.889567
789.000000	82.823233
790.000000	82.883533
791.000000	82.885500
792.000000	82.813867
793.000000	82.805533
794.000000	82.783300
795.000000	82.940533
796.000000	82.954067
797.000000	82.998767
798.000000	83.045967
799.000000	83.217067
800.000000	83.384100
801.000000	83.425900
802.000000	83.466100
803.000000	83.702733
804.000000	83.709433
805.000000	83.836067
806.000000	83.934233
807.000000	84.082667
808.000000	84.148567
809.000000	84.228333
810.000000	84.190667
811.000000	84.188200
812.000000	84.209300
813.000000	84.067667
814.000000	84.013433
815.000000	83.795233
816.000000	83.557967
817.000000	83.402933
818.000000	83.221667
819.000000	83.011467
820.000000	82.775700
821.000000	82.583933
822.000000	82.310167
823.000000	82.004967
824.000000	81.796133
825.000000	81.597400
826.000000	81.277067
827.000000	81.056233
828.000000	80.810200
829.000000	80.609867
830.000000	80.332433
831.000000	80.007067
832.000000	79.740633
833.000000	79.529200
834.000000	79.321133
835.000000	79.040967
836.000000	78.822100
837.000000	78.596400
838.000000	78.171033
839.000000	77.868533
840.000000	77.551133
841.000000	77.342433
842.000000	77.135533
843.000000	76.802133
844.000000	76.572800
845.000000	76.202667
846.000000	75.975000
847.000000	75.601433
848.000000	75.203700
849.000000	74.852567
850.000000	74.427233
851.000000	74.234533
852.000000	73.840467
853.000000	73.641900
854.000000	73.070933
855.000000	72.863267
856.000000	72.547533
857.000000	72.291300
858.000000	72.567367
859.000000	72.626919
860.000000	72.512043
861.000000	73.043730
862.000000	73.049718
863.000000	73.173749
864.000000	73.301158
865.000000	73.353940
866.000000	73.522858
867.000000	73.575864
868.000000	73.284963
869.000000	73.501072
870.000000	73.634451
871.000000	73.460822
872.000000	73.384573
873.000000	73.202218
874.000000	73.298712
875.000000	73.359782
876.000000	73.234062
877.000000	73.132327
878.000000	73.158691
879.000000	73.176991
880.000000	73.076311
881.000000	73.059807
882.000000	72.845134
883.000000	72.737171
884.000000	72.699757
885.000000	72.625204
886.000000	72.568426
887.000000	72.403573
888.000000	72.320232
889.000000	72.225550
890.000000	72.063687
891.000000	72.002059
892.000000	71.896827
893.000000	71.824719
894.000000	71.685645
895.000000	71.540770
896.000000	71.479877
897.000000	71.283464
898.000000	71.129863
899.000000	71.048074
900.000000	70.935284
901.000000	70.823129
902.000000	70.726824
903.000000	70.563364
904.000000	70.396802
905.000000	70.268102
906.000000	70.059177
907.000000	69.896551
908.000000	69.767939
909.000000	69.627029
910.000000	69.467741
911.000000	69.361459
912.000000	69.313689
913.000000	69.160739
914.000000	69.021998
915.000000	68.990760
916.000000	68.883350
917.000000	68.755448
918.000000	68.690819
919.000000	68.585119
920.000000	68.480074
921.000000	68.413971
922.000000	68.348263
923.000000	68.258685
924.000000	68.176415
925.000000	68.099246
926.000000	68.059921
927.000000	67.971721
928.000000	67.918230
929.000000	67.845843
930.000000	67.793850
931.000000	67.739192
932.000000	67.653997
933.000000	67.585217
934.000000	67.501450
935.000000	67.409533
936.000000	67.315503
937.000000	67.281679
938.000000	67.222643
939.000000	67.102911
940.000000	66.998587
941.000000	66.890553
942.000000	66.811144
943.000000	66.711336
944.000000	66.610928
945.000000	66.483503
946.000000	66.395746
947.000000	66.300242
948.000000	66.223309
949.000000	66.122063
950.000000	66.024467
951.000000	65.921703
952.000000	65.785710
953.000000	65.713680
954.000000	65.624595
955.000000	65.531091
956.000000	65.423211
957.000000	65.314606
958.000000	65.252470
959.000000	65.185925
960.000000	65.069335
961.000000	64.983482
962.000000	64.919320
963.000000	64.845488
964.000000	64.754550
965.000000	64.666883
966.000000	64.635868
967.000000	64.583399
968.000000	64.537452
969.000000	64.489929
970.000000	64.432132
971.000000	64.384804
972.000000	64.328649
973.000000	64.284395
974.000000	64.207964
975.000000	64.143259
976.000000	64.066262
977.000000	64.004367
978.000000	63.925851
979.000000	63.840182
980.000000	63.792127
981.000000	63.709802
982.000000	63.639038
983.000000	63.579590
984.000000	63.478360
985.000000	63.384962
986.000000	63.328563
987.000000	63.261543
988.000000	63.189230
989.000000	63.107892
990.000000	63.048854
991.000000	62.985169
992.000000	62.926926
993.000000	62.868684
994.000000	62.829800
995.000000	62.800853
996.000000	62.746799
997.000000	62.687448
998.000000	62.659956
999.000000	62.614879
1000.000000	62.571459
1001.000000	62.529951
1002.000000	62.515303
1003.000000	62.505923
1004.000000	62.474898
1005.000000	62.451567
1006.000000	62.434932
1007.000000	62.419814
1008.000000	62.389692
1009.000000	62.353610
1010.000000	62.342495
1011.000000	62.316715
1012.000000	62.317251
1013.000000	62.333444
1014.000000	62.340742
1015.000000	62.335069
1016.000000	62.364618
1017.000000	62.397574
1018.000000	62.433147
1019.000000	62.447689
1020.000000	62.479479
1021.000000	62.512614
1022.000000	62.573413
1023.000000	62.618437
1024.000000	62.667588
1025.000000	62.718014
1026.000000	62.759085
1027.000000	62.828490
1028.000000	62.880048
1029.000000	62.941529
1030.000000	62.987433
1031.000000	63.034812
1032.000000	63.086124
1033.000000	63.128232
1034.000000	63.194849
1035.000000	63.245215
1036.000000	63.312161
1037.000000	63.348559
1038.000000	63.418782
1039.000000	63.477200
1040.000000	63.531030
1041.000000	63.576211
1042.000000	63.629617
1043.000000	63.680222
1044.000000	63.746808
1045.000000	63.788837
1046.000000	63.834761
1047.000000	63.887647
1048.000000	63.958845
1049.000000	64.007790
1050.000000	64.055351
1051.000000	64.130299
1052.000000	64.207175
1053.000000	64.261291
1054.000000	64.325510
1055.000000	64.394559
1056.000000	64.453271
1057.000000	64.536617
1058.000000	64.622484
1059.000000	64.687079
1060.000000	64.751024
1061.000000	64.804265
1062.000000	64.874432
1063.000000	64.949876
1064.000000	65.014829
1065.000000	65.085194
1066.000000	65.150277
1067.000000	65.221974
1068.000000	65.281604
1069.000000	65.354421
1070.000000	65.406014
1071.000000	65.470007
1072.000000	65.544568
1073.000000	65.600618
1074.000000	65.661827
1075.000000	65.713702
1076.000000	65.784950
1077.000000	65.850229
1078.000000	65.903396
1079.000000	65.986314
1080.000000	66.056580
1081.000000	66.106125
1082.000000	66.184850
1083.000000	66.251336
1084.000000	66.332749
1085.000000	66.401081
1086.000000	66.468523
1087.000000	66.536339
1088.000000	66.605974
1089.000000	66.657293
1090.000000	66.722866
1091.000000	66.785680
1092.000000	66.857875
1093.000000	66.918941
1094.000000	66.973035
1095.000000	67.029329
1096.000000	67.076181
1097.000000	67.124072
1098.000000	67.180937
1099.000000	67.222660
1100.000000	67.267299
1101.000000	67.297631
1102.000000	67.345904
1103.000000	67.375519
1104.000000	67.403493
1105.000000	67.448160
1106.000000	67.491311
1107.000000	67.516091
1108.000000	67.553029
1109.000000	67.577113
1110.000000	67.602392
1111.000000	67.618898
1112.000000	67.644257
1113.000000	67.678026
1114.000000	67.711629
1115.000000	67.749953
1116.000000	67.773189
1117.000000	67.805137
1118.000000	67.826459
1119.000000	67.827011
1120.000000	67.810702
1121.000000	67.803311
1122.000000	67.800537
1123.000000	67.772190
1124.000000	67.730764
1125.000000	67.663091
1126.000000	67.612651
1127.000000	67.529301
1128.000000	67.434580
1129.000000	67.324494
1130.000000	67.169197
1131.000000	66.939259
1132.000000	66.696986
1133.000000	66.440842
1134.000000	66.212089
1135.000000	65.949470
1136.000000	65.587522
1137.000000	65.192033
1138.000000	64.802886
1139.000000	64.460116
1140.000000	64.104514
1141.000000	63.796840
1142.000000	63.453642
1143.000000	63.130968
1144.000000	62.837913
1145.000000	62.583530
1146.000000	62.399547
1147.000000	62.278264
1148.000000	62.225688
1149.000000	62.241270
1150.000000	62.264126
1151.000000	62.281167
1152.000000	62.294773
1153.000000	62.288427
1154.000000	62.232557
1155.000000	62.104990
1156.000000	61.936089
1157.000000	61.696820
1158.000000	61.433042
1159.000000	61.101427
1160.000000	60.760386
1161.000000	60.409077
1162.000000	60.050785
1163.000000	59.682917
1164.000000	59.286465
1165.000000	58.917235
1166.000000	58.525877
1167.000000	58.155353
1168.000000	57.789104
1169.000000	57.419801
1170.000000	57.060712
1171.000000	56.690943
1172.000000	56.346721
1173.000000	56.000517
1174.000000	55.670078
1175.000000	55.372788
1176.000000	55.055124
1177.000000	54.716219
1178.000000	54.344198
1179.000000	53.909563
1180.000000	53.410241
1181.000000	52.872973
1182.000000	52.332148
1183.000000	51.836800
1184.000000	51.437025
1185.000000	51.181680
1186.000000	51.074008
1187.000000	51.088795
1188.000000	51.250439
1189.000000	51.560238
1190.000000	51.971335
1191.000000	52.454917
1192.000000	52.983912
1193.000000	53.483927
1194.000000	53.919178
1195.000000	54.292279
1196.000000	54.588545
1197.000000	54.814724
1198.000000	54.987055
1199.000000	55.102403
1200.000000	55.196692
1201.000000	55.268407
1202.000000	55.314021
1203.000000	55.344194
1204.000000	55.366352
1205.000000	55.399172
1206.000000	55.438193
1207.000000	55.498913
1208.000000	55.563946
1209.000000	55.658913
1210.000000	55.757781
1211.000000	55.861283
1212.000000	55.976831
1213.000000	56.098663
1214.000000	56.224024
1215.000000	56.351017
1216.000000	56.488848
1217.000000	56.630076
1218.000000	56.774450
1219.000000	56.929701
1220.000000	57.096649
1221.000000	57.270706
1222.000000	57.455272
1223.000000	57.644068
1224.000000	57.839182
1225.000000	58.042744
1226.000000	58.238368
1227.000000	58.439783
1228.000000	58.635734
1229.000000	58.841259
1230.000000	59.045934
1231.000000	59.239096
1232.000000	59.437412
1233.000000	59.636538
1234.000000	59.836992
1235.000000	60.027039
1236.000000	60.215575
1237.000000	60.399056
1238.000000	60.581567
1239.000000	60.753186
1240.000000	60.931653
1241.000000	61.107302
1242.000000	61.280289
1243.000000	61.442359
1244.000000	61.594316
1245.000000	61.736760
1246.000000	61.881355
1247.000000	62.016478
1248.000000	62.132711
1249.000000	62.245280
1250.000000	62.352450
1251.000000	62.447843
1252.000000	62.535235
1253.000000	62.620547
1254.000000	62.703512
1255.000000	62.779885
1256.000000	62.855369
1257.000000	62.934228
1258.000000	62.992587
1259.000000	63.050734
1260.000000	63.108263
1261.000000	63.160466
1262.000000	63.219126
1263.000000	63.274487
1264.000000	63.329558
1265.000000	63.380832
1266.000000	63.431504
1267.000000	63.481199
1268.000000	63.524809
1269.000000	63.573837
1270.000000	63.618596
1271.000000	63.658043
1272.000000	63.701734
1273.000000	63.753295
1274.000000	63.788992
1275.000000	63.850262
1276.000000	63.901225
1277.000000	63.956136
1278.000000	64.023339
1279.000000	64.093908
1280.000000	64.156678
1281.000000	64.226050
1282.000000	64.289345
1283.000000	64.362488
1284.000000	64.434886
1285.000000	64.503691
1286.000000	64.576937
1287.000000	64.633639
1288.000000	64.690669
1289.000000	64.749325
1290.000000	64.794440
1291.000000	64.834880
1292.000000	64.859571
1293.000000	64.888113
1294.000000	64.916161
1295.000000	64.932361
1296.000000	64.952523
1297.000000	64.966057
1298.000000	64.971549
1299.000000	64.981814
1300.000000	64.990471
1301.000000	64.994704
1302.000000	65.003312
1303.000000	65.009047
1304.000000	65.002316
1305.000000	64.993698
1306.000000	64.976965
1307.000000	64.954918
1308.000000	64.921180
1309.000000	64.882295
1310.000000	64.842415
1311.000000	64.793087
1312.000000	64.737926
1313.000000	64.679208
1314.000000	64.624146
1315.000000	64.554594
1316.000000	64.482853
1317.000000	64.405056
1318.000000	64.325220
1319.000000	64.250311
1320.000000	64.154041
1321.000000	64.053262
1322.000000	63.966152
1323.000000	63.855900
1324.000000	63.755202
1325.000000	63.640334
1326.000000	63.514599
1327.000000	63.395704
1328.000000	63.253336
1329.000000	63.113201
1330.000000	62.966146
1331.000000	62.796889
1332.000000	62.617027
1333.000000	62.437239
1334.000000	62.245728
1335.000000	62.031762
1336.000000	61.825354
1337.000000	61.584201
1338.000000	61.350064
1339.000000	61.100335
1340.000000	60.829520
1341.000000	60.544451
1342.000000	60.244847
1343.000000	59.932814
1344.000000	59.622910
1345.000000	59.278235
1346.000000	58.885629
1347.000000	58.518223
1348.000000	58.132357
1349.000000	57.679472
1350.000000	57.185116
1351.000000	56.635793
1352.000000	56.033330
1353.000000	55.371889
1354.000000	54.809746
1355.000000	54.262672
1356.000000	53.788507
1357.000000	53.436353
1358.000000	53.201759
1359.000000	53.074331
1360.000000	52.974849
1361.000000	52.975790
1362.000000	52.952159
1363.000000	52.708422
1364.000000	52.482600
1365.000000	52.327773
1366.000000	52.063064
1367.000000	51.808016
1368.000000	51.561492
1369.000000	51.221101
1370.000000	50.850096
1371.000000	50.512154
1372.000000	50.123474
1373.000000	49.686394
1374.000000	49.282928
1375.000000	48.956853
1376.000000	48.739659
1377.000000	48.574731
1378.000000	48.459979
1379.000000	48.394681
1380.000000	48.317327
1381.000000	48.212347
1382.000000	48.028539
1383.000000	47.752816
1384.000000	47.323076
1385.000000	46.882470
1386.000000	46.391259
1387.000000	46.003298
1388.000000	45.719163
1389.000000	45.392350
1390.000000	45.058736
1391.000000	44.815714
1392.000000	44.654908
1393.000000	44.460391
1394.000000	44.255632
1395.000000	44.130529
1396.000000	44.018246
1397.000000	43.724109
1398.000000	43.358876
1399.000000	43.083378
1400.000000	42.867291
1401.000000	42.561822
1402.000000	42.069474
1403.000000	41.590654
1404.000000	41.189226
1405.000000	40.811174
1406.000000	40.374467
1407.000000	39.969667
1408.000000	39.563714
1409.000000	39.192268
1410.000000	38.847889
1411.000000	38.488495
1412.000000	38.160780
1413.000000	37.946789
1414.000000	37.755408
1415.000000	37.528604
1416.000000	37.224010
1417.000000	36.931556
1418.000000	36.725439
1419.000000	36.519250
1420.000000	36.258160
1421.000000	35.977386
1422.000000	35.695955
1423.000000	35.471335
1424.000000	35.247946
1425.000000	34.976496
1426.000000	34.725416
1427.000000	34.477163
1428.000000	34.267977
1429.000000	34.089929
1430.000000	33.861805
1431.000000	33.697979
1432.000000	33.555201
1433.000000	33.399670
1434.000000	33.230545
1435.000000	33.073158
1436.000000	32.903347
1437.000000	32.777849
1438.000000	32.653985
1439.000000	32.491467
1440.000000	32.338805
1441.000000	32.186186
1442.000000	32.040652
1443.000000	31.892561
1444.000000	31.726217
1445.000000	31.604502
1446.000000	31.474505
1447.000000	31.305379
1448.000000	31.140826
1449.000000	30.989859
1450.000000	30.880410
1451.000000	30.769721
1452.000000	30.638749
1453.000000	30.494724
1454.000000	30.354581
1455.000000	30.251899
1456.000000	30.158983
1457.000000	30.035515
1458.000000	29.931370
1459.000000	29.828968
1460.000000	29.737352
1461.000000	29.652557
1462.000000	29.572316
1463.000000	29.486747
1464.000000	29.422164
1465.000000	29.357999
1466.000000	29.309829
1467.000000	29.272416
1468.000000	29.216601
1469.000000	29.172147
1470.000000	29.134029
1471.000000	29.106163
1472.000000	29.060868
1473.000000	29.029332
1474.000000	28.983632
1475.000000	28.945776
1476.000000	28.894592
1477.000000	28.865403
1478.000000	28.835332
1479.000000	28.785289
1480.000000	28.773228
1481.000000	28.752732
1482.000000	28.729644
1483.000000	28.700829
1484.000000	28.675821
1485.000000	28.658682
1486.000000	28.655467
1487.000000	28.652622
1488.000000	28.642041
1489.000000	28.635440
1490.000000	28.637788
1491.000000	28.636696
1492.000000	28.622189
1493.000000	28.632117
1494.000000	28.638935
1495.000000	28.643888
1496.000000	28.645756
1497.000000	28.666890
1498.000000	28.688164
1499.000000	28.710530
1500.000000	28.729901
1501.000000	28.754171
1502.000000	28.776789
1503.000000	28.807319
1504.000000	28.847567
1505.000000	28.880556
1506.000000	28.913304
1507.000000	28.948071
1508.000000	28.978189
1509.000000	29.023208
1510.000000	29.060482
1511.000000	29.096379
1512.000000	29.135605
1513.000000	29.163448
1514.000000	29.208077
1515.000000	29.236839
1516.000000	29.265435
1517.000000	29.309250
1518.000000	29.349542
1519.000000	29.376917
1520.000000	29.407374
1521.000000	29.443975
1522.000000	29.470560
1523.000000	29.497600
1524.000000	29.530475
1525.000000	29.565541
1526.000000	29.585427
1527.000000	29.607587
1528.000000	29.637291
1529.000000	29.672207
1530.000000	29.688592
1531.000000	29.707837
1532.000000	29.723309
1533.000000	29.737345
1534.000000	29.761594
1535.000000	29.762873
1536.000000	29.773585
1537.000000	29.782751
1538.000000	29.778627
1539.000000	29.786051
1540.000000	29.790852
1541.000000	29.796953
1542.000000	29.803495
1543.000000	29.814065
1544.000000	29.800659
1545.000000	29.798093
1546.000000	29.807188
1547.000000	29.813449
1548.000000	29.815764
1549.000000	29.821571
1550.000000	29.841325
1551.000000	29.847017
1552.000000	29.856269
1553.000000	29.850695
1554.000000	29.855097
1555.000000	29.852569
1556.000000	29.836105
1557.000000	29.821748
1558.000000	29.815347
1559.000000	29.800863
1560.000000	29.786969
1561.000000	29.768861
1562.000000	29.724895
1563.000000	29.701058
1564.000000	29.672169
1565.000000	29.640884
1566.000000	29.614487
1567.000000	29.582224
1568.000000	29.566573
1569.000000	29.521810
1570.000000	29.478606
1571.000000	29.457110
1572.000000	29.438390
1573.000000	29.422564
1574.000000	29.422839
1575.000000	29.416822
1576.000000	29.406888
1577.000000	29.397710
1578.000000	29.390827
1579.000000	29.392701
1580.000000	29.416351
1581.000000	29.431267
1582.000000	29.449307
1583.000000	29.458655
1584.000000	29.481992
1585.000000	29.514644
1586.000000	29.555152
1587.000000	29.584098
1588.000000	29.625041
1589.000000	29.667234
1590.000000	29.703759
1591.000000	29.744836
1592.000000	29.808978
1593.000000	29.859836
1594.000000	29.910884
1595.000000	29.967841
1596.000000	30.025302
1597.000000	30.079492
1598.000000	30.154967
1599.000000	30.216280
1600.000000	30.289027
1601.000000	30.358281
1602.000000	30.428177
1603.000000	30.517031
1604.000000	30.599008
1605.000000	30.673415
1606.000000	30.759493
1607.000000	30.825161
1608.000000	30.898138
1609.000000	30.984857
1610.000000	31.066057
1611.000000	31.144997
1612.000000	31.223009
1613.000000	31.317312
1614.000000	31.391271
1615.000000	31.479452
1616.000000	31.576795
1617.000000	31.654469
1618.000000	31.761642
1619.000000	31.845443
1620.000000	31.929749
1621.000000	32.031795
1622.000000	32.115419
1623.000000	32.220097
1624.000000	32.300204
1625.000000	32.411402
1626.000000	32.508222
1627.000000	32.604486
1628.000000	32.699555
1629.000000	32.792819
1630.000000	32.894350
1631.000000	33.000954
1632.000000	33.097526
1633.000000	33.173437
1634.000000	33.269622
1635.000000	33.350656
1636.000000	33.447114
1637.000000	33.528649
1638.000000	33.597426
1639.000000	33.678406
1640.000000	33.751561
1641.000000	33.829925
1642.000000	33.893781
1643.000000	33.982243
1644.000000	34.032988
1645.000000	34.094297
1646.000000	34.172914
1647.000000	34.226319
1648.000000	34.280600
1649.000000	34.339560
1650.000000	34.388917
1651.000000	34.408063
1652.000000	34.435492
1653.000000	34.464636
1654.000000	34.480689
1655.000000	34.490368
1656.000000	34.493229
1657.000000	34.485292
1658.000000	34.462298
1659.000000	34.431569
1660.000000	34.411317
1661.000000	34.355243
1662.000000	34.314770
1663.000000	34.240832
1664.000000	34.168198
1665.000000	34.072667
1666.000000	33.966485
1667.000000	33.858760
1668.000000	33.717467
1669.000000	33.559807
1670.000000	33.381162
1671.000000	33.156734
1672.000000	32.900567
1673.000000	32.624751
1674.000000	32.293938
1675.000000	31.886677
1676.000000	31.451083
1677.000000	30.919831
1678.000000	30.341341
1679.000000	29.688277
1680.000000	29.049335
1681.000000	28.425358
1682.000000	27.900781
1683.000000	27.514566
1684.000000	27.284110
1685.000000	27.176092
1686.000000	27.152720
1687.000000	27.147639
1688.000000	27.108756
1689.000000	27.040656
1690.000000	26.902994
1691.000000	26.721341
1692.000000	26.513637
1693.000000	26.326653
1694.000000	26.160921
1695.000000	26.093072
1696.000000	26.087285
1697.000000	26.134640
1698.000000	26.270041
1699.000000	26.441747
1700.000000	26.622472
1701.000000	26.789720
1702.000000	26.949178
1703.000000	27.078547
1704.000000	27.169902
1705.000000	27.235487
1706.000000	27.287542
1707.000000	27.334024
1708.000000	27.355691
1709.000000	27.372072
1710.000000	27.372615
1711.000000	27.364714
1712.000000	27.335143
1713.000000	27.289842
1714.000000	27.221950
1715.000000	27.167401
1716.000000	27.101927
1717.000000	27.038163
1718.000000	27.008214
1719.000000	26.965316
1720.000000	26.946781
1721.000000	26.959692
1722.000000	26.938557
1723.000000	26.902060
1724.000000	26.875800
1725.000000	26.807565
1726.000000	26.725531
1727.000000	26.609018
1728.000000	26.465300
1729.000000	26.338705
1730.000000	26.199126
1731.000000	26.055700
1732.000000	25.948783
1733.000000	25.893542
1734.000000	25.882819
1735.000000	25.911475
1736.000000	26.006083
1737.000000	26.162035
1738.000000	26.365886
1739.000000	26.619837
1740.000000	26.865434
1741.000000	27.143104
1742.000000	27.411070
1743.000000	27.655375
1744.000000	27.872040
1745.000000	28.053488
1746.000000	28.211112
1747.000000	28.353243
1748.000000	28.468195
1749.000000	28.574406
1750.000000	28.652143
1751.000000	28.717318
1752.000000	28.759377
1753.000000	28.774520
1754.000000	28.789573
1755.000000	28.776578
1756.000000	28.743142
1757.000000	28.700575
1758.000000	28.636284
1759.000000	28.544620
1760.000000	28.477404
1761.000000	28.423634
1762.000000	28.386646
1763.000000	28.379385
1764.000000	28.382170
1765.000000	28.431276
1766.000000	28.509381
1767.000000	28.602084
1768.000000	28.732157
1769.000000	28.877700
1770.000000	29.030972
1771.000000	29.171204
1772.000000	29.331512
1773.000000	29.491547
1774.000000	29.650599
1775.000000	29.794031
1776.000000	29.924167
1777.000000	30.041434
1778.000000	30.151394
1779.000000	30.269814
1780.000000	30.376751
1781.000000	30.471109
1782.000000	30.559790
1783.000000	30.658278
1784.000000	30.755505
1785.000000	30.846048
1786.000000	30.936093
1787.000000	31.009508
1788.000000	31.086131
1789.000000	31.169260
1790.000000	31.229898
1791.000000	31.286748
1792.000000	31.364224
1793.000000	31.426671
1794.000000	31.489736
1795.000000	31.554997
1796.000000	31.603105
1797.000000	31.663544
1798.000000	31.683349
1799.000000	31.725112
1800.000000	31.804625
1801.000000	31.881637
1802.000000	31.941190
1803.000000	31.980196
1804.000000	32.001673
1805.000000	32.063209
1806.000000	32.136869
1807.000000	32.205166
1808.000000	32.238066
1809.000000	32.273336
1810.000000	32.315003
1811.000000	32.361588
1812.000000	32.420737
1813.000000	32.436739
1814.000000	32.422041
1815.000000	32.447978
1816.000000	32.445723
1817.000000	32.447565
1818.000000	32.423793
1819.000000	32.432033
1820.000000	32.528651
1821.000000	32.625985
1822.000000	32.659315
1823.000000	32.632599
1824.000000	32.569686
1825.000000	32.624423
1826.000000	32.755754
1827.000000	32.819984
1828.000000	32.899252
1829.000000	32.990200
1830.000000	33.107624
1831.000000	33.231879
1832.000000	33.294218
1833.000000	33.331619
1834.000000	33.375940
1835.000000	33.484720
1836.000000	33.652581
1837.000000	33.756686
1838.000000	33.781731
1839.000000	33.780576
1840.000000	33.833031
1841.000000	33.938364
1842.000000	34.024847
1843.000000	34.002105
1844.000000	33.947599
1845.000000	33.907225
1846.000000	33.978050
1847.000000	34.196837
1848.000000	34.407481
1849.000000	34.429371
1850.000000	34.415855
1851.000000	34.397001
1852.000000	34.369081
1853.000000	34.501051
1854.000000	34.626295
1855.000000	34.600166
1856.000000	34.661822
1857.000000	34.668097
1858.000000	34.641196
1859.000000	34.691041
1860.000000	34.778890
1861.000000	34.681989
1862.000000	34.565293
1863.000000	34.497399
1864.000000	34.431365
1865.000000	34.330987
1866.000000	34.169613
1867.000000	34.163231
1868.000000	34.114950
1869.000000	33.891604
1870.000000	33.700434
1871.000000	33.537731
1872.000000	33.286223
1873.000000	33.056329
1874.000000	32.683678
1875.000000	32.290230
1876.000000	31.927959
1877.000000	31.556542
1878.000000	31.039905
1879.000000	30.566316
1880.000000	30.052129
1881.000000	29.534269
1882.000000	28.969558
1883.000000	28.476649
1884.000000	27.997507
1885.000000	27.500782
1886.000000	27.046023
1887.000000	26.625724
1888.000000	26.246508
1889.000000	25.896758
1890.000000	25.588399
1891.000000	25.245007
1892.000000	24.925471
1893.000000	24.595119
1894.000000	24.234746
1895.000000	23.900280
1896.000000	23.624871
1897.000000	23.304310
1898.000000	23.021228
1899.000000	22.764884
1900.000000	22.497411
1901.000000	22.097914
1902.000000	21.855780
1903.000000	21.566198
1904.000000	21.302141
1905.000000	21.120505
1906.000000	20.856800
1907.000000	20.552551
1908.000000	20.200961
1909.000000	19.935274
1910.000000	19.732508
1911.000000	19.518595
1912.000000	19.290285
1913.000000	19.073433
1914.000000	18.872367
1915.000000	18.632003
1916.000000	18.471479
1917.000000	18.212993
1918.000000	18.003171
1919.000000	17.873092
1920.000000	17.777169
1921.000000	17.559807
1922.000000	17.374226
1923.000000	17.247800
1924.000000	17.115921
1925.000000	16.971982
1926.000000	16.813638
1927.000000	16.707734
1928.000000	16.621910
1929.000000	16.542987
1930.000000	16.456846
1931.000000	16.388351
1932.000000	16.296143
1933.000000	16.244474
1934.000000	16.208251
1935.000000	16.160368
1936.000000	16.096825
1937.000000	16.075615
1938.000000	16.092820
1939.000000	16.107722
1940.000000	16.118126
1941.000000	16.100143
1942.000000	16.096061
1943.000000	16.081174
1944.000000	16.106554
1945.000000	16.125832
1946.000000	16.189729
1947.000000	16.219211
1948.000000	16.268596
1949.000000	16.317401
1950.000000	16.351996
1951.000000	16.423046
1952.000000	16.489680
1953.000000	16.538973
1954.000000	16.613101
1955.000000	16.666657
1956.000000	16.742548
1957.000000	16.831442
1958.000000	16.882343
1959.000000	16.952190
1960.000000	17.013857
1961.000000	17.078168
1962.000000	17.138253
1963.000000	17.217025
1964.000000	17.289619
1965.000000	17.351970
1966.000000	17.419555
1967.000000	17.496518
1968.000000	17.574992
1969.000000	17.637364
1970.000000	17.705250
1971.000000	17.792143
1972.000000	17.880566
1973.000000	17.945875
1974.000000	18.013397
1975.000000	18.098332
1976.000000	18.152116
1977.000000	18.235414
1978.000000	18.332468
1979.000000	18.410310
1980.000000	18.487009
1981.000000	18.561167
1982.000000	18.641528
1983.000000	18.732072
1984.000000	18.789425
1985.000000	18.853852
1986.000000	18.943781
1987.000000	19.016437
1988.000000	19.074336
1989.000000	19.158675
1990.000000	19.226699
1991.000000	19.288047
1992.000000	19.338134
1993.000000	19.387981
1994.000000	19.442254
1995.000000	19.510730
1996.000000	19.579398
1997.000000	19.636737
1998.000000	19.681657
1999.000000	19.693297
2000.000000	19.731242
2001.000000	19.743040
2002.000000	19.770618
2003.000000	19.811081
2004.000000	19.839129
2005.000000	19.863971
2006.000000	19.862340
2007.000000	19.878802
2008.000000	19.854537
2009.000000	19.895113
2010.000000	19.926806
2011.000000	19.893389
2012.000000	19.849405
2013.000000	19.851944
2014.000000	19.855085
2015.000000	19.817637
2016.000000	19.752995
2017.000000	19.699418
2018.000000	19.674132
2019.000000	19.641218
2020.000000	19.615431
2021.000000	19.543379
2022.000000	19.464427
2023.000000	19.432288
2024.000000	19.395509
2025.000000	19.362363
2026.000000	19.266209
2027.000000	19.195374
2028.000000	19.095715
2029.000000	19.029732
2030.000000	18.966174
2031.000000	18.879404
2032.000000	18.774918
2033.000000	18.689083
2034.000000	18.637647
2035.000000	18.518256
2036.000000	18.410679
2037.000000	18.344621
2038.000000	18.246376
2039.000000	18.109219
2040.000000	17.963573
2041.000000	17.859962
2042.000000	17.728933
2043.000000	17.605542
2044.000000	17.469424
2045.000000	17.336979
2046.000000	17.274682
2047.000000	17.117039
2048.000000	16.996537
2049.000000	16.900132
2050.000000	16.866807
2051.000000	16.749502
2052.000000	16.650673
2053.000000	16.611183
2054.000000	16.569726
2055.000000	16.518593
2056.000000	16.494574
2057.000000	16.426590
2058.000000	16.433614
2059.000000	16.485074
2060.000000	16.522485
2061.000000	16.402366
2062.000000	16.412145
2063.000000	16.470163
2064.000000	16.443882
2065.000000	16.518300
2066.000000	16.471685
2067.000000	16.581409
2068.000000	16.552367
2069.000000	16.530910
2070.000000	16.613133
2071.000000	16.725905
2072.000000	16.711963
2073.000000	16.644982
2074.000000	16.674231
2075.000000	16.749802
2076.000000	16.799667
2077.000000	16.775601
2078.000000	16.804321
2079.000000	16.850612
2080.000000	16.952427
2081.000000	16.963808
2082.000000	16.866670
2083.000000	16.980074
2084.000000	17.016636
2085.000000	17.105417
2086.000000	17.030415
2087.000000	17.020189
2088.000000	16.977012
2089.000000	17.098001
2090.000000	17.105768
2091.000000	17.060824
2092.000000	17.128946
2093.000000	17.152864
2094.000000	17.210491
2095.000000	17.218748
2096.000000	17.186731
2097.000000	17.216033
2098.000000	17.277315
2099.000000	17.297682
2100.000000	17.316118
2101.000000	17.487129
2102.000000	17.406975
2103.000000	17.348545
2104.000000	17.573916
2105.000000	17.546253
2106.000000	17.570580
2107.000000	17.672791
2108.000000	17.688404
2109.000000	17.802390
2110.000000	17.737990
2111.000000	17.832271
2112.000000	17.762083
2113.000000	17.723535
2114.000000	17.869085
2115.000000	17.936464
2116.000000	17.931568
2117.000000	17.962716
2118.000000	17.982304
2119.000000	18.003544
2120.000000	17.994474
2121.000000	18.146614
2122.000000	18.151715
2123.000000	17.993030
2124.000000	18.103906
2125.000000	18.244748
2126.000000	18.164241
2127.000000	18.210691
2128.000000	18.155044
2129.000000	18.002211
2130.000000	18.323004
2131.000000	18.247018
2132.000000	18.165916
2133.000000	18.192915
2134.000000	18.079987
2135.000000	18.029490
2136.000000	18.151578
2137.000000	18.142924
2138.000000	18.090190
2139.000000	18.141110
2140.000000	18.203030
2141.000000	18.075751
2142.000000	18.153609
2143.000000	17.973965
2144.000000	17.992539
2145.000000	17.896760
2146.000000	17.874496
2147.000000	17.780003
2148.000000	17.792916
2149.000000	17.713524
2150.000000	17.867008
2151.000000	17.828413
2152.000000	17.703582
2153.000000	17.672216
2154.000000	17.693825
2155.000000	17.615452
2156.000000	17.531306
2157.000000	17.526008
2158.000000	17.428445
2159.000000	17.387353
2160.000000	17.546061
2161.000000	17.461740
2162.000000	17.475310
2163.000000	17.484981
2164.000000	17.405485
2165.000000	17.249168
2166.000000	17.369817
2167.000000	17.333178
2168.000000	17.290113
2169.000000	17.337328
2170.000000	17.283574
2171.000000	17.281248
2172.000000	17.202326
2173.000000	17.173910
2174.000000	17.192513
2175.000000	17.279723
2176.000000	17.223145
2177.000000	17.225459
2178.000000	17.285655
2179.000000	17.319929
2180.000000	17.350247
2181.000000	17.332666
2182.000000	17.193405
2183.000000	17.228868
2184.000000	17.216510
2185.000000	17.319418
2186.000000	17.242341
2187.000000	17.292668
2188.000000	17.288736
2189.000000	17.422303
2190.000000	17.321508
2191.000000	17.335863
2192.000000	17.339581
2193.000000	17.291837
2194.000000	17.391447
2195.000000	17.411422
2196.000000	17.341314
2197.000000	17.399788
2198.000000	17.459775
2199.000000	17.417307
2200.000000	17.428527
2201.000000	17.474159
2202.000000	17.505649
2203.000000	17.511504
2204.000000	17.385683
2205.000000	17.502404
2206.000000	17.597468
2207.000000	17.514673
2208.000000	17.515801
2209.000000	17.555799
2210.000000	17.604428
2211.000000	17.495915
2212.000000	17.506481
2213.000000	17.569860
2214.000000	17.641235
2215.000000	17.596385
2216.000000	17.630112
2217.000000	17.631209
2218.000000	17.662878
2219.000000	17.740374
2220.000000	17.784794
2221.000000	17.829477
2222.000000	17.781331
2223.000000	17.766814
2224.000000	17.750455
2225.000000	17.736426
2226.000000	17.719244
2227.000000	17.729349
2228.000000	17.731693
2229.000000	17.671260
2230.000000	17.662566
2231.000000	17.611196
2232.000000	17.543843
2233.000000	17.436181
2234.000000	17.387265
2235.000000	17.336308
2236.000000	17.156231
2237.000000	17.128915
2238.000000	17.044504
2239.000000	17.009743
2240.000000	16.922592
2241.000000	16.827738
2242.000000	16.701499
2243.000000	16.531233
2244.000000	16.355837
2245.000000	16.142074
2246.000000	16.093264
2247.000000	15.925601
2248.000000	15.579097
2249.000000	15.422527
2250.000000	15.285493
2251.000000	14.980173
2252.000000	14.689322
2253.000000	14.532424
2254.000000	14.292884
2255.000000	14.085876
2256.000000	13.785670
2257.000000	13.524423
2258.000000	13.298343
2259.000000	13.012528
2260.000000	12.699765
2261.000000	12.474282
2262.000000	12.285073
2263.000000	12.067824
2264.000000	11.895860
2265.000000	11.761151
2266.000000	11.629648
2267.000000	11.528095
2268.000000	11.418238
2269.000000	11.401067
2270.000000	11.456966
2271.000000	11.461929
2272.000000	11.425360
2273.000000	11.385634
2274.000000	11.335568
2275.000000	11.376909
2276.000000	11.419552
2277.000000	11.466293
2278.000000	11.527905
2279.000000	11.574921
2280.000000	11.734312
2281.000000	11.792037
2282.000000	11.699712
2283.000000	11.683117
2284.000000	11.746069
2285.000000	11.947991
2286.000000	12.076868
2287.000000	12.104260
2288.000000	12.034396
2289.000000	11.974069
2290.000000	11.965676
2291.000000	11.902319
2292.000000	11.860035
2293.000000	11.756275
2294.000000	11.738899
2295.000000	11.658585
2296.000000	11.549184
2297.000000	11.411484
2298.000000	11.442638
2299.000000	11.411345
2300.000000	11.077391
2301.000000	11.132533
2302.000000	11.149314
2303.000000	11.044267
2304.000000	10.897618
2305.000000	10.748306
2306.000000	10.713647
2307.000000	10.814321
2308.000000	10.949558
2309.000000	10.861290
2310.000000	10.892166
2311.000000	10.977815
2312.000000	11.034392
2313.000000	11.118915
2314.000000	11.269588
2315.000000	11.475133
2316.000000	11.661652
2317.000000	11.699455
2318.000000	11.895646
2319.000000	12.023771
2320.000000	12.115531
2321.000000	12.340066
2322.000000	12.339503
2323.000000	12.358689
2324.000000	12.593952
2325.000000	12.744517
2326.000000	12.744673
2327.000000	12.836629
2328.000000	12.961414
2329.000000	13.003270
2330.000000	13.195274
2331.000000	13.175870
2332.000000	13.376146
2333.000000	13.327977
2334.000000	13.246383
2335.000000	13.383613
2336.000000	13.222576
2337.000000	13.397094
2338.000000	13.449052
2339.000000	13.393414
2340.000000	13.366454
2341.000000	13.429740
2342.000000	13.346809
2343.000000	13.190846
2344.000000	12.733391
2345.000000	12.972621
2346.000000	12.983591
2347.000000	13.025852
2348.000000	12.582526
2349.000000	12.632601
2350.000000	12.875703
2351.000000	12.970931
2352.000000	12.722634
2353.000000	12.535314
2354.000000	12.817435
2355.000000	12.786514
2356.000000	12.728127
2357.000000	12.971734
2358.000000	13.077257
2359.000000	12.940451
2360.000000	13.196529
2361.000000	13.220032
2362.000000	13.499702
2363.000000	13.597183
2364.000000	13.596428
2365.000000	13.466052
2366.000000	13.628248
2367.000000	13.697275
2368.000000	13.801635
2369.000000	13.893161
2370.000000	13.847650
2371.000000	13.877514
2372.000000	14.085794
2373.000000	13.766264
2374.000000	13.924543
2375.000000	13.935277
2376.000000	13.868250
2377.000000	13.952046
2378.000000	14.105098
2379.000000	13.934337
2380.000000	14.168681
2381.000000	14.278329
2382.000000	14.267335
2383.000000	14.164330
2384.000000	13.808779
2385.000000	14.223771
2386.000000	13.928193
2387.000000	14.229872
2388.000000	13.811996
2389.000000	13.985399
2390.000000	14.016251
2391.000000	13.761314
2392.000000	13.973323
2393.000000	13.859724
2394.000000	14.147185
2395.000000	13.910862
2396.000000	13.725173
2397.000000	13.612905
2398.000000	13.643053
2399.000000	14.084119
2400.000000	13.833436
2401.000000	11.922839
2402.000000	11.890034
2403.000000	11.850554
2404.000000	11.829213
2405.000000	11.789832
2406.000000	11.752635
2407.000000	11.717555
2408.000000	11.693247
2409.000000	11.666003
2410.000000	11.630172
2411.000000	11.585613
2412.000000	11.551861
2413.000000	11.530975
2414.000000	11.478888
2415.000000	11.445014
2416.000000	11.405459
2417.000000	11.380264
2418.000000	11.346668
2419.000000	11.316028
2420.000000	11.271966
2421.000000	11.229612
2422.000000	11.178829
2423.000000	11.106727
2424.000000	11.031294
2425.000000	10.957523
2426.000000	10.899071
2427.000000	10.847122
2428.000000	10.813071
2429.000000	10.777900
2430.000000	10.736652
2431.000000	10.685213
2432.000000	10.629591
2433.000000	10.592465
2434.000000	10.544909
2435.000000	10.492378
2436.000000	10.441298
2437.000000	10.382541
2438.000000	10.301973
2439.000000	10.252377
2440.000000	10.186587
2441.000000	10.145596
2442.000000	10.058715
2443.000000	9.993714
2444.000000	9.917292
2445.000000	9.863920
2446.000000	9.786137
2447.000000	9.706290
2448.000000	9.631166
2449.000000	9.556759
2450.000000	9.512592
2451.000000	9.436611
2452.000000	9.377872
2453.000000	9.303832
2454.000000	9.249087
2455.000000	9.184427
2456.000000	9.142375
2457.000000	9.100379
2458.000000	9.029419
2459.000000	8.989448
2460.000000	8.953851
2461.000000	8.921232
2462.000000	8.876131
2463.000000	8.839876
2464.000000	8.813491
2465.000000	8.820932
2466.000000	8.794463
2467.000000	8.770764
2468.000000	8.769345
2469.000000	8.773055
2470.000000	8.729855
2471.000000	8.719566
2472.000000	8.730682
2473.000000	8.767212
2474.000000	8.731722
2475.000000	8.736927
2476.000000	8.723833
2477.000000	8.700031
2478.000000	8.759175
2479.000000	8.770405
2480.000000	8.785709
2481.000000	8.710714
2482.000000	8.740456
2483.000000	8.730317
2484.000000	8.735698
2485.000000	8.748423
2486.000000	8.796181
2487.000000	8.799288
2488.000000	8.751136
2489.000000	8.774050
2490.000000	8.817086
2491.000000	8.849398
2492.000000	8.818562
2493.000000	8.819268
2494.000000	8.842067
2495.000000	8.951221
2496.000000	8.931068
2497.000000	8.986905
2498.000000	8.988729
2499.000000	8.990042
2500.000000	9.020060
