PE UV       SUBTECH     SPECTRUM    ASCII       PEDS        4.00        
   -1
CICIMAUCR0113-6.Sample.ASC
24/04/25
11:40:20.00
24/04/25
11:40:20.00
Vinicio Soto Monge
C. kalinini
250,000000
1
Lambda 1050
1050L1511233
PerkinElmer UV WinLab 6.3.2.0749 / 2.02.05 Lambda 900 UV/VIS/NIR, Aug  7 2015 09:38:08

0
0
3350/servo 860,8/2
0
0
UV/VIS
1
1
1
DoubleDePol,CommonBeamDepol,RBeamAtt,SBeamAtt,60mm sphere, WB InGaAs Detector
0
0
0
0
Program
Program
3350/servo 860,8/2
3350/0,2 860,8/0,2
3350/0,2 860,8/0,2
0
15.00
 
 
 
0
 
860,8
319,2
860,8
Front
100
on
S:100 R:100
0
0
0
0
 
0
 
 
 
0
 
 
0
0
0
0
0
 
 
 
 
0
0


0
0
#HDR
-1
-1
#GR
nm
%R
1.0
0.0
2500,000000
-1,000000
2251
8
101,774400
5,807200
#DATA
250.000000	4.155766
251.000000	4.148681
252.000000	4.154325
253.000000	4.126286
254.000000	4.116519
255.000000	4.117544
256.000000	4.108710
257.000000	4.096418
258.000000	4.099366
259.000000	4.078657
260.000000	4.061511
261.000000	4.068066
262.000000	4.049757
263.000000	4.024355
264.000000	4.005972
265.000000	4.002617
266.000000	3.966165
267.000000	3.961712
268.000000	3.945394
269.000000	3.946737
270.000000	3.935199
271.000000	3.920766
272.000000	3.900853
273.000000	3.887412
274.000000	3.877220
275.000000	3.877361
276.000000	3.868980
277.000000	3.860271
278.000000	3.855533
279.000000	3.849457
280.000000	3.843525
281.000000	3.824404
282.000000	3.831249
283.000000	3.816314
284.000000	3.828347
285.000000	3.808064
286.000000	3.836073
287.000000	3.816805
288.000000	3.814163
289.000000	3.817498
290.000000	3.818590
291.000000	3.804074
292.000000	3.827003
293.000000	3.802236
294.000000	3.819802
295.000000	3.817225
296.000000	3.831844
297.000000	3.819033
298.000000	3.798496
299.000000	3.802903
300.000000	3.801636
301.000000	3.810718
302.000000	3.781247
303.000000	3.772351
304.000000	3.784266
305.000000	3.799468
306.000000	3.798706
307.000000	3.803974
308.000000	3.803482
309.000000	3.794900
310.000000	3.808818
311.000000	3.786289
312.000000	3.814973
313.000000	3.810176
314.000000	3.800233
315.000000	3.812474
316.000000	3.851081
317.000000	4.291427
318.000000	4.317524
319.000000	4.183028
320.000000	4.217087
321.000000	4.062150
322.000000	4.090565
323.000000	4.077149
324.000000	4.145699
325.000000	4.070947
326.000000	4.025888
327.000000	4.082243
328.000000	3.985962
329.000000	4.011824
330.000000	3.951640
331.000000	3.996623
332.000000	3.878034
333.000000	3.981031
334.000000	4.046085
335.000000	4.027375
336.000000	4.025570
337.000000	4.031564
338.000000	4.007589
339.000000	4.023442
340.000000	4.004960
341.000000	4.084247
342.000000	4.053926
343.000000	4.038747
344.000000	4.051605
345.000000	4.037996
346.000000	4.004188
347.000000	4.019185
348.000000	4.085484
349.000000	4.061282
350.000000	4.113587
351.000000	4.114477
352.000000	4.087675
353.000000	4.073774
354.000000	4.108884
355.000000	4.167577
356.000000	4.191608
357.000000	4.186571
358.000000	4.233523
359.000000	4.219156
360.000000	4.220599
361.000000	4.247993
362.000000	4.215473
363.000000	4.246336
364.000000	4.300140
365.000000	4.271847
366.000000	4.311193
367.000000	4.348373
368.000000	4.321008
369.000000	4.343380
370.000000	4.366538
371.000000	4.355042
372.000000	4.352578
373.000000	4.351587
374.000000	4.348681
375.000000	4.450067
376.000000	4.604398
377.000000	4.585265
378.000000	4.620506
379.000000	4.652058
380.000000	4.692272
381.000000	4.735075
382.000000	4.778512
383.000000	4.821244
384.000000	4.870792
385.000000	4.922891
386.000000	4.975859
387.000000	5.037930
388.000000	5.100002
389.000000	5.166210
390.000000	5.232539
391.000000	5.304974
392.000000	5.390630
393.000000	5.475441
394.000000	5.559354
395.000000	5.651536
396.000000	5.747781
397.000000	5.847857
398.000000	5.955701
399.000000	6.069174
400.000000	6.189468
401.000000	6.320475
402.000000	6.448855
403.000000	6.582640
404.000000	6.718793
405.000000	6.867145
406.000000	7.022087
407.000000	7.177611
408.000000	7.341191
409.000000	7.508403
410.000000	7.689327
411.000000	7.876408
412.000000	8.062885
413.000000	8.261798
414.000000	8.469762
415.000000	8.680648
416.000000	8.890323
417.000000	9.102733
418.000000	9.321594
419.000000	9.549419
420.000000	9.785114
421.000000	10.023501
422.000000	10.257764
423.000000	10.492179
424.000000	10.733802
425.000000	10.983449
426.000000	11.231261
427.000000	11.471395
428.000000	11.711154
429.000000	11.950103
430.000000	12.194284
431.000000	12.439039
432.000000	12.676887
433.000000	12.909309
434.000000	13.141448
435.000000	13.372168
436.000000	13.594316
437.000000	13.812192
438.000000	14.025186
439.000000	14.231445
440.000000	14.439948
441.000000	14.636259
442.000000	14.826807
443.000000	15.017323
444.000000	15.195434
445.000000	15.357062
446.000000	15.508738
447.000000	15.660203
448.000000	15.805500
449.000000	15.940643
450.000000	16.069177
451.000000	16.188427
452.000000	16.315455
453.000000	16.438410
454.000000	16.537265
455.000000	16.636300
456.000000	16.736024
457.000000	16.821389
458.000000	16.900957
459.000000	16.986740
460.000000	17.066860
461.000000	17.133742
462.000000	17.205927
463.000000	17.275692
464.000000	17.337086
465.000000	17.392415
466.000000	17.449229
467.000000	17.504293
468.000000	17.559177
469.000000	17.614669
470.000000	17.666023
471.000000	17.715122
472.000000	17.768595
473.000000	17.824613
474.000000	17.876084
475.000000	17.927883
476.000000	17.975438
477.000000	18.027744
478.000000	18.085757
479.000000	18.139061
480.000000	18.206274
481.000000	18.288364
482.000000	18.374540
483.000000	18.449408
484.000000	18.504231
485.000000	18.561708
486.000000	18.624274
487.000000	18.681839
488.000000	18.743545
489.000000	18.809558
490.000000	18.886479
491.000000	18.980741
492.000000	19.071482
493.000000	19.179115
494.000000	19.298286
495.000000	19.434055
496.000000	19.582084
497.000000	19.759735
498.000000	19.957667
499.000000	20.182322
500.000000	20.432413
501.000000	20.710730
502.000000	21.011975
503.000000	21.337518
504.000000	21.687714
505.000000	22.050529
506.000000	22.433735
507.000000	22.831389
508.000000	23.237356
509.000000	23.659115
510.000000	24.091286
511.000000	24.526179
512.000000	24.966661
513.000000	25.406134
514.000000	25.842569
515.000000	26.279000
516.000000	26.702581
517.000000	27.124551
518.000000	27.535593
519.000000	27.947831
520.000000	28.358118
521.000000	28.756016
522.000000	29.151892
523.000000	29.542759
524.000000	29.933558
525.000000	30.315781
526.000000	30.692674
527.000000	31.061298
528.000000	31.433129
529.000000	31.803838
530.000000	32.164443
531.000000	32.527670
532.000000	32.895655
533.000000	33.253484
534.000000	33.615302
535.000000	33.974316
536.000000	34.333824
537.000000	34.688838
538.000000	35.038947
539.000000	35.384396
540.000000	35.721869
541.000000	36.052763
542.000000	36.384163
543.000000	36.722237
544.000000	37.055252
545.000000	37.381760
546.000000	37.686286
547.000000	37.992049
548.000000	38.292680
549.000000	38.580433
550.000000	38.874792
551.000000	39.141902
552.000000	39.411557
553.000000	39.672262
554.000000	39.917116
555.000000	40.163979
556.000000	40.399016
557.000000	40.607055
558.000000	40.804903
559.000000	41.001517
560.000000	41.127765
561.000000	41.309078
562.000000	41.485302
563.000000	41.650233
564.000000	41.805043
565.000000	41.946206
566.000000	42.082620
567.000000	42.198166
568.000000	42.317390
569.000000	42.402294
570.000000	42.491859
571.000000	42.563702
572.000000	42.626203
573.000000	42.681016
574.000000	42.743489
575.000000	42.780980
576.000000	42.814781
577.000000	42.840762
578.000000	42.854467
579.000000	42.888291
580.000000	42.935030
581.000000	42.945936
582.000000	42.950037
583.000000	42.963695
584.000000	42.959843
585.000000	42.972298
586.000000	42.964739
587.000000	42.964231
588.000000	42.938914
589.000000	42.915898
590.000000	42.891747
591.000000	42.868302
592.000000	42.827209
593.000000	42.787610
594.000000	42.749904
595.000000	42.696619
596.000000	42.637897
597.000000	42.538665
598.000000	42.470865
599.000000	42.393559
600.000000	42.315538
601.000000	42.211788
602.000000	42.118467
603.000000	42.013935
604.000000	41.899499
605.000000	41.798783
606.000000	41.688673
607.000000	41.561779
608.000000	41.451993
609.000000	41.358020
610.000000	41.231254
611.000000	41.123128
612.000000	41.009643
613.000000	40.901929
614.000000	40.776963
615.000000	40.677155
616.000000	40.556667
617.000000	40.426357
618.000000	40.316394
619.000000	40.218774
620.000000	40.118260
621.000000	40.003543
622.000000	39.885506
623.000000	39.780571
624.000000	39.685598
625.000000	39.580513
626.000000	39.479806
627.000000	39.399614
628.000000	39.296694
629.000000	39.218067
630.000000	39.162436
631.000000	39.098772
632.000000	39.056506
633.000000	39.010966
634.000000	38.978731
635.000000	38.976280
636.000000	38.980683
637.000000	38.971158
638.000000	38.974565
639.000000	39.005944
640.000000	39.021741
641.000000	39.057884
642.000000	39.097756
643.000000	39.145327
644.000000	39.206736
645.000000	39.282570
646.000000	39.349616
647.000000	39.416310
648.000000	39.501914
649.000000	39.590433
650.000000	39.686521
651.000000	39.828888
652.000000	39.946966
653.000000	40.087200
654.000000	40.234188
655.000000	40.402890
656.000000	40.600405
657.000000	40.785205
658.000000	40.995776
659.000000	41.221287
660.000000	41.455626
661.000000	41.714821
662.000000	41.974140
663.000000	42.221283
664.000000	42.476894
665.000000	42.739003
666.000000	42.986879
667.000000	43.248583
668.000000	43.528306
669.000000	43.770363
670.000000	44.010596
671.000000	44.277331
672.000000	44.532607
673.000000	44.798261
674.000000	45.025605
675.000000	45.262211
676.000000	45.500862
677.000000	45.750202
678.000000	45.990125
679.000000	46.226859
680.000000	46.459115
681.000000	46.669826
682.000000	46.895339
683.000000	47.128842
684.000000	47.335671
685.000000	47.553464
686.000000	47.744291
687.000000	47.935322
688.000000	48.089474
689.000000	48.252921
690.000000	48.413738
691.000000	48.584734
692.000000	48.749757
693.000000	48.911265
694.000000	49.053521
695.000000	49.216708
696.000000	49.376751
697.000000	49.545837
698.000000	49.698899
699.000000	49.882469
700.000000	50.066181
701.000000	50.268810
702.000000	50.476945
703.000000	50.676853
704.000000	50.899570
705.000000	51.137310
706.000000	51.371757
707.000000	51.606850
708.000000	51.826525
709.000000	52.048606
710.000000	52.303136
711.000000	52.536015
712.000000	52.766152
713.000000	52.995303
714.000000	53.230901
715.000000	53.484258
716.000000	53.707284
717.000000	53.927823
718.000000	54.185104
719.000000	54.426904
720.000000	54.659016
721.000000	54.877572
722.000000	55.091510
723.000000	55.326810
724.000000	55.567208
725.000000	55.803055
726.000000	56.008830
727.000000	56.211848
728.000000	56.413838
729.000000	56.594119
730.000000	56.795721
731.000000	56.962746
732.000000	57.125602
733.000000	57.301939
734.000000	57.470127
735.000000	57.629808
736.000000	57.774994
737.000000	57.904539
738.000000	58.011385
739.000000	58.135982
740.000000	58.258696
741.000000	58.382492
742.000000	58.515097
743.000000	58.630602
744.000000	58.731867
745.000000	58.806350
746.000000	58.876099
747.000000	58.977401
748.000000	59.055441
749.000000	59.111171
750.000000	59.199569
751.000000	59.291266
752.000000	59.328891
753.000000	59.370634
754.000000	59.435643
755.000000	59.474229
756.000000	59.488529
757.000000	59.525493
758.000000	59.582190
759.000000	59.622289
760.000000	59.664804
761.000000	59.654624
762.000000	59.638959
763.000000	59.650267
764.000000	59.659666
765.000000	59.659143
766.000000	59.661594
767.000000	59.646750
768.000000	59.650274
769.000000	59.671910
770.000000	59.632583
771.000000	59.592399
772.000000	59.557891
773.000000	59.563844
774.000000	59.572907
775.000000	59.524015
776.000000	59.492886
777.000000	59.448494
778.000000	59.415820
779.000000	59.359799
780.000000	59.304973
781.000000	59.281125
782.000000	59.252244
783.000000	59.190432
784.000000	59.175589
785.000000	59.091327
786.000000	59.037478
787.000000	58.987541
788.000000	58.898104
789.000000	58.811036
790.000000	58.741067
791.000000	58.665600
792.000000	58.562246
793.000000	58.486010
794.000000	58.375669
795.000000	58.266283
796.000000	58.174723
797.000000	58.055798
798.000000	57.929630
799.000000	57.825263
800.000000	57.702276
801.000000	57.606690
802.000000	57.446781
803.000000	57.284912
804.000000	57.135528
805.000000	57.035523
806.000000	56.892970
807.000000	56.789527
808.000000	56.669634
809.000000	56.460251
810.000000	56.246992
811.000000	56.112500
812.000000	56.001089
813.000000	55.850281
814.000000	55.679369
815.000000	55.486907
816.000000	55.359686
817.000000	55.199064
818.000000	55.010563
819.000000	54.821087
820.000000	54.629202
821.000000	54.471780
822.000000	54.358872
823.000000	54.178219
824.000000	53.949152
825.000000	53.755947
826.000000	53.625790
827.000000	53.435553
828.000000	53.256287
829.000000	53.031471
830.000000	52.877721
831.000000	52.651107
832.000000	52.480497
833.000000	52.263531
834.000000	52.072076
835.000000	51.892372
836.000000	51.722860
837.000000	51.502681
838.000000	51.331274
839.000000	51.117570
840.000000	51.007367
841.000000	50.855241
842.000000	50.582015
843.000000	50.469833
844.000000	50.243918
845.000000	49.983227
846.000000	49.895986
847.000000	49.638511
848.000000	49.370342
849.000000	49.358996
850.000000	49.220743
851.000000	48.863267
852.000000	48.772829
853.000000	48.672896
854.000000	48.238049
855.000000	48.069923
856.000000	47.971495
857.000000	47.995020
858.000000	48.830683
859.000000	47.885917
860.000000	47.752833
861.000000	47.618867
862.000000	47.479250
863.000000	47.321800
864.000000	47.146867
865.000000	46.996117
866.000000	46.848033
867.000000	46.785267
868.000000	46.808050
869.000000	46.878300
870.000000	46.905633
871.000000	46.972250
872.000000	47.009400
873.000000	47.029200
874.000000	47.021067
875.000000	47.031800
876.000000	47.018767
877.000000	47.029250
878.000000	46.988933
879.000000	46.994967
880.000000	46.967700
881.000000	46.970950
882.000000	46.924350
883.000000	46.912450
884.000000	46.870883
885.000000	46.813367
886.000000	46.753483
887.000000	46.713717
888.000000	46.655033
889.000000	46.621867
890.000000	46.574517
891.000000	46.497517
892.000000	46.406417
893.000000	46.335650
894.000000	46.267950
895.000000	46.200083
896.000000	46.101583
897.000000	45.999850
898.000000	45.913450
899.000000	45.816900
900.000000	45.738750
901.000000	45.643667
902.000000	45.558533
903.000000	45.465933
904.000000	45.384200
905.000000	45.299150
906.000000	45.202617
907.000000	45.122867
908.000000	45.032050
909.000000	44.960167
910.000000	44.895850
911.000000	44.829583
912.000000	44.771600
913.000000	44.719250
914.000000	44.651250
915.000000	44.606267
916.000000	44.539817
917.000000	44.489817
918.000000	44.412267
919.000000	44.355183
920.000000	44.309617
921.000000	44.258433
922.000000	44.197350
923.000000	44.111033
924.000000	44.049850
925.000000	44.012033
926.000000	43.959900
927.000000	43.909033
928.000000	43.849267
929.000000	43.791883
930.000000	43.750850
931.000000	43.705583
932.000000	43.648983
933.000000	43.608517
934.000000	43.545317
935.000000	43.492500
936.000000	43.439800
937.000000	43.395167
938.000000	43.352200
939.000000	43.320250
940.000000	43.304383
941.000000	43.265100
942.000000	43.247533
943.000000	43.227383
944.000000	43.213650
945.000000	43.176533
946.000000	43.163033
947.000000	43.153350
948.000000	43.143450
949.000000	43.122217
950.000000	43.125917
951.000000	43.109067
952.000000	43.102567
953.000000	43.104550
954.000000	43.091733
955.000000	43.082283
956.000000	43.082450
957.000000	43.081233
958.000000	43.068767
959.000000	43.057167
960.000000	43.050883
961.000000	43.057317
962.000000	43.055300
963.000000	43.042833
964.000000	43.036433
965.000000	43.051483
966.000000	43.064183
967.000000	43.069250
968.000000	43.075833
969.000000	43.090050
970.000000	43.100533
971.000000	43.123483
972.000000	43.131833
973.000000	43.145867
974.000000	43.159300
975.000000	43.185083
976.000000	43.196000
977.000000	43.207100
978.000000	43.230500
979.000000	43.253100
980.000000	43.264950
981.000000	43.277467
982.000000	43.295950
983.000000	43.315850
984.000000	43.335833
985.000000	43.354100
986.000000	43.368750
987.000000	43.387283
988.000000	43.415333
989.000000	43.430033
990.000000	43.452367
991.000000	43.481717
992.000000	43.508383
993.000000	43.532517
994.000000	43.558417
995.000000	43.588600
996.000000	43.614117
997.000000	43.633433
998.000000	43.662300
999.000000	43.698283
1000.000000	43.728383
1001.000000	43.754517
1002.000000	43.790150
1003.000000	43.827650
1004.000000	43.858800
1005.000000	43.888333
1006.000000	43.914633
1007.000000	43.935567
1008.000000	43.959550
1009.000000	43.986117
1010.000000	44.016617
1011.000000	44.055517
1012.000000	44.086917
1013.000000	44.128767
1014.000000	44.172267
1015.000000	44.218200
1016.000000	44.278067
1017.000000	44.343983
1018.000000	44.408900
1019.000000	44.474467
1020.000000	44.538600
1021.000000	44.603217
1022.000000	44.678633
1023.000000	44.753617
1024.000000	44.828583
1025.000000	44.906200
1026.000000	44.979800
1027.000000	45.051583
1028.000000	45.125917
1029.000000	45.193533
1030.000000	45.260417
1031.000000	45.339417
1032.000000	45.407217
1033.000000	45.473867
1034.000000	45.538067
1035.000000	45.598550
1036.000000	45.662983
1037.000000	45.726250
1038.000000	45.784067
1039.000000	45.845083
1040.000000	45.905183
1041.000000	45.959983
1042.000000	46.017050
1043.000000	46.073467
1044.000000	46.135600
1045.000000	46.199400
1046.000000	46.253900
1047.000000	46.310200
1048.000000	46.372300
1049.000000	46.434200
1050.000000	46.495367
1051.000000	46.557217
1052.000000	46.624800
1053.000000	46.693083
1054.000000	46.765000
1055.000000	46.842167
1056.000000	46.912800
1057.000000	46.982317
1058.000000	47.058467
1059.000000	47.135317
1060.000000	47.208417
1061.000000	47.281283
1062.000000	47.347150
1063.000000	47.412450
1064.000000	47.481233
1065.000000	47.545983
1066.000000	47.608183
1067.000000	47.676133
1068.000000	47.745317
1069.000000	47.805883
1070.000000	47.871917
1071.000000	47.935283
1072.000000	47.998033
1073.000000	48.058267
1074.000000	48.121050
1075.000000	48.180500
1076.000000	48.242250
1077.000000	48.305750
1078.000000	48.372350
1079.000000	48.430783
1080.000000	48.495567
1081.000000	48.556133
1082.000000	48.613650
1083.000000	48.672033
1084.000000	48.737150
1085.000000	48.804333
1086.000000	48.865150
1087.000000	48.928800
1088.000000	48.992817
1089.000000	49.062267
1090.000000	49.120950
1091.000000	49.180200
1092.000000	49.238667
1093.000000	49.301683
1094.000000	49.362267
1095.000000	49.412300
1096.000000	49.464333
1097.000000	49.519817
1098.000000	49.566933
1099.000000	49.611333
1100.000000	49.660183
1101.000000	49.709983
1102.000000	49.748450
1103.000000	49.783967
1104.000000	49.821967
1105.000000	49.869317
1106.000000	49.911617
1107.000000	49.940700
1108.000000	49.973783
1109.000000	50.010833
1110.000000	50.047750
1111.000000	50.081950
1112.000000	50.107983
1113.000000	50.142250
1114.000000	50.177200
1115.000000	50.202167
1116.000000	50.231883
1117.000000	50.254400
1118.000000	50.271967
1119.000000	50.280250
1120.000000	50.283183
1121.000000	50.281283
1122.000000	50.275933
1123.000000	50.241867
1124.000000	50.209500
1125.000000	50.175350
1126.000000	50.130617
1127.000000	50.063300
1128.000000	49.997750
1129.000000	49.901833
1130.000000	49.769400
1131.000000	49.626617
1132.000000	49.463933
1133.000000	49.296517
1134.000000	49.117200
1135.000000	48.878500
1136.000000	48.609750
1137.000000	48.352767
1138.000000	48.096033
1139.000000	47.841233
1140.000000	47.602117
1141.000000	47.365683
1142.000000	47.138683
1143.000000	46.917667
1144.000000	46.734800
1145.000000	46.546667
1146.000000	46.409350
1147.000000	46.322100
1148.000000	46.289133
1149.000000	46.286900
1150.000000	46.306900
1151.000000	46.331233
1152.000000	46.338850
1153.000000	46.325783
1154.000000	46.282400
1155.000000	46.207100
1156.000000	46.078083
1157.000000	45.909100
1158.000000	45.701183
1159.000000	45.467883
1160.000000	45.223767
1161.000000	44.958933
1162.000000	44.691133
1163.000000	44.411500
1164.000000	44.120083
1165.000000	43.840750
1166.000000	43.543983
1167.000000	43.265050
1168.000000	42.983050
1169.000000	42.702500
1170.000000	42.428567
1171.000000	42.163300
1172.000000	41.893783
1173.000000	41.639267
1174.000000	41.386067
1175.000000	41.157800
1176.000000	40.914167
1177.000000	40.671900
1178.000000	40.396250
1179.000000	40.068400
1180.000000	39.711783
1181.000000	39.315950
1182.000000	38.919417
1183.000000	38.557017
1184.000000	38.268383
1185.000000	38.065017
1186.000000	37.974883
1187.000000	37.977733
1188.000000	38.091033
1189.000000	38.304550
1190.000000	38.593783
1191.000000	38.931883
1192.000000	39.309333
1193.000000	39.665383
1194.000000	39.991917
1195.000000	40.271183
1196.000000	40.499167
1197.000000	40.677200
1198.000000	40.821000
1199.000000	40.926017
1200.000000	41.008617
1201.000000	41.064017
1202.000000	41.116150
1203.000000	41.156150
1204.000000	41.186117
1205.000000	41.227650
1206.000000	41.268400
1207.000000	41.329383
1208.000000	41.405900
1209.000000	41.484833
1210.000000	41.576533
1211.000000	41.673033
1212.000000	41.777550
1213.000000	41.875517
1214.000000	41.982600
1215.000000	42.099633
1216.000000	42.212167
1217.000000	42.326750
1218.000000	42.453150
1219.000000	42.581733
1220.000000	42.715917
1221.000000	42.853217
1222.000000	43.004700
1223.000000	43.155700
1224.000000	43.307133
1225.000000	43.461367
1226.000000	43.605850
1227.000000	43.755167
1228.000000	43.908783
1229.000000	44.057917
1230.000000	44.211350
1231.000000	44.354600
1232.000000	44.504150
1233.000000	44.655500
1234.000000	44.795883
1235.000000	44.932917
1236.000000	45.070683
1237.000000	45.203767
1238.000000	45.324783
1239.000000	45.459567
1240.000000	45.581567
1241.000000	45.703800
1242.000000	45.821000
1243.000000	45.931617
1244.000000	46.043733
1245.000000	46.162217
1246.000000	46.258967
1247.000000	46.357300
1248.000000	46.455517
1249.000000	46.538850
1250.000000	46.619017
1251.000000	46.694133
1252.000000	46.764850
1253.000000	46.820450
1254.000000	46.880950
1255.000000	46.938883
1256.000000	46.990117
1257.000000	47.034083
1258.000000	47.082550
1259.000000	47.131517
1260.000000	47.165867
1261.000000	47.188067
1262.000000	47.224900
1263.000000	47.261233
1264.000000	47.299033
1265.000000	47.332317
1266.000000	47.363733
1267.000000	47.403650
1268.000000	47.445067
1269.000000	47.472967
1270.000000	47.507217
1271.000000	47.537283
1272.000000	47.565783
1273.000000	47.597233
1274.000000	47.632983
1275.000000	47.674717
1276.000000	47.714883
1277.000000	47.758700
1278.000000	47.816217
1279.000000	47.875467
1280.000000	47.937650
1281.000000	48.002017
1282.000000	48.060217
1283.000000	48.120783
1284.000000	48.189300
1285.000000	48.252417
1286.000000	48.311517
1287.000000	48.371533
1288.000000	48.431083
1289.000000	48.484733
1290.000000	48.526750
1291.000000	48.567433
1292.000000	48.599050
1293.000000	48.629817
1294.000000	48.658767
1295.000000	48.680300
1296.000000	48.698400
1297.000000	48.715850
1298.000000	48.734950
1299.000000	48.752517
1300.000000	48.763467
1301.000000	48.774367
1302.000000	48.786100
1303.000000	48.792133
1304.000000	48.794750
1305.000000	48.795283
1306.000000	48.793683
1307.000000	48.778400
1308.000000	48.756817
1309.000000	48.737800
1310.000000	48.715283
1311.000000	48.683550
1312.000000	48.643933
1313.000000	48.599000
1314.000000	48.553583
1315.000000	48.508217
1316.000000	48.459817
1317.000000	48.404100
1318.000000	48.342267
1319.000000	48.280200
1320.000000	48.218033
1321.000000	48.151117
1322.000000	48.080983
1323.000000	48.004733
1324.000000	47.920100
1325.000000	47.836283
1326.000000	47.748250
1327.000000	47.656400
1328.000000	47.556200
1329.000000	47.446817
1330.000000	47.333017
1331.000000	47.209417
1332.000000	47.082717
1333.000000	46.940350
1334.000000	46.788117
1335.000000	46.633850
1336.000000	46.471517
1337.000000	46.294483
1338.000000	46.112333
1339.000000	45.922883
1340.000000	45.711217
1341.000000	45.487800
1342.000000	45.261600
1343.000000	45.028450
1344.000000	44.782350
1345.000000	44.496867
1346.000000	44.209733
1347.000000	43.927217
1348.000000	43.600050
1349.000000	43.247833
1350.000000	42.877100
1351.000000	42.464867
1352.000000	42.020550
1353.000000	41.559300
1354.000000	41.134800
1355.000000	40.710517
1356.000000	40.324217
1357.000000	40.070350
1358.000000	39.908850
1359.000000	39.809817
1360.000000	39.760633
1361.000000	39.719100
1362.000000	39.605567
1363.000000	39.463467
1364.000000	39.348583
1365.000000	39.192100
1366.000000	39.013733
1367.000000	38.852833
1368.000000	38.655033
1369.000000	38.398583
1370.000000	38.153650
1371.000000	37.893467
1372.000000	37.590200
1373.000000	37.287267
1374.000000	37.030983
1375.000000	36.818733
1376.000000	36.656950
1377.000000	36.546883
1378.000000	36.471883
1379.000000	36.428067
1380.000000	36.351983
1381.000000	36.292917
1382.000000	36.125833
1383.000000	35.863767
1384.000000	35.592450
1385.000000	35.272300
1386.000000	34.964333
1387.000000	34.709950
1388.000000	34.474900
1389.000000	34.208233
1390.000000	34.007950
1391.000000	33.870633
1392.000000	33.722783
1393.000000	33.566383
1394.000000	33.466967
1395.000000	33.373250
1396.000000	33.203700
1397.000000	32.980883
1398.000000	32.788367
1399.000000	32.663683
1400.000000	32.474867
1401.000000	32.143750
1402.000000	31.810067
1403.000000	31.521833
1404.000000	31.211533
1405.000000	30.900383
1406.000000	30.581383
1407.000000	30.262367
1408.000000	29.963817
1409.000000	29.664233
1410.000000	29.360917
1411.000000	29.079367
1412.000000	28.858967
1413.000000	28.666750
1414.000000	28.480567
1415.000000	28.255833
1416.000000	28.026583
1417.000000	27.834650
1418.000000	27.665400
1419.000000	27.468283
1420.000000	27.244800
1421.000000	27.018850
1422.000000	26.814850
1423.000000	26.610917
1424.000000	26.420683
1425.000000	26.219983
1426.000000	26.013100
1427.000000	25.828633
1428.000000	25.664067
1429.000000	25.494033
1430.000000	25.338683
1431.000000	25.209150
1432.000000	25.090833
1433.000000	24.956883
1434.000000	24.837117
1435.000000	24.706583
1436.000000	24.579067
1437.000000	24.473150
1438.000000	24.360733
1439.000000	24.246933
1440.000000	24.126817
1441.000000	24.016083
1442.000000	23.888283
1443.000000	23.761350
1444.000000	23.670783
1445.000000	23.562150
1446.000000	23.448350
1447.000000	23.327767
1448.000000	23.204950
1449.000000	23.105567
1450.000000	23.019317
1451.000000	22.927750
1452.000000	22.825017
1453.000000	22.712400
1454.000000	22.620067
1455.000000	22.529867
1456.000000	22.444500
1457.000000	22.359867
1458.000000	22.266717
1459.000000	22.189050
1460.000000	22.114083
1461.000000	22.038500
1462.000000	21.969500
1463.000000	21.902633
1464.000000	21.831850
1465.000000	21.779133
1466.000000	21.736967
1467.000000	21.693467
1468.000000	21.635250
1469.000000	21.593667
1470.000000	21.552450
1471.000000	21.515200
1472.000000	21.468367
1473.000000	21.425183
1474.000000	21.369517
1475.000000	21.327700
1476.000000	21.283217
1477.000000	21.255533
1478.000000	21.217033
1479.000000	21.174900
1480.000000	21.144600
1481.000000	21.120867
1482.000000	21.083050
1483.000000	21.049133
1484.000000	21.029883
1485.000000	21.017483
1486.000000	20.994550
1487.000000	20.977933
1488.000000	20.957367
1489.000000	20.935300
1490.000000	20.917667
1491.000000	20.911017
1492.000000	20.903833
1493.000000	20.887000
1494.000000	20.881083
1495.000000	20.875667
1496.000000	20.872300
1497.000000	20.880417
1498.000000	20.882600
1499.000000	20.885483
1500.000000	20.890600
1501.000000	20.902983
1502.000000	20.918383
1503.000000	20.933717
1504.000000	20.949783
1505.000000	20.973833
1506.000000	20.995567
1507.000000	21.011867
1508.000000	21.034033
1509.000000	21.059283
1510.000000	21.085300
1511.000000	21.106083
1512.000000	21.122433
1513.000000	21.144717
1514.000000	21.167700
1515.000000	21.187783
1516.000000	21.204167
1517.000000	21.224450
1518.000000	21.244667
1519.000000	21.264200
1520.000000	21.284883
1521.000000	21.303767
1522.000000	21.315400
1523.000000	21.333050
1524.000000	21.347583
1525.000000	21.364917
1526.000000	21.375317
1527.000000	21.386450
1528.000000	21.393350
1529.000000	21.404133
1530.000000	21.418667
1531.000000	21.428583
1532.000000	21.429017
1533.000000	21.428417
1534.000000	21.433267
1535.000000	21.435483
1536.000000	21.437850
1537.000000	21.435650
1538.000000	21.429817
1539.000000	21.432500
1540.000000	21.427850
1541.000000	21.420250
1542.000000	21.419050
1543.000000	21.418100
1544.000000	21.421267
1545.000000	21.426717
1546.000000	21.431883
1547.000000	21.437600
1548.000000	21.445833
1549.000000	21.456483
1550.000000	21.471550
1551.000000	21.482617
1552.000000	21.494583
1553.000000	21.504600
1554.000000	21.505400
1555.000000	21.506600
1556.000000	21.504967
1557.000000	21.502050
1558.000000	21.496417
1559.000000	21.484167
1560.000000	21.470533
1561.000000	21.453900
1562.000000	21.432067
1563.000000	21.403450
1564.000000	21.377033
1565.000000	21.345767
1566.000000	21.315217
1567.000000	21.290917
1568.000000	21.261333
1569.000000	21.232667
1570.000000	21.207817
1571.000000	21.182350
1572.000000	21.164083
1573.000000	21.152633
1574.000000	21.138550
1575.000000	21.122083
1576.000000	21.117683
1577.000000	21.120700
1578.000000	21.116450
1579.000000	21.114450
1580.000000	21.122933
1581.000000	21.135067
1582.000000	21.147983
1583.000000	21.166000
1584.000000	21.193650
1585.000000	21.222250
1586.000000	21.246650
1587.000000	21.268250
1588.000000	21.294533
1589.000000	21.323633
1590.000000	21.359500
1591.000000	21.398167
1592.000000	21.436450
1593.000000	21.479050
1594.000000	21.525400
1595.000000	21.566533
1596.000000	21.618067
1597.000000	21.663383
1598.000000	21.713567
1599.000000	21.767417
1600.000000	21.825183
1601.000000	21.886733
1602.000000	21.946817
1603.000000	22.004633
1604.000000	22.062700
1605.000000	22.126583
1606.000000	22.189467
1607.000000	22.247833
1608.000000	22.302183
1609.000000	22.353467
1610.000000	22.417100
1611.000000	22.481783
1612.000000	22.535600
1613.000000	22.591617
1614.000000	22.652017
1615.000000	22.704850
1616.000000	22.768167
1617.000000	22.823200
1618.000000	22.882733
1619.000000	22.941383
1620.000000	23.009850
1621.000000	23.068800
1622.000000	23.131283
1623.000000	23.192500
1624.000000	23.257267
1625.000000	23.318917
1626.000000	23.388833
1627.000000	23.452217
1628.000000	23.513717
1629.000000	23.577483
1630.000000	23.634450
1631.000000	23.693250
1632.000000	23.756483
1633.000000	23.814367
1634.000000	23.869767
1635.000000	23.927667
1636.000000	23.976467
1637.000000	24.027200
1638.000000	24.070900
1639.000000	24.120467
1640.000000	24.167150
1641.000000	24.203900
1642.000000	24.242383
1643.000000	24.276800
1644.000000	24.313733
1645.000000	24.352800
1646.000000	24.385633
1647.000000	24.415183
1648.000000	24.455133
1649.000000	24.481467
1650.000000	24.497217
1651.000000	24.519767
1652.000000	24.524283
1653.000000	24.521283
1654.000000	24.525483
1655.000000	24.515533
1656.000000	24.501833
1657.000000	24.478000
1658.000000	24.441733
1659.000000	24.400317
1660.000000	24.345050
1661.000000	24.285483
1662.000000	24.228450
1663.000000	24.158433
1664.000000	24.081833
1665.000000	23.990700
1666.000000	23.895317
1667.000000	23.786867
1668.000000	23.648133
1669.000000	23.505133
1670.000000	23.348200
1671.000000	23.171917
1672.000000	22.984733
1673.000000	22.771217
1674.000000	22.520850
1675.000000	22.241133
1676.000000	21.921383
1677.000000	21.567933
1678.000000	21.160833
1679.000000	20.749767
1680.000000	20.316033
1681.000000	19.903617
1682.000000	19.531400
1683.000000	19.264117
1684.000000	19.074300
1685.000000	18.977733
1686.000000	18.936800
1687.000000	18.908483
1688.000000	18.889267
1689.000000	18.835583
1690.000000	18.761500
1691.000000	18.660433
1692.000000	18.549567
1693.000000	18.449533
1694.000000	18.371967
1695.000000	18.320867
1696.000000	18.329783
1697.000000	18.373850
1698.000000	18.446400
1699.000000	18.546883
1700.000000	18.662767
1701.000000	18.764367
1702.000000	18.863250
1703.000000	18.947217
1704.000000	19.005267
1705.000000	19.049700
1706.000000	19.082217
1707.000000	19.095833
1708.000000	19.107433
1709.000000	19.115483
1710.000000	19.100233
1711.000000	19.084967
1712.000000	19.051383
1713.000000	19.008717
1714.000000	18.950983
1715.000000	18.891733
1716.000000	18.824917
1717.000000	18.769617
1718.000000	18.716717
1719.000000	18.677683
1720.000000	18.642400
1721.000000	18.622500
1722.000000	18.604583
1723.000000	18.605083
1724.000000	18.570867
1725.000000	18.545367
1726.000000	18.509267
1727.000000	18.450617
1728.000000	18.392217
1729.000000	18.321033
1730.000000	18.253117
1731.000000	18.180700
1732.000000	18.135683
1733.000000	18.111383
1734.000000	18.115517
1735.000000	18.152267
1736.000000	18.219983
1737.000000	18.320300
1738.000000	18.462100
1739.000000	18.615017
1740.000000	18.792317
1741.000000	18.962267
1742.000000	19.148417
1743.000000	19.307750
1744.000000	19.456983
1745.000000	19.584983
1746.000000	19.699117
1747.000000	19.797600
1748.000000	19.880600
1749.000000	19.951367
1750.000000	20.001333
1751.000000	20.048433
1752.000000	20.081733
1753.000000	20.103133
1754.000000	20.116283
1755.000000	20.109783
1756.000000	20.088983
1757.000000	20.065883
1758.000000	20.033367
1759.000000	19.989050
1760.000000	19.941550
1761.000000	19.908467
1762.000000	19.885867
1763.000000	19.873267
1764.000000	19.889767
1765.000000	19.926717
1766.000000	19.977417
1767.000000	20.048117
1768.000000	20.132583
1769.000000	20.228267
1770.000000	20.320850
1771.000000	20.424700
1772.000000	20.529883
1773.000000	20.639000
1774.000000	20.739817
1775.000000	20.838783
1776.000000	20.930983
1777.000000	21.012783
1778.000000	21.090267
1779.000000	21.163017
1780.000000	21.228467
1781.000000	21.288767
1782.000000	21.339000
1783.000000	21.398183
1784.000000	21.460550
1785.000000	21.520650
1786.000000	21.575783
1787.000000	21.626767
1788.000000	21.668967
1789.000000	21.717217
1790.000000	21.761267
1791.000000	21.797650
1792.000000	21.833600
1793.000000	21.875150
1794.000000	21.907433
1795.000000	21.946883
1796.000000	21.979667
1797.000000	22.007967
1798.000000	22.045333
1799.000000	22.080183
1800.000000	22.120000
1801.000000	22.156400
1802.000000	22.187133
1803.000000	22.214933
1804.000000	22.249983
1805.000000	22.286783
1806.000000	22.324550
1807.000000	22.360817
1808.000000	22.384117
1809.000000	22.410317
1810.000000	22.441267
1811.000000	22.481617
1812.000000	22.504817
1813.000000	22.516983
1814.000000	22.527000
1815.000000	22.535600
1816.000000	22.537733
1817.000000	22.540050
1818.000000	22.550783
1819.000000	22.576000
1820.000000	22.608650
1821.000000	22.630567
1822.000000	22.638817
1823.000000	22.637683
1824.000000	22.658700
1825.000000	22.696650
1826.000000	22.748817
1827.000000	22.801633
1828.000000	22.863417
1829.000000	22.936983
1830.000000	23.000600
1831.000000	23.058950
1832.000000	23.112217
1833.000000	23.164917
1834.000000	23.243400
1835.000000	23.324517
1836.000000	23.386267
1837.000000	23.435450
1838.000000	23.485617
1839.000000	23.540450
1840.000000	23.587800
1841.000000	23.627000
1842.000000	23.651550
1843.000000	23.658700
1844.000000	23.680633
1845.000000	23.734500
1846.000000	23.808350
1847.000000	23.878600
1848.000000	23.929050
1849.000000	23.979317
1850.000000	24.023200
1851.000000	24.058733
1852.000000	24.097900
1853.000000	24.154383
1854.000000	24.209133
1855.000000	24.242117
1856.000000	24.274133
1857.000000	24.303467
1858.000000	24.313433
1859.000000	24.313817
1860.000000	24.313283
1861.000000	24.293583
1862.000000	24.264400
1863.000000	24.235650
1864.000000	24.209483
1865.000000	24.183917
1866.000000	24.149017
1867.000000	24.104633
1868.000000	24.038033
1869.000000	23.937167
1870.000000	23.816333
1871.000000	23.670833
1872.000000	23.508033
1873.000000	23.315717
1874.000000	23.098400
1875.000000	22.872233
1876.000000	22.624233
1877.000000	22.362733
1878.000000	22.088617
1879.000000	21.787467
1880.000000	21.479717
1881.000000	21.159517
1882.000000	20.819917
1883.000000	20.482767
1884.000000	20.144600
1885.000000	19.803067
1886.000000	19.494083
1887.000000	19.216233
1888.000000	18.960450
1889.000000	18.703467
1890.000000	18.471017
1891.000000	18.219683
1892.000000	17.945950
1893.000000	17.684117
1894.000000	17.449183
1895.000000	17.226100
1896.000000	17.021233
1897.000000	16.811433
1898.000000	16.562033
1899.000000	16.328333
1900.000000	16.070533
1901.000000	15.828050
1902.000000	15.607683
1903.000000	15.393700
1904.000000	15.189850
1905.000000	14.949633
1906.000000	14.714050
1907.000000	14.495517
1908.000000	14.299767
1909.000000	14.135250
1910.000000	13.976083
1911.000000	13.813850
1912.000000	13.650300
1913.000000	13.464150
1914.000000	13.274567
1915.000000	13.107233
1916.000000	12.966283
1917.000000	12.846667
1918.000000	12.729950
1919.000000	12.602850
1920.000000	12.476467
1921.000000	12.351883
1922.000000	12.217817
1923.000000	12.110017
1924.000000	12.015333
1925.000000	11.939650
1926.000000	11.856950
1927.000000	11.774350
1928.000000	11.693017
1929.000000	11.622583
1930.000000	11.558150
1931.000000	11.510217
1932.000000	11.464100
1933.000000	11.405383
1934.000000	11.381000
1935.000000	11.363250
1936.000000	11.333417
1937.000000	11.325333
1938.000000	11.306833
1939.000000	11.297400
1940.000000	11.293367
1941.000000	11.283400
1942.000000	11.284500
1943.000000	11.304550
1944.000000	11.320183
1945.000000	11.335333
1946.000000	11.349533
1947.000000	11.374967
1948.000000	11.405167
1949.000000	11.436917
1950.000000	11.466450
1951.000000	11.511100
1952.000000	11.539133
1953.000000	11.572550
1954.000000	11.603000
1955.000000	11.651733
1956.000000	11.689433
1957.000000	11.729500
1958.000000	11.777783
1959.000000	11.815350
1960.000000	11.856617
1961.000000	11.912017
1962.000000	11.958150
1963.000000	12.005000
1964.000000	12.041517
1965.000000	12.081633
1966.000000	12.125317
1967.000000	12.167483
1968.000000	12.211767
1969.000000	12.257317
1970.000000	12.308650
1971.000000	12.340667
1972.000000	12.391667
1973.000000	12.439383
1974.000000	12.495117
1975.000000	12.530950
1976.000000	12.582917
1977.000000	12.644817
1978.000000	12.690800
1979.000000	12.741383
1980.000000	12.794483
1981.000000	12.854250
1982.000000	12.898250
1983.000000	12.954150
1984.000000	13.007000
1985.000000	13.049167
1986.000000	13.086050
1987.000000	13.149350
1988.000000	13.188350
1989.000000	13.242567
1990.000000	13.288050
1991.000000	13.321567
1992.000000	13.365433
1993.000000	13.406600
1994.000000	13.440800
1995.000000	13.477033
1996.000000	13.509650
1997.000000	13.540683
1998.000000	13.559900
1999.000000	13.586350
2000.000000	13.606283
2001.000000	13.621750
2002.000000	13.643083
2003.000000	13.645850
2004.000000	13.655650
2005.000000	13.660567
2006.000000	13.660783
2007.000000	13.665250
2008.000000	13.667800
2009.000000	13.660100
2010.000000	13.647467
2011.000000	13.635983
2012.000000	13.618350
2013.000000	13.598517
2014.000000	13.574700
2015.000000	13.552000
2016.000000	13.526517
2017.000000	13.489300
2018.000000	13.462533
2019.000000	13.419217
2020.000000	13.377367
2021.000000	13.338350
2022.000000	13.291750
2023.000000	13.244400
2024.000000	13.197783
2025.000000	13.151450
2026.000000	13.095050
2027.000000	13.038983
2028.000000	12.981083
2029.000000	12.921917
2030.000000	12.862450
2031.000000	12.796850
2032.000000	12.733933
2033.000000	12.659033
2034.000000	12.580333
2035.000000	12.505583
2036.000000	12.420667
2037.000000	12.340067
2038.000000	12.251633
2039.000000	12.164900
2040.000000	12.064900
2041.000000	11.973983
2042.000000	11.884583
2043.000000	11.785600
2044.000000	11.687050
2045.000000	11.599700
2046.000000	11.507600
2047.000000	11.417000
2048.000000	11.341083
2049.000000	11.261850
2050.000000	11.192017
2051.000000	11.134917
2052.000000	11.079200
2053.000000	11.034483
2054.000000	10.993517
2055.000000	10.962283
2056.000000	10.938883
2057.000000	10.927800
2058.000000	10.920033
2059.000000	10.911417
2060.000000	10.913283
2061.000000	10.915567
2062.000000	10.929400
2063.000000	10.941350
2064.000000	10.948167
2065.000000	10.966650
2066.000000	10.985283
2067.000000	11.007333
2068.000000	11.024900
2069.000000	11.042867
2070.000000	11.055167
2071.000000	11.071350
2072.000000	11.099717
2073.000000	11.117883
2074.000000	11.133267
2075.000000	11.150600
2076.000000	11.162317
2077.000000	11.181500
2078.000000	11.207483
2079.000000	11.216233
2080.000000	11.225550
2081.000000	11.234683
2082.000000	11.236900
2083.000000	11.249067
2084.000000	11.260617
2085.000000	11.266983
2086.000000	11.270283
2087.000000	11.275500
2088.000000	11.277050
2089.000000	11.282017
2090.000000	11.278717
2091.000000	11.277750
2092.000000	11.284417
2093.000000	11.288967
2094.000000	11.298650
2095.000000	11.306033
2096.000000	11.303500
2097.000000	11.305100
2098.000000	11.314533
2099.000000	11.323467
2100.000000	11.333000
2101.000000	11.342183
2102.000000	11.349667
2103.000000	11.362150
2104.000000	11.373333
2105.000000	11.378283
2106.000000	11.389217
2107.000000	11.403033
2108.000000	11.414150
2109.000000	11.426333
2110.000000	11.438017
2111.000000	11.450233
2112.000000	11.466667
2113.000000	11.477867
2114.000000	11.489817
2115.000000	11.499500
2116.000000	11.507650
2117.000000	11.519133
2118.000000	11.523417
2119.000000	11.529150
2120.000000	11.533650
2121.000000	11.533483
2122.000000	11.535283
2123.000000	11.539450
2124.000000	11.541483
2125.000000	11.542400
2126.000000	11.541533
2127.000000	11.534417
2128.000000	11.531067
2129.000000	11.522583
2130.000000	11.506500
2131.000000	11.503150
2132.000000	11.492750
2133.000000	11.473217
2134.000000	11.455467
2135.000000	11.435800
2136.000000	11.429083
2137.000000	11.409150
2138.000000	11.379333
2139.000000	11.359900
2140.000000	11.339600
2141.000000	11.318517
2142.000000	11.294517
2143.000000	11.266650
2144.000000	11.245367
2145.000000	11.214933
2146.000000	11.183767
2147.000000	11.157617
2148.000000	11.126683
2149.000000	11.100617
2150.000000	11.071433
2151.000000	11.035933
2152.000000	11.001750
2153.000000	10.978650
2154.000000	10.955283
2155.000000	10.920250
2156.000000	10.888583
2157.000000	10.873300
2158.000000	10.851967
2159.000000	10.822217
2160.000000	10.802767
2161.000000	10.782867
2162.000000	10.761017
2163.000000	10.747617
2164.000000	10.740317
2165.000000	10.729550
2166.000000	10.711633
2167.000000	10.701000
2168.000000	10.692317
2169.000000	10.686683
2170.000000	10.686800
2171.000000	10.675483
2172.000000	10.666450
2173.000000	10.668083
2174.000000	10.663567
2175.000000	10.669667
2176.000000	10.671467
2177.000000	10.678983
2178.000000	10.678317
2179.000000	10.684417
2180.000000	10.692267
2181.000000	10.706317
2182.000000	10.717450
2183.000000	10.726383
2184.000000	10.731450
2185.000000	10.737317
2186.000000	10.751500
2187.000000	10.769033
2188.000000	10.774500
2189.000000	10.782350
2190.000000	10.789267
2191.000000	10.801000
2192.000000	10.803333
2193.000000	10.815467
2194.000000	10.827500
2195.000000	10.828033
2196.000000	10.847300
2197.000000	10.860283
2198.000000	10.859350
2199.000000	10.868117
2200.000000	10.882633
2201.000000	10.881800
2202.000000	10.897500
2203.000000	10.905500
2204.000000	10.920700
2205.000000	10.929417
2206.000000	10.934067
2207.000000	10.951133
2208.000000	10.956767
2209.000000	10.982617
2210.000000	10.993383
2211.000000	11.012900
2212.000000	11.024483
2213.000000	11.050117
2214.000000	11.062783
2215.000000	11.084983
2216.000000	11.106667
2217.000000	11.134400
2218.000000	11.146083
2219.000000	11.166400
2220.000000	11.189950
2221.000000	11.211050
2222.000000	11.213933
2223.000000	11.229967
2224.000000	11.232667
2225.000000	11.240333
2226.000000	11.239367
2227.000000	11.238500
2228.000000	11.234517
2229.000000	11.224683
2230.000000	11.210283
2231.000000	11.199217
2232.000000	11.162267
2233.000000	11.134200
2234.000000	11.098367
2235.000000	11.064200
2236.000000	11.018433
2237.000000	10.969550
2238.000000	10.907183
2239.000000	10.860267
2240.000000	10.794750
2241.000000	10.728250
2242.000000	10.642800
2243.000000	10.567050
2244.000000	10.488150
2245.000000	10.400683
2246.000000	10.304417
2247.000000	10.201033
2248.000000	10.087983
2249.000000	9.969633
2250.000000	9.858083
2251.000000	9.727550
2252.000000	9.605100
2253.000000	9.458033
2254.000000	9.325550
2255.000000	9.180150
2256.000000	9.035483
2257.000000	8.891433
2258.000000	8.744600
2259.000000	8.602600
2260.000000	8.471550
2261.000000	8.356733
2262.000000	8.236750
2263.000000	8.131550
2264.000000	8.035500
2265.000000	7.946500
2266.000000	7.874083
2267.000000	7.814967
2268.000000	7.764250
2269.000000	7.725817
2270.000000	7.698067
2271.000000	7.682267
2272.000000	7.667167
2273.000000	7.659200
2274.000000	7.665367
2275.000000	7.666767
2276.000000	7.689083
2277.000000	7.697467
2278.000000	7.719150
2279.000000	7.740600
2280.000000	7.767983
2281.000000	7.791500
2282.000000	7.809200
2283.000000	7.836000
2284.000000	7.853617
2285.000000	7.866683
2286.000000	7.879133
2287.000000	7.885250
2288.000000	7.891267
2289.000000	7.886933
2290.000000	7.879917
2291.000000	7.869467
2292.000000	7.854200
2293.000000	7.829083
2294.000000	7.797017
2295.000000	7.762700
2296.000000	7.718633
2297.000000	7.673467
2298.000000	7.626733
2299.000000	7.585200
2300.000000	7.542583
2301.000000	7.497200
2302.000000	7.452417
2303.000000	7.411500
2304.000000	7.386083
2305.000000	7.372217
2306.000000	7.355367
2307.000000	7.351000
2308.000000	7.353883
2309.000000	7.369867
2310.000000	7.394617
2311.000000	7.423017
2312.000000	7.457600
2313.000000	7.500100
2314.000000	7.543133
2315.000000	7.599767
2316.000000	7.648333
2317.000000	7.709867
2318.000000	7.751983
2319.000000	7.811067
2320.000000	7.863683
2321.000000	7.912800
2322.000000	7.952767
2323.000000	7.997650
2324.000000	8.039567
2325.000000	8.071500
2326.000000	8.114400
2327.000000	8.152817
2328.000000	8.179567
2329.000000	8.206250
2330.000000	8.228250
2331.000000	8.243967
2332.000000	8.268783
2333.000000	8.296533
2334.000000	8.312867
2335.000000	8.321333
2336.000000	8.328150
2337.000000	8.337083
2338.000000	8.337417
2339.000000	8.336017
2340.000000	8.334333
2341.000000	8.325350
2342.000000	8.315500
2343.000000	8.304000
2344.000000	8.285150
2345.000000	8.266083
2346.000000	8.251267
2347.000000	8.235583
2348.000000	8.215817
2349.000000	8.198967
2350.000000	8.188100
2351.000000	8.186367
2352.000000	8.188800
2353.000000	8.189050
2354.000000	8.192367
2355.000000	8.206183
2356.000000	8.228867
2357.000000	8.252050
2358.000000	8.286767
2359.000000	8.314767
2360.000000	8.339267
2361.000000	8.372683
2362.000000	8.412450
2363.000000	8.448883
2364.000000	8.476467
2365.000000	8.509633
2366.000000	8.547600
2367.000000	8.581150
2368.000000	8.609017
2369.000000	8.636317
2370.000000	8.664450
2371.000000	8.690767
2372.000000	8.702583
2373.000000	8.717467
2374.000000	8.742850
2375.000000	8.765383
2376.000000	8.779200
2377.000000	8.793100
2378.000000	8.808800
2379.000000	8.821650
2380.000000	8.825733
2381.000000	8.842317
2382.000000	8.853950
2383.000000	8.857433
2384.000000	8.872333
2385.000000	8.880617
2386.000000	8.888350
2387.000000	8.885350
2388.000000	8.881000
2389.000000	8.881117
2390.000000	8.876200
2391.000000	8.878750
2392.000000	8.878383
2393.000000	8.868267
2394.000000	8.864700
2395.000000	8.859383
2396.000000	8.846583
2397.000000	8.835050
2398.000000	8.827183
2399.000000	8.813617
2400.000000	8.804817
2401.000000	8.795867
2402.000000	8.782850
2403.000000	8.775800
2404.000000	8.760600
2405.000000	8.747417
2406.000000	8.746117
2407.000000	8.741067
2408.000000	8.728300
2409.000000	8.718500
2410.000000	8.708167
2411.000000	8.695767
2412.000000	8.693833
2413.000000	8.682217
2414.000000	8.661767
2415.000000	8.646433
2416.000000	8.636367
2417.000000	8.621750
2418.000000	8.600933
2419.000000	8.582467
2420.000000	8.571683
2421.000000	8.556867
2422.000000	8.549283
2423.000000	8.543417
2424.000000	8.529467
2425.000000	8.503183
2426.000000	8.478417
2427.000000	8.454817
2428.000000	8.429817
2429.000000	8.399583
2430.000000	8.361567
2431.000000	8.322617
2432.000000	8.292317
2433.000000	8.267517
2434.000000	8.231767
2435.000000	8.190267
2436.000000	8.164817
2437.000000	8.118683
2438.000000	8.077950
2439.000000	8.028517
2440.000000	7.986617
2441.000000	7.947183
2442.000000	7.902017
2443.000000	7.855050
2444.000000	7.813517
2445.000000	7.755817
2446.000000	7.719950
2447.000000	7.677183
2448.000000	7.626983
2449.000000	7.572900
2450.000000	7.532767
2451.000000	7.489217
2452.000000	7.444900
2453.000000	7.404133
2454.000000	7.353400
2455.000000	7.313383
2456.000000	7.277367
2457.000000	7.243567
2458.000000	7.207233
2459.000000	7.167683
2460.000000	7.138250
2461.000000	7.119167
2462.000000	7.078633
2463.000000	7.045750
2464.000000	7.029000
2465.000000	7.029267
2466.000000	6.992583
2467.000000	6.986467
2468.000000	6.972433
2469.000000	6.959567
2470.000000	6.942033
2471.000000	6.934833
2472.000000	6.949167
2473.000000	6.935350
2474.000000	6.927717
2475.000000	6.917617
2476.000000	6.941400
2477.000000	6.939817
2478.000000	6.932933
2479.000000	6.936167
2480.000000	6.928133
2481.000000	6.949417
2482.000000	6.938233
2483.000000	6.972000
2484.000000	6.948717
2485.000000	6.981400
2486.000000	6.960350
2487.000000	6.951783
2488.000000	6.995083
2489.000000	6.996083
2490.000000	6.967717
2491.000000	7.029433
2492.000000	7.011800
2493.000000	7.047617
2494.000000	7.028750
2495.000000	7.141250
2496.000000	7.114383
2497.000000	7.114517
2498.000000	7.156650
2499.000000	7.183317
2500.000000	7.210333
