PE UV       SUBTECH     SPECTRUM    ASCII       PEDS        4.00        
   -1
CICIMAUCR0201-3.Sample.ASC
24/05/31
16:20:21.00
24/05/31
16:20:21.00
Vinicio Soto Monge
C. cupreomarginata. Sex F. Dorsal
250,000000
1
Lambda 1050
1050L1511233
PerkinElmer UV WinLab 6.3.2.0749 / 2.02.05 Lambda 900 UV/VIS/NIR, Aug  7 2015 09:38:08

0
0
3350/servo 860,8/2
0
0
UV/VIS
1
1
1
DoubleDePol,CommonBeamDepol,RBeamAtt,SBeamAtt,60mm sphere, WB InGaAs Detector
0
0
0
0
Program
Program
3350/servo 860,8/2
3350/0,2 860,8/0,2
3350/0,2 860,8/0,2
0
15.00
 
 
 
0
 
860,8
319,2
860,8
Front
100
on
S:100 R:100
0
0
0
0
 
0
 
 
 
0
 
 
0
0
0
0
0
 
 
 
 
0
0


0
0
#HDR
-1
-1
#GR
nm
%R
1.0
0.0
2500,000000
-1,000000
2251
8
69,649100
5,880400
#DATA
250.000000	6.405572
251.000000	6.383373
252.000000	6.392509
253.000000	6.367547
254.000000	6.333173
255.000000	6.328999
256.000000	6.292509
257.000000	6.309548
258.000000	6.306570
259.000000	6.252511
260.000000	6.242537
261.000000	6.185721
262.000000	6.173082
263.000000	6.158874
264.000000	6.102778
265.000000	6.091457
266.000000	6.048422
267.000000	6.040104
268.000000	6.009397
269.000000	5.955770
270.000000	5.937697
271.000000	5.936280
272.000000	5.919641
273.000000	5.899430
274.000000	5.873351
275.000000	5.878618
276.000000	5.871064
277.000000	5.873070
278.000000	5.850324
279.000000	5.824400
280.000000	5.792032
281.000000	5.791875
282.000000	5.796414
283.000000	5.799178
284.000000	5.801802
285.000000	5.790650
286.000000	5.786207
287.000000	5.807145
288.000000	5.783058
289.000000	5.777851
290.000000	5.747334
291.000000	5.758607
292.000000	5.756919
293.000000	5.761771
294.000000	5.752704
295.000000	5.742794
296.000000	5.735601
297.000000	5.739391
298.000000	5.720469
299.000000	5.710775
300.000000	5.719004
301.000000	5.701548
302.000000	5.704406
303.000000	5.709752
304.000000	5.704186
305.000000	5.718899
306.000000	5.714947
307.000000	5.704922
308.000000	5.702887
309.000000	5.684039
310.000000	5.669676
311.000000	5.671563
312.000000	5.686270
313.000000	5.687741
314.000000	5.681629
315.000000	5.670597
316.000000	6.103614
317.000000	6.820373
318.000000	6.781222
319.000000	6.399687
320.000000	6.337152
321.000000	6.525245
322.000000	6.606760
323.000000	6.404696
324.000000	6.204444
325.000000	6.012345
326.000000	6.153637
327.000000	6.262298
328.000000	6.076212
329.000000	5.991639
330.000000	5.939233
331.000000	5.963568
332.000000	6.075537
333.000000	5.912088
334.000000	5.758972
335.000000	5.844166
336.000000	5.958539
337.000000	5.953771
338.000000	5.824236
339.000000	5.796054
340.000000	5.759951
341.000000	5.737242
342.000000	5.809923
343.000000	5.957759
344.000000	5.983172
345.000000	5.878513
346.000000	5.888472
347.000000	5.834999
348.000000	5.790150
349.000000	5.894494
350.000000	5.820534
351.000000	5.823718
352.000000	5.776939
353.000000	5.673807
354.000000	5.761705
355.000000	5.785160
356.000000	5.865734
357.000000	5.923632
358.000000	5.859486
359.000000	5.806459
360.000000	5.730884
361.000000	5.738179
362.000000	5.754915
363.000000	5.830152
364.000000	5.794016
365.000000	5.760000
366.000000	5.820540
367.000000	5.818312
368.000000	5.769162
369.000000	5.691036
370.000000	5.719422
371.000000	5.681609
372.000000	5.596511
373.000000	5.565089
374.000000	5.512816
375.000000	5.667306
376.000000	5.880246
377.000000	5.962710
378.000000	5.993383
379.000000	6.003434
380.000000	6.008318
381.000000	6.024205
382.000000	6.042495
383.000000	6.058311
384.000000	6.077897
385.000000	6.117144
386.000000	6.147051
387.000000	6.173942
388.000000	6.196322
389.000000	6.233990
390.000000	6.267786
391.000000	6.315774
392.000000	6.350868
393.000000	6.388640
394.000000	6.440392
395.000000	6.490258
396.000000	6.556672
397.000000	6.611820
398.000000	6.689120
399.000000	6.763913
400.000000	6.836829
401.000000	6.925614
402.000000	7.015471
403.000000	7.116207
404.000000	7.218542
405.000000	7.324059
406.000000	7.457690
407.000000	7.578087
408.000000	7.710051
409.000000	7.852514
410.000000	7.997234
411.000000	8.151793
412.000000	8.313703
413.000000	8.482605
414.000000	8.658222
415.000000	8.832897
416.000000	9.033777
417.000000	9.238948
418.000000	9.437384
419.000000	9.660343
420.000000	9.885033
421.000000	10.104125
422.000000	10.339925
423.000000	10.596295
424.000000	10.845995
425.000000	11.098465
426.000000	11.357339
427.000000	11.622506
428.000000	11.890963
429.000000	12.163026
430.000000	12.436106
431.000000	12.724817
432.000000	13.011154
433.000000	13.287383
434.000000	13.572734
435.000000	13.863827
436.000000	14.140940
437.000000	14.436710
438.000000	14.711040
439.000000	15.007993
440.000000	15.297516
441.000000	15.572295
442.000000	15.850530
443.000000	16.128163
444.000000	16.386077
445.000000	16.648413
446.000000	16.892866
447.000000	17.124129
448.000000	17.344599
449.000000	17.560982
450.000000	17.768472
451.000000	17.976246
452.000000	18.189240
453.000000	18.384440
454.000000	18.566898
455.000000	18.727475
456.000000	18.907208
457.000000	19.065467
458.000000	19.210808
459.000000	19.355312
460.000000	19.486187
461.000000	19.601075
462.000000	19.743654
463.000000	19.845013
464.000000	19.956006
465.000000	20.047282
466.000000	20.139602
467.000000	20.206685
468.000000	20.268257
469.000000	20.339437
470.000000	20.395511
471.000000	20.452813
472.000000	20.506211
473.000000	20.560131
474.000000	20.593468
475.000000	20.635421
476.000000	20.677240
477.000000	20.733557
478.000000	20.791119
479.000000	20.848583
480.000000	20.919136
481.000000	20.994898
482.000000	21.066414
483.000000	21.155134
484.000000	21.234008
485.000000	21.318544
486.000000	21.394440
487.000000	21.486582
488.000000	21.599945
489.000000	21.700411
490.000000	21.833000
491.000000	21.980705
492.000000	22.141242
493.000000	22.312429
494.000000	22.523754
495.000000	22.735245
496.000000	23.005267
497.000000	23.293197
498.000000	23.628505
499.000000	24.009882
500.000000	24.407000
501.000000	24.880930
502.000000	25.395936
503.000000	25.969507
504.000000	26.561468
505.000000	27.194013
506.000000	27.871319
507.000000	28.581841
508.000000	29.334016
509.000000	30.085046
510.000000	30.898156
511.000000	31.677395
512.000000	32.484854
513.000000	33.271099
514.000000	34.045850
515.000000	34.826502
516.000000	35.616033
517.000000	36.351079
518.000000	37.079851
519.000000	37.788566
520.000000	38.496233
521.000000	39.197004
522.000000	39.879999
523.000000	40.559973
524.000000	41.238296
525.000000	41.921141
526.000000	42.604477
527.000000	43.279935
528.000000	43.939661
529.000000	44.614113
530.000000	45.272534
531.000000	45.949635
532.000000	46.656521
533.000000	47.368339
534.000000	48.095028
535.000000	48.812299
536.000000	49.512234
537.000000	50.236151
538.000000	50.967174
539.000000	51.697586
540.000000	52.415377
541.000000	53.145131
542.000000	53.868415
543.000000	54.600228
544.000000	55.319353
545.000000	56.020279
546.000000	56.692658
547.000000	57.360585
548.000000	57.985981
549.000000	58.589030
550.000000	59.199773
551.000000	59.785162
552.000000	60.340547
553.000000	60.866949
554.000000	61.367262
555.000000	61.826331
556.000000	62.237126
557.000000	62.602625
558.000000	62.898581
559.000000	63.194604
560.000000	63.477301
561.000000	63.693975
562.000000	63.887481
563.000000	64.045771
564.000000	64.196330
565.000000	64.304696
566.000000	64.388533
567.000000	64.453703
568.000000	64.506929
569.000000	64.541301
570.000000	64.553101
571.000000	64.530735
572.000000	64.484265
573.000000	64.402144
574.000000	64.309271
575.000000	64.196394
576.000000	64.054531
577.000000	63.895792
578.000000	63.720064
579.000000	63.523331
580.000000	63.324967
581.000000	63.117101
582.000000	62.918385
583.000000	62.704774
584.000000	62.507845
585.000000	62.296340
586.000000	62.119372
587.000000	61.948040
588.000000	61.769266
589.000000	61.615048
590.000000	61.449999
591.000000	61.270592
592.000000	61.079209
593.000000	60.933112
594.000000	60.756758
595.000000	60.566906
596.000000	60.363703
597.000000	60.124477
598.000000	59.898629
599.000000	59.651955
600.000000	59.372681
601.000000	59.058263
602.000000	58.739552
603.000000	58.374974
604.000000	58.001364
605.000000	57.613232
606.000000	57.192556
607.000000	56.760907
608.000000	56.344958
609.000000	55.930865
610.000000	55.528878
611.000000	55.108654
612.000000	54.702966
613.000000	54.311841
614.000000	53.952509
615.000000	53.588371
616.000000	53.259590
617.000000	52.954339
618.000000	52.679020
619.000000	52.429056
620.000000	52.187543
621.000000	51.969029
622.000000	51.747884
623.000000	51.523866
624.000000	51.284419
625.000000	51.025695
626.000000	50.778602
627.000000	50.513597
628.000000	50.214703
629.000000	49.897211
630.000000	49.547787
631.000000	49.203398
632.000000	48.849166
633.000000	48.474026
634.000000	48.117705
635.000000	47.795898
636.000000	47.488604
637.000000	47.231983
638.000000	47.015027
639.000000	46.823018
640.000000	46.706595
641.000000	46.643420
642.000000	46.630376
643.000000	46.683547
644.000000	46.790790
645.000000	46.962538
646.000000	47.186722
647.000000	47.425294
648.000000	47.671828
649.000000	47.968164
650.000000	48.280526
651.000000	48.600332
652.000000	48.893391
653.000000	49.154893
654.000000	49.428101
655.000000	49.687794
656.000000	49.930101
657.000000	50.132829
658.000000	50.319367
659.000000	50.500405
660.000000	50.701492
661.000000	50.853975
662.000000	51.005782
663.000000	51.178602
664.000000	51.328504
665.000000	51.502710
666.000000	51.683808
667.000000	51.839296
668.000000	51.999394
669.000000	52.166850
670.000000	52.338039
671.000000	52.515056
672.000000	52.680481
673.000000	52.840628
674.000000	53.002971
675.000000	53.186110
676.000000	53.340115
677.000000	53.425906
678.000000	53.536136
679.000000	53.663197
680.000000	53.771065
681.000000	53.887996
682.000000	53.963944
683.000000	54.000201
684.000000	54.080259
685.000000	54.157511
686.000000	54.197779
687.000000	54.237742
688.000000	54.267490
689.000000	54.312749
690.000000	54.400124
691.000000	54.445111
692.000000	54.511429
693.000000	54.591616
694.000000	54.647452
695.000000	54.699630
696.000000	54.797206
697.000000	54.886718
698.000000	54.968655
699.000000	55.080009
700.000000	55.146361
701.000000	55.243332
702.000000	55.348814
703.000000	55.474668
704.000000	55.576872
705.000000	55.670268
706.000000	55.789803
707.000000	55.902816
708.000000	55.979961
709.000000	56.043218
710.000000	56.109920
711.000000	56.228324
712.000000	56.361832
713.000000	56.420809
714.000000	56.500903
715.000000	56.602648
716.000000	56.696630
717.000000	56.793731
718.000000	56.911421
719.000000	57.003310
720.000000	57.070837
721.000000	57.224264
722.000000	57.300851
723.000000	57.401172
724.000000	57.523058
725.000000	57.618545
726.000000	57.699443
727.000000	57.810967
728.000000	57.935410
729.000000	57.978252
730.000000	58.146071
731.000000	58.308110
732.000000	58.390883
733.000000	58.461932
734.000000	58.605779
735.000000	58.654897
736.000000	58.765847
737.000000	58.842281
738.000000	58.967124
739.000000	59.055034
740.000000	59.111637
741.000000	59.136946
742.000000	59.264059
743.000000	59.343657
744.000000	59.465168
745.000000	59.549359
746.000000	59.677182
747.000000	59.770200
748.000000	59.901272
749.000000	60.036953
750.000000	60.121501
751.000000	60.185140
752.000000	60.350839
753.000000	60.410305
754.000000	60.488889
755.000000	60.540288
756.000000	60.650191
757.000000	60.716911
758.000000	60.809528
759.000000	60.856874
760.000000	60.906620
761.000000	61.013158
762.000000	61.133368
763.000000	61.104468
764.000000	61.263161
765.000000	61.326240
766.000000	61.412718
767.000000	61.538207
768.000000	61.688945
769.000000	61.788942
770.000000	61.872919
771.000000	61.997032
772.000000	62.058993
773.000000	62.105421
774.000000	62.201231
775.000000	62.265410
776.000000	62.347556
777.000000	62.371713
778.000000	62.520226
779.000000	62.537609
780.000000	62.616610
781.000000	62.732395
782.000000	62.892552
783.000000	62.844909
784.000000	62.962055
785.000000	63.096954
786.000000	63.118154
787.000000	63.355719
788.000000	63.428089
789.000000	63.461414
790.000000	63.545436
791.000000	63.678937
792.000000	63.652706
793.000000	63.877385
794.000000	63.805391
795.000000	63.916869
796.000000	64.021725
797.000000	64.005892
798.000000	64.028332
799.000000	64.110859
800.000000	64.291710
801.000000	64.243798
802.000000	64.360636
803.000000	64.492471
804.000000	64.623252
805.000000	64.658372
806.000000	64.745015
807.000000	64.868506
808.000000	64.941553
809.000000	64.896552
810.000000	64.827148
811.000000	64.904773
812.000000	65.014594
813.000000	65.072055
814.000000	65.041987
815.000000	65.037378
816.000000	65.005242
817.000000	65.045730
818.000000	65.045524
819.000000	65.039688
820.000000	65.083664
821.000000	65.123801
822.000000	65.223422
823.000000	65.236198
824.000000	65.206664
825.000000	65.212214
826.000000	65.226761
827.000000	65.182161
828.000000	65.249547
829.000000	65.128718
830.000000	65.148633
831.000000	64.923366
832.000000	64.933595
833.000000	65.006882
834.000000	64.841919
835.000000	64.885868
836.000000	64.941741
837.000000	64.797212
838.000000	64.783173
839.000000	64.887765
840.000000	64.826555
841.000000	64.682005
842.000000	64.641453
843.000000	64.812927
844.000000	64.733879
845.000000	64.574877
846.000000	64.421865
847.000000	64.417264
848.000000	64.499789
849.000000	64.439614
850.000000	64.161026
851.000000	63.989120
852.000000	64.051576
853.000000	63.875948
854.000000	63.999442
855.000000	63.701803
856.000000	63.901962
857.000000	63.161080
858.000000	63.237533
859.000000	63.182367
860.000000	63.128500
861.000000	63.075600
862.000000	63.007833
863.000000	62.947500
864.000000	62.874600
865.000000	62.827067
866.000000	62.766567
867.000000	62.702467
868.000000	62.635200
869.000000	62.560133
870.000000	62.487567
871.000000	62.469567
872.000000	62.546600
873.000000	62.722200
874.000000	62.896200
875.000000	63.032600
876.000000	63.125433
877.000000	63.242467
878.000000	63.336233
879.000000	63.402100
880.000000	63.442600
881.000000	63.487800
882.000000	63.511833
883.000000	63.544633
884.000000	63.558200
885.000000	63.581900
886.000000	63.596400
887.000000	63.612567
888.000000	63.598800
889.000000	63.585567
890.000000	63.577500
891.000000	63.565667
892.000000	63.560067
893.000000	63.549033
894.000000	63.538300
895.000000	63.515067
896.000000	63.488567
897.000000	63.465367
898.000000	63.438133
899.000000	63.413500
900.000000	63.389533
901.000000	63.363367
902.000000	63.342667
903.000000	63.317833
904.000000	63.303700
905.000000	63.283233
906.000000	63.262467
907.000000	63.248067
908.000000	63.237267
909.000000	63.232100
910.000000	63.235867
911.000000	63.246100
912.000000	63.246800
913.000000	63.242467
914.000000	63.251467
915.000000	63.256667
916.000000	63.254267
917.000000	63.260767
918.000000	63.272367
919.000000	63.271267
920.000000	63.267067
921.000000	63.269033
922.000000	63.262700
923.000000	63.261167
924.000000	63.255133
925.000000	63.233967
926.000000	63.234800
927.000000	63.224667
928.000000	63.219733
929.000000	63.209033
930.000000	63.201767
931.000000	63.202900
932.000000	63.189667
933.000000	63.174200
934.000000	63.158967
935.000000	63.152933
936.000000	63.145133
937.000000	63.136767
938.000000	63.135467
939.000000	63.132133
940.000000	63.129467
941.000000	63.128033
942.000000	63.120267
943.000000	63.116067
944.000000	63.117267
945.000000	63.095600
946.000000	63.073333
947.000000	63.058967
948.000000	63.040633
949.000000	63.024900
950.000000	63.007200
951.000000	62.996033
952.000000	62.974333
953.000000	62.948233
954.000000	62.933467
955.000000	62.902833
956.000000	62.879900
957.000000	62.861867
958.000000	62.824600
959.000000	62.800633
960.000000	62.765500
961.000000	62.736400
962.000000	62.712767
963.000000	62.680333
964.000000	62.652333
965.000000	62.625300
966.000000	62.600867
967.000000	62.574433
968.000000	62.544600
969.000000	62.527867
970.000000	62.496367
971.000000	62.470367
972.000000	62.456467
973.000000	62.435500
974.000000	62.402833
975.000000	62.378800
976.000000	62.366500
977.000000	62.361167
978.000000	62.341200
979.000000	62.318300
980.000000	62.311300
981.000000	62.296700
982.000000	62.278267
983.000000	62.264967
984.000000	62.270900
985.000000	62.260900
986.000000	62.251900
987.000000	62.247667
988.000000	62.242033
989.000000	62.238000
990.000000	62.244733
991.000000	62.257100
992.000000	62.256667
993.000000	62.264667
994.000000	62.276567
995.000000	62.283567
996.000000	62.295933
997.000000	62.302033
998.000000	62.323300
999.000000	62.344133
1000.000000	62.364933
1001.000000	62.374000
1002.000000	62.387667
1003.000000	62.404433
1004.000000	62.431267
1005.000000	62.460900
1006.000000	62.469700
1007.000000	62.482867
1008.000000	62.507100
1009.000000	62.530867
1010.000000	62.554367
1011.000000	62.576033
1012.000000	62.609300
1013.000000	62.641233
1014.000000	62.689433
1015.000000	62.730633
1016.000000	62.774167
1017.000000	62.822867
1018.000000	62.882800
1019.000000	62.931867
1020.000000	62.991400
1021.000000	63.063367
1022.000000	63.110567
1023.000000	63.173333
1024.000000	63.238567
1025.000000	63.287267
1026.000000	63.344867
1027.000000	63.410500
1028.000000	63.463133
1029.000000	63.506867
1030.000000	63.568100
1031.000000	63.614100
1032.000000	63.653800
1033.000000	63.706767
1034.000000	63.752200
1035.000000	63.791200
1036.000000	63.825767
1037.000000	63.870533
1038.000000	63.906467
1039.000000	63.938833
1040.000000	63.975800
1041.000000	63.999633
1042.000000	64.043967
1043.000000	64.074300
1044.000000	64.115600
1045.000000	64.146067
1046.000000	64.175500
1047.000000	64.221800
1048.000000	64.251333
1049.000000	64.286467
1050.000000	64.327333
1051.000000	64.376367
1052.000000	64.417733
1053.000000	64.472067
1054.000000	64.511567
1055.000000	64.554800
1056.000000	64.609400
1057.000000	64.664633
1058.000000	64.703233
1059.000000	64.757233
1060.000000	64.801233
1061.000000	64.859700
1062.000000	64.898100
1063.000000	64.940267
1064.000000	64.994433
1065.000000	65.039067
1066.000000	65.072367
1067.000000	65.120567
1068.000000	65.167200
1069.000000	65.214600
1070.000000	65.259400
1071.000000	65.299500
1072.000000	65.332800
1073.000000	65.369233
1074.000000	65.417233
1075.000000	65.449200
1076.000000	65.497900
1077.000000	65.522567
1078.000000	65.573833
1079.000000	65.624867
1080.000000	65.656033
1081.000000	65.691500
1082.000000	65.727667
1083.000000	65.776467
1084.000000	65.815700
1085.000000	65.847633
1086.000000	65.873967
1087.000000	65.914233
1088.000000	65.953533
1089.000000	65.979333
1090.000000	66.005467
1091.000000	66.025667
1092.000000	66.059500
1093.000000	66.069000
1094.000000	66.093033
1095.000000	66.109567
1096.000000	66.129433
1097.000000	66.148167
1098.000000	66.154867
1099.000000	66.163567
1100.000000	66.169467
1101.000000	66.172200
1102.000000	66.170967
1103.000000	66.177067
1104.000000	66.172033
1105.000000	66.170133
1106.000000	66.160133
1107.000000	66.164967
1108.000000	66.159533
1109.000000	66.158267
1110.000000	66.155867
1111.000000	66.146900
1112.000000	66.143133
1113.000000	66.119800
1114.000000	66.121233
1115.000000	66.116233
1116.000000	66.107433
1117.000000	66.083333
1118.000000	66.051933
1119.000000	66.022967
1120.000000	65.977100
1121.000000	65.929033
1122.000000	65.873433
1123.000000	65.797367
1124.000000	65.699367
1125.000000	65.602733
1126.000000	65.489100
1127.000000	65.349333
1128.000000	65.194233
1129.000000	64.989800
1130.000000	64.757833
1131.000000	64.486700
1132.000000	64.216600
1133.000000	63.943833
1134.000000	63.631800
1135.000000	63.268033
1136.000000	62.916400
1137.000000	62.571500
1138.000000	62.245733
1139.000000	61.935100
1140.000000	61.638300
1141.000000	61.343567
1142.000000	61.065500
1143.000000	60.808967
1144.000000	60.588533
1145.000000	60.397333
1146.000000	60.259367
1147.000000	60.138800
1148.000000	60.061033
1149.000000	59.996200
1150.000000	59.925700
1151.000000	59.849867
1152.000000	59.745333
1153.000000	59.618533
1154.000000	59.470567
1155.000000	59.265100
1156.000000	59.047533
1157.000000	58.803333
1158.000000	58.539667
1159.000000	58.254233
1160.000000	57.973533
1161.000000	57.675367
1162.000000	57.386867
1163.000000	57.084200
1164.000000	56.792000
1165.000000	56.501733
1166.000000	56.215233
1167.000000	55.942300
1168.000000	55.677433
1169.000000	55.416067
1170.000000	55.158500
1171.000000	54.898033
1172.000000	54.650633
1173.000000	54.412533
1174.000000	54.179167
1175.000000	53.943133
1176.000000	53.679800
1177.000000	53.394433
1178.000000	53.065333
1179.000000	52.707633
1180.000000	52.330900
1181.000000	51.961767
1182.000000	51.634167
1183.000000	51.371200
1184.000000	51.211167
1185.000000	51.151500
1186.000000	51.181700
1187.000000	51.302867
1188.000000	51.506500
1189.000000	51.782300
1190.000000	52.104267
1191.000000	52.433000
1192.000000	52.737967
1193.000000	53.011900
1194.000000	53.252600
1195.000000	53.430133
1196.000000	53.572767
1197.000000	53.684467
1198.000000	53.769267
1199.000000	53.830633
1200.000000	53.880633
1201.000000	53.915900
1202.000000	53.944167
1203.000000	53.975700
1204.000000	54.016333
1205.000000	54.059767
1206.000000	54.109033
1207.000000	54.180333
1208.000000	54.257400
1209.000000	54.332867
1210.000000	54.422533
1211.000000	54.522300
1212.000000	54.615633
1213.000000	54.706533
1214.000000	54.807733
1215.000000	54.912700
1216.000000	55.011633
1217.000000	55.123333
1218.000000	55.242833
1219.000000	55.367933
1220.000000	55.491267
1221.000000	55.621167
1222.000000	55.760500
1223.000000	55.891467
1224.000000	56.028800
1225.000000	56.164833
1226.000000	56.297233
1227.000000	56.427100
1228.000000	56.557433
1229.000000	56.695833
1230.000000	56.826500
1231.000000	56.951600
1232.000000	57.073500
1233.000000	57.193800
1234.000000	57.309967
1235.000000	57.427900
1236.000000	57.543967
1237.000000	57.649633
1238.000000	57.756533
1239.000000	57.863100
1240.000000	57.963600
1241.000000	58.067833
1242.000000	58.162300
1243.000000	58.250667
1244.000000	58.347200
1245.000000	58.435867
1246.000000	58.506800
1247.000000	58.581933
1248.000000	58.658233
1249.000000	58.717800
1250.000000	58.772300
1251.000000	58.818400
1252.000000	58.864033
1253.000000	58.914200
1254.000000	58.957333
1255.000000	58.995967
1256.000000	59.036567
1257.000000	59.067700
1258.000000	59.097433
1259.000000	59.127000
1260.000000	59.153500
1261.000000	59.178900
1262.000000	59.204200
1263.000000	59.227967
1264.000000	59.253567
1265.000000	59.286367
1266.000000	59.312800
1267.000000	59.338867
1268.000000	59.367600
1269.000000	59.394733
1270.000000	59.417167
1271.000000	59.442967
1272.000000	59.463700
1273.000000	59.486767
1274.000000	59.523233
1275.000000	59.559300
1276.000000	59.591900
1277.000000	59.625967
1278.000000	59.670533
1279.000000	59.710533
1280.000000	59.742433
1281.000000	59.783567
1282.000000	59.833100
1283.000000	59.875300
1284.000000	59.906933
1285.000000	59.947600
1286.000000	59.980467
1287.000000	60.008100
1288.000000	60.029467
1289.000000	60.048533
1290.000000	60.064833
1291.000000	60.086133
1292.000000	60.084600
1293.000000	60.087967
1294.000000	60.077833
1295.000000	60.070833
1296.000000	60.059333
1297.000000	60.045100
1298.000000	60.019233
1299.000000	59.998533
1300.000000	59.977333
1301.000000	59.953300
1302.000000	59.912933
1303.000000	59.874067
1304.000000	59.836933
1305.000000	59.798333
1306.000000	59.736267
1307.000000	59.670500
1308.000000	59.610333
1309.000000	59.537233
1310.000000	59.461667
1311.000000	59.384167
1312.000000	59.307467
1313.000000	59.219133
1314.000000	59.118133
1315.000000	59.014433
1316.000000	58.902500
1317.000000	58.801633
1318.000000	58.691667
1319.000000	58.578267
1320.000000	58.456133
1321.000000	58.327300
1322.000000	58.194400
1323.000000	58.071367
1324.000000	57.927433
1325.000000	57.787100
1326.000000	57.619767
1327.000000	57.454900
1328.000000	57.294433
1329.000000	57.122133
1330.000000	56.936167
1331.000000	56.752600
1332.000000	56.556500
1333.000000	56.355033
1334.000000	56.137700
1335.000000	55.928667
1336.000000	55.700233
1337.000000	55.479200
1338.000000	55.241967
1339.000000	55.004133
1340.000000	54.750967
1341.000000	54.504367
1342.000000	54.248233
1343.000000	53.984233
1344.000000	53.725700
1345.000000	53.430933
1346.000000	53.153733
1347.000000	52.865333
1348.000000	52.541800
1349.000000	52.206833
1350.000000	51.858400
1351.000000	51.476767
1352.000000	51.069433
1353.000000	50.749467
1354.000000	50.428000
1355.000000	50.132467
1356.000000	49.909233
1357.000000	49.769733
1358.000000	49.661067
1359.000000	49.566233
1360.000000	49.565300
1361.000000	49.439700
1362.000000	49.299067
1363.000000	49.129333
1364.000000	48.992067
1365.000000	48.804133
1366.000000	48.628700
1367.000000	48.441567
1368.000000	48.199933
1369.000000	47.920167
1370.000000	47.686533
1371.000000	47.394567
1372.000000	47.089333
1373.000000	46.820800
1374.000000	46.587133
1375.000000	46.397700
1376.000000	46.235067
1377.000000	46.063900
1378.000000	45.930900
1379.000000	45.720800
1380.000000	45.488767
1381.000000	45.221367
1382.000000	44.810567
1383.000000	44.351533
1384.000000	43.871300
1385.000000	43.423400
1386.000000	43.008767
1387.000000	42.636433
1388.000000	42.237633
1389.000000	41.840933
1390.000000	41.564567
1391.000000	41.271667
1392.000000	40.992133
1393.000000	40.723533
1394.000000	40.498367
1395.000000	40.228900
1396.000000	39.871400
1397.000000	39.546433
1398.000000	39.280567
1399.000000	39.033167
1400.000000	38.677600
1401.000000	38.274133
1402.000000	37.868267
1403.000000	37.496833
1404.000000	37.126633
1405.000000	36.766033
1406.000000	36.368133
1407.000000	36.040433
1408.000000	35.667067
1409.000000	35.330467
1410.000000	34.965867
1411.000000	34.634033
1412.000000	34.375167
1413.000000	34.129867
1414.000000	33.860633
1415.000000	33.575200
1416.000000	33.317767
1417.000000	33.074667
1418.000000	32.873700
1419.000000	32.636933
1420.000000	32.401733
1421.000000	32.161633
1422.000000	31.955733
1423.000000	31.764300
1424.000000	31.568767
1425.000000	31.371433
1426.000000	31.179433
1427.000000	31.014633
1428.000000	30.858533
1429.000000	30.695500
1430.000000	30.553300
1431.000000	30.432400
1432.000000	30.318600
1433.000000	30.180433
1434.000000	30.053467
1435.000000	29.933733
1436.000000	29.830200
1437.000000	29.720567
1438.000000	29.620300
1439.000000	29.513500
1440.000000	29.413000
1441.000000	29.314567
1442.000000	29.201667
1443.000000	29.106000
1444.000000	29.035000
1445.000000	28.952833
1446.000000	28.858067
1447.000000	28.748233
1448.000000	28.658433
1449.000000	28.589833
1450.000000	28.516000
1451.000000	28.434467
1452.000000	28.359133
1453.000000	28.269267
1454.000000	28.198967
1455.000000	28.128433
1456.000000	28.063200
1457.000000	28.003133
1458.000000	27.947200
1459.000000	27.893800
1460.000000	27.841500
1461.000000	27.804900
1462.000000	27.761867
1463.000000	27.727967
1464.000000	27.697133
1465.000000	27.671633
1466.000000	27.654833
1467.000000	27.628800
1468.000000	27.602733
1469.000000	27.597233
1470.000000	27.592500
1471.000000	27.581167
1472.000000	27.559233
1473.000000	27.538267
1474.000000	27.513267
1475.000000	27.496700
1476.000000	27.493400
1477.000000	27.497267
1478.000000	27.495833
1479.000000	27.504267
1480.000000	27.521833
1481.000000	27.530800
1482.000000	27.534000
1483.000000	27.547733
1484.000000	27.571033
1485.000000	27.594967
1486.000000	27.620967
1487.000000	27.642367
1488.000000	27.671767
1489.000000	27.695000
1490.000000	27.719367
1491.000000	27.750767
1492.000000	27.782567
1493.000000	27.813767
1494.000000	27.850933
1495.000000	27.884633
1496.000000	27.921100
1497.000000	27.968667
1498.000000	28.010967
1499.000000	28.061267
1500.000000	28.108567
1501.000000	28.164100
1502.000000	28.221100
1503.000000	28.277400
1504.000000	28.339400
1505.000000	28.405333
1506.000000	28.468467
1507.000000	28.532233
1508.000000	28.596567
1509.000000	28.660800
1510.000000	28.722533
1511.000000	28.781200
1512.000000	28.847500
1513.000000	28.913800
1514.000000	28.974733
1515.000000	29.031100
1516.000000	29.079800
1517.000000	29.133667
1518.000000	29.190267
1519.000000	29.246233
1520.000000	29.303933
1521.000000	29.356000
1522.000000	29.405167
1523.000000	29.457333
1524.000000	29.506500
1525.000000	29.555267
1526.000000	29.607000
1527.000000	29.654533
1528.000000	29.692967
1529.000000	29.739733
1530.000000	29.782800
1531.000000	29.817767
1532.000000	29.850667
1533.000000	29.884667
1534.000000	29.919500
1535.000000	29.947567
1536.000000	29.979433
1537.000000	30.010500
1538.000000	30.032700
1539.000000	30.056567
1540.000000	30.086600
1541.000000	30.120067
1542.000000	30.147267
1543.000000	30.173667
1544.000000	30.205700
1545.000000	30.243867
1546.000000	30.286400
1547.000000	30.328567
1548.000000	30.371900
1549.000000	30.419133
1550.000000	30.459167
1551.000000	30.500700
1552.000000	30.541267
1553.000000	30.572167
1554.000000	30.599733
1555.000000	30.627333
1556.000000	30.648867
1557.000000	30.667533
1558.000000	30.685433
1559.000000	30.699667
1560.000000	30.715200
1561.000000	30.717200
1562.000000	30.721233
1563.000000	30.722333
1564.000000	30.719800
1565.000000	30.720600
1566.000000	30.727667
1567.000000	30.727500
1568.000000	30.727367
1569.000000	30.728667
1570.000000	30.732800
1571.000000	30.742900
1572.000000	30.753033
1573.000000	30.773833
1574.000000	30.793367
1575.000000	30.814233
1576.000000	30.838567
1577.000000	30.863933
1578.000000	30.899833
1579.000000	30.925633
1580.000000	30.970033
1581.000000	31.017033
1582.000000	31.067567
1583.000000	31.115133
1584.000000	31.164333
1585.000000	31.223167
1586.000000	31.274700
1587.000000	31.330367
1588.000000	31.385267
1589.000000	31.443567
1590.000000	31.505633
1591.000000	31.564033
1592.000000	31.621500
1593.000000	31.684167
1594.000000	31.753167
1595.000000	31.824433
1596.000000	31.896200
1597.000000	31.961133
1598.000000	32.031500
1599.000000	32.102367
1600.000000	32.183900
1601.000000	32.269267
1602.000000	32.344900
1603.000000	32.425100
1604.000000	32.505067
1605.000000	32.575967
1606.000000	32.651133
1607.000000	32.726633
1608.000000	32.802300
1609.000000	32.875600
1610.000000	32.941167
1611.000000	33.021767
1612.000000	33.089433
1613.000000	33.160433
1614.000000	33.236600
1615.000000	33.313400
1616.000000	33.366233
1617.000000	33.444733
1618.000000	33.508867
1619.000000	33.580000
1620.000000	33.659600
1621.000000	33.721633
1622.000000	33.798900
1623.000000	33.867833
1624.000000	33.941900
1625.000000	34.011433
1626.000000	34.096967
1627.000000	34.177100
1628.000000	34.243200
1629.000000	34.324033
1630.000000	34.394467
1631.000000	34.465333
1632.000000	34.544667
1633.000000	34.601600
1634.000000	34.672667
1635.000000	34.730200
1636.000000	34.776567
1637.000000	34.840633
1638.000000	34.900933
1639.000000	34.943033
1640.000000	34.994800
1641.000000	35.040600
1642.000000	35.070833
1643.000000	35.117400
1644.000000	35.165933
1645.000000	35.200567
1646.000000	35.243867
1647.000000	35.274300
1648.000000	35.299367
1649.000000	35.323133
1650.000000	35.341267
1651.000000	35.358967
1652.000000	35.371967
1653.000000	35.375700
1654.000000	35.362367
1655.000000	35.351767
1656.000000	35.324767
1657.000000	35.299700
1658.000000	35.253467
1659.000000	35.208900
1660.000000	35.136600
1661.000000	35.088167
1662.000000	35.004967
1663.000000	34.912767
1664.000000	34.828500
1665.000000	34.723300
1666.000000	34.602900
1667.000000	34.472100
1668.000000	34.345267
1669.000000	34.181467
1670.000000	33.988033
1671.000000	33.775333
1672.000000	33.540567
1673.000000	33.256333
1674.000000	32.956867
1675.000000	32.622467
1676.000000	32.230733
1677.000000	31.782600
1678.000000	31.306167
1679.000000	30.824633
1680.000000	30.373400
1681.000000	29.985267
1682.000000	29.655900
1683.000000	29.438133
1684.000000	29.285833
1685.000000	29.206700
1686.000000	29.125667
1687.000000	29.076400
1688.000000	28.989600
1689.000000	28.888733
1690.000000	28.769967
1691.000000	28.639467
1692.000000	28.517533
1693.000000	28.434433
1694.000000	28.392633
1695.000000	28.395867
1696.000000	28.449033
1697.000000	28.528767
1698.000000	28.642400
1699.000000	28.771467
1700.000000	28.898233
1701.000000	29.002567
1702.000000	29.084600
1703.000000	29.151967
1704.000000	29.198000
1705.000000	29.225667
1706.000000	29.243800
1707.000000	29.236100
1708.000000	29.218167
1709.000000	29.197267
1710.000000	29.139733
1711.000000	29.071367
1712.000000	28.985600
1713.000000	28.876100
1714.000000	28.769500
1715.000000	28.654833
1716.000000	28.536433
1717.000000	28.428267
1718.000000	28.336333
1719.000000	28.243967
1720.000000	28.153900
1721.000000	28.094267
1722.000000	28.030033
1723.000000	27.964567
1724.000000	27.899533
1725.000000	27.827567
1726.000000	27.742100
1727.000000	27.651667
1728.000000	27.566733
1729.000000	27.479933
1730.000000	27.401800
1731.000000	27.356800
1732.000000	27.353667
1733.000000	27.386667
1734.000000	27.455600
1735.000000	27.561567
1736.000000	27.706400
1737.000000	27.896367
1738.000000	28.092433
1739.000000	28.310500
1740.000000	28.521600
1741.000000	28.723533
1742.000000	28.899533
1743.000000	29.052167
1744.000000	29.181667
1745.000000	29.296867
1746.000000	29.393300
1747.000000	29.462833
1748.000000	29.515900
1749.000000	29.554500
1750.000000	29.568200
1751.000000	29.570633
1752.000000	29.552700
1753.000000	29.532500
1754.000000	29.496667
1755.000000	29.443067
1756.000000	29.379267
1757.000000	29.315667
1758.000000	29.254667
1759.000000	29.180900
1760.000000	29.128267
1761.000000	29.084267
1762.000000	29.073567
1763.000000	29.089700
1764.000000	29.114933
1765.000000	29.170133
1766.000000	29.247000
1767.000000	29.348767
1768.000000	29.456067
1769.000000	29.564967
1770.000000	29.680300
1771.000000	29.791733
1772.000000	29.898467
1773.000000	30.000133
1774.000000	30.102300
1775.000000	30.200867
1776.000000	30.291133
1777.000000	30.369833
1778.000000	30.454467
1779.000000	30.537767
1780.000000	30.601567
1781.000000	30.665067
1782.000000	30.730833
1783.000000	30.793967
1784.000000	30.862467
1785.000000	30.922500
1786.000000	30.971500
1787.000000	31.023267
1788.000000	31.065833
1789.000000	31.119200
1790.000000	31.170767
1791.000000	31.213067
1792.000000	31.263067
1793.000000	31.309467
1794.000000	31.361900
1795.000000	31.409667
1796.000000	31.442100
1797.000000	31.481900
1798.000000	31.529833
1799.000000	31.587133
1800.000000	31.645567
1801.000000	31.691500
1802.000000	31.728100
1803.000000	31.766567
1804.000000	31.811867
1805.000000	31.860833
1806.000000	31.906867
1807.000000	31.942533
1808.000000	31.978133
1809.000000	32.008900
1810.000000	32.058867
1811.000000	32.095767
1812.000000	32.110500
1813.000000	32.121000
1814.000000	32.142433
1815.000000	32.168933
1816.000000	32.171900
1817.000000	32.179867
1818.000000	32.210367
1819.000000	32.250133
1820.000000	32.276133
1821.000000	32.291533
1822.000000	32.285533
1823.000000	32.294967
1824.000000	32.331533
1825.000000	32.382833
1826.000000	32.434367
1827.000000	32.494600
1828.000000	32.568500
1829.000000	32.624333
1830.000000	32.672233
1831.000000	32.712967
1832.000000	32.761500
1833.000000	32.828233
1834.000000	32.899267
1835.000000	32.960500
1836.000000	33.003933
1837.000000	33.037600
1838.000000	33.068767
1839.000000	33.100433
1840.000000	33.119133
1841.000000	33.135033
1842.000000	33.117567
1843.000000	33.106333
1844.000000	33.138433
1845.000000	33.177033
1846.000000	33.240333
1847.000000	33.273800
1848.000000	33.254533
1849.000000	33.246600
1850.000000	33.242000
1851.000000	33.237067
1852.000000	33.223733
1853.000000	33.226200
1854.000000	33.203267
1855.000000	33.152467
1856.000000	33.131733
1857.000000	33.078733
1858.000000	32.993633
1859.000000	32.889867
1860.000000	32.775933
1861.000000	32.647633
1862.000000	32.508333
1863.000000	32.383033
1864.000000	32.259700
1865.000000	32.126267
1866.000000	31.983200
1867.000000	31.822067
1868.000000	31.624767
1869.000000	31.351600
1870.000000	31.066600
1871.000000	30.747600
1872.000000	30.393000
1873.000000	30.001867
1874.000000	29.583600
1875.000000	29.148967
1876.000000	28.704867
1877.000000	28.265933
1878.000000	27.757733
1879.000000	27.262400
1880.000000	26.780567
1881.000000	26.247100
1882.000000	25.707000
1883.000000	25.160933
1884.000000	24.605067
1885.000000	24.063300
1886.000000	23.566967
1887.000000	23.109133
1888.000000	22.668233
1889.000000	22.227267
1890.000000	21.795467
1891.000000	21.368633
1892.000000	20.898733
1893.000000	20.498800
1894.000000	20.129067
1895.000000	19.773600
1896.000000	19.438867
1897.000000	19.097033
1898.000000	18.743800
1899.000000	18.383600
1900.000000	18.030933
1901.000000	17.701300
1902.000000	17.390033
1903.000000	17.083800
1904.000000	16.787667
1905.000000	16.483200
1906.000000	16.170533
1907.000000	15.890700
1908.000000	15.621567
1909.000000	15.399833
1910.000000	15.187967
1911.000000	14.964233
1912.000000	14.747867
1913.000000	14.528133
1914.000000	14.307067
1915.000000	14.109600
1916.000000	13.923933
1917.000000	13.755167
1918.000000	13.587500
1919.000000	13.440100
1920.000000	13.288033
1921.000000	13.143833
1922.000000	13.005067
1923.000000	12.890600
1924.000000	12.763733
1925.000000	12.648833
1926.000000	12.538000
1927.000000	12.463833
1928.000000	12.385633
1929.000000	12.299667
1930.000000	12.232000
1931.000000	12.176067
1932.000000	12.132400
1933.000000	12.082500
1934.000000	12.047767
1935.000000	12.032967
1936.000000	12.026267
1937.000000	12.021600
1938.000000	12.033367
1939.000000	12.040233
1940.000000	12.045400
1941.000000	12.064267
1942.000000	12.071333
1943.000000	12.112100
1944.000000	12.141733
1945.000000	12.182100
1946.000000	12.242300
1947.000000	12.269100
1948.000000	12.335267
1949.000000	12.375400
1950.000000	12.431600
1951.000000	12.507367
1952.000000	12.562367
1953.000000	12.640633
1954.000000	12.717700
1955.000000	12.788533
1956.000000	12.867900
1957.000000	12.942633
1958.000000	13.019067
1959.000000	13.094167
1960.000000	13.167533
1961.000000	13.249533
1962.000000	13.333100
1963.000000	13.420567
1964.000000	13.482800
1965.000000	13.584967
1966.000000	13.659800
1967.000000	13.738867
1968.000000	13.826800
1969.000000	13.901333
1970.000000	14.007100
1971.000000	14.088733
1972.000000	14.176033
1973.000000	14.273100
1974.000000	14.349300
1975.000000	14.457133
1976.000000	14.542400
1977.000000	14.641500
1978.000000	14.737800
1979.000000	14.841400
1980.000000	14.924133
1981.000000	15.020733
1982.000000	15.126867
1983.000000	15.227933
1984.000000	15.320267
1985.000000	15.411833
1986.000000	15.505967
1987.000000	15.595900
1988.000000	15.691733
1989.000000	15.776533
1990.000000	15.867333
1991.000000	15.959767
1992.000000	16.043367
1993.000000	16.124833
1994.000000	16.198000
1995.000000	16.278533
1996.000000	16.352067
1997.000000	16.422767
1998.000000	16.491867
1999.000000	16.553933
2000.000000	16.618167
2001.000000	16.675833
2002.000000	16.730367
2003.000000	16.782133
2004.000000	16.825633
2005.000000	16.871233
2006.000000	16.904900
2007.000000	16.945600
2008.000000	16.971200
2009.000000	16.999900
2010.000000	17.023033
2011.000000	17.053267
2012.000000	17.057700
2013.000000	17.072100
2014.000000	17.081000
2015.000000	17.077900
2016.000000	17.077033
2017.000000	17.077700
2018.000000	17.077833
2019.000000	17.062400
2020.000000	17.045433
2021.000000	17.028300
2022.000000	17.000733
2023.000000	16.975400
2024.000000	16.944000
2025.000000	16.910667
2026.000000	16.878167
2027.000000	16.831233
2028.000000	16.794800
2029.000000	16.743267
2030.000000	16.698633
2031.000000	16.637267
2032.000000	16.569667
2033.000000	16.500000
2034.000000	16.432400
2035.000000	16.354733
2036.000000	16.268500
2037.000000	16.183167
2038.000000	16.082700
2039.000000	15.990467
2040.000000	15.890400
2041.000000	15.777733
2042.000000	15.680633
2043.000000	15.584967
2044.000000	15.485133
2045.000000	15.385800
2046.000000	15.292000
2047.000000	15.219300
2048.000000	15.155833
2049.000000	15.091633
2050.000000	15.047667
2051.000000	15.006733
2052.000000	14.971267
2053.000000	14.959433
2054.000000	14.960100
2055.000000	14.968567
2056.000000	14.986700
2057.000000	15.014033
2058.000000	15.054767
2059.000000	15.099433
2060.000000	15.146667
2061.000000	15.202067
2062.000000	15.264833
2063.000000	15.329533
2064.000000	15.401600
2065.000000	15.459833
2066.000000	15.515033
2067.000000	15.587233
2068.000000	15.670367
2069.000000	15.735267
2070.000000	15.795700
2071.000000	15.863100
2072.000000	15.927700
2073.000000	15.991700
2074.000000	16.049467
2075.000000	16.099500
2076.000000	16.153300
2077.000000	16.211600
2078.000000	16.263000
2079.000000	16.313000
2080.000000	16.356300
2081.000000	16.395967
2082.000000	16.433367
2083.000000	16.466567
2084.000000	16.501600
2085.000000	16.537933
2086.000000	16.567533
2087.000000	16.592267
2088.000000	16.616100
2089.000000	16.642267
2090.000000	16.675400
2091.000000	16.700167
2092.000000	16.718133
2093.000000	16.743800
2094.000000	16.779967
2095.000000	16.810133
2096.000000	16.832000
2097.000000	16.862067
2098.000000	16.889367
2099.000000	16.931200
2100.000000	16.964700
2101.000000	16.998500
2102.000000	17.035867
2103.000000	17.072533
2104.000000	17.114733
2105.000000	17.157233
2106.000000	17.182133
2107.000000	17.214200
2108.000000	17.253933
2109.000000	17.291700
2110.000000	17.325467
2111.000000	17.363633
2112.000000	17.402733
2113.000000	17.426267
2114.000000	17.454667
2115.000000	17.492200
2116.000000	17.529767
2117.000000	17.553367
2118.000000	17.573167
2119.000000	17.595233
2120.000000	17.615833
2121.000000	17.637433
2122.000000	17.652000
2123.000000	17.665433
2124.000000	17.674833
2125.000000	17.677800
2126.000000	17.678633
2127.000000	17.679533
2128.000000	17.680867
2129.000000	17.671733
2130.000000	17.660200
2131.000000	17.638200
2132.000000	17.620267
2133.000000	17.601333
2134.000000	17.581300
2135.000000	17.547367
2136.000000	17.522933
2137.000000	17.485800
2138.000000	17.451500
2139.000000	17.415467
2140.000000	17.370800
2141.000000	17.320800
2142.000000	17.268500
2143.000000	17.225967
2144.000000	17.183533
2145.000000	17.128100
2146.000000	17.072433
2147.000000	17.018833
2148.000000	16.966333
2149.000000	16.913400
2150.000000	16.849033
2151.000000	16.795667
2152.000000	16.731767
2153.000000	16.674100
2154.000000	16.614067
2155.000000	16.568400
2156.000000	16.517033
2157.000000	16.457267
2158.000000	16.406333
2159.000000	16.352200
2160.000000	16.317800
2161.000000	16.275400
2162.000000	16.238233
2163.000000	16.200267
2164.000000	16.165833
2165.000000	16.139333
2166.000000	16.120800
2167.000000	16.086800
2168.000000	16.072467
2169.000000	16.054033
2170.000000	16.042000
2171.000000	16.016533
2172.000000	16.003033
2173.000000	15.989933
2174.000000	15.986267
2175.000000	16.001000
2176.000000	15.994433
2177.000000	15.989033
2178.000000	16.008100
2179.000000	16.016733
2180.000000	16.034433
2181.000000	16.047167
2182.000000	16.059100
2183.000000	16.081300
2184.000000	16.101000
2185.000000	16.127433
2186.000000	16.144467
2187.000000	16.173733
2188.000000	16.171867
2189.000000	16.204867
2190.000000	16.221733
2191.000000	16.229567
2192.000000	16.243533
2193.000000	16.259567
2194.000000	16.265167
2195.000000	16.284300
2196.000000	16.308633
2197.000000	16.319333
2198.000000	16.335000
2199.000000	16.362867
2200.000000	16.395433
2201.000000	16.412000
2202.000000	16.436533
2203.000000	16.458367
2204.000000	16.488267
2205.000000	16.515100
2206.000000	16.538133
2207.000000	16.557967
2208.000000	16.582400
2209.000000	16.635267
2210.000000	16.676633
2211.000000	16.708167
2212.000000	16.745800
2213.000000	16.784100
2214.000000	16.834033
2215.000000	16.872933
2216.000000	16.917267
2217.000000	16.958200
2218.000000	16.995667
2219.000000	17.037567
2220.000000	17.080633
2221.000000	17.110533
2222.000000	17.138033
2223.000000	17.150467
2224.000000	17.173067
2225.000000	17.191700
2226.000000	17.205133
2227.000000	17.203733
2228.000000	17.205033
2229.000000	17.188467
2230.000000	17.174433
2231.000000	17.134967
2232.000000	17.104767
2233.000000	17.054233
2234.000000	16.997967
2235.000000	16.941200
2236.000000	16.871767
2237.000000	16.789733
2238.000000	16.700200
2239.000000	16.603400
2240.000000	16.489667
2241.000000	16.369067
2242.000000	16.248000
2243.000000	16.110067
2244.000000	15.950233
2245.000000	15.793100
2246.000000	15.606033
2247.000000	15.416667
2248.000000	15.202133
2249.000000	14.975300
2250.000000	14.741800
2251.000000	14.501967
2252.000000	14.235133
2253.000000	13.971933
2254.000000	13.682800
2255.000000	13.410300
2256.000000	13.136400
2257.000000	12.855067
2258.000000	12.574800
2259.000000	12.313733
2260.000000	12.074367
2261.000000	11.845500
2262.000000	11.633233
2263.000000	11.434567
2264.000000	11.273000
2265.000000	11.125367
2266.000000	11.002933
2267.000000	10.904567
2268.000000	10.831167
2269.000000	10.778133
2270.000000	10.744767
2271.000000	10.717767
2272.000000	10.718500
2273.000000	10.733900
2274.000000	10.758100
2275.000000	10.784133
2276.000000	10.824433
2277.000000	10.868933
2278.000000	10.932600
2279.000000	10.985933
2280.000000	11.031167
2281.000000	11.090333
2282.000000	11.140567
2283.000000	11.175933
2284.000000	11.214067
2285.000000	11.232967
2286.000000	11.245033
2287.000000	11.252833
2288.000000	11.239567
2289.000000	11.217467
2290.000000	11.181200
2291.000000	11.129900
2292.000000	11.073200
2293.000000	10.996167
2294.000000	10.910367
2295.000000	10.822667
2296.000000	10.720767
2297.000000	10.620733
2298.000000	10.519633
2299.000000	10.422000
2300.000000	10.340867
2301.000000	10.271100
2302.000000	10.205333
2303.000000	10.156267
2304.000000	10.131133
2305.000000	10.131867
2306.000000	10.147733
2307.000000	10.168933
2308.000000	10.224567
2309.000000	10.300333
2310.000000	10.372767
2311.000000	10.475633
2312.000000	10.601133
2313.000000	10.726433
2314.000000	10.846733
2315.000000	10.979333
2316.000000	11.118533
2317.000000	11.254700
2318.000000	11.380400
2319.000000	11.512033
2320.000000	11.641033
2321.000000	11.760467
2322.000000	11.861867
2323.000000	11.964467
2324.000000	12.045767
2325.000000	12.131067
2326.000000	12.217633
2327.000000	12.287233
2328.000000	12.342433
2329.000000	12.396467
2330.000000	12.447900
2331.000000	12.496933
2332.000000	12.531367
2333.000000	12.550367
2334.000000	12.565933
2335.000000	12.577900
2336.000000	12.577833
2337.000000	12.566700
2338.000000	12.552167
2339.000000	12.526433
2340.000000	12.490633
2341.000000	12.465600
2342.000000	12.428767
2343.000000	12.384567
2344.000000	12.345233
2345.000000	12.301767
2346.000000	12.264800
2347.000000	12.229167
2348.000000	12.203700
2349.000000	12.190267
2350.000000	12.174833
2351.000000	12.168433
2352.000000	12.172700
2353.000000	12.190733
2354.000000	12.217933
2355.000000	12.255800
2356.000000	12.301833
2357.000000	12.348733
2358.000000	12.401867
2359.000000	12.456867
2360.000000	12.519400
2361.000000	12.586333
2362.000000	12.642567
2363.000000	12.701433
2364.000000	12.763900
2365.000000	12.813867
2366.000000	12.869700
2367.000000	12.915500
2368.000000	12.953600
2369.000000	13.000333
2370.000000	13.039400
2371.000000	13.062600
2372.000000	13.086600
2373.000000	13.113900
2374.000000	13.133000
2375.000000	13.150233
2376.000000	13.168333
2377.000000	13.184400
2378.000000	13.196800
2379.000000	13.208633
2380.000000	13.215733
2381.000000	13.214400
2382.000000	13.215900
2383.000000	13.218100
2384.000000	13.215633
2385.000000	13.211133
2386.000000	13.200433
2387.000000	13.182167
2388.000000	13.167933
2389.000000	13.147833
2390.000000	13.117600
2391.000000	13.103433
2392.000000	13.075433
2393.000000	13.043800
2394.000000	13.023233
2395.000000	12.999167
2396.000000	12.966100
2397.000000	12.925133
2398.000000	12.873467
2399.000000	12.831900
2400.000000	12.798400
2401.000000	12.755167
2402.000000	12.707633
2403.000000	12.671067
2404.000000	12.640133
2405.000000	12.608700
2406.000000	12.581233
2407.000000	12.543467
2408.000000	12.506300
2409.000000	12.481100
2410.000000	12.445167
2411.000000	12.405233
2412.000000	12.379067
2413.000000	12.338633
2414.000000	12.308300
2415.000000	12.270567
2416.000000	12.237033
2417.000000	12.191100
2418.000000	12.152333
2419.000000	12.106567
2420.000000	12.068967
2421.000000	12.021733
2422.000000	11.984600
2423.000000	11.937733
2424.000000	11.885500
2425.000000	11.848900
2426.000000	11.803333
2427.000000	11.735367
2428.000000	11.679367
2429.000000	11.627200
2430.000000	11.559400
2431.000000	11.489167
2432.000000	11.429900
2433.000000	11.374367
2434.000000	11.302267
2435.000000	11.231433
2436.000000	11.144667
2437.000000	11.079433
2438.000000	11.012767
2439.000000	10.926900
2440.000000	10.850933
2441.000000	10.763167
2442.000000	10.677333
2443.000000	10.596133
2444.000000	10.519667
2445.000000	10.432033
2446.000000	10.357600
2447.000000	10.259167
2448.000000	10.167733
2449.000000	10.086300
2450.000000	9.991633
2451.000000	9.930433
2452.000000	9.840500
2453.000000	9.772000
2454.000000	9.709433
2455.000000	9.630800
2456.000000	9.557400
2457.000000	9.494300
2458.000000	9.435133
2459.000000	9.385033
2460.000000	9.312000
2461.000000	9.278633
2462.000000	9.232100
2463.000000	9.203567
2464.000000	9.191133
2465.000000	9.151200
2466.000000	9.132767
2467.000000	9.096567
2468.000000	9.076267
2469.000000	9.068033
2470.000000	9.050600
2471.000000	9.058467
2472.000000	9.051300
2473.000000	9.037333
2474.000000	9.001200
2475.000000	8.989667
2476.000000	8.969867
2477.000000	9.018967
2478.000000	9.049633
2479.000000	9.000333
2480.000000	8.993267
2481.000000	9.011400
2482.000000	9.023533
2483.000000	9.036200
2484.000000	9.055733
2485.000000	8.982233
2486.000000	9.055933
2487.000000	9.019767
2488.000000	9.041133
2489.000000	9.069733
2490.000000	9.077967
2491.000000	9.142833
2492.000000	9.118733
2493.000000	9.157967
2494.000000	9.174167
2495.000000	9.194933
2496.000000	9.168433
2497.000000	9.255900
2498.000000	9.275667
2499.000000	9.305767
2500.000000	9.278667
