PE UV       SUBTECH     SPECTRUM    ASCII       PEDS        4.00        
   -1
CICIMAUCR0003-3.Sample.ASC
24/05/03
16:05:21.00
24/05/03
16:05:21.00
Vinicio Soto Monge
C. kalinini
250,000000
1
Lambda 1050
1050L1511233
PerkinElmer UV WinLab 6.3.2.0749 / 2.02.05 Lambda 900 UV/VIS/NIR, Aug  7 2015 09:38:08

0
0
3350/servo 860,8/2
0
0
UV/VIS
1
1
1
DoubleDePol,CommonBeamDepol,RBeamAtt,SBeamAtt,60mm sphere, WB InGaAs Detector
0
0
0
0
Program
Program
3350/servo 860,8/2
3350/0,2 860,8/0,2
3350/0,2 860,8/0,2
0
15.00
 
 
 
0
 
860,8
319,2
860,8
Front
100
on
S:100 R:100
0
0
0
0
 
0
 
 
 
0
 
 
0
0
0
0
0
 
 
 
 
0
0


0
0
#HDR
-1
-1
#GR
nm
%R
1.0
0.0
2500,000000
-1,000000
2251
8
101,669700
5,424300
#DATA
250.000000	5.649998
251.000000	5.654006
252.000000	5.633875
253.000000	5.607307
254.000000	5.590232
255.000000	5.573793
256.000000	5.566616
257.000000	5.591754
258.000000	5.558979
259.000000	5.557019
260.000000	5.529040
261.000000	5.507980
262.000000	5.476528
263.000000	5.458038
264.000000	5.425416
265.000000	5.389091
266.000000	5.391357
267.000000	5.349370
268.000000	5.366138
269.000000	5.338129
270.000000	5.319897
271.000000	5.283585
272.000000	5.308162
273.000000	5.279795
274.000000	5.252867
275.000000	5.236922
276.000000	5.272068
277.000000	5.257686
278.000000	5.227792
279.000000	5.224951
280.000000	5.213595
281.000000	5.197797
282.000000	5.194260
283.000000	5.181930
284.000000	5.173150
285.000000	5.156718
286.000000	5.154752
287.000000	5.129115
288.000000	5.125153
289.000000	5.130950
290.000000	5.142887
291.000000	5.136917
292.000000	5.128237
293.000000	5.114336
294.000000	5.106298
295.000000	5.062801
296.000000	5.049400
297.000000	5.064622
298.000000	5.099813
299.000000	5.077609
300.000000	5.074759
301.000000	5.053199
302.000000	5.031841
303.000000	5.047329
304.000000	5.054614
305.000000	5.021926
306.000000	5.045251
307.000000	5.043078
308.000000	5.013840
309.000000	5.022145
310.000000	5.015432
311.000000	5.022252
312.000000	4.997140
313.000000	5.005376
314.000000	4.998324
315.000000	5.006902
316.000000	5.037550
317.000000	5.336530
318.000000	5.456087
319.000000	5.359586
320.000000	5.328744
321.000000	5.296815
322.000000	5.275854
323.000000	5.005871
324.000000	5.198428
325.000000	5.220092
326.000000	5.137685
327.000000	5.134976
328.000000	5.131888
329.000000	5.037983
330.000000	5.162507
331.000000	5.010853
332.000000	5.211350
333.000000	5.103790
334.000000	5.171460
335.000000	5.088855
336.000000	5.066456
337.000000	5.135540
338.000000	5.009623
339.000000	5.152311
340.000000	5.090091
341.000000	5.063090
342.000000	5.173781
343.000000	5.054155
344.000000	5.091206
345.000000	5.192262
346.000000	5.178132
347.000000	5.117654
348.000000	5.075261
349.000000	5.168010
350.000000	5.236971
351.000000	5.220713
352.000000	5.227363
353.000000	5.136522
354.000000	5.235544
355.000000	5.235752
356.000000	5.259115
357.000000	5.291529
358.000000	5.309994
359.000000	5.341265
360.000000	5.351589
361.000000	5.348746
362.000000	5.399671
363.000000	5.425095
364.000000	5.437978
365.000000	5.567979
366.000000	5.585436
367.000000	5.577078
368.000000	5.643686
369.000000	5.662154
370.000000	5.723388
371.000000	5.782993
372.000000	5.765967
373.000000	5.825420
374.000000	5.856550
375.000000	5.981101
376.000000	6.184400
377.000000	6.373795
378.000000	6.486900
379.000000	6.603631
380.000000	6.728425
381.000000	6.881457
382.000000	7.049720
383.000000	7.232507
384.000000	7.408060
385.000000	7.607250
386.000000	7.801094
387.000000	8.010189
388.000000	8.255084
389.000000	8.503652
390.000000	8.756724
391.000000	9.025506
392.000000	9.304854
393.000000	9.597891
394.000000	9.890721
395.000000	10.193826
396.000000	10.513809
397.000000	10.831431
398.000000	11.156212
399.000000	11.494775
400.000000	11.836258
401.000000	12.167536
402.000000	12.528142
403.000000	12.882478
404.000000	13.235861
405.000000	13.584236
406.000000	13.937547
407.000000	14.303747
408.000000	14.654861
409.000000	14.989868
410.000000	15.341280
411.000000	15.679679
412.000000	16.022321
413.000000	16.366777
414.000000	16.693590
415.000000	17.020286
416.000000	17.332530
417.000000	17.614169
418.000000	17.922774
419.000000	18.212886
420.000000	18.481266
421.000000	18.763224
422.000000	19.020251
423.000000	19.268810
424.000000	19.520301
425.000000	19.764510
426.000000	19.997343
427.000000	20.196449
428.000000	20.390878
429.000000	20.578774
430.000000	20.751535
431.000000	20.917455
432.000000	21.071193
433.000000	21.223359
434.000000	21.367123
435.000000	21.492090
436.000000	21.599394
437.000000	21.696308
438.000000	21.794824
439.000000	21.870765
440.000000	21.928329
441.000000	22.002937
442.000000	22.064934
443.000000	22.113127
444.000000	22.135474
445.000000	22.140109
446.000000	22.155720
447.000000	22.167545
448.000000	22.185854
449.000000	22.202481
450.000000	22.197250
451.000000	22.204744
452.000000	22.228564
453.000000	22.247583
454.000000	22.278077
455.000000	22.330816
456.000000	22.387787
457.000000	22.464878
458.000000	22.553066
459.000000	22.662781
460.000000	22.796939
461.000000	22.943553
462.000000	23.110105
463.000000	23.294509
464.000000	23.497463
465.000000	23.719099
466.000000	23.959784
467.000000	24.224142
468.000000	24.498185
469.000000	24.784064
470.000000	25.081534
471.000000	25.393052
472.000000	25.717343
473.000000	26.034525
474.000000	26.363410
475.000000	26.706740
476.000000	27.054075
477.000000	27.404066
478.000000	27.754958
479.000000	28.106104
480.000000	28.460259
481.000000	28.806965
482.000000	29.139913
483.000000	29.481021
484.000000	29.823816
485.000000	30.156119
486.000000	30.478358
487.000000	30.799314
488.000000	31.110812
489.000000	31.422001
490.000000	31.743627
491.000000	32.048582
492.000000	32.364147
493.000000	32.682511
494.000000	32.996946
495.000000	33.328180
496.000000	33.672930
497.000000	34.002065
498.000000	34.372420
499.000000	34.746162
500.000000	35.111227
501.000000	35.512668
502.000000	35.935306
503.000000	36.368422
504.000000	36.809012
505.000000	37.276024
506.000000	37.777467
507.000000	38.276902
508.000000	38.788548
509.000000	39.326343
510.000000	39.883159
511.000000	40.475960
512.000000	41.065922
513.000000	41.673367
514.000000	42.319384
515.000000	42.973514
516.000000	43.628590
517.000000	44.281628
518.000000	44.978466
519.000000	45.671648
520.000000	46.387567
521.000000	47.104529
522.000000	47.846726
523.000000	48.597708
524.000000	49.347298
525.000000	50.101921
526.000000	50.853411
527.000000	51.608376
528.000000	52.378075
529.000000	53.130199
530.000000	53.884926
531.000000	54.655621
532.000000	55.420067
533.000000	56.189031
534.000000	56.929549
535.000000	57.679031
536.000000	58.393314
537.000000	59.126557
538.000000	59.830662
539.000000	60.517278
540.000000	61.203724
541.000000	61.871070
542.000000	62.528644
543.000000	63.183585
544.000000	63.795792
545.000000	64.393053
546.000000	64.966905
547.000000	65.540586
548.000000	66.054206
549.000000	66.579554
550.000000	67.079821
551.000000	67.530797
552.000000	67.961149
553.000000	68.405196
554.000000	68.805408
555.000000	69.187089
556.000000	69.513364
557.000000	69.842693
558.000000	70.134996
559.000000	70.438951
560.000000	70.738383
561.000000	70.994867
562.000000	71.204378
563.000000	71.446588
564.000000	71.652718
565.000000	71.857689
566.000000	72.031969
567.000000	72.170075
568.000000	72.325761
569.000000	72.451970
570.000000	72.561971
571.000000	72.669926
572.000000	72.767549
573.000000	72.851798
574.000000	72.891708
575.000000	72.931433
576.000000	72.936703
577.000000	72.932925
578.000000	72.921056
579.000000	72.856914
580.000000	72.817225
581.000000	72.747893
582.000000	72.632990
583.000000	72.517069
584.000000	72.405105
585.000000	72.267934
586.000000	72.102063
587.000000	71.938201
588.000000	71.777186
589.000000	71.570088
590.000000	71.372585
591.000000	71.152886
592.000000	70.931819
593.000000	70.694846
594.000000	70.422994
595.000000	70.171839
596.000000	69.858238
597.000000	69.540051
598.000000	69.213830
599.000000	68.839395
600.000000	68.456637
601.000000	68.027036
602.000000	67.571620
603.000000	67.125220
604.000000	66.642510
605.000000	66.134128
606.000000	65.673219
607.000000	65.163397
608.000000	64.618194
609.000000	64.115395
610.000000	63.623073
611.000000	63.062441
612.000000	62.555086
613.000000	62.050963
614.000000	61.517132
615.000000	60.991786
616.000000	60.467098
617.000000	59.966374
618.000000	59.482220
619.000000	59.018356
620.000000	58.514968
621.000000	58.076914
622.000000	57.641209
623.000000	57.238700
624.000000	56.864359
625.000000	56.537569
626.000000	56.256344
627.000000	56.010758
628.000000	55.826264
629.000000	55.670661
630.000000	55.521055
631.000000	55.493065
632.000000	55.442582
633.000000	55.458339
634.000000	55.498210
635.000000	55.592559
636.000000	55.672004
637.000000	55.801340
638.000000	55.956995
639.000000	56.125718
640.000000	56.289884
641.000000	56.491738
642.000000	56.725457
643.000000	56.914070
644.000000	57.126248
645.000000	57.379638
646.000000	57.598186
647.000000	57.869657
648.000000	58.152020
649.000000	58.394746
650.000000	58.676581
651.000000	58.939852
652.000000	59.188819
653.000000	59.447496
654.000000	59.697366
655.000000	59.932827
656.000000	60.193007
657.000000	60.420499
658.000000	60.650354
659.000000	60.866182
660.000000	61.070677
661.000000	61.303592
662.000000	61.537565
663.000000	61.741386
664.000000	61.975382
665.000000	62.184146
666.000000	62.412062
667.000000	62.651480
668.000000	62.936087
669.000000	63.192972
670.000000	63.451253
671.000000	63.732700
672.000000	64.013759
673.000000	64.311596
674.000000	64.590975
675.000000	64.908323
676.000000	65.241607
677.000000	65.589707
678.000000	65.912072
679.000000	66.231733
680.000000	66.526949
681.000000	66.853426
682.000000	67.217212
683.000000	67.593682
684.000000	67.936883
685.000000	68.250941
686.000000	68.608444
687.000000	68.936643
688.000000	69.251857
689.000000	69.597796
690.000000	69.919865
691.000000	70.248781
692.000000	70.589973
693.000000	70.945351
694.000000	71.278618
695.000000	71.627623
696.000000	71.948249
697.000000	72.279662
698.000000	72.628364
699.000000	72.939564
700.000000	73.232848
701.000000	73.530237
702.000000	73.874875
703.000000	74.178764
704.000000	74.538427
705.000000	74.911229
706.000000	75.185997
707.000000	75.482687
708.000000	75.786080
709.000000	76.148053
710.000000	76.548332
711.000000	76.899054
712.000000	77.240216
713.000000	77.570803
714.000000	77.891784
715.000000	78.258840
716.000000	78.607169
717.000000	78.956372
718.000000	79.344519
719.000000	79.678090
720.000000	80.000143
721.000000	80.340959
722.000000	80.650550
723.000000	80.979100
724.000000	81.322902
725.000000	81.678051
726.000000	81.988726
727.000000	82.245849
728.000000	82.531797
729.000000	82.877960
730.000000	83.197084
731.000000	83.428774
732.000000	83.683696
733.000000	83.981861
734.000000	84.228314
735.000000	84.455583
736.000000	84.656776
737.000000	84.885752
738.000000	85.164356
739.000000	85.375766
740.000000	85.541653
741.000000	85.759155
742.000000	85.949129
743.000000	86.152106
744.000000	86.357103
745.000000	86.522032
746.000000	86.695063
747.000000	86.872095
748.000000	86.982077
749.000000	87.114272
750.000000	87.282588
751.000000	87.440123
752.000000	87.582848
753.000000	87.652887
754.000000	87.714685
755.000000	87.807086
756.000000	87.907759
757.000000	88.073721
758.000000	88.155736
759.000000	88.211113
760.000000	88.368322
761.000000	88.437634
762.000000	88.524716
763.000000	88.607348
764.000000	88.633308
765.000000	88.714662
766.000000	88.789426
767.000000	88.834633
768.000000	88.882181
769.000000	88.949697
770.000000	88.988207
771.000000	89.051246
772.000000	89.051688
773.000000	89.080284
774.000000	89.168697
775.000000	89.188520
776.000000	89.126180
777.000000	89.180765
778.000000	89.221917
779.000000	89.261344
780.000000	89.254857
781.000000	89.202522
782.000000	89.148939
783.000000	89.139690
784.000000	89.130791
785.000000	89.056284
786.000000	88.939329
787.000000	88.888988
788.000000	88.830076
789.000000	88.805129
790.000000	88.779910
791.000000	88.557297
792.000000	88.465066
793.000000	88.352111
794.000000	88.193181
795.000000	88.052534
796.000000	87.870377
797.000000	87.714588
798.000000	87.562614
799.000000	87.344526
800.000000	87.191187
801.000000	86.980590
802.000000	86.745734
803.000000	86.646689
804.000000	86.376002
805.000000	86.111882
806.000000	85.721664
807.000000	85.494955
808.000000	85.290638
809.000000	84.970291
810.000000	84.747070
811.000000	84.507870
812.000000	84.193641
813.000000	83.885397
814.000000	83.655564
815.000000	83.414045
816.000000	83.190454
817.000000	82.784268
818.000000	82.416271
819.000000	82.193411
820.000000	81.885375
821.000000	81.472531
822.000000	81.265603
823.000000	80.860328
824.000000	80.582378
825.000000	80.063289
826.000000	79.864012
827.000000	79.460515
828.000000	79.128783
829.000000	78.868174
830.000000	78.647474
831.000000	78.230913
832.000000	77.945114
833.000000	77.519910
834.000000	77.118356
835.000000	76.803086
836.000000	76.523913
837.000000	76.332280
838.000000	75.920127
839.000000	75.675167
840.000000	75.249235
841.000000	74.849115
842.000000	74.669846
843.000000	74.235716
844.000000	73.824637
845.000000	73.585462
846.000000	73.590229
847.000000	73.172142
848.000000	72.801730
849.000000	72.511387
850.000000	72.374177
851.000000	72.075530
852.000000	71.906950
853.000000	71.673947
854.000000	71.522386
855.000000	71.257212
856.000000	71.141777
857.000000	70.683273
858.000000	71.890200
859.000000	70.553267
860.000000	70.324300
861.000000	70.109367
862.000000	69.868867
863.000000	69.657833
864.000000	69.437967
865.000000	69.224467
866.000000	69.013867
867.000000	68.809600
868.000000	68.590800
869.000000	68.378067
870.000000	68.160667
871.000000	67.963933
872.000000	67.834067
873.000000	67.934600
874.000000	68.202467
875.000000	68.478900
876.000000	68.659367
877.000000	68.853600
878.000000	69.076467
879.000000	69.221833
880.000000	69.318267
881.000000	69.398700
882.000000	69.473533
883.000000	69.553933
884.000000	69.622733
885.000000	69.674767
886.000000	69.713233
887.000000	69.759433
888.000000	69.782333
889.000000	69.740967
890.000000	69.684367
891.000000	69.723067
892.000000	69.691500
893.000000	69.655200
894.000000	69.633700
895.000000	69.573000
896.000000	69.479167
897.000000	69.380833
898.000000	69.324400
899.000000	69.271333
900.000000	69.173400
901.000000	69.081167
902.000000	68.988667
903.000000	68.875433
904.000000	68.767767
905.000000	68.666500
906.000000	68.616333
907.000000	68.528567
908.000000	68.432767
909.000000	68.287533
910.000000	68.200833
911.000000	68.131967
912.000000	68.047633
913.000000	67.970367
914.000000	67.893067
915.000000	67.778433
916.000000	67.682200
917.000000	67.628033
918.000000	67.548467
919.000000	67.469500
920.000000	67.348700
921.000000	67.256700
922.000000	67.168133
923.000000	67.053300
924.000000	66.966067
925.000000	66.878200
926.000000	66.775733
927.000000	66.671100
928.000000	66.568100
929.000000	66.453333
930.000000	66.359500
931.000000	66.251333
932.000000	66.130167
933.000000	66.020767
934.000000	65.903867
935.000000	65.813267
936.000000	65.688900
937.000000	65.561800
938.000000	65.442767
939.000000	65.344067
940.000000	65.268533
941.000000	65.145633
942.000000	65.043767
943.000000	64.953033
944.000000	64.851233
945.000000	64.746933
946.000000	64.639567
947.000000	64.564733
948.000000	64.487867
949.000000	64.381967
950.000000	64.311033
951.000000	64.223933
952.000000	64.124500
953.000000	64.050167
954.000000	63.971567
955.000000	63.876967
956.000000	63.781200
957.000000	63.691700
958.000000	63.592700
959.000000	63.494167
960.000000	63.399833
961.000000	63.300567
962.000000	63.206133
963.000000	63.103533
964.000000	63.015833
965.000000	62.937467
966.000000	62.853767
967.000000	62.771567
968.000000	62.678967
969.000000	62.602167
970.000000	62.538367
971.000000	62.449933
972.000000	62.373467
973.000000	62.291433
974.000000	62.221733
975.000000	62.138400
976.000000	62.058467
977.000000	61.975100
978.000000	61.897200
979.000000	61.824367
980.000000	61.733400
981.000000	61.657400
982.000000	61.589167
983.000000	61.506700
984.000000	61.442100
985.000000	61.381733
986.000000	61.306533
987.000000	61.228433
988.000000	61.170900
989.000000	61.117333
990.000000	61.053300
991.000000	60.991267
992.000000	60.937133
993.000000	60.882800
994.000000	60.845133
995.000000	60.803367
996.000000	60.745567
997.000000	60.700800
998.000000	60.649233
999.000000	60.619333
1000.000000	60.598067
1001.000000	60.558733
1002.000000	60.529733
1003.000000	60.503433
1004.000000	60.465900
1005.000000	60.440867
1006.000000	60.417233
1007.000000	60.393067
1008.000000	60.368300
1009.000000	60.345633
1010.000000	60.325733
1011.000000	60.310433
1012.000000	60.300767
1013.000000	60.293133
1014.000000	60.305600
1015.000000	60.323667
1016.000000	60.347667
1017.000000	60.370567
1018.000000	60.405867
1019.000000	60.452067
1020.000000	60.496433
1021.000000	60.546733
1022.000000	60.593767
1023.000000	60.646867
1024.000000	60.704667
1025.000000	60.760933
1026.000000	60.819733
1027.000000	60.885100
1028.000000	60.944900
1029.000000	60.998833
1030.000000	61.060933
1031.000000	61.125600
1032.000000	61.181733
1033.000000	61.236400
1034.000000	61.300300
1035.000000	61.358500
1036.000000	61.407300
1037.000000	61.466933
1038.000000	61.519500
1039.000000	61.568167
1040.000000	61.617467
1041.000000	61.668033
1042.000000	61.729133
1043.000000	61.779900
1044.000000	61.834467
1045.000000	61.894933
1046.000000	61.953733
1047.000000	62.015633
1048.000000	62.070300
1049.000000	62.131967
1050.000000	62.200033
1051.000000	62.267233
1052.000000	62.340233
1053.000000	62.416000
1054.000000	62.495000
1055.000000	62.566567
1056.000000	62.649700
1057.000000	62.740333
1058.000000	62.818367
1059.000000	62.896600
1060.000000	62.983500
1061.000000	63.066667
1062.000000	63.149000
1063.000000	63.231833
1064.000000	63.311467
1065.000000	63.385233
1066.000000	63.462967
1067.000000	63.545700
1068.000000	63.633033
1069.000000	63.706433
1070.000000	63.773333
1071.000000	63.845567
1072.000000	63.919667
1073.000000	64.009167
1074.000000	64.087833
1075.000000	64.159267
1076.000000	64.227733
1077.000000	64.306167
1078.000000	64.381467
1079.000000	64.462767
1080.000000	64.534333
1081.000000	64.602533
1082.000000	64.685500
1083.000000	64.768033
1084.000000	64.851967
1085.000000	64.928733
1086.000000	65.015000
1087.000000	65.097700
1088.000000	65.179900
1089.000000	65.263400
1090.000000	65.349933
1091.000000	65.416100
1092.000000	65.503933
1093.000000	65.582633
1094.000000	65.654033
1095.000000	65.712933
1096.000000	65.781900
1097.000000	65.859700
1098.000000	65.917067
1099.000000	65.972767
1100.000000	66.038300
1101.000000	66.094033
1102.000000	66.152267
1103.000000	66.196200
1104.000000	66.244433
1105.000000	66.291333
1106.000000	66.348267
1107.000000	66.383000
1108.000000	66.422933
1109.000000	66.466233
1110.000000	66.501833
1111.000000	66.540133
1112.000000	66.575367
1113.000000	66.606467
1114.000000	66.636367
1115.000000	66.673267
1116.000000	66.715500
1117.000000	66.741133
1118.000000	66.758733
1119.000000	66.767500
1120.000000	66.761233
1121.000000	66.746567
1122.000000	66.735233
1123.000000	66.689933
1124.000000	66.643333
1125.000000	66.577000
1126.000000	66.515333
1127.000000	66.424133
1128.000000	66.313433
1129.000000	66.174033
1130.000000	65.995233
1131.000000	65.773567
1132.000000	65.504533
1133.000000	65.219367
1134.000000	64.953600
1135.000000	64.631633
1136.000000	64.244233
1137.000000	63.845333
1138.000000	63.458867
1139.000000	63.092433
1140.000000	62.719900
1141.000000	62.371833
1142.000000	62.034267
1143.000000	61.704467
1144.000000	61.396967
1145.000000	61.132600
1146.000000	60.933000
1147.000000	60.787700
1148.000000	60.730767
1149.000000	60.735467
1150.000000	60.768133
1151.000000	60.799000
1152.000000	60.835733
1153.000000	60.818400
1154.000000	60.761833
1155.000000	60.674933
1156.000000	60.511367
1157.000000	60.288200
1158.000000	60.014233
1159.000000	59.688133
1160.000000	59.346833
1161.000000	58.990400
1162.000000	58.631967
1163.000000	58.239833
1164.000000	57.846367
1165.000000	57.474833
1166.000000	57.063833
1167.000000	56.685600
1168.000000	56.310367
1169.000000	55.938967
1170.000000	55.579100
1171.000000	55.212933
1172.000000	54.849133
1173.000000	54.512967
1174.000000	54.166267
1175.000000	53.851267
1176.000000	53.546833
1177.000000	53.211567
1178.000000	52.841267
1179.000000	52.425600
1180.000000	51.931367
1181.000000	51.418600
1182.000000	50.897100
1183.000000	50.399967
1184.000000	49.989233
1185.000000	49.694900
1186.000000	49.535067
1187.000000	49.514300
1188.000000	49.631367
1189.000000	49.879767
1190.000000	50.244767
1191.000000	50.680900
1192.000000	51.156967
1193.000000	51.633033
1194.000000	52.068633
1195.000000	52.442700
1196.000000	52.750933
1197.000000	52.983933
1198.000000	53.160767
1199.000000	53.310467
1200.000000	53.415633
1201.000000	53.468767
1202.000000	53.528567
1203.000000	53.556067
1204.000000	53.591367
1205.000000	53.626833
1206.000000	53.672833
1207.000000	53.712033
1208.000000	53.784700
1209.000000	53.877567
1210.000000	53.973433
1211.000000	54.076367
1212.000000	54.210133
1213.000000	54.341633
1214.000000	54.469100
1215.000000	54.610833
1216.000000	54.746033
1217.000000	54.884933
1218.000000	55.050100
1219.000000	55.217567
1220.000000	55.390767
1221.000000	55.570267
1222.000000	55.754200
1223.000000	55.959633
1224.000000	56.162567
1225.000000	56.367167
1226.000000	56.577867
1227.000000	56.781933
1228.000000	56.987500
1229.000000	57.199467
1230.000000	57.417000
1231.000000	57.630333
1232.000000	57.835933
1233.000000	58.037900
1234.000000	58.241200
1235.000000	58.442800
1236.000000	58.640067
1237.000000	58.837300
1238.000000	59.020900
1239.000000	59.214233
1240.000000	59.397133
1241.000000	59.573100
1242.000000	59.748167
1243.000000	59.912767
1244.000000	60.082633
1245.000000	60.235133
1246.000000	60.387567
1247.000000	60.526533
1248.000000	60.652000
1249.000000	60.770633
1250.000000	60.877467
1251.000000	60.979133
1252.000000	61.076267
1253.000000	61.166200
1254.000000	61.246067
1255.000000	61.334333
1256.000000	61.409367
1257.000000	61.479100
1258.000000	61.549033
1259.000000	61.614867
1260.000000	61.674733
1261.000000	61.735967
1262.000000	61.803833
1263.000000	61.860567
1264.000000	61.918933
1265.000000	61.979833
1266.000000	62.043567
1267.000000	62.108667
1268.000000	62.174233
1269.000000	62.229533
1270.000000	62.292400
1271.000000	62.357867
1272.000000	62.420200
1273.000000	62.482867
1274.000000	62.549333
1275.000000	62.618800
1276.000000	62.689633
1277.000000	62.766167
1278.000000	62.846700
1279.000000	62.930467
1280.000000	63.025600
1281.000000	63.114133
1282.000000	63.203200
1283.000000	63.296733
1284.000000	63.385333
1285.000000	63.476167
1286.000000	63.570933
1287.000000	63.657000
1288.000000	63.730300
1289.000000	63.797267
1290.000000	63.872400
1291.000000	63.933867
1292.000000	63.982000
1293.000000	64.020200
1294.000000	64.050433
1295.000000	64.086433
1296.000000	64.119133
1297.000000	64.139567
1298.000000	64.162133
1299.000000	64.177833
1300.000000	64.191367
1301.000000	64.207400
1302.000000	64.223067
1303.000000	64.230033
1304.000000	64.227000
1305.000000	64.221267
1306.000000	64.203867
1307.000000	64.182300
1308.000000	64.159533
1309.000000	64.121433
1310.000000	64.077833
1311.000000	64.030200
1312.000000	63.971800
1313.000000	63.911867
1314.000000	63.850900
1315.000000	63.777267
1316.000000	63.697767
1317.000000	63.622767
1318.000000	63.536833
1319.000000	63.443667
1320.000000	63.352167
1321.000000	63.251967
1322.000000	63.145333
1323.000000	63.036200
1324.000000	62.918433
1325.000000	62.788900
1326.000000	62.657233
1327.000000	62.521600
1328.000000	62.380267
1329.000000	62.222133
1330.000000	62.058433
1331.000000	61.877300
1332.000000	61.693633
1333.000000	61.500067
1334.000000	61.292233
1335.000000	61.069167
1336.000000	60.834467
1337.000000	60.597333
1338.000000	60.343633
1339.000000	60.079400
1340.000000	59.802867
1341.000000	59.509400
1342.000000	59.199900
1343.000000	58.883533
1344.000000	58.553400
1345.000000	58.198967
1346.000000	57.802233
1347.000000	57.418000
1348.000000	57.014367
1349.000000	56.551433
1350.000000	56.076567
1351.000000	55.552167
1352.000000	54.961033
1353.000000	54.331600
1354.000000	53.775367
1355.000000	53.224433
1356.000000	52.729500
1357.000000	52.357900
1358.000000	52.137333
1359.000000	52.003667
1360.000000	51.898433
1361.000000	51.885700
1362.000000	51.815233
1363.000000	51.674267
1364.000000	51.492667
1365.000000	51.319367
1366.000000	51.108167
1367.000000	50.895267
1368.000000	50.658033
1369.000000	50.370533
1370.000000	50.042133
1371.000000	49.715500
1372.000000	49.340333
1373.000000	48.956667
1374.000000	48.591500
1375.000000	48.292733
1376.000000	48.068667
1377.000000	47.911233
1378.000000	47.796600
1379.000000	47.735100
1380.000000	47.650267
1381.000000	47.556400
1382.000000	47.378633
1383.000000	47.086833
1384.000000	46.701867
1385.000000	46.315767
1386.000000	45.900033
1387.000000	45.541500
1388.000000	45.254367
1389.000000	44.969233
1390.000000	44.684567
1391.000000	44.503100
1392.000000	44.339167
1393.000000	44.164300
1394.000000	44.020900
1395.000000	43.915933
1396.000000	43.782600
1397.000000	43.539533
1398.000000	43.263767
1399.000000	43.047500
1400.000000	42.839833
1401.000000	42.540667
1402.000000	42.107667
1403.000000	41.702533
1404.000000	41.329633
1405.000000	40.929300
1406.000000	40.538300
1407.000000	40.128167
1408.000000	39.763967
1409.000000	39.395267
1410.000000	39.055467
1411.000000	38.709533
1412.000000	38.400167
1413.000000	38.161767
1414.000000	37.956900
1415.000000	37.725833
1416.000000	37.454600
1417.000000	37.195667
1418.000000	36.969500
1419.000000	36.763933
1420.000000	36.529000
1421.000000	36.261433
1422.000000	36.005833
1423.000000	35.789233
1424.000000	35.557467
1425.000000	35.312600
1426.000000	35.082233
1427.000000	34.841600
1428.000000	34.642367
1429.000000	34.435367
1430.000000	34.248633
1431.000000	34.088267
1432.000000	33.946333
1433.000000	33.803833
1434.000000	33.648533
1435.000000	33.504100
1436.000000	33.364833
1437.000000	33.211667
1438.000000	33.093500
1439.000000	32.954000
1440.000000	32.826367
1441.000000	32.669967
1442.000000	32.532333
1443.000000	32.390667
1444.000000	32.251367
1445.000000	32.134000
1446.000000	31.999167
1447.000000	31.859500
1448.000000	31.704767
1449.000000	31.558300
1450.000000	31.444167
1451.000000	31.336867
1452.000000	31.214300
1453.000000	31.082167
1454.000000	30.959667
1455.000000	30.842400
1456.000000	30.744433
1457.000000	30.628700
1458.000000	30.521200
1459.000000	30.424900
1460.000000	30.311733
1461.000000	30.232933
1462.000000	30.149667
1463.000000	30.053300
1464.000000	29.978333
1465.000000	29.910833
1466.000000	29.838567
1467.000000	29.777133
1468.000000	29.704567
1469.000000	29.649900
1470.000000	29.596400
1471.000000	29.556233
1472.000000	29.501767
1473.000000	29.438933
1474.000000	29.381333
1475.000000	29.317833
1476.000000	29.256933
1477.000000	29.197800
1478.000000	29.153833
1479.000000	29.114067
1480.000000	29.069733
1481.000000	29.039933
1482.000000	29.000700
1483.000000	28.956967
1484.000000	28.925767
1485.000000	28.903100
1486.000000	28.881100
1487.000000	28.866033
1488.000000	28.855333
1489.000000	28.824533
1490.000000	28.807833
1491.000000	28.798000
1492.000000	28.780067
1493.000000	28.770033
1494.000000	28.760467
1495.000000	28.745033
1496.000000	28.754533
1497.000000	28.753867
1498.000000	28.755533
1499.000000	28.765967
1500.000000	28.769733
1501.000000	28.780133
1502.000000	28.799633
1503.000000	28.825733
1504.000000	28.847067
1505.000000	28.874267
1506.000000	28.900533
1507.000000	28.927533
1508.000000	28.965100
1509.000000	28.997600
1510.000000	29.022433
1511.000000	29.057067
1512.000000	29.096233
1513.000000	29.125367
1514.000000	29.149533
1515.000000	29.183233
1516.000000	29.219100
1517.000000	29.243333
1518.000000	29.271933
1519.000000	29.296600
1520.000000	29.321033
1521.000000	29.340267
1522.000000	29.374033
1523.000000	29.404933
1524.000000	29.425167
1525.000000	29.444933
1526.000000	29.470900
1527.000000	29.491600
1528.000000	29.507800
1529.000000	29.522800
1530.000000	29.540567
1531.000000	29.557267
1532.000000	29.563200
1533.000000	29.572033
1534.000000	29.586233
1535.000000	29.596233
1536.000000	29.600367
1537.000000	29.600300
1538.000000	29.597967
1539.000000	29.596200
1540.000000	29.593367
1541.000000	29.594700
1542.000000	29.599167
1543.000000	29.600000
1544.000000	29.610867
1545.000000	29.614733
1546.000000	29.620233
1547.000000	29.628700
1548.000000	29.638700
1549.000000	29.660833
1550.000000	29.672067
1551.000000	29.676467
1552.000000	29.694800
1553.000000	29.712467
1554.000000	29.713733
1555.000000	29.709167
1556.000000	29.715800
1557.000000	29.710867
1558.000000	29.694933
1559.000000	29.678033
1560.000000	29.661067
1561.000000	29.640133
1562.000000	29.614400
1563.000000	29.587367
1564.000000	29.559533
1565.000000	29.522867
1566.000000	29.489600
1567.000000	29.452300
1568.000000	29.413900
1569.000000	29.383000
1570.000000	29.352200
1571.000000	29.315300
1572.000000	29.284933
1573.000000	29.270367
1574.000000	29.255700
1575.000000	29.243233
1576.000000	29.232433
1577.000000	29.227667
1578.000000	29.223900
1579.000000	29.225800
1580.000000	29.233533
1581.000000	29.241700
1582.000000	29.259600
1583.000000	29.275000
1584.000000	29.296700
1585.000000	29.326533
1586.000000	29.359400
1587.000000	29.398100
1588.000000	29.432400
1589.000000	29.469000
1590.000000	29.510033
1591.000000	29.551167
1592.000000	29.596933
1593.000000	29.643433
1594.000000	29.691633
1595.000000	29.741733
1596.000000	29.796667
1597.000000	29.851100
1598.000000	29.917833
1599.000000	29.985733
1600.000000	30.053333
1601.000000	30.124400
1602.000000	30.199700
1603.000000	30.274500
1604.000000	30.341700
1605.000000	30.411433
1606.000000	30.479000
1607.000000	30.562000
1608.000000	30.638433
1609.000000	30.709433
1610.000000	30.782800
1611.000000	30.852367
1612.000000	30.922500
1613.000000	30.993933
1614.000000	31.083833
1615.000000	31.158133
1616.000000	31.234300
1617.000000	31.312600
1618.000000	31.388167
1619.000000	31.462567
1620.000000	31.542367
1621.000000	31.628533
1622.000000	31.713600
1623.000000	31.793567
1624.000000	31.883167
1625.000000	31.965400
1626.000000	32.056233
1627.000000	32.139167
1628.000000	32.227733
1629.000000	32.313133
1630.000000	32.395800
1631.000000	32.485633
1632.000000	32.558533
1633.000000	32.646167
1634.000000	32.736800
1635.000000	32.810333
1636.000000	32.878333
1637.000000	32.954367
1638.000000	33.026367
1639.000000	33.100700
1640.000000	33.160367
1641.000000	33.217800
1642.000000	33.285533
1643.000000	33.347100
1644.000000	33.397800
1645.000000	33.456733
1646.000000	33.504100
1647.000000	33.556567
1648.000000	33.608333
1649.000000	33.652767
1650.000000	33.691733
1651.000000	33.725533
1652.000000	33.749800
1653.000000	33.757100
1654.000000	33.781900
1655.000000	33.770567
1656.000000	33.773933
1657.000000	33.753633
1658.000000	33.738800
1659.000000	33.710733
1660.000000	33.669100
1661.000000	33.623467
1662.000000	33.553433
1663.000000	33.480167
1664.000000	33.400633
1665.000000	33.309400
1666.000000	33.205867
1667.000000	33.089600
1668.000000	32.958367
1669.000000	32.810633
1670.000000	32.612367
1671.000000	32.412500
1672.000000	32.166067
1673.000000	31.899100
1674.000000	31.592167
1675.000000	31.236200
1676.000000	30.824800
1677.000000	30.352233
1678.000000	29.847267
1679.000000	29.249067
1680.000000	28.662167
1681.000000	28.065700
1682.000000	27.537967
1683.000000	27.126933
1684.000000	26.837800
1685.000000	26.692100
1686.000000	26.618567
1687.000000	26.582700
1688.000000	26.557067
1689.000000	26.522300
1690.000000	26.409533
1691.000000	26.272933
1692.000000	26.101700
1693.000000	25.940367
1694.000000	25.795633
1695.000000	25.741233
1696.000000	25.727267
1697.000000	25.764367
1698.000000	25.878067
1699.000000	26.012667
1700.000000	26.177467
1701.000000	26.331867
1702.000000	26.493467
1703.000000	26.615333
1704.000000	26.721533
1705.000000	26.783833
1706.000000	26.832100
1707.000000	26.862433
1708.000000	26.884767
1709.000000	26.887867
1710.000000	26.899000
1711.000000	26.862933
1712.000000	26.831300
1713.000000	26.773733
1714.000000	26.682633
1715.000000	26.616600
1716.000000	26.521000
1717.000000	26.433067
1718.000000	26.365167
1719.000000	26.296867
1720.000000	26.251267
1721.000000	26.208167
1722.000000	26.194933
1723.000000	26.162700
1724.000000	26.120033
1725.000000	26.075967
1726.000000	26.006200
1727.000000	25.907600
1728.000000	25.808100
1729.000000	25.688767
1730.000000	25.563367
1731.000000	25.451767
1732.000000	25.369867
1733.000000	25.309867
1734.000000	25.297300
1735.000000	25.335000
1736.000000	25.423767
1737.000000	25.564833
1738.000000	25.754767
1739.000000	25.986533
1740.000000	26.247800
1741.000000	26.518200
1742.000000	26.781133
1743.000000	27.030733
1744.000000	27.244700
1745.000000	27.444300
1746.000000	27.609700
1747.000000	27.763333
1748.000000	27.877500
1749.000000	27.980033
1750.000000	28.063900
1751.000000	28.119267
1752.000000	28.164600
1753.000000	28.190367
1754.000000	28.197933
1755.000000	28.180733
1756.000000	28.163067
1757.000000	28.104667
1758.000000	28.052933
1759.000000	27.978667
1760.000000	27.912767
1761.000000	27.843733
1762.000000	27.794533
1763.000000	27.765967
1764.000000	27.782500
1765.000000	27.822933
1766.000000	27.894233
1767.000000	27.990933
1768.000000	28.105667
1769.000000	28.249033
1770.000000	28.394333
1771.000000	28.536800
1772.000000	28.691133
1773.000000	28.841567
1774.000000	29.005467
1775.000000	29.159633
1776.000000	29.294433
1777.000000	29.427167
1778.000000	29.553433
1779.000000	29.660600
1780.000000	29.764033
1781.000000	29.859600
1782.000000	29.948900
1783.000000	30.041100
1784.000000	30.127733
1785.000000	30.219767
1786.000000	30.307767
1787.000000	30.388167
1788.000000	30.464833
1789.000000	30.531233
1790.000000	30.602500
1791.000000	30.663667
1792.000000	30.727933
1793.000000	30.787133
1794.000000	30.859300
1795.000000	30.913500
1796.000000	30.970567
1797.000000	31.024933
1798.000000	31.066233
1799.000000	31.119967
1800.000000	31.187900
1801.000000	31.255833
1802.000000	31.315433
1803.000000	31.365533
1804.000000	31.414600
1805.000000	31.469200
1806.000000	31.534867
1807.000000	31.595100
1808.000000	31.636533
1809.000000	31.674400
1810.000000	31.719600
1811.000000	31.766667
1812.000000	31.810100
1813.000000	31.845467
1814.000000	31.862967
1815.000000	31.875867
1816.000000	31.896800
1817.000000	31.896067
1818.000000	31.898100
1819.000000	31.918467
1820.000000	31.962500
1821.000000	32.008400
1822.000000	32.039567
1823.000000	32.054600
1824.000000	32.066267
1825.000000	32.104733
1826.000000	32.170867
1827.000000	32.247867
1828.000000	32.328133
1829.000000	32.421933
1830.000000	32.516433
1831.000000	32.608333
1832.000000	32.680567
1833.000000	32.752900
1834.000000	32.839700
1835.000000	32.934133
1836.000000	33.024900
1837.000000	33.097033
1838.000000	33.161400
1839.000000	33.219233
1840.000000	33.279067
1841.000000	33.341833
1842.000000	33.386133
1843.000000	33.399700
1844.000000	33.413433
1845.000000	33.461433
1846.000000	33.527600
1847.000000	33.624467
1848.000000	33.724900
1849.000000	33.791133
1850.000000	33.845900
1851.000000	33.894533
1852.000000	33.929767
1853.000000	33.986700
1854.000000	34.067233
1855.000000	34.108633
1856.000000	34.144700
1857.000000	34.180067
1858.000000	34.198867
1859.000000	34.212267
1860.000000	34.202700
1861.000000	34.176200
1862.000000	34.142167
1863.000000	34.079367
1864.000000	34.024800
1865.000000	33.970867
1866.000000	33.908433
1867.000000	33.851600
1868.000000	33.767200
1869.000000	33.650533
1870.000000	33.465833
1871.000000	33.267700
1872.000000	33.043300
1873.000000	32.783167
1874.000000	32.484000
1875.000000	32.162367
1876.000000	31.813600
1877.000000	31.446433
1878.000000	31.060800
1879.000000	30.625267
1880.000000	30.167567
1881.000000	29.740833
1882.000000	29.270600
1883.000000	28.787200
1884.000000	28.318600
1885.000000	27.847800
1886.000000	27.410000
1887.000000	27.025133
1888.000000	26.679133
1889.000000	26.355900
1890.000000	26.020100
1891.000000	25.702400
1892.000000	25.383333
1893.000000	25.028733
1894.000000	24.705200
1895.000000	24.410433
1896.000000	24.113600
1897.000000	23.844933
1898.000000	23.547967
1899.000000	23.215933
1900.000000	22.883833
1901.000000	22.545633
1902.000000	22.235133
1903.000000	21.930267
1904.000000	21.636767
1905.000000	21.326700
1906.000000	21.016733
1907.000000	20.706600
1908.000000	20.402133
1909.000000	20.147067
1910.000000	19.905933
1911.000000	19.664700
1912.000000	19.438167
1913.000000	19.189467
1914.000000	18.914833
1915.000000	18.659433
1916.000000	18.444567
1917.000000	18.244933
1918.000000	18.040633
1919.000000	17.859167
1920.000000	17.674400
1921.000000	17.482833
1922.000000	17.297900
1923.000000	17.124133
1924.000000	16.975333
1925.000000	16.833767
1926.000000	16.704867
1927.000000	16.587533
1928.000000	16.472400
1929.000000	16.372667
1930.000000	16.274767
1931.000000	16.181467
1932.000000	16.112967
1933.000000	16.045300
1934.000000	15.990667
1935.000000	15.940633
1936.000000	15.914333
1937.000000	15.888933
1938.000000	15.865500
1939.000000	15.860867
1940.000000	15.864567
1941.000000	15.878867
1942.000000	15.887367
1943.000000	15.902333
1944.000000	15.927467
1945.000000	15.969433
1946.000000	16.008667
1947.000000	16.054567
1948.000000	16.102233
1949.000000	16.151733
1950.000000	16.218967
1951.000000	16.276767
1952.000000	16.342067
1953.000000	16.416800
1954.000000	16.484900
1955.000000	16.547233
1956.000000	16.628333
1957.000000	16.720500
1958.000000	16.786767
1959.000000	16.848733
1960.000000	16.911167
1961.000000	17.000767
1962.000000	17.072833
1963.000000	17.154967
1964.000000	17.232633
1965.000000	17.316133
1966.000000	17.383167
1967.000000	17.450500
1968.000000	17.535833
1969.000000	17.593367
1970.000000	17.681500
1971.000000	17.754067
1972.000000	17.844933
1973.000000	17.912933
1974.000000	17.988133
1975.000000	18.077333
1976.000000	18.150700
1977.000000	18.233500
1978.000000	18.325333
1979.000000	18.398433
1980.000000	18.491833
1981.000000	18.570200
1982.000000	18.646200
1983.000000	18.729533
1984.000000	18.800433
1985.000000	18.879033
1986.000000	18.963500
1987.000000	19.024767
1988.000000	19.097500
1989.000000	19.178900
1990.000000	19.240167
1991.000000	19.300800
1992.000000	19.358367
1993.000000	19.423633
1994.000000	19.465100
1995.000000	19.518333
1996.000000	19.572067
1997.000000	19.608033
1998.000000	19.645233
1999.000000	19.671333
2000.000000	19.700600
2001.000000	19.717700
2002.000000	19.736033
2003.000000	19.754667
2004.000000	19.772933
2005.000000	19.760200
2006.000000	19.760933
2007.000000	19.757433
2008.000000	19.738000
2009.000000	19.720100
2010.000000	19.708833
2011.000000	19.676900
2012.000000	19.638000
2013.000000	19.606033
2014.000000	19.561833
2015.000000	19.521733
2016.000000	19.456667
2017.000000	19.399267
2018.000000	19.348700
2019.000000	19.280833
2020.000000	19.223467
2021.000000	19.140033
2022.000000	19.067967
2023.000000	18.991667
2024.000000	18.912867
2025.000000	18.819033
2026.000000	18.727833
2027.000000	18.637367
2028.000000	18.537567
2029.000000	18.435500
2030.000000	18.335800
2031.000000	18.226000
2032.000000	18.107767
2033.000000	17.986567
2034.000000	17.858967
2035.000000	17.735300
2036.000000	17.601700
2037.000000	17.442167
2038.000000	17.302500
2039.000000	17.162733
2040.000000	17.001233
2041.000000	16.849600
2042.000000	16.672733
2043.000000	16.517933
2044.000000	16.364967
2045.000000	16.204533
2046.000000	16.048233
2047.000000	15.897867
2048.000000	15.763933
2049.000000	15.628600
2050.000000	15.509433
2051.000000	15.402133
2052.000000	15.308033
2053.000000	15.230500
2054.000000	15.170000
2055.000000	15.130700
2056.000000	15.084800
2057.000000	15.045033
2058.000000	15.031333
2059.000000	15.027533
2060.000000	15.032133
2061.000000	15.039967
2062.000000	15.053667
2063.000000	15.079733
2064.000000	15.106300
2065.000000	15.128200
2066.000000	15.156500
2067.000000	15.200567
2068.000000	15.243867
2069.000000	15.275500
2070.000000	15.315333
2071.000000	15.349000
2072.000000	15.376633
2073.000000	15.410533
2074.000000	15.450467
2075.000000	15.475467
2076.000000	15.509367
2077.000000	15.548500
2078.000000	15.578867
2079.000000	15.605767
2080.000000	15.622033
2081.000000	15.645167
2082.000000	15.674167
2083.000000	15.689000
2084.000000	15.707500
2085.000000	15.726500
2086.000000	15.740133
2087.000000	15.754567
2088.000000	15.775267
2089.000000	15.793400
2090.000000	15.804800
2091.000000	15.806400
2092.000000	15.807567
2093.000000	15.835733
2094.000000	15.852500
2095.000000	15.864667
2096.000000	15.881233
2097.000000	15.895933
2098.000000	15.917867
2099.000000	15.940133
2100.000000	15.969933
2101.000000	15.995467
2102.000000	16.012867
2103.000000	16.035600
2104.000000	16.064500
2105.000000	16.097133
2106.000000	16.124233
2107.000000	16.150233
2108.000000	16.175233
2109.000000	16.207200
2110.000000	16.244367
2111.000000	16.269333
2112.000000	16.293533
2113.000000	16.315900
2114.000000	16.334267
2115.000000	16.363533
2116.000000	16.386033
2117.000000	16.407767
2118.000000	16.436467
2119.000000	16.447767
2120.000000	16.467100
2121.000000	16.478633
2122.000000	16.490100
2123.000000	16.500267
2124.000000	16.499267
2125.000000	16.502833
2126.000000	16.506467
2127.000000	16.499367
2128.000000	16.496833
2129.000000	16.500133
2130.000000	16.482133
2131.000000	16.450300
2132.000000	16.438333
2133.000000	16.431467
2134.000000	16.404733
2135.000000	16.371733
2136.000000	16.350367
2137.000000	16.327467
2138.000000	16.291933
2139.000000	16.255367
2140.000000	16.215400
2141.000000	16.169367
2142.000000	16.131000
2143.000000	16.091100
2144.000000	16.053433
2145.000000	16.003800
2146.000000	15.962000
2147.000000	15.916333
2148.000000	15.874800
2149.000000	15.824600
2150.000000	15.769967
2151.000000	15.722433
2152.000000	15.671933
2153.000000	15.617933
2154.000000	15.575467
2155.000000	15.524600
2156.000000	15.476000
2157.000000	15.433933
2158.000000	15.393033
2159.000000	15.356867
2160.000000	15.315000
2161.000000	15.273733
2162.000000	15.241867
2163.000000	15.222400
2164.000000	15.194433
2165.000000	15.166433
2166.000000	15.143800
2167.000000	15.119700
2168.000000	15.098400
2169.000000	15.077467
2170.000000	15.060500
2171.000000	15.047233
2172.000000	15.034700
2173.000000	15.031233
2174.000000	15.024667
2175.000000	15.028433
2176.000000	15.026400
2177.000000	15.024733
2178.000000	15.024467
2179.000000	15.026033
2180.000000	15.044900
2181.000000	15.040833
2182.000000	15.060167
2183.000000	15.077133
2184.000000	15.082500
2185.000000	15.100967
2186.000000	15.109500
2187.000000	15.117667
2188.000000	15.129900
2189.000000	15.136133
2190.000000	15.150933
2191.000000	15.165600
2192.000000	15.168833
2193.000000	15.176300
2194.000000	15.178733
2195.000000	15.189333
2196.000000	15.202900
2197.000000	15.208733
2198.000000	15.217733
2199.000000	15.212100
2200.000000	15.224133
2201.000000	15.234200
2202.000000	15.241000
2203.000000	15.240400
2204.000000	15.260567
2205.000000	15.275833
2206.000000	15.283633
2207.000000	15.302667
2208.000000	15.331767
2209.000000	15.347567
2210.000000	15.377167
2211.000000	15.390800
2212.000000	15.412333
2213.000000	15.441833
2214.000000	15.459933
2215.000000	15.493833
2216.000000	15.528967
2217.000000	15.554900
2218.000000	15.582900
2219.000000	15.605100
2220.000000	15.637733
2221.000000	15.666433
2222.000000	15.679500
2223.000000	15.698633
2224.000000	15.720800
2225.000000	15.718567
2226.000000	15.733367
2227.000000	15.719367
2228.000000	15.703033
2229.000000	15.673467
2230.000000	15.669367
2231.000000	15.634233
2232.000000	15.596033
2233.000000	15.546133
2234.000000	15.476533
2235.000000	15.412533
2236.000000	15.337733
2237.000000	15.263567
2238.000000	15.178367
2239.000000	15.075833
2240.000000	14.952967
2241.000000	14.848867
2242.000000	14.724133
2243.000000	14.595667
2244.000000	14.431333
2245.000000	14.277267
2246.000000	14.112767
2247.000000	13.932900
2248.000000	13.727167
2249.000000	13.512333
2250.000000	13.305567
2251.000000	13.087100
2252.000000	12.846367
2253.000000	12.577100
2254.000000	12.312433
2255.000000	12.041133
2256.000000	11.768767
2257.000000	11.506167
2258.000000	11.229100
2259.000000	10.956800
2260.000000	10.710367
2261.000000	10.479500
2262.000000	10.225867
2263.000000	10.022033
2264.000000	9.839333
2265.000000	9.682500
2266.000000	9.532533
2267.000000	9.412500
2268.000000	9.326133
2269.000000	9.239200
2270.000000	9.180500
2271.000000	9.132300
2272.000000	9.109633
2273.000000	9.105300
2274.000000	9.112100
2275.000000	9.101133
2276.000000	9.130033
2277.000000	9.168367
2278.000000	9.194433
2279.000000	9.239233
2280.000000	9.273567
2281.000000	9.319067
2282.000000	9.368600
2283.000000	9.402067
2284.000000	9.459200
2285.000000	9.491233
2286.000000	9.509400
2287.000000	9.520933
2288.000000	9.544033
2289.000000	9.539567
2290.000000	9.521800
2291.000000	9.489067
2292.000000	9.453333
2293.000000	9.399833
2294.000000	9.341467
2295.000000	9.262267
2296.000000	9.166133
2297.000000	9.086233
2298.000000	9.002833
2299.000000	8.926500
2300.000000	8.824133
2301.000000	8.732967
2302.000000	8.651500
2303.000000	8.580133
2304.000000	8.522867
2305.000000	8.489700
2306.000000	8.460133
2307.000000	8.463000
2308.000000	8.482300
2309.000000	8.514367
2310.000000	8.551800
2311.000000	8.613367
2312.000000	8.700700
2313.000000	8.785467
2314.000000	8.889800
2315.000000	9.007467
2316.000000	9.129700
2317.000000	9.235833
2318.000000	9.353600
2319.000000	9.478600
2320.000000	9.591267
2321.000000	9.710900
2322.000000	9.827800
2323.000000	9.923900
2324.000000	10.014433
2325.000000	10.116333
2326.000000	10.206200
2327.000000	10.277567
2328.000000	10.356433
2329.000000	10.417700
2330.000000	10.485033
2331.000000	10.545667
2332.000000	10.586033
2333.000000	10.614100
2334.000000	10.650333
2335.000000	10.681100
2336.000000	10.696033
2337.000000	10.694833
2338.000000	10.686267
2339.000000	10.680067
2340.000000	10.657200
2341.000000	10.630200
2342.000000	10.600900
2343.000000	10.557067
2344.000000	10.501833
2345.000000	10.450567
2346.000000	10.404500
2347.000000	10.370567
2348.000000	10.328567
2349.000000	10.286133
2350.000000	10.253033
2351.000000	10.222767
2352.000000	10.215667
2353.000000	10.218567
2354.000000	10.231467
2355.000000	10.246367
2356.000000	10.262600
2357.000000	10.306500
2358.000000	10.360167
2359.000000	10.415967
2360.000000	10.484400
2361.000000	10.539800
2362.000000	10.603167
2363.000000	10.675000
2364.000000	10.730500
2365.000000	10.789533
2366.000000	10.858700
2367.000000	10.919533
2368.000000	10.971000
2369.000000	11.018233
2370.000000	11.072933
2371.000000	11.107900
2372.000000	11.132533
2373.000000	11.177533
2374.000000	11.203433
2375.000000	11.224900
2376.000000	11.255167
2377.000000	11.265433
2378.000000	11.276033
2379.000000	11.298833
2380.000000	11.312500
2381.000000	11.320167
2382.000000	11.335367
2383.000000	11.335333
2384.000000	11.333700
2385.000000	11.345233
2386.000000	11.339767
2387.000000	11.322333
2388.000000	11.316167
2389.000000	11.306600
2390.000000	11.288600
2391.000000	11.266533
2392.000000	11.239167
2393.000000	11.215400
2394.000000	11.194267
2395.000000	11.181567
2396.000000	11.163533
2397.000000	11.124267
2398.000000	11.067233
2399.000000	11.016333
2400.000000	10.979100
2401.000000	10.959200
2402.000000	10.938467
2403.000000	10.901633
2404.000000	10.879400
2405.000000	10.858267
2406.000000	10.835233
2407.000000	10.806833
2408.000000	10.782300
2409.000000	10.756267
2410.000000	10.728200
2411.000000	10.710567
2412.000000	10.690500
2413.000000	10.660600
2414.000000	10.637733
2415.000000	10.614500
2416.000000	10.586300
2417.000000	10.555867
2418.000000	10.535833
2419.000000	10.495233
2420.000000	10.470033
2421.000000	10.439300
2422.000000	10.412600
2423.000000	10.390967
2424.000000	10.359200
2425.000000	10.322367
2426.000000	10.283200
2427.000000	10.244933
2428.000000	10.203333
2429.000000	10.152267
2430.000000	10.111000
2431.000000	10.069867
2432.000000	10.013367
2433.000000	9.952867
2434.000000	9.888000
2435.000000	9.842567
2436.000000	9.772867
2437.000000	9.707500
2438.000000	9.640500
2439.000000	9.575767
2440.000000	9.494267
2441.000000	9.429600
2442.000000	9.356633
2443.000000	9.289567
2444.000000	9.224967
2445.000000	9.135367
2446.000000	9.061900
2447.000000	8.978100
2448.000000	8.897367
2449.000000	8.820233
2450.000000	8.742933
2451.000000	8.686533
2452.000000	8.603133
2453.000000	8.532300
2454.000000	8.457400
2455.000000	8.384533
2456.000000	8.326467
2457.000000	8.261033
2458.000000	8.209600
2459.000000	8.155533
2460.000000	8.102733
2461.000000	8.065767
2462.000000	8.028000
2463.000000	8.007000
2464.000000	7.962367
2465.000000	7.930133
2466.000000	7.937500
2467.000000	7.899500
2468.000000	7.883200
2469.000000	7.867200
2470.000000	7.888000
2471.000000	7.867933
2472.000000	7.869567
2473.000000	7.848367
2474.000000	7.848100
2475.000000	7.860133
2476.000000	7.880300
2477.000000	7.861867
2478.000000	7.871433
2479.000000	7.853900
2480.000000	7.848033
2481.000000	7.871700
2482.000000	7.855200
2483.000000	7.855233
2484.000000	7.833900
2485.000000	7.919300
2486.000000	7.896200
2487.000000	7.887900
2488.000000	7.930233
2489.000000	7.913467
2490.000000	7.933700
2491.000000	7.979933
2492.000000	7.963733
2493.000000	8.018433
2494.000000	7.989767
2495.000000	8.101567
2496.000000	8.088800
2497.000000	8.096100
2498.000000	8.075800
2499.000000	8.205833
2500.000000	8.262533
