PE UV       SUBTECH     SPECTRUM    ASCII       PEDS        4.00        
   -1
CICIMAUCR0112-1.Sample.ASC
24/04/04
14:46:15.00
24/04/04
14:46:15.00
Vinicio Soto Monge
C. resplendens
250,000000
1
Lambda 1050
1050L1511233
PerkinElmer UV WinLab 6.3.2.0749 / 2.02.05 Lambda 900 UV/VIS/NIR, Aug  7 2015 09:38:08

0
0
3350/servo 860,8/2
0
0
UV/VIS
1
1
1
DoubleDePol,CommonBeamDepol,RBeamAtt,SBeamAtt,60mm sphere, WB InGaAs Detector
0
0
0
0
Program
Program
3350/servo 860,8/2
3350/0,2 860,8/0,2
3350/0,2 860,8/0,2
0
15.00
 
 
 
0
 
860,8
319,2
860,8
Front
100
on
S:100 R:100
0
0
0
0
 
0
 
 
 
0
 
 
0
0
0
0
0
 
 
 
 
0
0


0
0
#HDR
-1
-1
#GR
nm
%R
1.0
0.0
2500,000000
-1,000000
2251
8
61,245000
4,369400
#DATA
2500,000000	4,436800
2499,000000	4,497500
2498,000000	4,458600
2497,000000	4,494900
2496,000000	4,522400
2495,000000	4,488300
2494,000000	4,369400
2493,000000	4,544200
2492,000000	4,444900
2491,000000	4,421200
2490,000000	4,445500
2489,000000	4,420300
2488,000000	4,481100
2487,000000	4,411800
2486,000000	4,418900
2485,000000	4,427100
2484,000000	4,473500
2483,000000	4,440800
2482,000000	4,430000
2481,000000	4,448000
2480,000000	4,455400
2479,000000	4,464400
2478,000000	4,413100
2477,000000	4,403400
2476,000000	4,481100
2475,000000	4,478900
2474,000000	4,452700
2473,000000	4,460400
2472,000000	4,417700
2471,000000	4,421500
2470,000000	4,453200
2469,000000	4,430700
2468,000000	4,445200
2467,000000	4,412800
2466,000000	4,463000
2465,000000	4,455500
2464,000000	4,405100
2463,000000	4,439400
2462,000000	4,474500
2461,000000	4,501300
2460,000000	4,496000
2459,000000	4,465100
2458,000000	4,484800
2457,000000	4,490100
2456,000000	4,499700
2455,000000	4,539200
2454,000000	4,560700
2453,000000	4,546700
2452,000000	4,559000
2451,000000	4,603600
2450,000000	4,587300
2449,000000	4,612700
2448,000000	4,654800
2447,000000	4,658800
2446,000000	4,674500
2445,000000	4,696000
2444,000000	4,696300
2443,000000	4,715700
2442,000000	4,712400
2441,000000	4,722100
2440,000000	4,727600
2439,000000	4,753900
2438,000000	4,765800
2437,000000	4,784500
2436,000000	4,781300
2435,000000	4,797400
2434,000000	4,827100
2433,000000	4,846900
2432,000000	4,836100
2431,000000	4,848300
2430,000000	4,870300
2429,000000	4,870900
2428,000000	4,894600
2427,000000	4,886200
2426,000000	4,897400
2425,000000	4,899200
2424,000000	4,904500
2423,000000	4,935100
2422,000000	4,943500
2421,000000	4,951400
2420,000000	4,954100
2419,000000	4,990100
2418,000000	5,019800
2417,000000	5,009900
2416,000000	5,035800
2415,000000	5,060700
2414,000000	5,055100
2413,000000	5,058100
2412,000000	5,057500
2411,000000	5,095900
2410,000000	5,115900
2409,000000	5,108300
2408,000000	5,113200
2407,000000	5,118400
2406,000000	5,129300
2405,000000	5,146400
2404,000000	5,157700
2403,000000	5,173600
2402,000000	5,174800
2401,000000	5,165800
2400,000000	5,181800
2399,000000	5,209300
2398,000000	5,219600
2397,000000	5,212800
2396,000000	5,215900
2395,000000	5,222100
2394,000000	5,219600
2393,000000	5,237500
2392,000000	5,238800
2391,000000	5,239300
2390,000000	5,253600
2389,000000	5,256500
2388,000000	5,255400
2387,000000	5,265500
2386,000000	5,274900
2385,000000	5,273100
2384,000000	5,284900
2383,000000	5,263800
2382,000000	5,263000
2381,000000	5,277100
2380,000000	5,280000
2379,000000	5,282100
2378,000000	5,287200
2377,000000	5,287000
2376,000000	5,285900
2375,000000	5,282400
2374,000000	5,279100
2373,000000	5,271800
2372,000000	5,271400
2371,000000	5,275400
2370,000000	5,276100
2369,000000	5,274500
2368,000000	5,265800
2367,000000	5,263300
2366,000000	5,255500
2365,000000	5,231500
2364,000000	5,239700
2363,000000	5,239400
2362,000000	5,225600
2361,000000	5,220500
2360,000000	5,215200
2359,000000	5,214200
2358,000000	5,198200
2357,000000	5,184300
2356,000000	5,197300
2355,000000	5,181400
2354,000000	5,168400
2353,000000	5,188500
2352,000000	5,188800
2351,000000	5,183100
2350,000000	5,167300
2349,000000	5,177100
2348,000000	5,178700
2347,000000	5,166600
2346,000000	5,184600
2345,000000	5,189500
2344,000000	5,176200
2343,000000	5,167100
2342,000000	5,175000
2341,000000	5,175200
2340,000000	5,169100
2339,000000	5,164000
2338,000000	5,162500
2337,000000	5,167700
2336,000000	5,148400
2335,000000	5,137300
2334,000000	5,134700
2333,000000	5,122300
2332,000000	5,134400
2331,000000	5,115200
2330,000000	5,096400
2329,000000	5,089400
2328,000000	5,074600
2327,000000	5,060700
2326,000000	5,032300
2325,000000	5,036300
2324,000000	5,023800
2323,000000	4,994200
2322,000000	4,985800
2321,000000	4,964800
2320,000000	4,948900
2319,000000	4,946800
2318,000000	4,922300
2317,000000	4,902500
2316,000000	4,898300
2315,000000	4,886200
2314,000000	4,872500
2313,000000	4,862400
2312,000000	4,853100
2311,000000	4,826400
2310,000000	4,807300
2309,000000	4,812600
2308,000000	4,785800
2307,000000	4,792800
2306,000000	4,791300
2305,000000	4,776300
2304,000000	4,778500
2303,000000	4,789600
2302,000000	4,772000
2301,000000	4,774500
2300,000000	4,766700
2299,000000	4,760800
2298,000000	4,762000
2297,000000	4,758100
2296,000000	4,755300
2295,000000	4,752600
2294,000000	4,750800
2293,000000	4,747200
2292,000000	4,742000
2291,000000	4,736300
2290,000000	4,734500
2289,000000	4,708000
2288,000000	4,711100
2287,000000	4,697600
2286,000000	4,693600
2285,000000	4,677000
2284,000000	4,657800
2283,000000	4,641300
2282,000000	4,612600
2281,000000	4,627400
2280,000000	4,605700
2279,000000	4,607700
2278,000000	4,579400
2277,000000	4,557600
2276,000000	4,555200
2275,000000	4,541100
2274,000000	4,524000
2273,000000	4,511500
2272,000000	4,494400
2271,000000	4,487400
2270,000000	4,500600
2269,000000	4,462400
2268,000000	4,483200
2267,000000	4,465600
2266,000000	4,452500
2265,000000	4,416900
2264,000000	4,457400
2263,000000	4,443500
2262,000000	4,445800
2261,000000	4,453700
2260,000000	4,470300
2259,000000	4,472300
2258,000000	4,472400
2257,000000	4,487700
2256,000000	4,495700
2255,000000	4,507900
2254,000000	4,514800
2253,000000	4,555600
2252,000000	4,538100
2251,000000	4,557100
2250,000000	4,579900
2249,000000	4,572100
2248,000000	4,587400
2247,000000	4,591000
2246,000000	4,627700
2245,000000	4,619900
2244,000000	4,631900
2243,000000	4,636400
2242,000000	4,664300
2241,000000	4,662300
2240,000000	4,683900
2239,000000	4,696900
2238,000000	4,705500
2237,000000	4,704300
2236,000000	4,713400
2235,000000	4,717400
2234,000000	4,717400
2233,000000	4,717400
2232,000000	4,746400
2231,000000	4,748700
2230,000000	4,730300
2229,000000	4,714400
2228,000000	4,717200
2227,000000	4,693100
2226,000000	4,674900
2225,000000	4,647700
2224,000000	4,650000
2223,000000	4,644300
2222,000000	4,603000
2221,000000	4,585900
2220,000000	4,571400
2219,000000	4,509000
2218,000000	4,513000
2217,000000	4,506800
2216,000000	4,489700
2215,000000	4,474400
2214,000000	4,463300
2213,000000	4,448600
2212,000000	4,445200
2211,000000	4,458800
2210,000000	4,470500
2209,000000	4,465800
2208,000000	4,509300
2207,000000	4,547800
2206,000000	4,581400
2205,000000	4,623000
2204,000000	4,693300
2203,000000	4,746600
2202,000000	4,808100
2201,000000	4,877300
2200,000000	4,989800
2199,000000	5,055600
2198,000000	5,135500
2197,000000	5,210200
2196,000000	5,264600
2195,000000	5,346700
2194,000000	5,416500
2193,000000	5,491600
2192,000000	5,543900
2191,000000	5,593700
2190,000000	5,639200
2189,000000	5,707900
2188,000000	5,749800
2187,000000	5,803100
2186,000000	5,842300
2185,000000	5,883200
2184,000000	5,929900
2183,000000	5,961400
2182,000000	5,975100
2181,000000	5,980700
2180,000000	6,011000
2179,000000	6,030900
2178,000000	6,051300
2177,000000	6,063600
2176,000000	6,069800
2175,000000	6,109500
2174,000000	6,090200
2173,000000	6,112100
2172,000000	6,132800
2171,000000	6,141200
2170,000000	6,136300
2169,000000	6,139100
2168,000000	6,139500
2167,000000	6,165400
2166,000000	6,159900
2165,000000	6,155200
2164,000000	6,177700
2163,000000	6,191500
2162,000000	6,201800
2161,000000	6,196700
2160,000000	6,224300
2159,000000	6,251700
2158,000000	6,269800
2157,000000	6,262700
2156,000000	6,288800
2155,000000	6,296300
2154,000000	6,330500
2153,000000	6,330600
2152,000000	6,347000
2151,000000	6,361400
2150,000000	6,376800
2149,000000	6,385200
2148,000000	6,383000
2147,000000	6,403900
2146,000000	6,405900
2145,000000	6,418700
2144,000000	6,430000
2143,000000	6,430300
2142,000000	6,441300
2141,000000	6,439900
2140,000000	6,438400
2139,000000	6,447500
2138,000000	6,452500
2137,000000	6,458500
2136,000000	6,465100
2135,000000	6,476200
2134,000000	6,475800
2133,000000	6,478200
2132,000000	6,498400
2131,000000	6,512800
2130,000000	6,515000
2129,000000	6,513300
2128,000000	6,513200
2127,000000	6,515400
2126,000000	6,516200
2125,000000	6,511400
2124,000000	6,517100
2123,000000	6,521500
2122,000000	6,511400
2121,000000	6,498500
2120,000000	6,498000
2119,000000	6,503100
2118,000000	6,518600
2117,000000	6,520900
2116,000000	6,501800
2115,000000	6,502200
2114,000000	6,511200
2113,000000	6,506500
2112,000000	6,503700
2111,000000	6,499500
2110,000000	6,487100
2109,000000	6,476500
2108,000000	6,480900
2107,000000	6,471700
2106,000000	6,456700
2105,000000	6,466500
2104,000000	6,476800
2103,000000	6,462800
2102,000000	6,446500
2101,000000	6,440600
2100,000000	6,453400
2099,000000	6,461800
2098,000000	6,456900
2097,000000	6,461200
2096,000000	6,457700
2095,000000	6,451900
2094,000000	6,446300
2093,000000	6,451600
2092,000000	6,461400
2091,000000	6,444600
2090,000000	6,453500
2089,000000	6,462100
2088,000000	6,448100
2087,000000	6,456800
2086,000000	6,462400
2085,000000	6,464500
2084,000000	6,461600
2083,000000	6,455300
2082,000000	6,454000
2081,000000	6,448200
2080,000000	6,449600
2079,000000	6,473700
2078,000000	6,467400
2077,000000	6,453100
2076,000000	6,472700
2075,000000	6,476000
2074,000000	6,470100
2073,000000	6,470900
2072,000000	6,481800
2071,000000	6,487200
2070,000000	6,482800
2069,000000	6,482600
2068,000000	6,485500
2067,000000	6,491300
2066,000000	6,497500
2065,000000	6,497700
2064,000000	6,495300
2063,000000	6,518000
2062,000000	6,517700
2061,000000	6,522600
2060,000000	6,527100
2059,000000	6,527600
2058,000000	6,532400
2057,000000	6,549700
2056,000000	6,560100
2055,000000	6,563200
2054,000000	6,586300
2053,000000	6,599100
2052,000000	6,613300
2051,000000	6,626200
2050,000000	6,653000
2049,000000	6,657200
2048,000000	6,684000
2047,000000	6,723900
2046,000000	6,737600
2045,000000	6,771600
2044,000000	6,780500
2043,000000	6,813600
2042,000000	6,847200
2041,000000	6,874000
2040,000000	6,903600
2039,000000	6,937900
2038,000000	6,963300
2037,000000	6,991200
2036,000000	7,009800
2035,000000	7,043800
2034,000000	7,071100
2033,000000	7,082600
2032,000000	7,121600
2031,000000	7,162400
2030,000000	7,158300
2029,000000	7,185500
2028,000000	7,235300
2027,000000	7,225300
2026,000000	7,254700
2025,000000	7,286000
2024,000000	7,307200
2023,000000	7,322600
2022,000000	7,341700
2021,000000	7,373700
2020,000000	7,376100
2019,000000	7,402000
2018,000000	7,427900
2017,000000	7,438100
2016,000000	7,464400
2015,000000	7,468900
2014,000000	7,477300
2013,000000	7,496700
2012,000000	7,517100
2011,000000	7,517400
2010,000000	7,524000
2009,000000	7,551300
2008,000000	7,534700
2007,000000	7,544600
2006,000000	7,556800
2005,000000	7,558400
2004,000000	7,548800
2003,000000	7,566700
2002,000000	7,551100
2001,000000	7,547200
2000,000000	7,568300
1999,000000	7,556000
1998,000000	7,537900
1997,000000	7,545600
1996,000000	7,536700
1995,000000	7,511000
1994,000000	7,511300
1993,000000	7,489500
1992,000000	7,503300
1991,000000	7,473900
1990,000000	7,464100
1989,000000	7,441300
1988,000000	7,435800
1987,000000	7,417600
1986,000000	7,415700
1985,000000	7,392600
1984,000000	7,358800
1983,000000	7,347000
1982,000000	7,346600
1981,000000	7,322800
1980,000000	7,313600
1979,000000	7,281600
1978,000000	7,275100
1977,000000	7,247600
1976,000000	7,216900
1975,000000	7,201800
1974,000000	7,178000
1973,000000	7,168000
1972,000000	7,175700
1971,000000	7,128000
1970,000000	7,090600
1969,000000	7,089000
1968,000000	7,063600
1967,000000	7,064600
1966,000000	7,052300
1965,000000	7,039500
1964,000000	6,998000
1963,000000	6,989100
1962,000000	6,987000
1961,000000	6,966200
1960,000000	6,938400
1959,000000	6,932900
1958,000000	6,921300
1957,000000	6,905000
1956,000000	6,871500
1955,000000	6,853800
1954,000000	6,877200
1953,000000	6,861400
1952,000000	6,839300
1951,000000	6,827800
1950,000000	6,804500
1949,000000	6,784700
1948,000000	6,797000
1947,000000	6,779800
1946,000000	6,789200
1945,000000	6,745000
1944,000000	6,761500
1943,000000	6,762700
1942,000000	6,757400
1941,000000	6,776800
1940,000000	6,748300
1939,000000	6,756500
1938,000000	6,759400
1937,000000	6,755700
1936,000000	6,774000
1935,000000	6,774700
1934,000000	6,780200
1933,000000	6,791700
1932,000000	6,820100
1931,000000	6,816300
1930,000000	6,827100
1929,000000	6,859500
1928,000000	6,872400
1927,000000	6,893900
1926,000000	6,935900
1925,000000	6,957200
1924,000000	6,959700
1923,000000	6,990000
1922,000000	7,044400
1921,000000	7,101000
1920,000000	7,134200
1919,000000	7,177700
1918,000000	7,225800
1917,000000	7,256300
1916,000000	7,284500
1915,000000	7,316700
1914,000000	7,379000
1913,000000	7,454000
1912,000000	7,527900
1911,000000	7,587400
1910,000000	7,638500
1909,000000	7,663000
1908,000000	7,707100
1907,000000	7,802300
1906,000000	7,869600
1905,000000	7,972700
1904,000000	8,055600
1903,000000	8,113300
1902,000000	8,173000
1901,000000	8,230100
1900,000000	8,321600
1899,000000	8,444900
1898,000000	8,516900
1897,000000	8,582500
1896,000000	8,661800
1895,000000	8,742000
1894,000000	8,807100
1893,000000	8,884900
1892,000000	8,994300
1891,000000	9,099200
1890,000000	9,197700
1889,000000	9,278200
1888,000000	9,386200
1887,000000	9,472400
1886,000000	9,592100
1885,000000	9,751100
1884,000000	9,919900
1883,000000	10,111800
1882,000000	10,317400
1881,000000	10,521600
1880,000000	10,729700
1879,000000	10,933400
1878,000000	11,144800
1877,000000	11,344100
1876,000000	11,528700
1875,000000	11,705700
1874,000000	11,861200
1873,000000	12,048000
1872,000000	12,208000
1871,000000	12,323600
1870,000000	12,430900
1869,000000	12,504700
1868,000000	12,577800
1867,000000	12,619700
1866,000000	12,640300
1865,000000	12,664900
1864,000000	12,686500
1863,000000	12,687900
1862,000000	12,689800
1861,000000	12,691300
1860,000000	12,699300
1859,000000	12,668700
1858,000000	12,654000
1857,000000	12,620600
1856,000000	12,561600
1855,000000	12,517600
1854,000000	12,469500
1853,000000	12,395300
1852,000000	12,337700
1851,000000	12,289300
1850,000000	12,237500
1849,000000	12,186500
1848,000000	12,133600
1847,000000	12,072600
1846,000000	11,996500
1845,000000	11,921700
1844,000000	11,859700
1843,000000	11,831200
1842,000000	11,813200
1841,000000	11,800600
1840,000000	11,771100
1839,000000	11,726900
1838,000000	11,692600
1837,000000	11,660800
1836,000000	11,623700
1835,000000	11,561400
1834,000000	11,497200
1833,000000	11,432300
1832,000000	11,358900
1831,000000	11,291700
1830,000000	11,249600
1829,000000	11,198200
1828,000000	11,117600
1827,000000	11,055500
1826,000000	11,014800
1825,000000	10,971100
1824,000000	10,933600
1823,000000	10,900900
1822,000000	10,887900
1821,000000	10,890200
1820,000000	10,861900
1819,000000	10,828000
1818,000000	10,813900
1817,000000	10,803000
1816,000000	10,799200
1815,000000	10,791300
1814,000000	10,756700
1813,000000	10,752300
1812,000000	10,735900
1811,000000	10,721900
1810,000000	10,706600
1809,000000	10,668300
1808,000000	10,637300
1807,000000	10,615400
1806,000000	10,584400
1805,000000	10,549700
1804,000000	10,522400
1803,000000	10,481500
1802,000000	10,454600
1801,000000	10,436500
1800,000000	10,391300
1799,000000	10,359200
1798,000000	10,322800
1797,000000	10,304400
1796,000000	10,284000
1795,000000	10,256900
1794,000000	10,225100
1793,000000	10,198900
1792,000000	10,176200
1791,000000	10,136400
1790,000000	10,098100
1789,000000	10,056500
1788,000000	10,018400
1787,000000	9,977200
1786,000000	9,932000
1785,000000	9,888900
1784,000000	9,859400
1783,000000	9,807100
1782,000000	9,763700
1781,000000	9,699500
1780,000000	9,666200
1779,000000	9,630500
1778,000000	9,569000
1777,000000	9,513100
1776,000000	9,450100
1775,000000	9,409100
1774,000000	9,349400
1773,000000	9,272400
1772,000000	9,213600
1771,000000	9,153100
1770,000000	9,083100
1769,000000	9,031400
1768,000000	8,983800
1767,000000	8,947400
1766,000000	8,909500
1765,000000	8,884300
1764,000000	8,859400
1763,000000	8,837000
1762,000000	8,855300
1761,000000	8,907200
1760,000000	8,925600
1759,000000	8,943200
1758,000000	8,994200
1757,000000	9,042200
1756,000000	9,064500
1755,000000	9,069900
1754,000000	9,078000
1753,000000	9,094200
1752,000000	9,088200
1751,000000	9,051000
1750,000000	9,046400
1749,000000	9,033700
1748,000000	9,014200
1747,000000	8,953700
1746,000000	8,910300
1745,000000	8,848400
1744,000000	8,784200
1743,000000	8,736700
1742,000000	8,641600
1741,000000	8,554600
1740,000000	8,450800
1739,000000	8,382100
1738,000000	8,317300
1737,000000	8,268200
1736,000000	8,211800
1735,000000	8,197900
1734,000000	8,187200
1733,000000	8,180900
1732,000000	8,175500
1731,000000	8,225100
1730,000000	8,272400
1729,000000	8,315300
1728,000000	8,354800
1727,000000	8,390600
1726,000000	8,465900
1725,000000	8,470400
1724,000000	8,477500
1723,000000	8,488900
1722,000000	8,492000
1721,000000	8,505900
1720,000000	8,485100
1719,000000	8,472000
1718,000000	8,506500
1717,000000	8,513200
1716,000000	8,509800
1715,000000	8,530100
1714,000000	8,560100
1713,000000	8,537000
1712,000000	8,555900
1711,000000	8,591100
1710,000000	8,590000
1709,000000	8,579000
1708,000000	8,567600
1707,000000	8,564100
1706,000000	8,530700
1705,000000	8,503100
1704,000000	8,480100
1703,000000	8,438800
1702,000000	8,405100
1701,000000	8,368800
1700,000000	8,301800
1699,000000	8,266800
1698,000000	8,218700
1697,000000	8,170400
1696,000000	8,148400
1695,000000	8,134300
1694,000000	8,139300
1693,000000	8,189500
1692,000000	8,219600
1691,000000	8,285700
1690,000000	8,314900
1689,000000	8,359600
1688,000000	8,371800
1687,000000	8,399500
1686,000000	8,360400
1685,000000	8,382500
1684,000000	8,396300
1683,000000	8,451900
1682,000000	8,546900
1681,000000	8,711400
1680,000000	8,941700
1679,000000	9,166100
1678,000000	9,396700
1677,000000	9,650600
1676,000000	9,865200
1675,000000	10,062700
1674,000000	10,256300
1673,000000	10,406200
1672,000000	10,548400
1671,000000	10,648800
1670,000000	10,741000
1669,000000	10,835300
1668,000000	10,914400
1667,000000	10,983500
1666,000000	11,038400
1665,000000	11,078200
1664,000000	11,123300
1663,000000	11,159600
1662,000000	11,181200
1661,000000	11,196700
1660,000000	11,216000
1659,000000	11,228100
1658,000000	11,248100
1657,000000	11,247700
1656,000000	11,253700
1655,000000	11,237100
1654,000000	11,239000
1653,000000	11,230900
1652,000000	11,231300
1651,000000	11,194300
1650,000000	11,186300
1649,000000	11,167300
1648,000000	11,123300
1647,000000	11,103600
1646,000000	11,087700
1645,000000	11,059600
1644,000000	11,012400
1643,000000	10,986500
1642,000000	10,967500
1641,000000	10,927000
1640,000000	10,883000
1639,000000	10,847300
1638,000000	10,848500
1637,000000	10,826500
1636,000000	10,781000
1635,000000	10,732000
1634,000000	10,702900
1633,000000	10,662900
1632,000000	10,637300
1631,000000	10,610300
1630,000000	10,569300
1629,000000	10,535400
1628,000000	10,494500
1627,000000	10,474500
1626,000000	10,437900
1625,000000	10,407500
1624,000000	10,369600
1623,000000	10,327800
1622,000000	10,287300
1621,000000	10,258800
1620,000000	10,230700
1619,000000	10,211500
1618,000000	10,168900
1617,000000	10,127700
1616,000000	10,098200
1615,000000	10,074300
1614,000000	10,044000
1613,000000	10,011600
1612,000000	9,993700
1611,000000	9,972900
1610,000000	9,938600
1609,000000	9,917600
1608,000000	9,894900
1607,000000	9,868300
1606,000000	9,852600
1605,000000	9,825000
1604,000000	9,811400
1603,000000	9,788200
1602,000000	9,751300
1601,000000	9,732500
1600,000000	9,718600
1599,000000	9,701900
1598,000000	9,666100
1597,000000	9,637100
1596,000000	9,625500
1595,000000	9,609500
1594,000000	9,588700
1593,000000	9,590800
1592,000000	9,579300
1591,000000	9,540100
1590,000000	9,530300
1589,000000	9,520800
1588,000000	9,505700
1587,000000	9,511600
1586,000000	9,508700
1585,000000	9,496400
1584,000000	9,476800
1583,000000	9,464400
1582,000000	9,458800
1581,000000	9,455200
1580,000000	9,458900
1579,000000	9,448500
1578,000000	9,451200
1577,000000	9,465800
1576,000000	9,466400
1575,000000	9,455300
1574,000000	9,451900
1573,000000	9,465500
1572,000000	9,461500
1571,000000	9,478800
1570,000000	9,493400
1569,000000	9,498600
1568,000000	9,517800
1567,000000	9,527000
1566,000000	9,524500
1565,000000	9,539700
1564,000000	9,563900
1563,000000	9,572300
1562,000000	9,577700
1561,000000	9,578200
1560,000000	9,581200
1559,000000	9,593200
1558,000000	9,618600
1557,000000	9,638600
1556,000000	9,633400
1555,000000	9,637800
1554,000000	9,649600
1553,000000	9,646300
1552,000000	9,661700
1551,000000	9,672700
1550,000000	9,675400
1549,000000	9,670700
1548,000000	9,670400
1547,000000	9,680900
1546,000000	9,684000
1545,000000	9,692400
1544,000000	9,691000
1543,000000	9,696300
1542,000000	9,704000
1541,000000	9,719000
1540,000000	9,740200
1539,000000	9,744100
1538,000000	9,743300
1537,000000	9,755000
1536,000000	9,760500
1535,000000	9,777200
1534,000000	9,792800
1533,000000	9,791600
1532,000000	9,793000
1531,000000	9,796600
1530,000000	9,810400
1529,000000	9,812900
1528,000000	9,812500
1527,000000	9,832100
1526,000000	9,840500
1525,000000	9,824800
1524,000000	9,844000
1523,000000	9,867400
1522,000000	9,854600
1521,000000	9,844000
1520,000000	9,858100
1519,000000	9,848200
1518,000000	9,851300
1517,000000	9,873400
1516,000000	9,872000
1515,000000	9,868400
1514,000000	9,866800
1513,000000	9,862700
1512,000000	9,863300
1511,000000	9,864000
1510,000000	9,871800
1509,000000	9,862100
1508,000000	9,875700
1507,000000	9,875200
1506,000000	9,869200
1505,000000	9,866300
1504,000000	9,881200
1503,000000	9,870100
1502,000000	9,884100
1501,000000	9,893300
1500,000000	9,886300
1499,000000	9,874700
1498,000000	9,888500
1497,000000	9,895300
1496,000000	9,907000
1495,000000	9,916300
1494,000000	9,915200
1493,000000	9,909300
1492,000000	9,926800
1491,000000	9,926300
1490,000000	9,946500
1489,000000	9,953400
1488,000000	9,964300
1487,000000	9,978100
1486,000000	9,981300
1485,000000	9,984900
1484,000000	9,994400
1483,000000	10,009400
1482,000000	10,014600
1481,000000	10,040300
1480,000000	10,063800
1479,000000	10,065600
1478,000000	10,079400
1477,000000	10,111100
1476,000000	10,137100
1475,000000	10,147600
1474,000000	10,165100
1473,000000	10,164400
1472,000000	10,182900
1471,000000	10,202700
1470,000000	10,234000
1469,000000	10,252200
1468,000000	10,262700
1467,000000	10,284500
1466,000000	10,316700
1465,000000	10,308100
1464,000000	10,346400
1463,000000	10,394500
1462,000000	10,405200
1461,000000	10,447800
1460,000000	10,493900
1459,000000	10,528600
1458,000000	10,544200
1457,000000	10,602700
1456,000000	10,671900
1455,000000	10,709300
1454,000000	10,739900
1453,000000	10,813800
1452,000000	10,866100
1451,000000	10,927400
1450,000000	10,982600
1449,000000	11,033200
1448,000000	11,096300
1447,000000	11,181800
1446,000000	11,238500
1445,000000	11,324500
1444,000000	11,372600
1443,000000	11,461700
1442,000000	11,541600
1441,000000	11,602300
1440,000000	11,684600
1439,000000	11,734800
1438,000000	11,804900
1437,000000	11,891800
1436,000000	11,959000
1435,000000	12,007200
1434,000000	12,081800
1433,000000	12,166900
1432,000000	12,244500
1431,000000	12,282400
1430,000000	12,370200
1429,000000	12,451100
1428,000000	12,567100
1427,000000	12,652800
1426,000000	12,770600
1425,000000	12,930800
1424,000000	13,034000
1423,000000	13,143000
1422,000000	13,265100
1421,000000	13,377300
1420,000000	13,502500
1419,000000	13,621300
1418,000000	13,739200
1417,000000	13,820500
1416,000000	13,941000
1415,000000	14,042200
1414,000000	14,136600
1413,000000	14,240100
1412,000000	14,304300
1411,000000	14,405400
1410,000000	14,499300
1409,000000	14,687700
1408,000000	14,820400
1407,000000	15,032900
1406,000000	15,220800
1405,000000	15,424900
1404,000000	15,606900
1403,000000	15,832800
1402,000000	15,999300
1401,000000	16,237100
1400,000000	16,406800
1399,000000	16,509900
1398,000000	16,569900
1397,000000	16,659800
1396,000000	16,730500
1395,000000	16,746800
1394,000000	16,690000
1393,000000	16,658400
1392,000000	16,669200
1391,000000	16,649800
1390,000000	16,676500
1389,000000	16,704600
1388,000000	16,798100
1387,000000	16,896800
1386,000000	17,013000
1385,000000	17,188900
1384,000000	17,453000
1383,000000	17,708800
1382,000000	17,943900
1381,000000	18,126200
1380,000000	18,284200
1379,000000	18,449900
1378,000000	18,602200
1377,000000	18,772300
1376,000000	19,029400
1375,000000	19,355700
1374,000000	19,744300
1373,000000	20,180400
1372,000000	20,674200
1371,000000	21,144700
1370,000000	21,585900
1369,000000	21,990600
1368,000000	22,329300
1367,000000	22,623300
1366,000000	22,868100
1365,000000	23,109200
1364,000000	23,315400
1363,000000	23,499000
1362,000000	23,675400
1361,000000	23,784800
1360,000000	23,859900
1359,000000	23,912800
1358,000000	24,005400
1357,000000	24,181600
1356,000000	24,499000
1355,000000	24,981700
1354,000000	25,591400
1353,000000	26,273800
1352,000000	27,037500
1351,000000	27,747100
1350,000000	28,425600
1349,000000	29,041100
1348,000000	29,632900
1347,000000	30,146300
1346,000000	30,620800
1345,000000	31,064800
1344,000000	31,541000
1343,000000	31,959100
1342,000000	32,346800
1341,000000	32,744100
1340,000000	33,112900
1339,000000	33,464500
1338,000000	33,808900
1337,000000	34,142800
1336,000000	34,464700
1335,000000	34,767700
1334,000000	35,065300
1333,000000	35,320200
1332,000000	35,579900
1331,000000	35,834100
1330,000000	36,066300
1329,000000	36,291600
1328,000000	36,497700
1327,000000	36,689000
1326,000000	36,889000
1325,000000	37,060700
1324,000000	37,231300
1323,000000	37,391900
1322,000000	37,537900
1321,000000	37,695200
1320,000000	37,836300
1319,000000	37,952200
1318,000000	38,074200
1317,000000	38,187100
1316,000000	38,293000
1315,000000	38,389600
1314,000000	38,492800
1313,000000	38,579900
1312,000000	38,656600
1311,000000	38,735800
1310,000000	38,790800
1309,000000	38,838200
1308,000000	38,900500
1307,000000	38,952700
1306,000000	38,984500
1305,000000	39,006300
1304,000000	39,020500
1303,000000	39,024500
1302,000000	39,012900
1301,000000	38,997900
1300,000000	38,985800
1299,000000	38,966100
1298,000000	38,947400
1297,000000	38,918700
1296,000000	38,888600
1295,000000	38,853800
1294,000000	38,810300
1293,000000	38,778700
1292,000000	38,739900
1291,000000	38,689600
1290,000000	38,627400
1289,000000	38,557100
1288,000000	38,467900
1287,000000	38,376800
1286,000000	38,285900
1285,000000	38,170500
1284,000000	38,061400
1283,000000	37,950100
1282,000000	37,831500
1281,000000	37,717500
1280,000000	37,596600
1279,000000	37,475300
1278,000000	37,358500
1277,000000	37,251400
1276,000000	37,146600
1275,000000	37,041800
1274,000000	36,948600
1273,000000	36,866300
1272,000000	36,787700
1271,000000	36,688600
1270,000000	36,595500
1269,000000	36,504700
1268,000000	36,413300
1267,000000	36,322200
1266,000000	36,241100
1265,000000	36,143600
1264,000000	36,049600
1263,000000	35,970700
1262,000000	35,867800
1261,000000	35,772600
1260,000000	35,696600
1259,000000	35,605400
1258,000000	35,516800
1257,000000	35,425800
1256,000000	35,319900
1255,000000	35,209500
1254,000000	35,118100
1253,000000	35,010200
1252,000000	34,881200
1251,000000	34,746600
1250,000000	34,638000
1249,000000	34,511800
1248,000000	34,361900
1247,000000	34,216000
1246,000000	34,043800
1245,000000	33,869000
1244,000000	33,698900
1243,000000	33,507400
1242,000000	33,291500
1241,000000	33,079800
1240,000000	32,863200
1239,000000	32,654700
1238,000000	32,412600
1237,000000	32,166200
1236,000000	31,921900
1235,000000	31,697400
1234,000000	31,447000
1233,000000	31,182300
1232,000000	30,944900
1231,000000	30,693600
1230,000000	30,435400
1229,000000	30,182500
1228,000000	29,928400
1227,000000	29,654000
1226,000000	29,424500
1225,000000	29,188400
1224,000000	28,950300
1223,000000	28,726400
1222,000000	28,495200
1221,000000	28,287100
1220,000000	28,051300
1219,000000	27,864500
1218,000000	27,705700
1217,000000	27,527600
1216,000000	27,371000
1215,000000	27,226300
1214,000000	27,097800
1213,000000	26,963700
1212,000000	26,853300
1211,000000	26,739500
1210,000000	26,646800
1209,000000	26,561900
1208,000000	26,490900
1207,000000	26,445900
1206,000000	26,412900
1205,000000	26,425900
1204,000000	26,428000
1203,000000	26,452800
1202,000000	26,445300
1201,000000	26,458300
1200,000000	26,432900
1199,000000	26,381400
1198,000000	26,284400
1197,000000	26,173200
1196,000000	25,956500
1195,000000	25,670800
1194,000000	25,326300
1193,000000	24,881300
1192,000000	24,362600
1191,000000	23,824300
1190,000000	23,290700
1189,000000	22,854800
1188,000000	22,511500
1187,000000	22,321100
1186,000000	22,281500
1185,000000	22,365100
1184,000000	22,599100
1183,000000	22,994700
1182,000000	23,506600
1181,000000	24,129400
1180,000000	24,696300
1179,000000	25,307000
1178,000000	25,860500
1177,000000	26,338600
1176,000000	26,755700
1175,000000	27,144400
1174,000000	27,546500
1173,000000	27,944300
1172,000000	28,358700
1171,000000	28,843700
1170,000000	29,299500
1169,000000	29,796400
1168,000000	30,283900
1167,000000	30,791300
1166,000000	31,310600
1165,000000	31,814700
1164,000000	32,362300
1163,000000	32,913300
1162,000000	33,499500
1161,000000	34,020800
1160,000000	34,580000
1159,000000	35,083000
1158,000000	35,590200
1157,000000	36,062900
1156,000000	36,464800
1155,000000	36,773900
1154,000000	36,985300
1153,000000	37,103200
1152,000000	37,129600
1151,000000	37,103200
1150,000000	37,062000
1149,000000	37,005200
1148,000000	36,976400
1147,000000	37,005300
1146,000000	37,155200
1145,000000	37,443500
1144,000000	37,840400
1143,000000	38,363100
1142,000000	38,925300
1141,000000	39,502000
1140,000000	40,098800
1139,000000	40,719700
1138,000000	41,363500
1137,000000	42,032400
1136,000000	42,714200
1135,000000	43,384200
1134,000000	44,011700
1133,000000	44,539300
1132,000000	45,062200
1131,000000	45,578100
1130,000000	46,006100
1129,000000	46,365900
1128,000000	46,684900
1127,000000	46,947100
1126,000000	47,139200
1125,000000	47,287900
1124,000000	47,445200
1123,000000	47,587200
1122,000000	47,718900
1121,000000	47,829300
1120,000000	47,931600
1119,000000	48,025500
1118,000000	48,078100
1117,000000	48,127100
1116,000000	48,144800
1115,000000	48,168400
1114,000000	48,179700
1113,000000	48,186500
1112,000000	48,206900
1111,000000	48,231000
1110,000000	48,253100
1109,000000	48,253000
1108,000000	48,256200
1107,000000	48,282000
1106,000000	48,300500
1105,000000	48,302800
1104,000000	48,310000
1103,000000	48,318100
1102,000000	48,322200
1101,000000	48,317800
1100,000000	48,307200
1099,000000	48,285800
1098,000000	48,294700
1097,000000	48,269400
1096,000000	48,248300
1095,000000	48,224000
1094,000000	48,192800
1093,000000	48,171500
1092,000000	48,113900
1091,000000	48,073500
1090,000000	48,040700
1089,000000	47,989900
1088,000000	47,922400
1087,000000	47,883700
1086,000000	47,821100
1085,000000	47,769700
1084,000000	47,700000
1083,000000	47,653400
1082,000000	47,602000
1081,000000	47,575000
1080,000000	47,537500
1079,000000	47,490900
1078,000000	47,453200
1077,000000	47,424500
1076,000000	47,413000
1075,000000	47,372100
1074,000000	47,338000
1073,000000	47,317800
1072,000000	47,288200
1071,000000	47,253600
1070,000000	47,223600
1069,000000	47,199400
1068,000000	47,174900
1067,000000	47,156000
1066,000000	47,131400
1065,000000	47,104400
1064,000000	47,076300
1063,000000	47,055800
1062,000000	47,028600
1061,000000	46,994900
1060,000000	46,964800
1059,000000	46,940500
1058,000000	46,914500
1057,000000	46,879000
1056,000000	46,852900
1055,000000	46,824700
1054,000000	46,782700
1053,000000	46,767100
1052,000000	46,750600
1051,000000	46,744200
1050,000000	46,749500
1049,000000	46,759200
1048,000000	46,774000
1047,000000	46,787500
1046,000000	46,803900
1045,000000	46,823100
1044,000000	46,847000
1043,000000	46,862700
1042,000000	46,882700
1041,000000	46,911100
1040,000000	46,933500
1039,000000	46,950000
1038,000000	46,976500
1037,000000	46,992900
1036,000000	46,998500
1035,000000	47,020100
1034,000000	47,036900
1033,000000	47,046400
1032,000000	47,046400
1031,000000	47,057900
1030,000000	47,067100
1029,000000	47,062100
1028,000000	47,068500
1027,000000	47,062000
1026,000000	47,051300
1025,000000	47,031000
1024,000000	47,013200
1023,000000	46,986800
1022,000000	46,963900
1021,000000	46,945200
1020,000000	46,935900
1019,000000	46,947200
1018,000000	46,944500
1017,000000	46,942400
1016,000000	46,958800
1015,000000	46,980400
1014,000000	47,031000
1013,000000	47,098300
1012,000000	47,168000
1011,000000	47,239600
1010,000000	47,325300
1009,000000	47,443300
1008,000000	47,568600
1007,000000	47,686400
1006,000000	47,804800
1005,000000	47,918900
1004,000000	48,017100
1003,000000	48,131200
1002,000000	48,239600
1001,000000	48,344400
1000,000000	48,453200
999,000000	48,548900
998,000000	48,641300
997,000000	48,746600
996,000000	48,858100
995,000000	48,941300
994,000000	49,045500
993,000000	49,145800
992,000000	49,251900
991,000000	49,382800
990,000000	49,492000
989,000000	49,603800
988,000000	49,722900
987,000000	49,846700
986,000000	49,981300
985,000000	50,096500
984,000000	50,215700
983,000000	50,348300
982,000000	50,488600
981,000000	50,593100
980,000000	50,682600
979,000000	50,796300
978,000000	50,879500
977,000000	50,977700
976,000000	51,077200
975,000000	51,171600
974,000000	51,234800
973,000000	51,338900
972,000000	51,416500
971,000000	51,516000
970,000000	51,601100
969,000000	51,660000
968,000000	51,772500
967,000000	51,856900
966,000000	51,914900
965,000000	52,003100
964,000000	52,092400
963,000000	52,160600
962,000000	52,260400
961,000000	52,357200
960,000000	52,428200
959,000000	52,503500
958,000000	52,576300
957,000000	52,626400
956,000000	52,679100
955,000000	52,739600
954,000000	52,753400
953,000000	52,791500
952,000000	52,785000
951,000000	52,762500
950,000000	52,785200
949,000000	52,764000
948,000000	52,752800
947,000000	52,775400
946,000000	52,771500
945,000000	52,775600
944,000000	52,790500
943,000000	52,788200
942,000000	52,804100
941,000000	52,801700
940,000000	52,792900
939,000000	52,793900
938,000000	52,813000
937,000000	52,818100
936,000000	52,835700
935,000000	52,855700
934,000000	52,868900
933,000000	52,911100
932,000000	52,923600
931,000000	52,939500
930,000000	53,005600
929,000000	53,012300
928,000000	53,045500
927,000000	53,073300
926,000000	53,144500
925,000000	53,171200
924,000000	53,229300
923,000000	53,275000
922,000000	53,337700
921,000000	53,377400
920,000000	53,437800
919,000000	53,465800
918,000000	53,478400
917,000000	53,529400
916,000000	53,529800
915,000000	53,550300
914,000000	53,556500
913,000000	53,544000
912,000000	53,580200
911,000000	53,566000
910,000000	53,610700
909,000000	53,650700
908,000000	53,714100
907,000000	53,828000
906,000000	53,912800
905,000000	54,050200
904,000000	54,160900
903,000000	54,315900
902,000000	54,475100
901,000000	54,638200
900,000000	54,791100
899,000000	54,943800
898,000000	55,096700
897,000000	55,225700
896,000000	55,372400
895,000000	55,519400
894,000000	55,630700
893,000000	55,765600
892,000000	55,847400
891,000000	55,958000
890,000000	56,078700
889,000000	56,172900
888,000000	56,273100
887,000000	56,376500
886,000000	56,483300
885,000000	56,565800
884,000000	56,675900
883,000000	56,776100
882,000000	56,894000
881,000000	56,988600
880,000000	57,092600
879,000000	57,204300
878,000000	57,345800
877,000000	57,445900
876,000000	57,601100
875,000000	57,702000
874,000000	57,825100
873,000000	57,977600
872,000000	58,152800
871,000000	58,316300
870,000000	58,531200
869,000000	58,711600
868,000000	58,930100
867,000000	59,176300
866,000000	59,426600
865,000000	59,654300
864,000000	59,937700
863,000000	60,183200
862,000000	60,475100
861,000000	60,736800
860,000000	60,993600
859,000000	61,245000
858,000000	60,975500
857,000000	58,346000
856,000000	58,702700
855,000000	59,056400
854,000000	59,337200
853,000000	59,434800
852,000000	59,339400
851,000000	59,741000
850,000000	59,910800
849,000000	59,747800
848,000000	60,103700
847,000000	60,348400
846,000000	60,465700
845,000000	60,119600
844,000000	60,104700
843,000000	60,334200
842,000000	60,480200
841,000000	60,531700
840,000000	60,477800
839,000000	60,566100
838,000000	60,438800
837,000000	60,595100
836,000000	60,602600
835,000000	60,413300
834,000000	60,227100
833,000000	60,160400
832,000000	60,036900
831,000000	60,093500
830,000000	59,968100
829,000000	59,937000
828,000000	59,940700
827,000000	59,760000
826,000000	59,795400
825,000000	59,769700
824,000000	59,869600
823,000000	59,916100
822,000000	59,961300
821,000000	60,091300
820,000000	60,102400
819,000000	60,303200
818,000000	60,303900
817,000000	60,436500
816,000000	60,562100
815,000000	60,531600
814,000000	60,580100
813,000000	60,632800
812,000000	60,567400
811,000000	60,490500
810,000000	60,465300
809,000000	60,521400
808,000000	60,420400
807,000000	60,348300
806,000000	60,361000
805,000000	60,232900
804,000000	60,184100
803,000000	60,233800
802,000000	60,245600
801,000000	60,167100
800,000000	60,193500
799,000000	60,065200
798,000000	59,963700
797,000000	59,998300
796,000000	59,972800
795,000000	59,772100
794,000000	59,743400
793,000000	59,630400
792,000000	59,458500
791,000000	59,422800
790,000000	59,345200
789,000000	59,234500
788,000000	59,220200
787,000000	59,184100
786,000000	59,018900
785,000000	58,959600
784,000000	59,031200
783,000000	59,079700
782,000000	59,154000
781,000000	59,210400
780,000000	59,317600
779,000000	59,441200
778,000000	59,438200
777,000000	59,449000
776,000000	59,471300
775,000000	59,528600
774,000000	59,525000
773,000000	59,398900
772,000000	59,297400
771,000000	59,209500
770,000000	59,058800
769,000000	58,896500
768,000000	58,730600
767,000000	58,539500
766,000000	58,379000
765,000000	58,247300
764,000000	58,043100
763,000000	57,917600
762,000000	57,801100
761,000000	57,662500
760,000000	57,557700
759,000000	57,372600
758,000000	57,145300
757,000000	56,968600
756,000000	56,785100
755,000000	56,546700
754,000000	56,249200
753,000000	55,974900
752,000000	55,676500
751,000000	55,307700
750,000000	54,926600
749,000000	54,567300
748,000000	54,215800
747,000000	53,811700
746,000000	53,426100
745,000000	53,113200
744,000000	52,810300
743,000000	52,513300
742,000000	52,316300
741,000000	52,102300
740,000000	51,841500
739,000000	51,661700
738,000000	51,483900
737,000000	51,320100
736,000000	51,130300
735,000000	50,871200
734,000000	50,670700
733,000000	50,429800
732,000000	50,166600
731,000000	49,866500
730,000000	49,531600
729,000000	49,260700
728,000000	48,961600
727,000000	48,700900
726,000000	48,477500
725,000000	48,235500
724,000000	48,005300
723,000000	47,819100
722,000000	47,770800
721,000000	47,733300
720,000000	47,716400
719,000000	47,739900
718,000000	47,814700
717,000000	47,883800
716,000000	47,931000
715,000000	47,968200
714,000000	48,045500
713,000000	48,102700
712,000000	48,081200
711,000000	48,027500
710,000000	47,953100
709,000000	47,963200
708,000000	47,854100
707,000000	47,677900
706,000000	47,572100
705,000000	47,436000
704,000000	47,308000
703,000000	47,201600
702,000000	47,108800
701,000000	47,058600
700,000000	47,091500
699,000000	47,178800
698,000000	47,235100
697,000000	47,369100
696,000000	47,553000
695,000000	47,683600
694,000000	47,776500
693,000000	47,845800
692,000000	47,918700
691,000000	47,918500
690,000000	47,791100
689,000000	47,650700
688,000000	47,452100
687,000000	47,208100
686,000000	46,937200
685,000000	46,601000
684,000000	46,272100
683,000000	45,963600
682,000000	45,667800
681,000000	45,468700
680,000000	45,329600
679,000000	45,221100
678,000000	45,144900
677,000000	45,091400
676,000000	45,002200
675,000000	44,923100
674,000000	44,805500
673,000000	44,672600
672,000000	44,379400
671,000000	43,992500
670,000000	43,546400
669,000000	42,955200
668,000000	42,330000
667,000000	41,659600
666,000000	40,919200
665,000000	40,181500
664,000000	39,469600
663,000000	38,825000
662,000000	38,259600
661,000000	37,760900
660,000000	37,388800
659,000000	37,118800
658,000000	36,899000
657,000000	36,742500
656,000000	36,603000
655,000000	36,486400
654,000000	36,332900
653,000000	36,174200
652,000000	35,991700
651,000000	35,786300
650,000000	35,590400
649,000000	35,398000
648,000000	35,221100
647,000000	35,082100
646,000000	35,059100
645,000000	35,118700
644,000000	35,307100
643,000000	35,671400
642,000000	36,176400
641,000000	36,800300
640,000000	37,573300
639,000000	38,397400
638,000000	39,274800
637,000000	40,151100
636,000000	41,042000
635,000000	41,838500
634,000000	42,601600
633,000000	43,335600
632,000000	43,942000
631,000000	44,453100
630,000000	44,958100
629,000000	45,382900
628,000000	45,807800
627,000000	46,223000
626,000000	46,699900
625,000000	47,245200
624,000000	47,890100
623,000000	48,579900
622,000000	49,341600
621,000000	50,131600
620,000000	50,936300
619,000000	51,658700
618,000000	52,416000
617,000000	53,081400
616,000000	53,730200
615,000000	54,306900
614,000000	54,804700
613,000000	55,240400
612,000000	55,638100
611,000000	56,038400
610,000000	56,360600
609,000000	56,669500
608,000000	56,931900
607,000000	57,206100
606,000000	57,557000
605,000000	57,813100
604,000000	58,111000
603,000000	58,446000
602,000000	58,704400
601,000000	58,993500
600,000000	59,271900
599,000000	59,466800
598,000000	59,742600
597,000000	59,901100
596,000000	60,122000
595,000000	60,239100
594,000000	60,394000
593,000000	60,482800
592,000000	60,566400
591,000000	60,579400
590,000000	60,632600
589,000000	60,626100
588,000000	60,609000
587,000000	60,619100
586,000000	60,596800
585,000000	60,578100
584,000000	60,494900
583,000000	60,479200
582,000000	60,404600
581,000000	60,355900
580,000000	60,266800
579,000000	60,220300
578,000000	60,139000
577,000000	60,053100
576,000000	59,995200
575,000000	59,877500
574,000000	59,735900
573,000000	59,679500
572,000000	59,581400
571,000000	59,461300
570,000000	59,278100
569,000000	59,148800
568,000000	58,982800
567,000000	58,807500
566,000000	58,607100
565,000000	58,358500
564,000000	58,149200
563,000000	57,897000
562,000000	57,616500
561,000000	57,319000
560,000000	57,022000
559,000000	56,647800
558,000000	56,299100
557,000000	55,984700
556,000000	55,590500
555,000000	55,222900
554,000000	54,817100
553,000000	54,412200
552,000000	53,959800
551,000000	53,513800
550,000000	53,014100
549,000000	52,527700
548,000000	52,007700
547,000000	51,473800
546,000000	50,907900
545,000000	50,306600
544,000000	49,695700
543,000000	49,053400
542,000000	48,391900
541,000000	47,689200
540,000000	46,993400
539,000000	46,265800
538,000000	45,556200
537,000000	44,797000
536,000000	44,018500
535,000000	43,218700
534,000000	42,434600
533,000000	41,625900
532,000000	40,797700
531,000000	39,956900
530,000000	39,084300
529,000000	38,192200
528,000000	37,321900
527,000000	36,455600
526,000000	35,550800
525,000000	34,648600
524,000000	33,735900
523,000000	32,835700
522,000000	31,920200
521,000000	31,011800
520,000000	30,125500
519,000000	29,222300
518,000000	28,348700
517,000000	27,490300
516,000000	26,658600
515,000000	25,827900
514,000000	25,047000
513,000000	24,302900
512,000000	23,595200
511,000000	22,938900
510,000000	22,359900
509,000000	21,866000
508,000000	21,464000
507,000000	21,124200
506,000000	20,863000
505,000000	20,684900
504,000000	20,578400
503,000000	20,521100
502,000000	20,527600
501,000000	20,552000
500,000000	20,617600
499,000000	20,704800
498,000000	20,814400
497,000000	20,926500
496,000000	21,027500
495,000000	21,123900
494,000000	21,223500
493,000000	21,301600
492,000000	21,349400
491,000000	21,392500
490,000000	21,438600
489,000000	21,441600
488,000000	21,427900
487,000000	21,393700
486,000000	21,365200
485,000000	21,315400
484,000000	21,252400
483,000000	21,162200
482,000000	21,050600
481,000000	20,933500
480,000000	20,793600
479,000000	20,648000
478,000000	20,516900
477,000000	20,396800
476,000000	20,268500
475,000000	20,135500
474,000000	19,995100
473,000000	19,847100
472,000000	19,701200
471,000000	19,560200
470,000000	19,411400
469,000000	19,257300
468,000000	19,108200
467,000000	18,963100
466,000000	18,818900
465,000000	18,672200
464,000000	18,517200
463,000000	18,367300
462,000000	18,219900
461,000000	18,055500
460,000000	17,897600
459,000000	17,735300
458,000000	17,555500
457,000000	17,372700
456,000000	17,199200
455,000000	17,009900
454,000000	16,789100
453,000000	16,572600
452,000000	16,361100
451,000000	16,130700
450,000000	15,870600
449,000000	15,601500
448,000000	15,339700
447,000000	15,066100
446,000000	14,767900
445,000000	14,471500
444,000000	14,155800
443,000000	13,822400
442,000000	13,465400
441,000000	13,095600
440,000000	12,736600
439,000000	12,383500
438,000000	12,027000
437,000000	11,660100
436,000000	11,294000
435,000000	10,938500
434,000000	10,596300
433,000000	10,251000
432,000000	9,912200
431,000000	9,584600
430,000000	9,264700
429,000000	8,955800
428,000000	8,672500
427,000000	8,406200
426,000000	8,151500
425,000000	7,911700
424,000000	7,684000
423,000000	7,461800
422,000000	7,273300
421,000000	7,100300
420,000000	6,937200
419,000000	6,791400
418,000000	6,665500
417,000000	6,548000
416,000000	6,423000
415,000000	6,321000
414,000000	6,233700
413,000000	6,156800
412,000000	6,092900
411,000000	6,026200
410,000000	5,970300
409,000000	5,918500
408,000000	5,862400
407,000000	5,818300
406,000000	5,783400
405,000000	5,752300
404,000000	5,720400
403,000000	5,693300
402,000000	5,651500
401,000000	5,632800
400,000000	5,617400
399,000000	5,595800
398,000000	5,571500
397,000000	5,547800
396,000000	5,533500
395,000000	5,522700
394,000000	5,501300
393,000000	5,474300
392,000000	5,452500
391,000000	5,425000
390,000000	5,414300
389,000000	5,413400
388,000000	5,387900
387,000000	5,373600
386,000000	5,346500
385,000000	5,332000
384,000000	5,331000
383,000000	5,306700
382,000000	5,295300
381,000000	5,279000
380,000000	5,246200
379,000000	5,231700
378,000000	5,220400
377,000000	5,195700
376,000000	5,302000
375,000000	5,278800
374,000000	5,295700
373,000000	5,324500
372,000000	5,274700
371,000000	5,183500
370,000000	5,232000
369,000000	5,248200
368,000000	5,231900
367,000000	5,220100
366,000000	5,185100
365,000000	5,180100
364,000000	5,189500
363,000000	5,247500
362,000000	5,230900
361,000000	5,174600
360,000000	5,146100
359,000000	5,155400
358,000000	5,231200
357,000000	5,163100
356,000000	5,201300
355,000000	5,188600
354,000000	5,096900
353,000000	5,088600
352,000000	5,125700
351,000000	5,130800
350,000000	5,117500
349,000000	4,992600
348,000000	5,051600
347,000000	5,125000
346,000000	5,008700
345,000000	5,045300
344,000000	5,083100
343,000000	5,077300
342,000000	5,094600
341,000000	5,082400
340,000000	5,092600
339,000000	5,019000
338,000000	5,098300
337,000000	5,088500
336,000000	5,118100
335,000000	5,069600
334,000000	5,089500
333,000000	5,160100
332,000000	5,029600
331,000000	5,139500
330,000000	5,014600
329,000000	5,134200
328,000000	5,052400
327,000000	5,053400
326,000000	5,163800
325,000000	5,166800
324,000000	5,099500
323,000000	5,170600
322,000000	5,145200
321,000000	5,147200
320,000000	5,080000
319,000000	5,310300
318,000000	5,513800
317,000000	5,172100
316,000000	4,893700
315,000000	4,834000
314,000000	4,893200
313,000000	4,891800
312,000000	4,889600
311,000000	4,906700
310,000000	4,890500
309,000000	4,877400
308,000000	4,868000
307,000000	4,880300
306,000000	4,880600
305,000000	4,872500
304,000000	4,853400
303,000000	4,896600
302,000000	4,896600
301,000000	4,933200
300,000000	4,895000
299,000000	4,901700
298,000000	4,922600
297,000000	4,907200
296,000000	4,910600
295,000000	4,869900
294,000000	4,931300
293,000000	4,895700
292,000000	4,893100
291,000000	4,894700
290,000000	4,937000
289,000000	4,906200
288,000000	4,928600
287,000000	4,942000
286,000000	4,916900
285,000000	4,956400
284,000000	4,953100
283,000000	4,913300
282,000000	4,996200
281,000000	4,989000
280,000000	4,987000
279,000000	5,019200
278,000000	5,055700
277,000000	5,083200
276,000000	5,002900
275,000000	5,055500
274,000000	5,045800
273,000000	5,081100
272,000000	5,076600
271,000000	5,081600
270,000000	5,138200
269,000000	5,143700
268,000000	5,163000
267,000000	5,179100
266,000000	5,203700
265,000000	5,208600
264,000000	5,251500
263,000000	5,226000
262,000000	5,273000
261,000000	5,282400
260,000000	5,308600
259,000000	5,374500
258,000000	5,331000
257,000000	5,387700
256,000000	5,350700
255,000000	5,395100
254,000000	5,353200
253,000000	5,369000
252,000000	5,401300
251,000000	5,339900
250,000000	5,407800
