PE UV       SUBTECH     SPECTRUM    ASCII       PEDS        4.00        
   -1
CICIMAUCR0008-1.Sample.ASC
24/03/08
13:07:07.00
24/03/08
13:07:07.00
Vinicio Soto Monge
C. kalinini
250,000000
1
Lambda 1050
1050L1511233
PerkinElmer UV WinLab 6.3.2.0749 / 2.02.05 Lambda 900 UV/VIS/NIR, Aug  7 2015 09:38:08

0
0
3350/servo 860,8/2
0
0
UV/VIS
1
1
1
DoubleDePol,CommonBeamDepol,RBeamAtt,SBeamAtt,60mm sphere, WB InGaAs Detector
0
0
0
0
Program
Program
3350/servo 860,8/2
3350/0,2 860,8/0,2
3350/0,2 860,8/0,2
0
15.00
 
 
 
0
 
860,8
319,2
860,8
Front
100
on
S:100 R:100
0
0
0
0
 
0
 
 
 
0
 
 
0
0
0
0
0
 
 
 
 
0
0


0
0
#HDR
-1
-1
#GR
nm
%R
1.0
0.0
2500,000000
-1,000000
2251
8
36,165400
2,347300
#DATA
2500,000000	2,410900
2499,000000	2,379200
2498,000000	2,513700
2497,000000	2,457500
2496,000000	2,413200
2495,000000	2,453400
2494,000000	2,496500
2493,000000	2,462800
2492,000000	2,478100
2491,000000	2,370000
2490,000000	2,434300
2489,000000	2,395200
2488,000000	2,388300
2487,000000	2,385800
2486,000000	2,404000
2485,000000	2,442900
2484,000000	2,426200
2483,000000	2,347300
2482,000000	2,391100
2481,000000	2,428700
2480,000000	2,430600
2479,000000	2,408200
2478,000000	2,413200
2477,000000	2,425800
2476,000000	2,395600
2475,000000	2,412600
2474,000000	2,453600
2473,000000	2,436100
2472,000000	2,406200
2471,000000	2,433600
2470,000000	2,435400
2469,000000	2,414400
2468,000000	2,459000
2467,000000	2,456700
2466,000000	2,447400
2465,000000	2,440300
2464,000000	2,463200
2463,000000	2,514700
2462,000000	2,503700
2461,000000	2,526700
2460,000000	2,547300
2459,000000	2,553200
2458,000000	2,580600
2457,000000	2,566100
2456,000000	2,601000
2455,000000	2,612900
2454,000000	2,667200
2453,000000	2,670600
2452,000000	2,659500
2451,000000	2,685400
2450,000000	2,737900
2449,000000	2,762000
2448,000000	2,763300
2447,000000	2,803100
2446,000000	2,840600
2445,000000	2,842500
2444,000000	2,868300
2443,000000	2,913000
2442,000000	2,924600
2441,000000	2,944200
2440,000000	2,969700
2439,000000	2,987600
2438,000000	3,006700
2437,000000	3,033600
2436,000000	3,068200
2435,000000	3,104400
2434,000000	3,117600
2433,000000	3,121500
2432,000000	3,141500
2431,000000	3,153700
2430,000000	3,183500
2429,000000	3,202200
2428,000000	3,225000
2427,000000	3,258000
2426,000000	3,272800
2425,000000	3,287200
2424,000000	3,317900
2423,000000	3,356500
2422,000000	3,395900
2421,000000	3,432400
2420,000000	3,449400
2419,000000	3,454800
2418,000000	3,471600
2417,000000	3,503900
2416,000000	3,523400
2415,000000	3,529900
2414,000000	3,554800
2413,000000	3,589700
2412,000000	3,606200
2411,000000	3,618100
2410,000000	3,639900
2409,000000	3,659500
2408,000000	3,657500
2407,000000	3,675700
2406,000000	3,701100
2405,000000	3,712800
2404,000000	3,729900
2403,000000	3,739700
2402,000000	3,768000
2401,000000	3,767400
2400,000000	3,788600
2399,000000	3,829300
2398,000000	3,831000
2397,000000	3,832200
2396,000000	3,847200
2395,000000	3,884000
2394,000000	3,909400
2393,000000	3,909200
2392,000000	3,893800
2391,000000	3,919000
2390,000000	3,937200
2389,000000	3,943500
2388,000000	3,957100
2387,000000	3,986600
2386,000000	3,996700
2385,000000	3,988500
2384,000000	3,994500
2383,000000	4,011600
2382,000000	4,015300
2381,000000	4,018300
2380,000000	4,007500
2379,000000	3,993900
2378,000000	4,005100
2377,000000	4,018400
2376,000000	4,007100
2375,000000	4,023700
2374,000000	4,028900
2373,000000	4,015700
2372,000000	4,009500
2371,000000	4,002000
2370,000000	3,987700
2369,000000	3,997300
2368,000000	4,001700
2367,000000	3,976000
2366,000000	3,962600
2365,000000	3,951500
2364,000000	3,935900
2363,000000	3,916900
2362,000000	3,907900
2361,000000	3,897400
2360,000000	3,885800
2359,000000	3,866600
2358,000000	3,857500
2357,000000	3,832500
2356,000000	3,806600
2355,000000	3,798200
2354,000000	3,787300
2353,000000	3,782600
2352,000000	3,765200
2351,000000	3,767400
2350,000000	3,784600
2349,000000	3,791300
2348,000000	3,792300
2347,000000	3,794000
2346,000000	3,826100
2345,000000	3,849600
2344,000000	3,855700
2343,000000	3,870600
2342,000000	3,887000
2341,000000	3,886600
2340,000000	3,899000
2339,000000	3,920500
2338,000000	3,945700
2337,000000	3,951600
2336,000000	3,928500
2335,000000	3,923300
2334,000000	3,944400
2333,000000	3,943700
2332,000000	3,930100
2331,000000	3,923000
2330,000000	3,916600
2329,000000	3,893900
2328,000000	3,884400
2327,000000	3,861600
2326,000000	3,836300
2325,000000	3,832800
2324,000000	3,804500
2323,000000	3,768200
2322,000000	3,749000
2321,000000	3,717200
2320,000000	3,669200
2319,000000	3,639900
2318,000000	3,590900
2317,000000	3,546200
2316,000000	3,518000
2315,000000	3,482500
2314,000000	3,446500
2313,000000	3,397400
2312,000000	3,357700
2311,000000	3,337200
2310,000000	3,330100
2309,000000	3,307500
2308,000000	3,285000
2307,000000	3,250600
2306,000000	3,247200
2305,000000	3,249100
2304,000000	3,240700
2303,000000	3,251300
2302,000000	3,265000
2301,000000	3,284300
2300,000000	3,305100
2299,000000	3,322600
2298,000000	3,335600
2297,000000	3,376500
2296,000000	3,396000
2295,000000	3,418700
2294,000000	3,438100
2293,000000	3,447900
2292,000000	3,469400
2291,000000	3,487200
2290,000000	3,491100
2289,000000	3,491800
2288,000000	3,491500
2287,000000	3,492100
2286,000000	3,463900
2285,000000	3,456900
2284,000000	3,433900
2283,000000	3,427800
2282,000000	3,393400
2281,000000	3,375800
2280,000000	3,348800
2279,000000	3,335400
2278,000000	3,296500
2277,000000	3,284800
2276,000000	3,254400
2275,000000	3,215500
2274,000000	3,208800
2273,000000	3,204800
2272,000000	3,187700
2271,000000	3,181600
2270,000000	3,160300
2269,000000	3,175400
2268,000000	3,181700
2267,000000	3,191100
2266,000000	3,203600
2265,000000	3,227800
2264,000000	3,261900
2263,000000	3,289400
2262,000000	3,342400
2261,000000	3,371500
2260,000000	3,408200
2259,000000	3,464400
2258,000000	3,514800
2257,000000	3,606300
2256,000000	3,645100
2255,000000	3,690100
2254,000000	3,770500
2253,000000	3,813600
2252,000000	3,864400
2251,000000	3,923600
2250,000000	3,957600
2249,000000	4,010700
2248,000000	4,077500
2247,000000	4,106500
2246,000000	4,154600
2245,000000	4,177500
2244,000000	4,222400
2243,000000	4,254500
2242,000000	4,289600
2241,000000	4,326000
2240,000000	4,340200
2239,000000	4,367800
2238,000000	4,372100
2237,000000	4,403700
2236,000000	4,418200
2235,000000	4,422200
2234,000000	4,446700
2233,000000	4,450700
2232,000000	4,446900
2231,000000	4,465100
2230,000000	4,437800
2229,000000	4,460600
2228,000000	4,430500
2227,000000	4,422100
2226,000000	4,402300
2225,000000	4,355800
2224,000000	4,370100
2223,000000	4,353600
2222,000000	4,325200
2221,000000	4,296400
2220,000000	4,276300
2219,000000	4,249000
2218,000000	4,224100
2217,000000	4,174700
2216,000000	4,146900
2215,000000	4,137900
2214,000000	4,128900
2213,000000	4,108200
2212,000000	4,095100
2211,000000	4,077600
2210,000000	4,093500
2209,000000	4,102500
2208,000000	4,108500
2207,000000	4,146900
2206,000000	4,191900
2205,000000	4,193400
2204,000000	4,224800
2203,000000	4,292600
2202,000000	4,348200
2201,000000	4,417400
2200,000000	4,455400
2199,000000	4,538600
2198,000000	4,599300
2197,000000	4,681800
2196,000000	4,739000
2195,000000	4,797900
2194,000000	4,855900
2193,000000	4,925100
2192,000000	4,983600
2191,000000	5,033700
2190,000000	5,100300
2189,000000	5,127600
2188,000000	5,181100
2187,000000	5,206400
2186,000000	5,233400
2185,000000	5,273300
2184,000000	5,293000
2183,000000	5,297100
2182,000000	5,331000
2181,000000	5,338100
2180,000000	5,363900
2179,000000	5,381600
2178,000000	5,384100
2177,000000	5,403000
2176,000000	5,405600
2175,000000	5,412500
2174,000000	5,425700
2173,000000	5,444700
2172,000000	5,450200
2171,000000	5,449600
2170,000000	5,449900
2169,000000	5,467200
2168,000000	5,476800
2167,000000	5,490300
2166,000000	5,522700
2165,000000	5,521900
2164,000000	5,538400
2163,000000	5,554100
2162,000000	5,568300
2161,000000	5,557600
2160,000000	5,583400
2159,000000	5,602500
2158,000000	5,618800
2157,000000	5,604500
2156,000000	5,619900
2155,000000	5,653100
2154,000000	5,666400
2153,000000	5,676100
2152,000000	5,693100
2151,000000	5,711300
2150,000000	5,732000
2149,000000	5,755700
2148,000000	5,773000
2147,000000	5,777500
2146,000000	5,794000
2145,000000	5,842300
2144,000000	5,859500
2143,000000	5,853700
2142,000000	5,870900
2141,000000	5,890900
2140,000000	5,909900
2139,000000	5,934200
2138,000000	5,960700
2137,000000	5,956900
2136,000000	5,964600
2135,000000	5,974300
2134,000000	5,988100
2133,000000	5,991300
2132,000000	6,004700
2131,000000	6,020900
2130,000000	6,008500
2129,000000	6,039300
2128,000000	6,042300
2127,000000	6,036300
2126,000000	6,041700
2125,000000	6,038900
2124,000000	6,032700
2123,000000	6,029800
2122,000000	6,047200
2121,000000	6,057800
2120,000000	6,044600
2119,000000	6,047500
2118,000000	6,043700
2117,000000	6,025800
2116,000000	6,020500
2115,000000	6,016200
2114,000000	6,019700
2113,000000	6,020200
2112,000000	6,010000
2111,000000	6,002800
2110,000000	5,983100
2109,000000	5,974200
2108,000000	5,976600
2107,000000	5,983100
2106,000000	5,958100
2105,000000	5,940600
2104,000000	5,956100
2103,000000	5,947300
2102,000000	5,934600
2101,000000	5,945900
2100,000000	5,947500
2099,000000	5,932700
2098,000000	5,928000
2097,000000	5,918200
2096,000000	5,901700
2095,000000	5,899800
2094,000000	5,918100
2093,000000	5,924100
2092,000000	5,917600
2091,000000	5,909400
2090,000000	5,897100
2089,000000	5,898100
2088,000000	5,894900
2087,000000	5,891400
2086,000000	5,903500
2085,000000	5,909700
2084,000000	5,892400
2083,000000	5,881400
2082,000000	5,879900
2081,000000	5,874900
2080,000000	5,867200
2079,000000	5,854300
2078,000000	5,857900
2077,000000	5,849200
2076,000000	5,829700
2075,000000	5,826200
2074,000000	5,822000
2073,000000	5,806500
2072,000000	5,802100
2071,000000	5,783600
2070,000000	5,784300
2069,000000	5,784800
2068,000000	5,765300
2067,000000	5,742100
2066,000000	5,728000
2065,000000	5,712400
2064,000000	5,710600
2063,000000	5,710700
2062,000000	5,697300
2061,000000	5,697000
2060,000000	5,694100
2059,000000	5,686400
2058,000000	5,673500
2057,000000	5,675300
2056,000000	5,683700
2055,000000	5,695400
2054,000000	5,727400
2053,000000	5,735500
2052,000000	5,736500
2051,000000	5,761800
2050,000000	5,803300
2049,000000	5,829600
2048,000000	5,865500
2047,000000	5,891900
2046,000000	5,923900
2045,000000	5,955400
2044,000000	6,009900
2043,000000	6,054400
2042,000000	6,116000
2041,000000	6,132900
2040,000000	6,165800
2039,000000	6,221200
2038,000000	6,247200
2037,000000	6,277800
2036,000000	6,307500
2035,000000	6,350400
2034,000000	6,383300
2033,000000	6,423500
2032,000000	6,449100
2031,000000	6,474200
2030,000000	6,481000
2029,000000	6,514900
2028,000000	6,546000
2027,000000	6,560000
2026,000000	6,573400
2025,000000	6,604800
2024,000000	6,619000
2023,000000	6,635700
2022,000000	6,661300
2021,000000	6,673700
2020,000000	6,676100
2019,000000	6,692600
2018,000000	6,696500
2017,000000	6,716900
2016,000000	6,713900
2015,000000	6,732900
2014,000000	6,721700
2013,000000	6,733300
2012,000000	6,719100
2011,000000	6,727200
2010,000000	6,729700
2009,000000	6,729400
2008,000000	6,715700
2007,000000	6,734300
2006,000000	6,717600
2005,000000	6,695400
2004,000000	6,691000
2003,000000	6,691400
2002,000000	6,677700
2001,000000	6,665500
2000,000000	6,648000
1999,000000	6,610100
1998,000000	6,613700
1997,000000	6,597700
1996,000000	6,553600
1995,000000	6,547000
1994,000000	6,531000
1993,000000	6,510100
1992,000000	6,478600
1991,000000	6,450700
1990,000000	6,430000
1989,000000	6,393600
1988,000000	6,369000
1987,000000	6,356700
1986,000000	6,320300
1985,000000	6,307200
1984,000000	6,264200
1983,000000	6,230400
1982,000000	6,191800
1981,000000	6,182900
1980,000000	6,160100
1979,000000	6,119200
1978,000000	6,093800
1977,000000	6,058500
1976,000000	6,026600
1975,000000	5,995500
1974,000000	5,958700
1973,000000	5,902400
1972,000000	5,919200
1971,000000	5,893200
1970,000000	5,859800
1969,000000	5,835500
1968,000000	5,790900
1967,000000	5,774400
1966,000000	5,752000
1965,000000	5,741000
1964,000000	5,679600
1963,000000	5,660400
1962,000000	5,640500
1961,000000	5,604400
1960,000000	5,578200
1959,000000	5,561300
1958,000000	5,514100
1957,000000	5,494800
1956,000000	5,489200
1955,000000	5,442700
1954,000000	5,434800
1953,000000	5,403600
1952,000000	5,368500
1951,000000	5,356900
1950,000000	5,329500
1949,000000	5,305600
1948,000000	5,283500
1947,000000	5,264000
1946,000000	5,239300
1945,000000	5,237000
1944,000000	5,204500
1943,000000	5,199300
1942,000000	5,191800
1941,000000	5,166000
1940,000000	5,182900
1939,000000	5,159400
1938,000000	5,167300
1937,000000	5,156400
1936,000000	5,154900
1935,000000	5,157600
1934,000000	5,168000
1933,000000	5,183400
1932,000000	5,206200
1931,000000	5,233100
1930,000000	5,250900
1929,000000	5,272800
1928,000000	5,280100
1927,000000	5,315900
1926,000000	5,330100
1925,000000	5,368800
1924,000000	5,409000
1923,000000	5,451300
1922,000000	5,498500
1921,000000	5,563300
1920,000000	5,612200
1919,000000	5,651900
1918,000000	5,700000
1917,000000	5,756100
1916,000000	5,831900
1915,000000	5,906100
1914,000000	5,955200
1913,000000	6,011500
1912,000000	6,101900
1911,000000	6,155300
1910,000000	6,230700
1909,000000	6,299400
1908,000000	6,375900
1907,000000	6,453400
1906,000000	6,577900
1905,000000	6,654700
1904,000000	6,729200
1903,000000	6,818400
1902,000000	6,903800
1901,000000	7,013400
1900,000000	7,102900
1899,000000	7,195500
1898,000000	7,283100
1897,000000	7,382700
1896,000000	7,485400
1895,000000	7,590400
1894,000000	7,702700
1893,000000	7,818400
1892,000000	7,920800
1891,000000	8,014500
1890,000000	8,117500
1889,000000	8,214500
1888,000000	8,353200
1887,000000	8,464700
1886,000000	8,599700
1885,000000	8,753900
1884,000000	8,907900
1883,000000	9,048700
1882,000000	9,208700
1881,000000	9,396800
1880,000000	9,568500
1879,000000	9,749100
1878,000000	9,909400
1877,000000	10,076100
1876,000000	10,230200
1875,000000	10,364800
1874,000000	10,490800
1873,000000	10,611400
1872,000000	10,731700
1871,000000	10,810200
1870,000000	10,866000
1869,000000	10,936600
1868,000000	10,998900
1867,000000	11,045500
1866,000000	11,121900
1865,000000	11,159300
1864,000000	11,208000
1863,000000	11,279000
1862,000000	11,321800
1861,000000	11,352200
1860,000000	11,386500
1859,000000	11,411000
1858,000000	11,403400
1857,000000	11,403100
1856,000000	11,412400
1855,000000	11,428300
1854,000000	11,424800
1853,000000	11,404400
1852,000000	11,391400
1851,000000	11,407100
1850,000000	11,433600
1849,000000	11,453400
1848,000000	11,411600
1847,000000	11,334500
1846,000000	11,281100
1845,000000	11,274000
1844,000000	11,296500
1843,000000	11,321400
1842,000000	11,327100
1841,000000	11,307500
1840,000000	11,268400
1839,000000	11,241900
1838,000000	11,242300
1837,000000	11,226600
1836,000000	11,183700
1835,000000	11,135100
1834,000000	11,112600
1833,000000	11,094000
1832,000000	11,079600
1831,000000	11,070400
1830,000000	11,037700
1829,000000	11,010300
1828,000000	10,967100
1827,000000	10,933700
1826,000000	10,907500
1825,000000	10,879300
1824,000000	10,863500
1823,000000	10,881100
1822,000000	10,889900
1821,000000	10,863900
1820,000000	10,826200
1819,000000	10,782900
1818,000000	10,787800
1817,000000	10,807700
1816,000000	10,809200
1815,000000	10,799500
1814,000000	10,789900
1813,000000	10,778400
1812,000000	10,786700
1811,000000	10,777800
1810,000000	10,752500
1809,000000	10,739400
1808,000000	10,730500
1807,000000	10,718600
1806,000000	10,698100
1805,000000	10,671800
1804,000000	10,657700
1803,000000	10,640300
1802,000000	10,624700
1801,000000	10,608600
1800,000000	10,579600
1799,000000	10,564600
1798,000000	10,542100
1797,000000	10,522800
1796,000000	10,502100
1795,000000	10,492800
1794,000000	10,493200
1793,000000	10,466800
1792,000000	10,458700
1791,000000	10,438400
1790,000000	10,415900
1789,000000	10,380500
1788,000000	10,380300
1787,000000	10,350100
1786,000000	10,336300
1785,000000	10,307100
1784,000000	10,299800
1783,000000	10,275400
1782,000000	10,242200
1781,000000	10,202000
1780,000000	10,192300
1779,000000	10,169100
1778,000000	10,145400
1777,000000	10,101700
1776,000000	10,053300
1775,000000	10,021000
1774,000000	9,979200
1773,000000	9,950400
1772,000000	9,907400
1771,000000	9,869400
1770,000000	9,816400
1769,000000	9,786700
1768,000000	9,767800
1767,000000	9,733200
1766,000000	9,695900
1765,000000	9,669900
1764,000000	9,656000
1763,000000	9,660400
1762,000000	9,662000
1761,000000	9,674500
1760,000000	9,698100
1759,000000	9,733800
1758,000000	9,758300
1757,000000	9,772400
1756,000000	9,804200
1755,000000	9,815200
1754,000000	9,833300
1753,000000	9,825600
1752,000000	9,830800
1751,000000	9,829500
1750,000000	9,829900
1749,000000	9,821000
1748,000000	9,797600
1747,000000	9,760100
1746,000000	9,743100
1745,000000	9,698300
1744,000000	9,676400
1743,000000	9,622900
1742,000000	9,546100
1741,000000	9,466800
1740,000000	9,403900
1739,000000	9,331600
1738,000000	9,259600
1737,000000	9,203200
1736,000000	9,155400
1735,000000	9,112100
1734,000000	9,110400
1733,000000	9,107900
1732,000000	9,131200
1731,000000	9,133200
1730,000000	9,157400
1729,000000	9,194700
1728,000000	9,234600
1727,000000	9,263600
1726,000000	9,307400
1725,000000	9,321800
1724,000000	9,325900
1723,000000	9,368600
1722,000000	9,375100
1721,000000	9,395700
1720,000000	9,371900
1719,000000	9,406200
1718,000000	9,404600
1717,000000	9,425000
1716,000000	9,442000
1715,000000	9,498900
1714,000000	9,499400
1713,000000	9,531000
1712,000000	9,568000
1711,000000	9,569000
1710,000000	9,577200
1709,000000	9,578300
1708,000000	9,588500
1707,000000	9,570800
1706,000000	9,572600
1705,000000	9,561300
1704,000000	9,549600
1703,000000	9,505100
1702,000000	9,470500
1701,000000	9,413900
1700,000000	9,367800
1699,000000	9,350200
1698,000000	9,278100
1697,000000	9,237400
1696,000000	9,201500
1695,000000	9,218800
1694,000000	9,230400
1693,000000	9,252500
1692,000000	9,271000
1691,000000	9,339500
1690,000000	9,367900
1689,000000	9,431400
1688,000000	9,465800
1687,000000	9,475600
1686,000000	9,469200
1685,000000	9,487100
1684,000000	9,524600
1683,000000	9,575200
1682,000000	9,670400
1681,000000	9,806700
1680,000000	9,983100
1679,000000	10,159900
1678,000000	10,349500
1677,000000	10,523500
1676,000000	10,674700
1675,000000	10,805000
1674,000000	10,925800
1673,000000	11,032800
1672,000000	11,136400
1671,000000	11,197500
1670,000000	11,272100
1669,000000	11,316100
1668,000000	11,417400
1667,000000	11,472700
1666,000000	11,524900
1665,000000	11,561100
1664,000000	11,584900
1663,000000	11,622100
1662,000000	11,635300
1661,000000	11,650100
1660,000000	11,666800
1659,000000	11,678200
1658,000000	11,687500
1657,000000	11,701000
1656,000000	11,694600
1655,000000	11,700700
1654,000000	11,715200
1653,000000	11,700900
1652,000000	11,711300
1651,000000	11,682100
1650,000000	11,692300
1649,000000	11,693900
1648,000000	11,662500
1647,000000	11,661300
1646,000000	11,651800
1645,000000	11,629300
1644,000000	11,616100
1643,000000	11,608100
1642,000000	11,580800
1641,000000	11,568400
1640,000000	11,541700
1639,000000	11,519500
1638,000000	11,508400
1637,000000	11,494200
1636,000000	11,473000
1635,000000	11,448400
1634,000000	11,449400
1633,000000	11,414300
1632,000000	11,389900
1631,000000	11,369200
1630,000000	11,339900
1629,000000	11,311000
1628,000000	11,307100
1627,000000	11,260100
1626,000000	11,243000
1625,000000	11,222400
1624,000000	11,201400
1623,000000	11,168500
1622,000000	11,137500
1621,000000	11,119700
1620,000000	11,082900
1619,000000	11,073700
1618,000000	11,063000
1617,000000	11,046600
1616,000000	11,009400
1615,000000	10,984900
1614,000000	10,978600
1613,000000	10,956100
1612,000000	10,940700
1611,000000	10,912600
1610,000000	10,892000
1609,000000	10,858200
1608,000000	10,831900
1607,000000	10,800000
1606,000000	10,785000
1605,000000	10,780500
1604,000000	10,751500
1603,000000	10,704100
1602,000000	10,693800
1601,000000	10,684300
1600,000000	10,665000
1599,000000	10,641600
1598,000000	10,609000
1597,000000	10,592800
1596,000000	10,572500
1595,000000	10,551400
1594,000000	10,527300
1593,000000	10,502100
1592,000000	10,484500
1591,000000	10,477400
1590,000000	10,453400
1589,000000	10,433000
1588,000000	10,414900
1587,000000	10,412500
1586,000000	10,407700
1585,000000	10,385000
1584,000000	10,378000
1583,000000	10,357500
1582,000000	10,338000
1581,000000	10,323400
1580,000000	10,308900
1579,000000	10,324100
1578,000000	10,319900
1577,000000	10,298900
1576,000000	10,305200
1575,000000	10,305000
1574,000000	10,299100
1573,000000	10,296900
1572,000000	10,282300
1571,000000	10,283100
1570,000000	10,291400
1569,000000	10,289500
1568,000000	10,290600
1567,000000	10,316000
1566,000000	10,330200
1565,000000	10,325800
1564,000000	10,330700
1563,000000	10,338200
1562,000000	10,346300
1561,000000	10,347500
1560,000000	10,351900
1559,000000	10,357900
1558,000000	10,373300
1557,000000	10,377600
1556,000000	10,366800
1555,000000	10,377300
1554,000000	10,379100
1553,000000	10,351300
1552,000000	10,348400
1551,000000	10,358400
1550,000000	10,350200
1549,000000	10,356200
1548,000000	10,349400
1547,000000	10,342200
1546,000000	10,350900
1545,000000	10,348400
1544,000000	10,333100
1543,000000	10,332600
1542,000000	10,331300
1541,000000	10,331800
1540,000000	10,325200
1539,000000	10,313600
1538,000000	10,320200
1537,000000	10,336700
1536,000000	10,334600
1535,000000	10,324000
1534,000000	10,329400
1533,000000	10,328900
1532,000000	10,318800
1531,000000	10,322200
1530,000000	10,316300
1529,000000	10,312300
1528,000000	10,291200
1527,000000	10,276200
1526,000000	10,283700
1525,000000	10,279500
1524,000000	10,260200
1523,000000	10,255500
1522,000000	10,241000
1521,000000	10,235000
1520,000000	10,215100
1519,000000	10,194300
1518,000000	10,179600
1517,000000	10,174000
1516,000000	10,159300
1515,000000	10,140200
1514,000000	10,132700
1513,000000	10,117900
1512,000000	10,102300
1511,000000	10,090800
1510,000000	10,079000
1509,000000	10,051600
1508,000000	10,046900
1507,000000	10,028600
1506,000000	10,009900
1505,000000	10,005800
1504,000000	9,971600
1503,000000	9,953800
1502,000000	9,949400
1501,000000	9,930100
1500,000000	9,920700
1499,000000	9,908000
1498,000000	9,901200
1497,000000	9,874300
1496,000000	9,862200
1495,000000	9,867700
1494,000000	9,867500
1493,000000	9,843700
1492,000000	9,844200
1491,000000	9,827900
1490,000000	9,824900
1489,000000	9,818900
1488,000000	9,821500
1487,000000	9,823000
1486,000000	9,804300
1485,000000	9,787700
1484,000000	9,806200
1483,000000	9,808100
1482,000000	9,815500
1481,000000	9,792200
1480,000000	9,796000
1479,000000	9,796700
1478,000000	9,810200
1477,000000	9,804600
1476,000000	9,818300
1475,000000	9,803100
1474,000000	9,837800
1473,000000	9,815800
1472,000000	9,828100
1471,000000	9,846900
1470,000000	9,864100
1469,000000	9,847300
1468,000000	9,852700
1467,000000	9,873600
1466,000000	9,870500
1465,000000	9,855100
1464,000000	9,881400
1463,000000	9,886800
1462,000000	9,892400
1461,000000	9,941000
1460,000000	9,945500
1459,000000	9,943400
1458,000000	9,977100
1457,000000	10,006300
1456,000000	10,020200
1455,000000	10,048100
1454,000000	10,078800
1453,000000	10,087600
1452,000000	10,126800
1451,000000	10,145600
1450,000000	10,186400
1449,000000	10,207400
1448,000000	10,251200
1447,000000	10,281300
1446,000000	10,334400
1445,000000	10,349900
1444,000000	10,385700
1443,000000	10,398000
1442,000000	10,464100
1441,000000	10,504000
1440,000000	10,521500
1439,000000	10,599500
1438,000000	10,630300
1437,000000	10,631000
1436,000000	10,692700
1435,000000	10,735300
1434,000000	10,754900
1433,000000	10,803300
1432,000000	10,864000
1431,000000	10,877800
1430,000000	10,931200
1429,000000	10,990400
1428,000000	11,033800
1427,000000	11,102300
1426,000000	11,148600
1425,000000	11,211000
1424,000000	11,283200
1423,000000	11,344500
1422,000000	11,406400
1421,000000	11,463900
1420,000000	11,551200
1419,000000	11,635000
1418,000000	11,700400
1417,000000	11,730100
1416,000000	11,827500
1415,000000	11,915800
1414,000000	11,985500
1413,000000	12,037200
1412,000000	12,090700
1411,000000	12,186800
1410,000000	12,288100
1409,000000	12,380900
1408,000000	12,466500
1407,000000	12,574000
1406,000000	12,679400
1405,000000	12,783800
1404,000000	12,890200
1403,000000	12,982700
1402,000000	13,118400
1401,000000	13,227300
1400,000000	13,265600
1399,000000	13,304800
1398,000000	13,364500
1397,000000	13,427100
1396,000000	13,492100
1395,000000	13,483200
1394,000000	13,495300
1393,000000	13,512100
1392,000000	13,540300
1391,000000	13,542500
1390,000000	13,566600
1389,000000	13,635100
1388,000000	13,678500
1387,000000	13,738800
1386,000000	13,831100
1385,000000	13,977200
1384,000000	14,147400
1383,000000	14,319600
1382,000000	14,467300
1381,000000	14,613200
1380,000000	14,729400
1379,000000	14,929300
1378,000000	15,109000
1377,000000	15,259100
1376,000000	15,473600
1375,000000	15,694800
1374,000000	15,939800
1373,000000	16,179000
1372,000000	16,431900
1371,000000	16,655300
1370,000000	16,858900
1369,000000	17,027000
1368,000000	17,193100
1367,000000	17,331600
1366,000000	17,449800
1365,000000	17,550200
1364,000000	17,621300
1363,000000	17,712500
1362,000000	17,811600
1361,000000	17,847100
1360,000000	17,875000
1359,000000	17,913100
1358,000000	17,956800
1357,000000	18,029600
1356,000000	18,140100
1355,000000	18,279900
1354,000000	18,471700
1353,000000	18,683500
1352,000000	18,898000
1351,000000	19,110800
1350,000000	19,334400
1349,000000	19,527200
1348,000000	19,697600
1347,000000	19,862900
1346,000000	20,019800
1345,000000	20,184400
1344,000000	20,309700
1343,000000	20,461200
1342,000000	20,606300
1341,000000	20,740700
1340,000000	20,869900
1339,000000	21,002000
1338,000000	21,160900
1337,000000	21,275000
1336,000000	21,408700
1335,000000	21,520000
1334,000000	21,639000
1333,000000	21,745600
1332,000000	21,861500
1331,000000	21,968700
1330,000000	22,064500
1329,000000	22,175100
1328,000000	22,277400
1327,000000	22,369800
1326,000000	22,459100
1325,000000	22,544200
1324,000000	22,612000
1323,000000	22,687400
1322,000000	22,755000
1321,000000	22,827700
1320,000000	22,898700
1319,000000	22,958300
1318,000000	23,023500
1317,000000	23,093400
1316,000000	23,157000
1315,000000	23,213100
1314,000000	23,265800
1313,000000	23,303600
1312,000000	23,340500
1311,000000	23,375900
1310,000000	23,415900
1309,000000	23,450300
1308,000000	23,491700
1307,000000	23,520300
1306,000000	23,540800
1305,000000	23,546000
1304,000000	23,551900
1303,000000	23,577100
1302,000000	23,588100
1301,000000	23,600100
1300,000000	23,606000
1299,000000	23,609100
1298,000000	23,610500
1297,000000	23,609100
1296,000000	23,612300
1295,000000	23,615100
1294,000000	23,613600
1293,000000	23,616600
1292,000000	23,613900
1291,000000	23,604300
1290,000000	23,577800
1289,000000	23,556600
1288,000000	23,541800
1287,000000	23,530900
1286,000000	23,517300
1285,000000	23,487900
1284,000000	23,451000
1283,000000	23,427000
1282,000000	23,420600
1281,000000	23,399300
1280,000000	23,379000
1279,000000	23,358100
1278,000000	23,336800
1277,000000	23,311500
1276,000000	23,296800
1275,000000	23,273600
1274,000000	23,261200
1273,000000	23,240300
1272,000000	23,206800
1271,000000	23,197300
1270,000000	23,177000
1269,000000	23,162700
1268,000000	23,141900
1267,000000	23,105000
1266,000000	23,086200
1265,000000	23,060600
1264,000000	23,028500
1263,000000	23,003500
1262,000000	22,963000
1261,000000	22,935600
1260,000000	22,908100
1259,000000	22,867100
1258,000000	22,828800
1257,000000	22,805000
1256,000000	22,767000
1255,000000	22,731500
1254,000000	22,695400
1253,000000	22,644400
1252,000000	22,600900
1251,000000	22,561400
1250,000000	22,520100
1249,000000	22,468800
1248,000000	22,437100
1247,000000	22,374500
1246,000000	22,329200
1245,000000	22,273600
1244,000000	22,218000
1243,000000	22,163300
1242,000000	22,119300
1241,000000	22,066700
1240,000000	22,005800
1239,000000	21,947800
1238,000000	21,882200
1237,000000	21,812700
1236,000000	21,763200
1235,000000	21,696200
1234,000000	21,631500
1233,000000	21,582900
1232,000000	21,512300
1231,000000	21,439200
1230,000000	21,369700
1229,000000	21,283600
1228,000000	21,217800
1227,000000	21,149300
1226,000000	21,072100
1225,000000	20,984800
1224,000000	20,904200
1223,000000	20,823800
1222,000000	20,736700
1221,000000	20,672700
1220,000000	20,595500
1219,000000	20,523100
1218,000000	20,458300
1217,000000	20,401000
1216,000000	20,344700
1215,000000	20,286800
1214,000000	20,204100
1213,000000	20,169600
1212,000000	20,118600
1211,000000	20,059400
1210,000000	20,006600
1209,000000	19,965500
1208,000000	19,948900
1207,000000	19,908400
1206,000000	19,884700
1205,000000	19,848300
1204,000000	19,854900
1203,000000	19,846000
1202,000000	19,849000
1201,000000	19,832700
1200,000000	19,825600
1199,000000	19,789800
1198,000000	19,770800
1197,000000	19,710800
1196,000000	19,638500
1195,000000	19,531100
1194,000000	19,424300
1193,000000	19,270300
1192,000000	19,120100
1191,000000	18,903900
1190,000000	18,717400
1189,000000	18,563600
1188,000000	18,438300
1187,000000	18,390400
1186,000000	18,362100
1185,000000	18,393200
1184,000000	18,465400
1183,000000	18,583500
1182,000000	18,790400
1181,000000	18,990000
1180,000000	19,187000
1179,000000	19,388300
1178,000000	19,612500
1177,000000	19,748300
1176,000000	19,913400
1175,000000	20,029900
1174,000000	20,166100
1173,000000	20,297400
1172,000000	20,439400
1171,000000	20,594400
1170,000000	20,748400
1169,000000	20,895300
1168,000000	21,050100
1167,000000	21,220800
1166,000000	21,388600
1165,000000	21,545300
1164,000000	21,724700
1163,000000	21,917900
1162,000000	22,086600
1161,000000	22,259800
1160,000000	22,432700
1159,000000	22,598900
1158,000000	22,778300
1157,000000	22,903700
1156,000000	23,048700
1155,000000	23,147500
1154,000000	23,222500
1153,000000	23,283500
1152,000000	23,308600
1151,000000	23,329800
1150,000000	23,329800
1149,000000	23,342600
1148,000000	23,369400
1147,000000	23,380400
1146,000000	23,450300
1145,000000	23,542500
1144,000000	23,666600
1143,000000	23,824700
1142,000000	23,998100
1141,000000	24,171900
1140,000000	24,337300
1139,000000	24,531900
1138,000000	24,751100
1137,000000	24,932500
1136,000000	25,161200
1135,000000	25,377800
1134,000000	25,544400
1133,000000	25,714100
1132,000000	25,878700
1131,000000	26,059100
1130,000000	26,215600
1129,000000	26,328500
1128,000000	26,438800
1127,000000	26,496900
1126,000000	26,583900
1125,000000	26,609100
1124,000000	26,663800
1123,000000	26,717700
1122,000000	26,738700
1121,000000	26,764200
1120,000000	26,771800
1119,000000	26,810400
1118,000000	26,813300
1117,000000	26,788200
1116,000000	26,811500
1115,000000	26,798400
1114,000000	26,825700
1113,000000	26,816200
1112,000000	26,805400
1111,000000	26,809400
1110,000000	26,820100
1109,000000	26,806400
1108,000000	26,777900
1107,000000	26,764400
1106,000000	26,775900
1105,000000	26,771500
1104,000000	26,772200
1103,000000	26,745500
1102,000000	26,748800
1101,000000	26,737800
1100,000000	26,731500
1099,000000	26,712700
1098,000000	26,698500
1097,000000	26,684900
1096,000000	26,657600
1095,000000	26,656700
1094,000000	26,636400
1093,000000	26,631600
1092,000000	26,616000
1091,000000	26,586600
1090,000000	26,558100
1089,000000	26,534300
1088,000000	26,508900
1087,000000	26,474300
1086,000000	26,448300
1085,000000	26,410400
1084,000000	26,386500
1083,000000	26,358900
1082,000000	26,327300
1081,000000	26,295000
1080,000000	26,275300
1079,000000	26,243700
1078,000000	26,205700
1077,000000	26,178700
1076,000000	26,146200
1075,000000	26,124100
1074,000000	26,093900
1073,000000	26,064800
1072,000000	26,036300
1071,000000	26,011800
1070,000000	25,980200
1069,000000	25,929000
1068,000000	25,896600
1067,000000	25,874700
1066,000000	25,839400
1065,000000	25,805900
1064,000000	25,792700
1063,000000	25,762300
1062,000000	25,717900
1061,000000	25,693000
1060,000000	25,660000
1059,000000	25,624800
1058,000000	25,604500
1057,000000	25,566400
1056,000000	25,527600
1055,000000	25,508600
1054,000000	25,474000
1053,000000	25,446600
1052,000000	25,424300
1051,000000	25,403500
1050,000000	25,366500
1049,000000	25,341300
1048,000000	25,331600
1047,000000	25,314500
1046,000000	25,285200
1045,000000	25,253600
1044,000000	25,238100
1043,000000	25,221300
1042,000000	25,182900
1041,000000	25,156800
1040,000000	25,151200
1039,000000	25,134600
1038,000000	25,104300
1037,000000	25,056200
1036,000000	25,028700
1035,000000	25,009100
1034,000000	24,975300
1033,000000	24,943200
1032,000000	24,909900
1031,000000	24,868900
1030,000000	24,828800
1029,000000	24,809000
1028,000000	24,787400
1027,000000	24,732700
1026,000000	24,686300
1025,000000	24,658500
1024,000000	24,628900
1023,000000	24,590700
1022,000000	24,541600
1021,000000	24,518200
1020,000000	24,497800
1019,000000	24,459200
1018,000000	24,420700
1017,000000	24,394800
1016,000000	24,366700
1015,000000	24,348300
1014,000000	24,343700
1013,000000	24,320800
1012,000000	24,303000
1011,000000	24,300200
1010,000000	24,304900
1009,000000	24,321400
1008,000000	24,308100
1007,000000	24,307500
1006,000000	24,316700
1005,000000	24,322400
1004,000000	24,325900
1003,000000	24,325900
1002,000000	24,327500
1001,000000	24,327700
1000,000000	24,341500
999,000000	24,348100
998,000000	24,348800
997,000000	24,359100
996,000000	24,384500
995,000000	24,388800
994,000000	24,387900
993,000000	24,392400
992,000000	24,408800
991,000000	24,412200
990,000000	24,426100
989,000000	24,428700
988,000000	24,434900
987,000000	24,447700
986,000000	24,468200
985,000000	24,483600
984,000000	24,514400
983,000000	24,532100
982,000000	24,543300
981,000000	24,557900
980,000000	24,579900
979,000000	24,591800
978,000000	24,603500
977,000000	24,629800
976,000000	24,655800
975,000000	24,665100
974,000000	24,703000
973,000000	24,727900
972,000000	24,769900
971,000000	24,791600
970,000000	24,810900
969,000000	24,834000
968,000000	24,876700
967,000000	24,903000
966,000000	24,934400
965,000000	24,970300
964,000000	25,009700
963,000000	25,044200
962,000000	25,096200
961,000000	25,141800
960,000000	25,180500
959,000000	25,237600
958,000000	25,307800
957,000000	25,343700
956,000000	25,379400
955,000000	25,427900
954,000000	25,460600
953,000000	25,508300
952,000000	25,545300
951,000000	25,600300
950,000000	25,622400
949,000000	25,656100
948,000000	25,718100
947,000000	25,736200
946,000000	25,763800
945,000000	25,804000
944,000000	25,852500
943,000000	25,891900
942,000000	25,933000
941,000000	25,967200
940,000000	26,002100
939,000000	26,052200
938,000000	26,094600
937,000000	26,138100
936,000000	26,173100
935,000000	26,203400
934,000000	26,267600
933,000000	26,306800
932,000000	26,334200
931,000000	26,370500
930,000000	26,433700
929,000000	26,479600
928,000000	26,516400
927,000000	26,550500
926,000000	26,570000
925,000000	26,625400
924,000000	26,657500
923,000000	26,735400
922,000000	26,790200
921,000000	26,795300
920,000000	26,852300
919,000000	26,901800
918,000000	26,901200
917,000000	26,954600
916,000000	26,982000
915,000000	27,022200
914,000000	27,071400
913,000000	27,085300
912,000000	27,144500
911,000000	27,172900
910,000000	27,212300
909,000000	27,235900
908,000000	27,264700
907,000000	27,332400
906,000000	27,390900
905,000000	27,418900
904,000000	27,451200
903,000000	27,518100
902,000000	27,531300
901,000000	27,583600
900,000000	27,614700
899,000000	27,658100
898,000000	27,692400
897,000000	27,753400
896,000000	27,791700
895,000000	27,823700
894,000000	27,839200
893,000000	27,873100
892,000000	27,890700
891,000000	27,859700
890,000000	27,884700
889,000000	27,914600
888,000000	27,901200
887,000000	27,920000
886,000000	27,905600
885,000000	27,854500
884,000000	27,837700
883,000000	27,851600
882,000000	27,788600
881,000000	27,715000
880,000000	27,691500
879,000000	27,615600
878,000000	27,519800
877,000000	27,482800
876,000000	27,444800
875,000000	27,380800
874,000000	27,268000
873,000000	27,200300
872,000000	27,100100
871,000000	27,047500
870,000000	26,931900
869,000000	26,876800
868,000000	26,789700
867,000000	26,722200
866,000000	26,615400
865,000000	26,562200
864,000000	26,436900
863,000000	26,309000
862,000000	26,209100
861,000000	26,096900
860,000000	25,967100
859,000000	25,900000
858,000000	26,010800
857,000000	26,720500
856,000000	26,629800
855,000000	26,639100
854,000000	26,576100
853,000000	26,536300
852,000000	26,726200
851,000000	26,673400
850,000000	26,721600
849,000000	26,670200
848,000000	26,667400
847,000000	26,750700
846,000000	26,658200
845,000000	26,777400
844,000000	26,653500
843,000000	26,644400
842,000000	26,756700
841,000000	26,807300
840,000000	26,784100
839,000000	26,649400
838,000000	26,724000
837,000000	26,905200
836,000000	26,876900
835,000000	27,036400
834,000000	26,976300
833,000000	27,034800
832,000000	27,047200
831,000000	27,101100
830,000000	27,160600
829,000000	27,326100
828,000000	27,473100
827,000000	27,549400
826,000000	27,732900
825,000000	27,763500
824,000000	27,910200
823,000000	28,060400
822,000000	28,214300
821,000000	28,404700
820,000000	28,637200
819,000000	28,913000
818,000000	29,021400
817,000000	29,161500
816,000000	29,353700
815,000000	29,641300
814,000000	29,921000
813,000000	30,093000
812,000000	30,340900
811,000000	30,500900
810,000000	30,733400
809,000000	30,961100
808,000000	31,106800
807,000000	31,233700
806,000000	31,494000
805,000000	31,707100
804,000000	31,932600
803,000000	32,183600
802,000000	32,315600
801,000000	32,459900
800,000000	32,740300
799,000000	32,903500
798,000000	33,064900
797,000000	33,295000
796,000000	33,411500
795,000000	33,534600
794,000000	33,749600
793,000000	33,884600
792,000000	34,108500
791,000000	34,288800
790,000000	34,385500
789,000000	34,523100
788,000000	34,661600
787,000000	34,758600
786,000000	34,895300
785,000000	35,046400
784,000000	35,145600
783,000000	35,272400
782,000000	35,382900
781,000000	35,420700
780,000000	35,489200
779,000000	35,584500
778,000000	35,660300
777,000000	35,720600
776,000000	35,785700
775,000000	35,854700
774,000000	35,884500
773,000000	35,959200
772,000000	35,983800
771,000000	36,003800
770,000000	36,028900
769,000000	36,048300
768,000000	36,096900
767,000000	36,099400
766,000000	36,124200
765,000000	36,163900
764,000000	36,158200
763,000000	36,165400
762,000000	36,143000
761,000000	36,135800
760,000000	36,146900
759,000000	36,134900
758,000000	36,059700
757,000000	36,043500
756,000000	36,077600
755,000000	36,043800
754,000000	36,024900
753,000000	35,985800
752,000000	35,970000
751,000000	35,879000
750,000000	35,781100
749,000000	35,718300
748,000000	35,702200
747,000000	35,672500
746,000000	35,567500
745,000000	35,519400
744,000000	35,506700
743,000000	35,457900
742,000000	35,363400
741,000000	35,342400
740,000000	35,321700
739,000000	35,265600
738,000000	35,247500
737,000000	35,183600
736,000000	35,109400
735,000000	35,028600
734,000000	34,978000
733,000000	34,948300
732,000000	34,896300
731,000000	34,837200
730,000000	34,788500
729,000000	34,759900
728,000000	34,746300
727,000000	34,684800
726,000000	34,661900
725,000000	34,635800
724,000000	34,601400
723,000000	34,609300
722,000000	34,580300
721,000000	34,560600
720,000000	34,555500
719,000000	34,505500
718,000000	34,472800
717,000000	34,474000
716,000000	34,485800
715,000000	34,480500
714,000000	34,471100
713,000000	34,430200
712,000000	34,413100
711,000000	34,396600
710,000000	34,360600
709,000000	34,353100
708,000000	34,315200
707,000000	34,260700
706,000000	34,227400
705,000000	34,187700
704,000000	34,121300
703,000000	34,067200
702,000000	33,994800
701,000000	33,905200
700,000000	33,796200
699,000000	33,634500
698,000000	33,506600
697,000000	33,377300
696,000000	33,204100
695,000000	33,033600
694,000000	32,796600
693,000000	32,532300
692,000000	32,287900
691,000000	32,009500
690,000000	31,721700
689,000000	31,428000
688,000000	31,088800
687,000000	30,737800
686,000000	30,416000
685,000000	30,085700
684,000000	29,710900
683,000000	29,378900
682,000000	29,092300
681,000000	28,779100
680,000000	28,494400
679,000000	28,209000
678,000000	27,947700
677,000000	27,732800
676,000000	27,527800
675,000000	27,375300
674,000000	27,230000
673,000000	27,094300
672,000000	26,990800
671,000000	26,897400
670,000000	26,841200
669,000000	26,768000
668,000000	26,712700
667,000000	26,674200
666,000000	26,637200
665,000000	26,631200
664,000000	26,567800
663,000000	26,532300
662,000000	26,472500
661,000000	26,453000
660,000000	26,373800
659,000000	26,262700
658,000000	26,187000
657,000000	26,060200
656,000000	25,927300
655,000000	25,799800
654,000000	25,670900
653,000000	25,510400
652,000000	25,295600
651,000000	25,102400
650,000000	24,904700
649,000000	24,710200
648,000000	24,513300
647,000000	24,274800
646,000000	24,058000
645,000000	23,857200
644,000000	23,644500
643,000000	23,434000
642,000000	23,210400
641,000000	23,036900
640,000000	22,858500
639,000000	22,702400
638,000000	22,567100
637,000000	22,470100
636,000000	22,365600
635,000000	22,258500
634,000000	22,209900
633,000000	22,165100
632,000000	22,132800
631,000000	22,131800
630,000000	22,174800
629,000000	22,216400
628,000000	22,298600
627,000000	22,389200
626,000000	22,499100
625,000000	22,636600
624,000000	22,793300
623,000000	22,977300
622,000000	23,211700
621,000000	23,400700
620,000000	23,646900
619,000000	23,883300
618,000000	24,102400
617,000000	24,368600
616,000000	24,584900
615,000000	24,839400
614,000000	25,080100
613,000000	25,344700
612,000000	25,577800
611,000000	25,813600
610,000000	26,062400
609,000000	26,280300
608,000000	26,526800
607,000000	26,766800
606,000000	27,005100
605,000000	27,228300
604,000000	27,493800
603,000000	27,740300
602,000000	27,983400
601,000000	28,229400
600,000000	28,497700
599,000000	28,692000
598,000000	28,879100
597,000000	29,043600
596,000000	29,204500
595,000000	29,357300
594,000000	29,485300
593,000000	29,624400
592,000000	29,736600
591,000000	29,830000
590,000000	29,974900
589,000000	30,080600
588,000000	30,160900
587,000000	30,232800
586,000000	30,280400
585,000000	30,286200
584,000000	30,264700
583,000000	30,225300
582,000000	30,187200
581,000000	30,121700
580,000000	30,072600
579,000000	30,073600
578,000000	30,045100
577,000000	29,994800
576,000000	29,948900
575,000000	29,894000
574,000000	29,836600
573,000000	29,757000
572,000000	29,628900
571,000000	29,522700
570,000000	29,424000
569,000000	29,358000
568,000000	29,257000
567,000000	29,179800
566,000000	29,122200
565,000000	29,051200
564,000000	28,937200
563,000000	28,797900
562,000000	28,649800
561,000000	28,508600
560,000000	28,443700
559,000000	29,004900
558,000000	28,840900
557,000000	28,649400
556,000000	28,484300
555,000000	28,300400
554,000000	28,133400
553,000000	27,914100
552,000000	27,714200
551,000000	27,476900
550,000000	27,249600
549,000000	27,008900
548,000000	26,792000
547,000000	26,565900
546,000000	26,328700
545,000000	26,120500
544,000000	25,861900
543,000000	25,598100
542,000000	25,343500
541,000000	25,054100
540,000000	24,763900
539,000000	24,454900
538,000000	24,139600
537,000000	23,803700
536,000000	23,476500
535,000000	23,127400
534,000000	22,752700
533,000000	22,359100
532,000000	21,953400
531,000000	21,530100
530,000000	21,123700
529,000000	20,682000
528,000000	20,244900
527,000000	19,810700
526,000000	19,401900
525,000000	18,989700
524,000000	18,583800
523,000000	18,189000
522,000000	17,801600
521,000000	17,420000
520,000000	17,051900
519,000000	16,717000
518,000000	16,398300
517,000000	16,122200
516,000000	15,851200
515,000000	15,618500
514,000000	15,400400
513,000000	15,199500
512,000000	15,045000
511,000000	14,924100
510,000000	14,820400
509,000000	14,728300
508,000000	14,651200
507,000000	14,586100
506,000000	14,532700
505,000000	14,479800
504,000000	14,419700
503,000000	14,346400
502,000000	14,255400
501,000000	14,166400
500,000000	14,073500
499,000000	13,959100
498,000000	13,823600
497,000000	13,672300
496,000000	13,495800
495,000000	13,299100
494,000000	13,085500
493,000000	12,850000
492,000000	12,596200
491,000000	12,335200
490,000000	12,060100
489,000000	11,788500
488,000000	11,521000
487,000000	11,262600
486,000000	11,035700
485,000000	10,815600
484,000000	10,615500
483,000000	10,454600
482,000000	10,340200
481,000000	10,273300
480,000000	10,242700
479,000000	10,230800
478,000000	10,240500
477,000000	10,281900
476,000000	10,339300
475,000000	10,423400
474,000000	10,525700
473,000000	10,618900
472,000000	10,727000
471,000000	10,841000
470,000000	10,955100
469,000000	11,064900
468,000000	11,165000
467,000000	11,252800
466,000000	11,337200
465,000000	11,410300
464,000000	11,464000
463,000000	11,512500
462,000000	11,542000
461,000000	11,557300
460,000000	11,580900
459,000000	11,578200
458,000000	11,579600
457,000000	11,574200
456,000000	11,549300
455,000000	11,528200
454,000000	11,481800
453,000000	11,432900
452,000000	11,388500
451,000000	11,343300
450,000000	11,285400
449,000000	11,211500
448,000000	11,145000
447,000000	11,079000
446,000000	11,022700
445,000000	10,947500
444,000000	10,850500
443,000000	10,757500
442,000000	10,665400
441,000000	10,579000
440,000000	10,478800
439,000000	10,370600
438,000000	10,255000
437,000000	10,120900
436,000000	9,982500
435,000000	9,862500
434,000000	9,735200
433,000000	9,578500
432,000000	9,426600
431,000000	9,275600
430,000000	9,109800
429,000000	8,946300
428,000000	8,772700
427,000000	8,591200
426,000000	8,402300
425,000000	8,207900
424,000000	8,008600
423,000000	7,791800
422,000000	7,564400
421,000000	7,339900
420,000000	7,107100
419,000000	6,881500
418,000000	6,661900
417,000000	6,434900
416,000000	6,209300
415,000000	5,990600
414,000000	5,765100
413,000000	5,542100
412,000000	5,336200
411,000000	5,138800
410,000000	4,956600
409,000000	4,767000
408,000000	4,587700
407,000000	4,428700
406,000000	4,282600
405,000000	4,147400
404,000000	4,006300
403,000000	3,873400
402,000000	3,764100
401,000000	3,664400
400,000000	3,565400
399,000000	3,481800
398,000000	3,407000
397,000000	3,341300
396,000000	3,280700
395,000000	3,211300
394,000000	3,158000
393,000000	3,119300
392,000000	3,076300
391,000000	3,031700
390,000000	3,003900
389,000000	2,969400
388,000000	2,933600
387,000000	2,915100
386,000000	2,880600
385,000000	2,851000
384,000000	2,841300
383,000000	2,811800
382,000000	2,799200
381,000000	2,777800
380,000000	2,761000
379,000000	2,753500
378,000000	2,726100
377,000000	2,696000
376,000000	3,034100
375,000000	2,988600
374,000000	2,865300
373,000000	2,917200
372,000000	2,897600
371,000000	2,914700
370,000000	2,866300
369,000000	2,915200
368,000000	2,912400
367,000000	2,894200
366,000000	3,014000
365,000000	3,047900
364,000000	2,979000
363,000000	2,937000
362,000000	2,878300
361,000000	2,849300
360,000000	2,959700
359,000000	2,882300
358,000000	2,934300
357,000000	2,909700
356,000000	2,936600
355,000000	2,859900
354,000000	2,851500
353,000000	2,827300
352,000000	2,854800
351,000000	2,817400
350,000000	2,777700
349,000000	2,774000
348,000000	2,767700
347,000000	2,774000
346,000000	2,739000
345,000000	2,777000
344,000000	2,839400
343,000000	2,744300
342,000000	2,716200
341,000000	2,821100
340,000000	2,715600
339,000000	2,745000
338,000000	2,804800
337,000000	2,716500
336,000000	2,864900
335,000000	2,685600
334,000000	2,862400
333,000000	2,705900
332,000000	2,774400
331,000000	2,702300
330,000000	2,706100
329,000000	2,729500
328,000000	2,933000
327,000000	2,878700
326,000000	2,809600
325,000000	2,782600
324,000000	2,907000
323,000000	2,759500
322,000000	3,134700
321,000000	3,174300
320,000000	2,985300
319,000000	3,328500
318,000000	2,953100
317,000000	2,976500
316,000000	2,563700
315,000000	2,558600
314,000000	2,549400
313,000000	2,522300
312,000000	2,535000
311,000000	2,571900
310,000000	2,562700
309,000000	2,613700
308,000000	2,547700
307,000000	2,554400
306,000000	2,549600
305,000000	2,610300
304,000000	2,576400
303,000000	2,504800
302,000000	2,537900
301,000000	2,545900
300,000000	2,598100
299,000000	2,568200
298,000000	2,588500
297,000000	2,595500
296,000000	2,552600
295,000000	2,595600
294,000000	2,606700
293,000000	2,613900
292,000000	2,579000
291,000000	2,616900
290,000000	2,640800
289,000000	2,601900
288,000000	2,637800
287,000000	2,599200
286,000000	2,617800
285,000000	2,589400
284,000000	2,642800
283,000000	2,622800
282,000000	2,624400
281,000000	2,656900
280,000000	2,671900
279,000000	2,658800
278,000000	2,646000
277,000000	2,670800
276,000000	2,666200
275,000000	2,672600
274,000000	2,693300
273,000000	2,636400
272,000000	2,668900
271,000000	2,674500
270,000000	2,676300
269,000000	2,698500
268,000000	2,661000
267,000000	2,698000
266,000000	2,741800
265,000000	2,758400
264,000000	2,725000
263,000000	2,735100
262,000000	2,745400
261,000000	2,792300
260,000000	2,826600
259,000000	2,805600
258,000000	2,808100
257,000000	2,847900
256,000000	2,794700
255,000000	2,807400
254,000000	2,810500
253,000000	2,797000
252,000000	2,832000
251,000000	2,824300
250,000000	2,824100
