CICIMAUCR0044_B
Integration time [ms]:   8,000
Averaging Nr. [scans]: 10
Smoothing Nr. [pixels]: 0
Data measured with spectrometer [name]: 7314920SP
Wave   ;Sample   ;Dark     ;Reference;Reflectance
[nm]   ;[counts] ;[counts] ;[counts] ;[%]

 199,42;  104,776;   69,124;  212,912;24,79509
 200,02;  108,874;   97,516;  201,017;10,97350
 200,62;   77,907;   69,328;  116,337;18,24876
 201,22;  122,445;   89,808;  191,196;32,18993
 201,82;   99,589;   78,699;  227,849;14,00559
 202,42;  117,150;  107,919;  211,990; 8,87016
 203,03;   77,832;   49,933;  144,859;29,39101
 203,63;   88,338;   68,244;  153,253;23,63779
 204,23;   90,099;   79,167;  197,491; 9,23853
 204,83;   95,791;   74,949;  153,601;26,49888
 205,43;   94,076;   62,524;  192,612;24,25463
 206,03;   73,267;   65,952;  137,574;10,21391
 206,63;   75,690;   73,695;  129,953; 3,54504
 207,24;  114,977;   74,278;  246,960;23,56921
 207,84;   73,644;   58,255;  132,648;20,68615
 208,44;   70,145;   55,408;  142,596;16,90216
 209,04;   59,913;   54,593;  111,779; 9,30406
 209,64;  110,735;   74,340;  200,454;28,85844
 210,24;   68,191;   59,249;  129,701;12,69209
 210,84;   72,068;   60,406;  155,122;12,31346
 211,44;  106,063;   82,595;  190,227;21,80391
 212,05;   78,413;   77,893;  120,879; 1,21123
 212,65;   86,832;   82,933;  164,459; 4,78338
 213,25;  106,950;   88,219;  192,990;17,87827
 213,85;  101,308;   87,282;  147,585;23,25918
 214,45;   80,791;   57,349;  133,901;30,62221
 215,05;   56,268;   41,406;  140,122;15,05612
 215,65;   65,292;   58,803;  153,048; 6,88542
 216,25;   67,791;   55,649;  132,501;15,79900
 216,85;   44,921;   29,911;  142,569;13,32368
 217,45;   71,032;   57,033;  133,359;18,34198
 218,05;   79,434;   64,486;  160,906;15,50209
 218,66;   39,998;   32,114;  123,343; 8,64187
 219,26;   50,738;   32,444;  110,553;23,42144
 219,86;   58,552;   33,573;  147,938;21,84117
 220,46;   79,010;   55,689;  156,280;23,18380
 221,06;   81,699;   59,567;  179,691;18,42385
 221,66;   61,670;   48,459;  173,070;10,60127
 222,26;   58,135;   37,740;  169,554;15,47221
 222,86;   86,303;   70,125;  156,338;18,76588
 223,46;   70,991;   49,349;  140,501;23,74263
 224,06;   80,075;   53,770;  170,464;22,54182
 224,66;   84,781;   63,681;  184,759;17,42657
 225,26;   71,839;   54,297;  152,501;17,86270
 225,86;   74,205;   50,732;  174,133;19,02210
 226,46;   83,527;   56,922;  154,264;27,33139
 227,06;   51,181;   31,681;  136,259;18,64612
 227,66;   69,384;   46,384;  122,058;30,39313
 228,27;   51,710;   40,089;  152,380;10,34883
 228,87;  108,257;   86,284;  181,333;23,11800
 229,47;   57,958;   42,137;  179,680;11,50248
 230,07;   38,939;   10,997;  120,401;25,54012
 230,67;   69,921;   52,311;  147,769;18,44808
 231,27;   61,810;   37,789;  150,380;21,33458
 231,87;   60,221;   45,111;  153,169;13,98340
 232,47;   89,230;   61,983;  211,507;18,22262
 233,07;   67,166;   50,698;  111,627;27,02847
 233,67;   74,132;   47,333;  137,259;29,80196
 234,27;   36,067;   19,552;  106,574;18,97838
 234,87;   61,652;   38,773;  173,938;16,92647
 235,47;   52,739;   25,997;  134,501;24,64601
 236,07;   52,702;   33,871;  104,390;26,70373
 236,67;   73,596;   45,360;  136,795;30,88140
 237,27;   67,123;   40,218;  177,065;19,66078
 237,87;   56,681;   42,281;  161,659;12,06231
 238,47;   47,674;   26,116;  114,617;24,35879
 239,07;   65,711;   25,643;  171,528;27,46563
 239,67;   81,237;   51,548;  217,050;17,93898
 240,27;   70,405;   52,032;  182,133;14,12247
 240,87;   79,447;   48,316;  206,091;19,73145
 241,47;   44,101;   50,817;  107,142;-11,92401
 242,07;   68,080;   45,327;  127,711;27,61740
 242,67;   33,600;    0,121;  128,039;26,17217
 243,27;   27,691;   18,649;   93,101;12,14451
 243,87;   70,975;   63,270;  167,664; 7,38069
 244,47;   70,199;   44,467;  161,591;21,96944
 245,07;   28,768;   18,606;  116,922;10,33690
 245,67;   57,932;   44,533;  125,259;16,59899
 246,27;   52,690;   39,595;   96,053;23,19328
 246,87;   39,303;   22,125;  117,738;17,96683
 247,46;   21,607;   18,828;   63,537; 6,21471
 248,06;   38,934;   27,886;  124,906;11,38643
 248,66;   58,035;   38,540;  161,754;15,82169
 249,26;   50,402;   36,471;  101,190;21,52569
 249,86;   63,305;   51,532;  172,833; 9,70600
 250,46;   50,754;   23,280;  176,234;17,96205
 251,06;   50,532;   29,033;  111,359;26,11533
 251,66;   34,528;   19,476;  139,512;12,53987
 252,26;   48,849;   36,365;  104,343;18,36478
 252,86;   62,568;   32,306;  140,922;27,86213
 253,46;    6,191;    1,549;   78,501; 6,03207
 254,06;   70,279;   44,874;  100,464;45,70048
 254,66;   56,676;   24,424;  155,112;24,67890
 255,26;   76,329;   41,629;  185,460;24,12553
 255,86;   55,201;   46,817;   99,342;15,96153
 256,46;   25,863;   21,995;  127,027; 3,68281
 257,05;   53,804;   25,678;  125,685;28,12406
 257,65;   65,452;   42,773;  167,138;18,23556
 258,25;   60,058;   39,437;  160,880;16,97986
 258,85;   30,868;   26,106;  127,022; 4,71962
 259,45;   31,521;    9,311;  107,069;22,71952
 260,05;   63,491;   40,249;  112,801;32,03484
 260,65;   61,549;   40,365;  108,043;31,30133
 261,25;   49,175;   41,070;  143,564; 7,90778
 261,85;   21,746;   -5,838;  119,043;22,08812
 262,45;   71,068;   48,806;  144,522;23,25918
 263,04;   67,353;   45,927;  178,986;16,10269
 263,64;   62,462;   38,741;  115,980;30,71093
 264,24;   68,522;   43,265;  155,817;22,44079
 264,84;   95,241;   66,305;  203,697;21,06143
 265,44;   48,209;   28,435;  102,832;26,57823
 266,04;   52,931;   54,079;  117,411;-1,81225
 266,64;   65,596;   54,560;  123,795;15,94057
 267,24;   56,396;   44,260;  105,895;19,69082
 267,84;   44,450;   32,519;  118,090;13,94310
 268,43;   76,456;   59,330;  133,785;23,00183
 269,03;   61,998;   45,214;  136,843;18,31719
 269,63;   72,226;   62,268;  128,816;14,96292
 270,23;   21,184;   17,984;   65,758; 6,69746
 270,83;   63,249;   56,265;  128,243; 9,70288
 271,43;   41,185;   29,638;  107,206;14,88640
 272,03;   64,609;   50,535;  136,332;16,40314
 272,62;   32,192;   19,803;  122,348;12,08165
 273,22;   42,757;   16,184;  111,433;27,89890
 273,82;   24,835;   30,483;   40,710;-55,22210
 274,42;   22,925;   25,614;   68,869;-6,21879
 275,02;   51,443;   33,801;   87,500;32,85272
 275,62;   71,158;   51,537;  170,781;16,45451
 276,21;   43,086;   39,192;  122,554; 4,67177
 276,81;   59,344;   50,655;  118,848;12,74190
 277,41;   57,093;   22,156;  132,796;31,57695
 278,01;   32,043;   19,001;   72,600;24,33183
 278,61;   57,645;   59,408;  151,996;-1,90462
 279,20;   83,005;   63,732;  183,233;16,12829
 279,80;   11,347;    2,358;   11,347;99,99874
 280,40;   51,402;   34,171;   90,290;30,70476
 281,00;   14,345;    9,408;   86,096; 6,43725
 281,60;   49,418;   32,007;  150,670;14,67214
 282,20;   51,063;   38,695;  129,627;13,60143
 282,79;   43,956;   35,030;   99,785;13,78428
 283,39;   36,226;   29,168;   73,516;15,91396
 283,99;   28,466;   27,598;   55,627; 3,09696
 284,59;   19,316;    9,100;  105,375;10,61081
 285,19;   31,167;   33,752;   96,274;-4,13378
 285,78;   44,063;   26,295;  122,227;18,52147
 286,38;   47,090;   46,795;   84,853; 0,77344
 286,98;   49,856;   42,730;  109,785;10,62711
 287,58;   22,399;    4,767;  110,991;16,59837
 288,17;   41,729;   23,729;  140,560;15,40681
 288,77;   53,772;   30,667;  176,065;15,89090
 289,37;   33,268;   13,206;   99,322;23,29736
 289,97;   62,666;   50,698;  100,827;23,87473
 290,57;   67,940;   37,851;  142,149;28,84938
 291,16;   84,009;   72,635;  130,432;19,67817
 291,76;   29,657;   13,884;  103,733;17,55549
 292,36;   42,538;   36,344;  103,253; 9,25788
 292,96;   23,182;    1,335;  116,607;18,95270
 293,55;   45,444;   35,255;  100,448;15,62909
 294,15;   39,686;   28,492;  119,754;12,26633
 294,75;   59,490;   42,295;   85,853;39,47504
 295,35;   28,509;   22,535;   96,932; 8,02906
 295,94;   46,920;   40,557;   96,022;11,47190
 296,54;   31,627;   31,722;  108,464;-0,12384
 297,14;   40,470;   33,859;  144,270; 5,98702
 297,73;   21,161;    9,887;   70,132;18,71253
 298,33;   51,579;   40,174;   99,364;19,26829
 298,93;   54,103;   30,325;  113,638;28,54130
 299,53;   43,887;   21,246;  138,401;19,32630
 300,12;   17,470;    7,459;  114,770; 9,32835
 300,72;   67,362;   68,241;  124,580;-1,56069
 301,32;   62,052;   40,773;  145,238;20,36917
 301,92;   22,348;   24,312;   62,295;-5,16956
 302,51;   40,014;   14,346;   96,927;31,08247
 303,11;   31,367;   20,952;   93,674;14,32220
 303,71;   53,374;   30,616;  121,617;25,00827
 304,30;   20,555;   18,176;   83,737; 3,62805
 304,90;   30,979;   22,074;   85,164;14,11460
 305,50;   39,884;   35,584;   89,058; 8,04064
 306,09;   35,902;   23,571;   88,790;18,90739
 306,69;   64,322;   37,765;  140,017;25,97264
 307,29;   24,511;   24,885;   43,884;-1,96950
 307,88;   52,516;   48,300;  142,675; 4,46679
 308,48;   31,610;   11,989;  111,680;19,68163
 309,08;    9,459;    8,834;   44,084; 1,77553
 309,68;   29,161;   26,887;   87,532; 3,74857
 310,27;   15,292;   17,703;  113,848;-2,50745
 310,87;   31,927;   29,822;  103,864; 2,84293
 311,47;   59,391;   52,349;  116,401;10,99392
 312,06;   50,037;   46,190;   96,406; 7,66094
 312,66;   69,009;   52,235;  146,232;17,84460
 313,26;   63,128;   45,676;  157,012;15,67539
 313,85;   56,167;   33,452;  110,474;29,49198
 314,45;   57,545;   49,208;  130,496;10,25565
 315,04;   66,437;   63,290;  105,606; 7,43695
 315,64;   44,762;   27,641;  103,480;22,57518
 316,24;   61,510;   38,789;  125,980;26,05868
 316,83;   43,202;   43,171;  121,990; 0,03961
 317,43;   37,285;   29,738;  114,606; 8,89271
 318,03;   49,154;   52,323;  100,590;-6,56524
 318,62;   80,100;   86,763;  121,994;-18,91411
 319,22;   42,750;   21,719;  124,690;20,42443
 319,82;   54,709;   44,535;  123,932;12,81332
 320,41;   78,574;   57,916;  170,917;18,28102
 321,01;   93,884;   84,785;  169,258;10,77213
 321,60;   83,925;   79,214;  137,469; 8,08548
 322,20;   90,576;   55,024;  210,912;22,80635
 322,80;   78,662;   61,241;  161,180;17,43141
 323,39;   68,519;   51,304;  108,574;30,05988
 323,99;   72,149;   75,665;  148,943;-4,79840
 324,59;   73,254;   75,523;  121,990;-4,88271
 325,18;   72,514;   54,546;  141,027;20,77702
 325,78;   88,461;   75,387;  154,332;16,56008
 326,37;   87,632;   71,333;  171,659;16,24674
 326,97;   84,862;   66,641;  181,780;15,82502
 327,57;   57,007;   41,428;  117,237;20,54976
 328,16;   62,901;   59,717;  137,042; 4,11743
 328,76;   82,820;   66,157;  165,422;16,78630
 329,35;   87,852;   71,673;  215,438;11,25356
 329,95;   55,463;   47,995;  188,127; 5,32934
 330,54;   71,091;   53,049;  176,901;14,56726
 331,14;   49,344;   43,955;  145,248; 5,32032
 331,74;   75,384;   49,084;  157,158;24,33489
 332,33;   57,810;   37,489;  190,880;13,24772
 332,93;   63,848;   51,512;  148,895;12,66794
 333,52;   69,426;   52,668;  187,116;12,46395
 334,12;   85,198;   68,714;  222,743;10,70181
 334,71;   67,302;   43,171;  179,090;17,75411
 335,31;   92,367;   68,952;  192,674;18,92579
 335,90;   40,365;   29,144;  139,379;10,17886
 336,50;   51,690;   31,295;  156,953;16,23011
 337,10;   67,192;   56,203;  213,048; 7,00638
 337,69;   54,890;   58,595;  181,353;-3,01867
 338,29;   46,738;   41,044;  190,353; 3,81383
 338,88;   46,703;   26,425;  201,238;11,60019
 339,48;   69,341;   72,747;  186,852;-2,98471
 340,07;   73,573;   52,063;  212,169;13,43494
 340,67;   70,552;   40,273;  267,038;13,35245
 341,26;   72,402;   58,271;  227,390; 8,35578
 341,86;   79,939;   67,997;  282,701; 5,56201
 342,45;   79,316;   54,300;  294,375;10,41989
 343,05;   59,316;   48,700;  266,775; 4,86784
 343,64;   85,896;   55,660;  261,695;14,67540
 344,24;   50,990;   43,595;  237,153; 3,82023
 344,83;   79,266;   63,198;  283,827; 7,28284
 345,43;   46,320;   33,657;  279,522; 5,15033
 346,02;   61,121;   42,211;  304,369; 7,21329
 346,62;   82,728;   53,076;  330,912;10,67262
 347,21;   67,461;   54,787;  311,732; 4,93231
 347,81;   64,140;   43,951;  355,349; 6,48343
 348,40;   58,801;   37,717;  297,542; 8,11462
 349,00;   69,054;   52,723;  328,190; 5,92854
 349,59;  104,757;   76,784;  420,333; 8,14249
 350,19;   65,628;   48,176;  412,212; 4,79414
 350,78;   59,667;   52,652;  383,074; 2,12318
 351,38;   51,521;   22,311;  389,069; 7,96444
 351,97;   62,620;   34,957;  401,122; 7,55475
 352,57;   68,410;   31,789;  439,980; 8,97149
 353,16;   43,519;   36,404;  411,674; 1,89607
 353,76;   82,357;   42,384;  494,333; 8,84468
 354,35;   49,039;   30,497;  490,701; 4,02905
 354,95;   75,886;   50,292;  532,454; 5,30828
 355,54;   58,250;   43,119;  531,090; 3,10086
 356,14;   55,739;   44,397;  535,601; 2,30899
 356,73;   57,641;   46,047;  497,052; 2,57077
 357,32;   55,174;   25,916;  543,817; 5,64927
 357,92;   68,864;   29,248;  620,175; 6,70397
 358,51;   85,088;   53,846;  654,401; 5,20216
 359,11;   75,040;   45,951;  660,349; 4,73460
 359,70;   52,204;   30,078;  655,785; 3,53617
 360,30;   70,847;   56,558;  633,847; 2,47519
 360,89;   55,503;   20,725;  679,238; 5,28139
 361,48;   83,586;   53,792;  746,354; 4,30207
 362,08;   50,985;   26,038;  709,306; 3,65114
 362,67;   58,007;   34,028;  722,537; 3,48267
 363,27;   86,614;   50,946;  777,927; 4,90633
 363,86;   66,084;   24,184;  785,858; 5,50099
 364,46;   98,801;   53,717;  816,942; 5,90701
 365,05;   96,652;   63,815;  839,894; 4,23105
 365,64;   94,917;   52,496;  883,078; 5,10733
 366,24;  100,610;   33,732;  926,136; 7,49418
 366,83;  126,414;   52,089; 1030,183; 7,59903
 367,43;  131,774;   72,101; 1067,428; 5,99529
 368,02;  149,357;   47,769; 1189,245; 8,89976
 368,61;  170,836;   71,021; 1314,370; 8,02790
 369,21;  134,714;   37,616; 1309,751; 7,63272
 369,80;  161,873;   55,375; 1431,649; 7,73815
 370,39;  216,284;   60,796; 1667,838; 9,67540
 370,99;  197,887;   51,442; 1696,093; 8,90433
 371,58;  210,445;   31,647; 1771,243;10,27810
 372,18;  240,676;   37,705; 1907,216;10,85690
 372,77;  234,074;   52,340; 1905,576; 9,80629
 373,36;  253,578;   48,898; 1956,423;10,73018
 373,96;  217,320;   51,724; 1859,937; 9,15801
 374,55;  206,830;   43,949; 1820,723; 9,16723
 375,14;  196,950;   46,343; 1722,950; 8,98286
 375,74;  211,619;   74,185; 1591,878; 9,05545
 376,33;  156,593;   44,338; 1488,500; 7,77303
 376,92;  143,176;   39,463; 1433,460; 7,44000
 377,52;  224,683;   93,543; 1607,390; 8,66271
 378,11;  166,541;   60,159; 1524,532; 7,26470
 378,71;  210,575;   72,082; 1607,944; 9,01728
 379,30;  209,590;   63,665; 1696,477; 8,93702
 379,89;  195,705;   65,044; 1708,013; 7,95277
 380,49;  206,631;   28,849; 1764,635;10,24220
 381,08;  236,831;   84,991; 1727,991; 9,24165
 381,67;  242,285;   63,350; 1745,186;10,63927
 382,26;  207,831;   46,191; 1718,491; 9,66575
 382,86;  207,036;   47,448; 1715,838; 9,56537
 383,45;  227,687;   48,558; 1836,281;10,02000
 384,04;  220,940;   49,263; 1871,629; 9,42057
 384,64;  225,047;   51,628; 1928,071; 9,24192
 385,23;  243,078;   68,886; 1889,243; 9,56916
 385,82;  243,430;   57,095; 1958,887; 9,79788
 386,42;  277,317;   64,923; 2066,646;10,61053
 387,01;  264,800;   60,033; 2023,818;10,42715
 387,60;  286,627;   79,634; 2039,544;10,56135
 388,20;  253,687;   48,158; 2070,681;10,16205
 388,79;  295,902;   79,840; 2211,914;10,13387
 389,38;  271,031;   45,191; 2114,591;10,91332
 389,97;  282,883;   60,100; 2256,534;10,14292
 390,57;  312,218;   70,519; 2282,250;10,92802
 391,16;  313,118;   67,819; 2344,350;10,77510
 391,75;  314,629;   62,141; 2361,739;10,97965
 392,34;  338,150;   62,689; 2534,314;11,14496
 392,94;  341,749;   57,435; 2531,866;11,49009
 393,53;  333,525;   40,684; 2583,592;11,51597
 394,12;  357,052;   55,742; 2671,462;11,51917
 394,72;  386,853;   63,238; 2681,066;12,36194
 395,31;  380,830;   37,495; 2721,087;12,79387
 395,90;  386,740;   48,221; 2829,972;12,16930
 396,49;  429,277;   54,447; 2959,684;12,90188
 397,09;  397,813;   47,362; 2931,503;12,15097
 397,68;  451,635;   54,610; 3083,778;13,10673
 398,27;  454,365;   57,372; 3138,847;12,88323
 398,86;  444,729;   36,699; 3190,583;12,93739
 399,45;  466,073;   53,590; 3290,237;12,74415
 400,05;  444,862;   43,410; 3227,204;12,60921
 400,64;  498,696;   66,930; 3333,119;13,21929
 401,23;  477,556;   58,900; 3394,109;12,55263
 401,82;  514,856;   81,200; 3450,009;12,87269
 402,42;  518,974;   63,386; 3526,141;13,15681
 403,01;  546,235;   82,610; 3624,378;13,09021
 403,60;  569,562;   63,468; 3703,948;13,90184
 404,19;  568,888;   73,615; 3713,925;13,60522
 404,78;  558,163;   73,264; 3693,351;13,39467
 405,38;  585,880;   70,354; 3880,579;13,53005
 405,97;  602,918;   60,077; 3843,494;14,34790
 406,56;  618,148;   87,139; 3973,463;13,66354
 407,15;  604,037;   70,417; 3987,473;13,62298
 407,74;  658,302;   87,198; 4097,358;14,24143
 408,34;  628,927;   55,849; 4144,632;14,01585
 408,93;  649,191;   66,976; 4153,269;14,24799
 409,52;  630,675;   60,697; 4245,132;13,62138
 410,11;  690,438;   86,171; 4321,721;14,26656
 410,70;  656,536;   66,763; 4271,226;14,02730
 411,29;  689,201;   68,244; 4342,310;14,52848
 411,89;  709,546;   69,889; 4445,711;14,61798
 412,48;  698,925;   59,242; 4494,437;14,42288
 413,07;  722,792;   72,530; 4563,316;14,47991
 413,66;  712,099;   69,295; 4633,159;14,08465
 414,25;  746,053;   62,054; 4719,854;14,68502
 414,84;  753,791;   73,276; 4642,269;14,89419
 415,44;  775,755;   92,604; 4746,905;14,67785
 416,03;  771,558;   71,765; 4819,648;14,73906
 416,62;  789,441;   72,432; 4873,064;14,93573
 417,21;  799,110;   77,516; 4873,048;15,04721
 417,80;  798,776;   75,351; 4894,480;15,01154
 418,39;  806,825;   83,199; 4954,581;14,85462
 418,98;  772,816;   60,327; 4924,443;14,64785
 419,58;  778,521;   74,038; 4935,637;14,49077
 420,17;  793,028;   66,603; 4989,979;14,75461
 420,76;  809,958;   84,165; 5072,948;14,54851
 421,35;  796,270;   61,586; 5004,337;14,86385
 421,94;  850,225;   94,499; 5096,880;15,10731
 422,53;  824,972;   65,494; 5058,333;15,21134
 423,12;  821,312;   72,024; 5078,744;14,96566
 423,71;  826,746;   66,689; 5068,211;15,19651
 424,30;  846,188;   89,573; 5100,569;15,09909
 424,90;  819,871;   43,340; 5114,485;15,31272
 425,49;  837,801;   81,202; 5178,854;14,84211
 426,08;  829,201;   92,902; 5202,554;14,40996
 426,67;  836,293;   45,784; 5121,564;15,57415
 427,26;  849,196;   68,045; 5250,607;15,07269
 427,85;  825,494;   70,837; 5203,512;14,70299
 428,44;  853,378;   77,458; 5282,875;14,90601
 429,03;  854,484;   94,369; 5336,070;14,50130
 429,62;  854,060;   78,572; 5320,344;14,79440
 430,21;  855,262;   87,626; 5379,691;14,50541
 430,80;  842,868;   68,390; 5384,834;14,56760
 431,39;  844,009;   64,020; 5422,044;14,55739
 431,99;  847,646;   78,389; 5404,911;14,44201
 432,58;  856,312;   88,924; 5475,443;14,24646
 433,17;  827,899;   61,295; 5473,958;14,16316
 433,76;  875,299;   76,252; 5611,203;14,43638
 434,35;  871,821;   87,396; 5644,881;14,11476
 434,94;  883,905;   86,117; 5689,945;14,23649
 435,53;  854,767;   85,037; 5702,586;13,70225
 436,12;  855,385;   77,723; 5717,418;13,78908
 436,71;  877,419;  100,188; 5794,986;13,64808
 437,30;  869,913;   85,677; 5821,891;13,67166
 437,89;  861,398;   90,098; 5954,555;13,15210
 438,48;  855,773;   84,647; 5952,581;13,14135
 439,07;  871,365;   82,929; 5962,491;13,40977
 439,66;  897,017;   92,139; 6155,134;13,27526
 440,25;  884,785;   88,523; 6180,618;13,07042
 440,84;  893,723;   93,003; 6242,677;13,02053
 441,43;  892,797;   82,602; 6365,051;12,89615
 442,02;  903,318;   68,192; 6383,382;13,22408
 442,61;  919,509;   96,420; 6402,044;13,05325
 443,20;  927,300;   94,106; 6499,250;13,00820
 443,79;  910,857;   78,469; 6561,544;12,83941
 444,38;  935,987;   88,030; 6697,713;12,82901
 444,97;  943,639;   88,182; 6713,613;12,91172
 445,56;  981,910;   97,374; 6900,792;13,00135
 446,15;  987,383;   90,373; 6925,066;13,12436
 446,74;  964,332;   74,118; 6970,271;12,90886
 447,33; 1018,157;   85,569; 7177,945;13,14917
 447,92; 1029,936;   87,779; 7318,514;13,02989
 448,51; 1063,063;  101,279; 7302,839;13,35521
 449,10; 1077,592;  101,288; 7460,160;13,26704
 449,69; 1118,865;   81,787; 7609,035;13,77765
 450,28; 1118,693;   79,941; 7744,508;13,55265
 450,87; 1145,146;   85,947; 7863,655;13,61840
 451,46; 1190,735;   91,425; 8014,566;13,87467
 452,05; 1199,423;   84,103; 8123,077;13,87391
 452,64; 1213,941;   76,190; 8257,108;13,90738
 453,23; 1304,901;  117,160; 8452,598;14,24930
 453,82; 1281,112;   84,981; 8555,787;14,12063
 454,40; 1294,441;   65,490; 8714,309;14,20948
 454,99; 1364,360;  105,030; 8923,988;14,27981
 455,58; 1330,852;   77,058; 9016,950;14,02471
 456,17; 1371,219;   70,246; 9261,930;14,15381
 456,76; 1413,736;   71,479; 9410,114;14,37316
 457,35; 1441,787;   89,230; 9515,113;14,34939
 457,94; 1470,855;   70,219; 9743,293;14,47974
 458,53; 1479,589;   67,984; 9887,661;14,37526
 459,12; 1567,945;   91,751;10171,451;14,64522
 459,71; 1536,440;   64,036;10274,061;14,42116
 460,30; 1559,217;   84,539;10423,935;14,26271
 460,89; 1606,736;   71,479;10599,313;14,58284
 461,48; 1646,055;   81,219;10776,394;14,63124
 462,06; 1639,971;   83,598;10916,430;14,36718
 462,65; 1632,782;   46,919;11103,619;14,34300
 463,24; 1723,332;   79,275;11350,114;14,58682
 463,83; 1688,571;   60,398;11498,529;14,23461
 464,42; 1728,205;   85,317;11657,945;14,19633
 465,01; 1757,841;   87,290;11862,509;14,18701
 465,60; 1765,518;   73,592;12020,182;14,16242
 466,19; 1800,455;   84,019;12227,993;14,13406
 466,77; 1805,683;   78,373;12394,166;14,02516
 467,36; 1807,921;   67,653;12490,426;14,00869
 467,95; 1805,007;   79,570;12596,793;13,78450
 468,54; 1825,549;   83,208;12840,198;13,65794
 469,13; 1843,277;   78,262;12922,172;13,74204
 469,72; 1803,291;   63,791;13155,057;13,28748
 470,31; 1872,838;   84,786;13289,810;13,54070
 470,90; 1839,747;   85,300;13438,703;13,13857
 471,48; 1839,568;   41,648;13679,478;13,18333
 472,07; 1881,275;  115,055;13836,477;12,87199
 472,66; 1859,090;   82,738;14008,309;12,75604
 473,25; 1847,283;   74,173;14079,467;12,66028
 473,84; 1862,120;   77,000;14304,478;12,54699
 474,43; 1857,775;   63,613;14592,221;12,34917
 475,01; 1873,173;   77,105;14597,425;12,36934
 475,60; 1866,667;   52,594;14820,130;12,28420
 476,19; 1907,910;   91,032;15001,136;12,18555
 476,78; 1883,221;   76,553;15242,125;11,91296
 477,37; 1853,667;   62,594;15246,130;11,79615
 477,95; 1881,085;   82,681;15389,262;11,74922
 478,54; 1903,461;   77,430;15582,488;11,77700
 479,13; 1899,961;   67,430;15669,188;11,74567
 479,72; 1907,802;   91,113;15805,546;11,56064
 480,31; 1927,022;   76,707;15975,573;11,63803
 480,89; 1922,373;   62,705;16059,024;11,62560
 481,48; 1931,488;   52,588;16219,657;11,62177
 482,07; 1945,449;   54,108;16308,898;11,63559
 482,66; 1926,984;   48,927;16383,015;11,49778
 483,25; 1990,488;   83,288;16630,057;11,52611
 483,83; 2005,996;   63,202;16703,451;11,67527
 484,42; 1998,355;   60,119;16806,393;11,57413
 485,01; 2038,863;   70,837;16977,482;11,64055
 485,60; 2106,425;   76,114;17039,768;11,96859
 486,18; 2087,585;   64,381;17116,361;11,86492
 486,77; 2127,601;   86,760;17139,299;11,96796
 487,36; 2139,648;   64,012;17352,295;12,00603
 487,95; 2189,406;   59,474;17409,289;12,27639
 488,53; 2216,782;   75,477;17539,963;12,26091
 489,12; 2209,030;   56,625;17605,164;12,26544
 489,71; 2198,694;   30,953;17645,000;12,30689
 490,30; 2249,835;   71,683;17741,910;12,32668
 490,88; 2322,329;   92,672;17887,416;12,52987
 491,47; 2293,254;   64,623;17893,189;12,50034
 492,06; 2307,236;   61,236;17920,559;12,57606
 492,65; 2326,976;   73,466;17965,068;12,59535
 493,23; 2339,664;   61,491;18055,730;12,66057
 493,82; 2342,937;   81,132;18124,662;12,53527
 494,41; 2338,023;   54,061;18115,820;12,64529
 494,99; 2380,120;   79,100;18195,479;12,70133
 495,58; 2417,835;   86,883;18196,910;12,87106
 496,17; 2367,432;   64,075;18207,414;12,69533
 496,76; 2376,085;   76,081;18266,463;12,64407
 497,34; 2375,992;   59,145;18340,604;12,67321
 497,93; 2370,668;   58,248;18376,379;12,62367
 498,52; 2384,669;   78,402;18390,025;12,59456
 499,10; 2386,818;   80,950;18436,826;12,56202
 499,69; 2358,117;   65,096;18438,979;12,47978
 500,28; 2340,222;   49,807;18460,174;12,44090
 500,86; 2366,147;   69,258;18459,047;12,49002
 501,45; 2340,647;   55,558;18434,447;12,43323
 502,04; 2330,394;   64,653;18547,600;12,25855
 502,62; 2323,132;   84,875;18603,514;12,08651
 503,21; 2300,180;   62,370;18554,467;12,10144
 503,80; 2291,841;   68,447;18810,752;11,86297
 504,38; 2275,064;   56,591;18774,932;11,85187
 504,97; 2245,141;   51,647;18819,252;11,68766
 505,56; 2250,751;   65,115;18835,395;11,64413
 506,14; 2238,672;   77,809;18917,422;11,46978
 506,73; 2187,990;   39,495;18841,553;11,42691
 507,32; 2211,284;   68,584;18928,357;11,36122
 507,90; 2193,988;   79,788;18947,057;11,20565
 508,49; 2185,013;   56,893;18952,180;11,26271
 509,08; 2194,001;   68,117;19047,643;11,20093
 509,66; 2134,611;   72,885;19103,883;10,83351
 510,25; 2159,253;   63,469;19226,143;10,93680
 510,83; 2139,190;   56,595;19281,453;10,83282
 511,42; 2170,327;   69,122;19226,863;10,96792
 512,01; 2118,919;   53,304;19400,574;10,67652
 512,59; 2156,341;   55,547;19512,553;10,79711
 513,18; 2137,823;   58,661;19397,521;10,75122
 513,77; 2130,198;   53,456;19431,299;10,71709
 514,35; 2152,012;   53,139;19622,031;10,72556
 514,94; 2179,218;   72,350;19687,326;10,74112
 515,52; 2162,402;   46,271;19662,590;10,78761
 516,11; 2242,866;   78,298;19882,627;10,92977
 516,69; 2210,046;   52,504;19688,600;10,98763
 517,28; 2286,586;   85,734;19688,811;11,22708
 517,87; 2263,439;   59,940;19713,758;11,21156
 518,45; 2281,533;   79,329;19768,162;11,18504
 519,04; 2323,604;   54,421;19868,842;11,45218
 519,62; 2341,236;   54,136;19872,158;11,54050
 520,21; 2343,026;   35,768;19909,316;11,60969
 520,79; 2422,532;   54,433;20074,359;11,82871
 521,38; 2437,458;   56,080;20088,336;11,88772
 521,97; 2498,203;   61,825;20362,438;12,00150
 522,55; 2538,928;   68,018;20268,967;12,23165
 523,14; 2531,452;   41,615;20435,494;12,20874
 523,72; 2636,882;   72,577;20645,963;12,46418
 524,31; 2665,690;   80,995;20602,152;12,59527
 524,89; 2685,209;   52,835;20792,332;12,69256
 525,48; 2676,497;   38,060;20930,895;12,62843
 526,06; 2703,019;   61,004;20986,475;12,62584
 526,65; 2788,981;   70,081;21225,059;12,85229
 527,23; 2767,389;   60,842;21099,305;12,86476
 527,82; 2819,314;   51,846;21394,326;12,96695
 528,41; 2850,673;   70,963;21467,369;12,99148
 528,99; 2885,113;   76,793;21623,979;13,03335
 529,58; 2867,465;   54,944;21678,078;13,00700
 530,16; 2918,823;   52,161;21849,721;13,15130
 530,75; 2985,495;   91,906;22135,348;13,12676
 531,33; 2986,796;   46,160;22062,895;13,35637
 531,92; 2990,911;   55,185;22305,984;13,19380
 532,50; 3120,986;   95,992;22653,354;13,41023
 533,09; 3128,008;   75,582;22696,484;13,49383
 533,67; 3181,181;   78,923;22811,215;13,64692
 534,26; 3217,140;   69,593;23054,404;13,69403
 534,84; 3310,776;   71,366;23213,969;13,99761
 535,42; 3344,095;   55,806;23406,248;14,08234
 536,01; 3441,936;   85,136;23645,059;14,24792
 536,59; 3484,426;   39,368;23888,217;14,44538
 537,18; 3614,617;   88,196;24159,578;14,64985
 537,76; 3681,417;   74,254;24458,422;14,79305
 538,35; 3782,780;   70,127;24575,412;15,15041
 538,93; 3883,719;   81,404;24764,273;15,40467
 539,52; 3963,081;   64,781;24960,459;15,65854
 540,10; 4101,792;   70,803;25277,049;15,99203
 540,69; 4187,577;   79,720;25578,816;16,10981
 541,27; 4292,918;   74,050;25731,926;16,44278
 541,85; 4372,878;   61,374;26132,963;16,53718
 542,44; 4459,987;   53,688;26216,357;16,84193
 543,02; 4592,392;   89,603;26640,949;16,95880
 543,61; 4657,491;   90,849;26820,500;17,08455
 544,19; 4664,355;   63,676;26889,137;17,15042
 544,78; 4735,750;   69,165;27105,543;17,26039
 545,36; 4874,445;  102,308;27548,295;17,38737
 545,94; 4858,295;   69,206;27636,047;17,37264
 546,53; 4965,569;   78,959;27848,270;17,59716
 547,11; 5047,950;  100,319;28165,689;17,62895
 547,70; 5090,417;   70,196;28238,479;17,82225
 548,28; 5097,113;   48,793;28532,080;17,72380
 548,86; 5257,113;   89,193;28783,080;18,01053
 549,45; 5267,003;   42,825;28966,537;18,06192
 550,03; 5365,938;   81,444;29260,053;18,11085
 550,62; 5421,502;   68,671;29762,590;18,02669
 551,20; 5510,991;   76,749;30011,801;18,15344
 551,78; 5486,748;   67,712;29974,994;18,11945
 552,37; 5625,795;   49,706;30399,547;18,37271
 552,95; 5689,766;   71,098;30509,926;18,45888
 553,54; 5697,990;   57,095;30897,453;18,29063
 554,12; 5777,362;   84,641;31044,379;18,38750
 554,70; 5910,351;   68,419;31504,891;18,58329
 555,29; 5918,661;   62,687;31736,232;18,48853
 555,87; 5989,333;   60,586;31982,207;18,57283
 556,45; 6009,694;   67,753;32206,900;18,48817
 557,04; 6121,944;   57,255;32612,447;18,62895
 557,62; 6213,844;   75,455;32861,547;18,72254
 558,20; 6226,393;   42,756;33276,695;18,60639
 558,79; 6398,532;  106,633;33556,160;18,81013
 559,37; 6348,891;   57,649;33863,102;18,61014
 559,95; 6455,698;   54,914;34136,043;18,78102
 560,54; 6493,127;   72,222;34305,766;18,75618
 561,12; 6595,149;   59,665;34682,145;18,87642
 561,70; 6630,121;   46,911;34991,668;18,83891
 562,29; 6694,280;   80,127;35404,613;18,72399
 562,87; 6775,603;   77,425;35710,539;18,79762
 563,45; 6829,003;   78,425;36018,738;18,78275
 564,04; 6843,989;   59,142;36042,004;18,85577
 564,62; 6836,274;   47,716;36491,316;18,62757
 565,20; 6934,647;   66,858;36805,246;18,69377
 565,78; 7078,237;   68,890;37188,805;18,88298
 566,37; 7099,878;   71,774;37480,063;18,78756
 566,95; 7090,792;   51,503;37583,648;18,75536
 567,53; 7150,194;   74,253;38052,199;18,63171
 568,12; 7150,813;   59,193;38062,680;18,66045
 568,70; 7278,442;   87,801;38674,398;18,63508
 569,28; 7295,421;   66,111;38869,070;18,63082
 569,86; 7373,767;   68,352;39075,074;18,72861
 570,45; 7461,716;   78,500;39478,477;18,73914
 571,03; 7419,670;   59,855;39592,273;18,61716
 571,61; 7586,628;   73,276;40053,410;18,79271
 572,19; 7456,659;   64,434;40072,484;18,47685
 572,78; 7627,132;   67,633;40432,859;18,72775
 573,36; 7659,995;   97,006;40710,348;18,62193
 573,94; 7690,248;   60,012;40918,395;18,67484
 574,52; 7788,222;   71,507;41099,672;18,80834
 575,11; 7773,801;   37,317;41357,844;18,72310
 575,69; 7838,196;   53,360;41544,496;18,76265
 576,27; 7871,105;   59,374;41726,988;18,74773
 576,85; 7956,995;   41,506;42173,148;18,78752
 577,44; 8021,294;   44,753;42382,301;18,84035
 578,02; 8031,669;   28,402;42406,926;18,88520
 578,60; 8122,825;   61,614;42851,668;18,83898
 579,18; 8207,230;   49,025;43107,563;18,94678
 579,76; 8246,719;   34,004;43175,176;19,03684
 580,35; 8299,763;   68,795;43417,727;18,98771
 580,93; 8384,585;   57,138;43808,508;19,03357
 581,51; 8398,187;   41,292;44046,855;18,99054
 582,09; 8431,013;   64,239;44214,832;18,95054
 582,67; 8513,391;   54,349;44465,402;19,04715
 583,26; 8586,627;   36,522;44784,965;19,10704
 583,84; 8683,972;   32,609;45104,422;19,19462
 584,42; 8754,343;   61,001;45460,102;19,14871
 585,00; 8863,396;   91,760;45715,797;19,22591
 585,58; 8878,744;   39,255;45961,547;19,24880
 586,17; 8864,981;   62,477;45973,762;19,17286
 586,75; 8920,626;   11,568;46134,516;19,31589
 587,33; 9031,614;   45,046;46571,527;19,31495
 587,91; 9078,726;   82,468;46748,816;19,27783
 588,49; 9038,395;   78,053;46766,602;19,19173
 589,07; 9027,909;   48,635;46805,531;19,20417
 589,65; 9052,220;   40,957;46709,723;19,30898
 590,24; 9151,371;   48,755;46929,875;19,41638
 590,82; 9022,776;   38,666;47030,867;19,11830
 591,40; 9142,571;   45,309;47090,820;19,33715
 591,98; 9137,146;   57,604;46914,301;19,37725
 592,56; 9157,977;   59,566;47130,367;19,32920
 593,14; 9107,346;   52,004;47190,000;19,21028
 593,72; 9113,189;   45,195;47402,055;19,14822
 594,30; 9176,170;   49,302;47338,324;19,30018
 594,89; 9179,819;   48,504;47193,375;19,36863
 595,47; 9178,981;   34,677;47507,563;19,26216
 596,05; 9183,044;   26,755;47496,148;19,28883
 596,63; 9214,244;   39,555;47656,648;19,26764
 597,21; 9162,802;   36,371;47898,391;19,06821
 597,79; 9212,420;   44,357;47797,922;19,19870
 598,37; 9136,140;   46,797;47735,902;19,05958
 598,95; 9231,525;   60,568;47945,016;19,15227
 599,53; 9181,498;   41,756;47673,598;19,18830
 600,11; 9238,767;   56,998;48051,426;19,13091
 600,70; 9207,754;   56,123;47864,090;19,14248
 601,28; 9192,972;   44,809;48052,723;19,05553
 601,86; 9190,426;   59,768;47991,918;19,04913
 602,44; 9226,576;   25,766;48088,270;19,14343
 603,02; 9228,409;   40,278;48089,488;19,12234
 603,60; 9256,410;   70,032;48463,637;18,98263
 604,18; 9228,683;   63,931;48321,609;18,99128
 604,76; 9222,813;   52,839;48313,832;19,00080
 605,34; 9169,131;   39,079;48122,813;18,98782
 605,92; 9182,200;   62,863;47909,996;19,05932
 606,50; 9122,371;   19,555;47963,875;18,98622
 607,08; 9087,396;   44,460;47738,996;18,96011
 607,66; 9131,202;   61,171;47912,391;18,95465
 608,24; 9104,467;   50,152;47913,875;18,91686
 608,82; 9041,201;   33,417;47994,344;18,78151
 609,40; 8988,873;   58,063;47801,270;18,70593
 609,98; 8934,219;   38,604;47812,473;18,62025
 610,56; 8873,658;   55,680;47786,738;18,47430
 611,14; 8861,061;   55,687;47626,133;18,51018
 611,72; 8791,313;   61,793;47800,578;18,28601
 612,30; 8682,188;   42,242;47687,906;18,13375
 612,88; 8629,828;   69,218;47868,668;17,90943
 613,46; 8536,771;   24,355;47567,574;17,90458
 614,04; 8451,250;   44,319;47735,391;17,62789
 614,62; 8270,105;   56,074;47474,188;17,32256
 615,20; 8134,309;   53,335;47490,133;17,03524
 615,78; 7946,692;   34,003;47445,250;16,68948
 616,36; 7784,048;   33,512;47368,293;16,37387
 616,94; 7570,802;   13,571;47345,391;15,96649
 617,52; 7446,285;   20,638;47151,305;15,75545
 618,10; 7282,399;   73,110;47277,746;15,27242
 618,68; 7144,579;   32,074;47203,863;15,07788
 619,26; 7019,256;   42,230;47278,984;14,77033
 619,84; 6877,183;   39,031;46848,809;14,60838
 620,42; 6782,990;   46,995;46977,055;14,35326
 621,00; 6732,990;   29,095;46918,152;14,29735
 621,58; 6748,017;   40,796;46835,078;14,33342
 622,16; 6746,004;   52,978;46764,285;14,32849
 622,74; 6856,602;   44,971;47010,891;14,50335
 623,32; 6900,955;   36,376;46796,137;14,68053
 623,90; 6975,052;   69,073;46749,637;14,79412
 624,48; 7025,871;   43,455;46528,375;15,02082
 625,05; 7122,271;   26,455;46671,973;15,21221
 625,63; 7203,571;   50,655;46568,375;15,37675
 626,21; 7268,588;   36,342;46637,707;15,51939
 626,79; 7337,391;   61,549;46653,902;15,61596
 627,37; 7343,618;   44,150;46569,926;15,68908
 627,95; 7431,209;   78,235;46474,934;15,84805
 628,53; 7437,090;   43,895;46391,652;15,95157
 629,11; 7380,775;   45,613;46209,320;15,88946
 629,69; 7468,674;   52,716;46415,516;15,99549
 630,27; 7433,583;   79,831;46333,211;15,89884
 630,84; 7447,471;   44,355;46174,574;16,04830
 631,42; 7444,085;   59,238;46441,008;15,92187
 632,00; 7396,322;   47,107;46328,672;15,87936
 632,58; 7347,677;   62,620;46192,816;15,79238
 633,16; 7403,981;   57,181;46244,859;15,90641
 633,74; 7278,843;   69,401;46156,301;15,64315
 634,32; 7212,129;   42,172;46079,516;15,57422
 634,90; 7241,757;   70,784;46435,531;15,46644
 635,47; 7126,011;   42,385;46012,984;15,40904
 636,05; 7077,629;   45,572;45855,316;15,35057
 636,63; 6995,390;   59,695;46075,453;15,07243
 637,21; 6959,719;   49,204;46146,773;14,99106
 637,79; 6944,708;   69,182;46261,484;14,88457
 638,37; 6865,214;   55,589;45920,184;14,84724
 638,94; 6851,261;   42,087;45894,230;14,85028
 639,52; 6807,460;   49,987;46062,531;14,68615
 640,10; 6775,465;   61,312;46201,988;14,55149
 640,68; 6745,411;   54,011;46143,938;14,51814
 641,26; 6692,456;   29,510;46023,387;14,48659
 641,84; 6646,101;   58,610;46039,234;14,32667
 642,41; 6637,946;   29,109;46052,684;14,35968
 642,99; 6657,692;   55,709;46103,629;14,33720
 643,57; 6566,137;   30,008;46112,680;14,18348
 644,15; 6588,582;   26,308;46156,527;14,22554
 644,73; 6640,427;   44,607;46289,676;14,26275
 645,30; 6600,772;   79,507;46210,223;14,13649
 645,88; 6594,918;   66,206;46235,473;14,14082
 646,46; 6603,763;   62,005;46367,621;14,12735
 647,04; 6605,708;   52,105;46320,270;14,16439
 647,61; 6578,254;   44,804;46301,816;14,12424
 648,19; 6585,199;   69,504;46384,266;14,06829
 648,77; 6619,244;   29,603;46427,012;14,20261
 649,35; 6588,189;   54,803;46487,262;14,07073
 649,92; 6611,435;   50,502;46409,508;14,15244
 650,50; 6579,780;   31,102;46441,855;14,11026
 651,08; 6594,225;   52,101;46384,605;14,11994
 651,66; 6598,970;   29,100;46667,754;14,08675
 652,23; 6593,216;   41,600;46518,000;14,09665
 652,81; 6658,761;   39,699;46704,750;14,18419
 653,39; 6669,606;   80,299;46763,996;14,11479
 653,97; 6672,651;   24,898;46865,746;14,19221
 654,54; 6679,497;   26,698;46614,395;14,28016
 655,12; 6744,042;   35,897;46912,141;14,31033
 655,70; 6707,987;   51,597;47117,492;14,14270
 656,28; 6832,833;   39,996;47191,539;14,40639
 656,85; 6779,078;   47,396;47130,387;14,29748
 657,43; 6750,423;   16,295;47018,234;14,32734
 658,01; 6777,968;   21,494;47262,984;14,30199
 658,58; 6930,914;   65,494;47656,633;14,42584
 659,16; 6903,359;   59,593;47278,879;14,49358
 659,74; 6958,004;   68,593;47494,027;14,52683
 660,32; 7003,249;   74,792;47569,176;14,58795
 660,89; 6982,395;   43,092;47511,125;14,61890
 661,47; 7039,140;   58,091;47867,473;14,60184
 662,05; 7068,585;   46,191;47948,621;14,65979
 662,62; 7086,730;   64,390;48243,270;14,57556
 663,20; 7153,476;   87,089;48433,516;14,61615
 663,78; 7134,221;   61,489;48846,266;14,49783
 664,35; 7178,166;   54,988;48955,414;14,56670
 664,93; 7145,511;   68,088;48995,359;14,46519
 665,51; 7203,256;   51,587;48983,609;14,61552
 666,08; 7153,001;   44,587;49290,957;14,43439
 666,66; 7238,447;   46,686;49966,707;14,40657
 667,23; 7213,392;   59,186;49907,453;14,35197
 667,81; 7303,137;   65,185;50605,402;14,32117
 668,39; 7218,083;   51,285;50611,852;14,17468
 668,96; 7329,328;   62,684;50956,699;14,27799
 669,54; 7321,473;   38,083;51466,645;14,16215
 670,12; 7411,519;   53,483;51883,996;14,19634
 670,69; 7375,464;   69,682;52389,543;13,96369
 671,27; 7421,809;   34,282;52652,191;14,03995
 671,84; 7368,154;   49,681;52463,039;13,96299
 672,42; 7436,299;   84,481;52984,488;13,89758
 673,00; 7445,245;   62,280;53245,234;13,88220
 673,57; 7380,390;   69,680;52998,383;13,81237
 674,15; 7471,335;   68,479;53364,434;13,89009
 674,72; 7495,581;   57,978;53046,281;14,03631
 675,30; 7472,625;   81,878;53068,227;13,94840
 675,88; 7496,871;   59,777;53131,375;14,01332
 676,45; 7531,416;   66,277;53408,426;13,99482
 677,03; 7595,261;   73,976;53198,973;14,15771
 677,60; 7563,307;   33,776;53411,922;14,10602
 678,18; 7683,552;   53,275;53629,270;14,24197
 678,76; 7728,397;   39,975;53442,918;14,39700
 679,33; 7825,742;   65,974;53470,566;14,53015
 679,91; 7812,587;   45,573;53507,914;14,52801
 680,48; 7860,633;   41,173;53547,363;14,61412
 681,06; 7924,978;   59,372;53492,711;14,72041
 681,63; 7868,124;   37,072;53339,258;14,69180
 682,21; 7896,168;   63,671;53256,508;14,72472
 682,78; 7875,314;   21,171;52780,656;14,88669
 683,36; 7907,059;   52,370;53056,602;14,81898
 683,93; 7827,304;   42,570;52885,551;14,73182
 684,51; 7894,850;   43,969;52822,297;14,87520
 685,08; 7940,895;   48,169;53078,445;14,88343
 685,66; 7939,740;   58,168;53179,797;14,83684
 686,24; 7975,785;   52,967;53178,742;14,91332
 686,81; 7968,831;   60,367;53275,191;14,86139
 687,39; 7847,376;   49,866;53298,738;14,64352
 687,96; 7883,321;   56,166;53404,387;14,67182
 688,54; 7890,066;   35,465;53481,938;14,69620
 689,11; 7903,012;   27,465;53681,984;14,67825
 689,69; 7869,457;   31,064;53730,031;14,59692
 690,26; 7989,102;   73,564;54071,480;14,65897
 690,84; 7940,847;   55,563;53842,828;14,66013
 691,41; 7989,292;   43,962;54165,375;14,68057
 691,98; 7986,438;   37,562;54195,523;14,67721
 692,56; 8001,683;   41,261;54274,172;14,67821
 693,13; 8120,928;   58,961;54603,621;14,78049
 693,71; 8105,974;   43,360;54667,969;14,76004
 694,28; 8225,919;   39,860;54832,617;14,94004
 694,86; 8296,164;   50,659;55173,266;14,95848
 695,43; 8299,810;   61,159;55058,313;14,98014
 696,01; 8408,055;   48,858;55477,363;15,08104
 696,58; 8428,700;   49,858;55361,910;15,14831
 697,16; 8576,146;   42,557;55431,758;15,40659
 697,73; 8733,090;   76,356;55810,008;15,53233
 698,30; 8689,936;   55,156;55690,656;15,52027
 698,88; 8769,480;   34,555;55941,102;15,62415
 699,45; 8859,526;   40,755;56208,852;15,70068
 700,03; 9012,472;   59,254;56380,699;15,89664
 700,60; 8985,816;   66,154;56539,246;15,79454
 701,18; 9067,162;   56,053;56680,996;15,91367
 701,75; 9197,407;   75,953;57150,145;15,98175
 702,32; 9192,952;   51,852;56796,793;16,10910
 702,90; 9283,697;   53,051;57066,941;16,19017
 703,47; 9248,543;   51,051;57460,688;16,02082
 704,05; 9339,988;   74,050;57541,035;16,12393
 704,62; 9296,133;   40,550;57539,184;16,09705
 705,19; 9331,479;   43,849;57563,734;16,14681
 705,77; 9394,724;   39,749;57818,680;16,19098
 706,34; 9402,869;   74,148;57908,730;16,13000
 706,91; 9378,414;   54,948;57997,379;16,09091
 707,49; 9422,060;   64,047;58274,027;16,07630
 708,06; 9429,705;   83,146;58384,973;16,03133
 708,64; 9474,850;   35,346;58413,621;16,16955
 709,21; 9460,295;   65,945;58609,969;16,04664
 709,78; 9474,940;   61,545;58767,219;16,03490
 710,36; 9490,485;   69,044;59027,266;15,97986
 710,93; 9582,731;   65,444;59277,016;16,07336
 711,50; 9588,876;   53,143;59302,664;16,09419
 712,08; 9719,422;   60,943;59889,211;16,14367
 712,65; 9757,767;   64,042;59580,059;16,28759
 713,22; 9852,412;   81,542;59653,605;16,40177
 713,80; 9918,157;   81,041;59879,855;16,45035
 714,37; 9880,902;   57,440;59519,605;16,52053
 714,94; 9982,947;   66,040;59479,551;16,69133
 715,52;10060,393;   62,339;59611,398;16,78961
 716,09;10126,838;   48,839;59741,449;16,88316
 716,66;10199,384;   76,138;59670,395;16,98695
 717,23;10212,028;   76,238;59753,844;16,98424
 717,81;10265,374;   59,937;59513,094;17,16551
 718,38;10269,819;   56,437;59206,742;17,26683
 718,95;10342,465;   77,336;59080,891;17,39748
 719,53;10394,710;   58,635;59153,836;17,49055
 720,10;10462,555;   67,635;59244,586;17,56583
 720,67;10399,700;   39,134;58810,133;17,62870
 721,24;10363,745;   69,934;58290,582;17,68069
 721,82;10468,591;   52,633;58242,730;17,89988
 722,39;10517,636;   70,733;58534,477;17,86903
 722,96;10536,281;   69,632;58535,527;17,90214
 723,53;10563,126;   92,032;58405,773;17,95648
 724,11;10589,071;   81,531;58418,422;18,01183
 724,68;10613,717;   76,031;58469,973;18,04586
 725,25;10668,462;   70,130;58659,320;18,08923
 725,82;10632,407;   93,129;59047,066;17,87714
 726,40;10783,053;   76,629;59143,414;18,12596
 726,97;10762,498;   62,928;59210,363;18,08966
 727,54;10829,144;   59,028;59296,012;18,18140
 728,11;10837,089;   53,427;59595,258;18,11107
 728,69;10861,434;   40,727;59430,406;18,21984
 729,26;10943,979;   61,226;59899,258;18,18702
 729,83;11055,024;   49,426;60292,703;18,26859
 730,40;11071,569;   67,025;60108,352;18,32828
 730,97;11125,314;   54,424;60556,699;18,29830
 731,55;11256,760;   45,024;60690,648;18,48730
 732,12;11250,306;   91,223;60692,797;18,41385
 732,69;11357,950;   74,323;60754,344;18,59529
 733,26;11403,496;   60,522;60783,395;18,67990
 733,83;11471,541;   40,622;60893,340;18,78457
 734,41;11578,187;   72,321;61214,391;18,81825
 734,98;11552,331;   55,921;61057,438;18,84611
 735,55;11703,377;   54,020;61239,086;19,03954
 736,12;11818,021;   80,319;61632,633;19,06947
 736,69;11960,167;   80,919;61557,781;19,32312
 737,26;12001,813;   62,718;61698,129;19,37051
 737,84;12054,958;   64,818;61653,879;19,46797
 738,41;12185,203;   64,117;61895,625;19,60341
 738,98;12174,248;   67,917;61786,477;19,61538
 739,55;12229,193;   52,516;61643,723;19,77016
 740,12;12265,738;   57,816;62108,270;19,67419
 740,69;12312,684;   74,115;61972,621;19,77199
 741,26;12344,629;   77,315;61881,668;19,84863
 741,83;12333,774;   68,514;61724,715;19,89299
 742,41;12425,120;   65,313;61882,563;19,99411
 742,98;12491,765;   94,613;62100,914;19,99337
 743,55;12486,811;   77,912;62231,461;19,96491
 744,12;12498,455;   55,512;62051,008;20,07072
 744,69;12622,101;   67,111;62200,758;20,20643
 745,26;12594,846;   49,811;61966,406;20,26118
 745,83;12555,591;   72,810;62373,352;20,03639
 746,40;12638,137;   67,110;62052,801;20,28053
 746,97;12582,781;   50,109;61967,551;20,24094
 747,55;12612,027;   63,908;61938,199;20,28002
 748,12;12565,872;   68,708;61927,547;20,20271
 748,69;12630,917;   73,107;61816,492;20,33871
 749,26;12634,163;   61,907;62114,242;20,26073
 749,83;12610,008;   50,406;62049,590;20,25769
 750,40;12693,953;   93,406;61932,438;20,37637
 750,97;12740,698;  105,505;62078,688;20,38816
 751,54;12747,544;   44,505;61752,434;20,58575
 752,11;12802,789;   60,404;61797,984;20,63959
 752,68;12766,734;   93,003;61696,633;20,57303
 753,25;12861,680;   64,303;61339,980;20,88492
 753,82;12823,925;   72,902;61456,027;20,77285
 754,39;12913,170;   77,402;61643,777;20,84867
 754,96;12879,215;   67,501;61359,523;20,90274
 755,53;13020,360;   45,801;61551,871;21,09476
 756,10;12966,105;   72,100;61327,820;21,04947
 756,67;13093,251;   72,500;61544,969;21,18144
 757,24;13018,296;   79,399;61345,215;21,11928
 757,81;13046,241;   22,199;61266,965;21,26556
 758,38;13182,587;   63,598;61495,012;21,35551
 758,95;13253,132;   83,497;61168,961;21,55936
 759,52;13175,877;   53,797;60702,711;21,63613
 760,09;13103,022;   80,196;60693,457;21,48511
 760,66;13108,968;   66,096;60242,406;21,67443
 761,23;13109,413;   88,695;60198,652;21,66150
 761,80;13029,258;   67,295;60262,402;21,53325
 762,37;13086,903;   79,794;60200,852;21,63486
 762,94;13197,648;   81,194;60215,199;21,81204
 763,51;12999,394;   49,293;60035,145;21,58859
 764,08;13066,239;   69,392;60022,195;21,67846
 764,65;12994,784;   80,492;59748,141;21,64371
 765,22;12973,029;   60,191;59771,191;21,62556
 765,79;13021,575;   83,491;59544,438;21,75896
 766,36;12839,021;   73,990;59413,586;21,51183
 766,93;12900,165;   58,690;59539,535;21,58926
 767,50;12915,711;   77,689;59556,785;21,58409
 768,07;12884,256;   67,389;59555,531;21,54525
 768,64;12798,602;   90,388;59193,578;21,50174
 769,21;12649,946;   61,288;58606,828;21,50234
 769,78;12696,892;   81,087;58207,375;21,70413
 770,34;12540,737;   36,986;58160,023;21,51256
 770,91;12509,982;   60,186;58034,773;21,47458
 771,48;12547,327;   70,585;57894,922;21,57697
 772,05;12457,572;   58,285;57586,770;21,55330
 772,62;12399,618;   51,284;57213,918;21,60211
 773,19;12465,063;   57,684;57361,766;21,65183
 773,76;12467,208;   78,183;57313,715;21,64569
 774,33;12407,354;   70,983;57111,762;21,62728
 774,90;12342,299;   54,582;56564,109;21,74450
 775,47;12311,444;   73,181;56633,859;21,63740
 776,03;12327,589;   66,481;56357,707;21,78156
 776,60;12277,234;   64,480;56136,152;21,78061
 777,17;12261,880;   69,780;55955,602;21,81609
 777,74;12210,825;   40,979;55430,750;21,97129
 778,31;12227,170;   64,779;55665,000;21,87472
 778,88;12234,916;   25,178;55315,047;22,08314
 779,45;12145,661;   76,978;55020,195;21,96574
 780,01;12149,306;   63,277;55023,242;21,99060
 780,58;12152,451;   70,076;54696,891;22,11803
 781,15;12077,097;   46,576;54313,441;22,16918
 781,72;12078,941;   85,875;54310,289;22,11747
 782,29;11959,188;   65,975;54010,734;22,04702
 782,86;11944,532;   74,074;53636,184;22,16204
 783,42;11958,678;   64,974;53663,332;22,19043
 783,99;11857,723;   68,373;53469,980;22,07677
 784,56;11808,568;   69,573;53343,430;22,03519
 785,13;11713,413;   42,572;52994,277;22,04054
 785,70;11663,759;   69,172;52649,625;22,05114
 786,26;11663,304;   62,371;52642,371;22,06339
 786,83;11539,849;   81,570;52462,320;21,87498
 787,40;11531,395;   74,970;52177,871;21,98807
 787,97;11425,439;   45,669;52106,719;21,85851
 788,54;11492,484;   76,969;51899,164;22,02824
 789,10;11367,430;   61,568;51627,113;21,92522
 789,67;11355,175;   73,868;51235,262;22,05043
 790,24;11404,820;   63,567;51157,609;22,19682
 790,81;11241,366;   85,767;50574,457;22,09524
 791,37;11216,311;   79,866;50510,508;22,08269
 791,94;11240,156;   80,665;50570,754;22,10234
 792,51;11125,102;   56,165;50218,805;22,06610
 793,08;11057,747;   66,364;49950,852;22,03367
 793,64;11000,692;   65,464;49827,301;21,97513
 794,21;10976,938;   77,863;49479,348;22,06224
 794,78;10927,082;   55,163;49217,996;22,11410
 795,35;10859,828;   76,762;49034,742;22,02514
 795,91;10859,173;   51,162;48702,293;22,21533
 796,48;10804,418;   65,461;48451,738;22,19422
 797,05;10723,764;   75,961;48155,590;22,14618
 797,62;10730,709;   62,260;48153,535;22,18375
 798,18;10704,454;   57,059;47786,684;22,30773
 798,75;10667,799;   65,659;47600,832;22,30378
 799,32;10645,545;   73,458;47550,383;22,26784
 799,88;10633,790;   55,658;47393,430;22,34607
 800,45;10539,935;   41,357;46711,777;22,49514
 801,02;10670,280;   66,457;46736,125;22,72102
 801,58;10595,926;  103,656;46334,172;22,69555
 802,15;10506,070;   71,656;46161,523;22,63928
 802,72;10453,716;   77,255;45929,070;22,63043
 803,28;10385,761;   59,654;45792,617;22,57913
 803,85;10316,807;   45,254;45498,766;22,59793
 804,42;10268,052;   80,753;45311,516;22,52294
 804,98;10225,697;  101,253;45317,164;22,39133
 805,55;10145,442;   67,352;44887,012;22,48587
 806,12;10125,987;   87,852;44742,457;22,47951
 806,68;10047,532;   72,951;44340,906;22,53228
 807,25;10039,678;   88,851;44179,156;22,56920
 807,82;10058,323;   84,150;44195,102;22,61156
 808,38; 9944,868;   73,549;43813,652;22,56812
 808,95; 9885,813;   63,749;43737,699;22,48953
 809,52; 9831,859;   59,648;43807,047;22,33781
 810,08; 9813,704;   70,748;43565,098;22,40051
 810,65; 9850,850;   76,847;43732,043;22,38909
 811,21; 9840,694;   74,347;43598,191;22,43907
 811,78; 9866,939;   85,446;43629,039;22,46368
 812,35; 9796,885;   69,846;43379,188;22,45945
 812,91; 9809,330;   92,745;43541,438;22,36335
 813,48; 9791,976;   70,045;43341,285;22,46742
 814,04; 9726,821;   74,244;43530,332;22,21226
 814,61; 9694,466;   78,943;43190,980;22,30357
 815,18; 9678,212;   76,443;43015,629;22,36132
 815,74; 9638,057;   81,642;42867,379;22,33551
 816,31; 9595,202;   93,042;42608,227;22,35004
 816,87; 9432,848;   43,141;42052,676;22,35137
 817,44; 9479,292;   96,041;41998,824;22,39291
 818,00; 9447,237;   56,140;41704,570;22,54850
 818,57; 9387,583;   77,340;41640,117;22,40044
 819,14; 9319,328;   94,739;41450,367;22,30552
 819,70; 9317,974;   90,138;41083,016;22,51083
 820,27; 9220,919;   65,338;40847,563;22,44993
 820,83; 9244,563;   76,437;40615,113;22,61575
 821,40; 9190,409;  108,537;40237,160;22,63191
 821,96; 9132,854;   78,536;40230,809;22,54995
 822,53; 9111,600;   86,236;39938,355;22,64714
 823,09; 9032,045;   97,135;39618,305;22,60791
 823,66; 8962,090;   82,735;39519,152;22,51562
 824,22; 8894,136;   81,934;39276,801;22,48305
 824,79; 8827,381;   77,233;38978,047;22,49348
 825,35; 8771,226;   88,233;38961,195;22,33684
 825,92; 8740,271;   79,632;38659,246;22,44874
 826,48; 8693,017;   91,832;38252,191;22,53958
 827,05; 8686,861;  100,231;38092,641;22,60091
 827,61; 8611,007;   69,431;38141,289;22,43541
 828,18; 8529,652;   74,030;37948,039;22,32566
 828,74; 8460,997;  102,130;37810,285;22,16727
 829,31; 8509,942;  112,729;37720,332;22,32850
 829,87; 8418,588;   73,029;37591,383;22,24394
 830,44; 8381,633;   83,128;37188,332;22,36480
 831,00; 8284,179;   94,627;37026,078;22,17501
 831,57; 8300,724;  111,327;37133,625;22,12017
 832,13; 8227,469;   83,826;36566,773;22,32178
 832,69; 8139,914;   77,626;36531,824;22,11621
 833,26; 8104,659;  101,325;36464,973;22,00916
 833,82; 8084,905;  116,625;36341,219;21,99688
 834,39; 8029,250;   87,224;36149,969;22,02280
 834,95; 7935,395;   76,024;36031,016;21,85892
 835,52; 7983,240;  105,023;35825,164;22,05539
 836,08; 7988,686;  109,022;35731,211;22,12010
 836,64; 7955,831;   91,122;35587,961;22,15608
 837,21; 7805,076;   90,721;35487,109;21,79419
 837,77; 7830,921;   95,721;35148,656;22,06720
 838,34; 7796,367;   79,720;35189,105;21,97887
 838,90; 7746,512;   67,820;34846,453;22,07876
 839,46; 7760,957;   92,219;34863,402;22,05487
 840,03; 7803,902;   87,619;34824,848;22,21330
 840,59; 7795,647;   96,418;34530,496;22,35933
 841,16; 7720,993;  108,518;34448,344;22,16807
 841,72; 7622,038;   61,717;34317,793;22,07002
 842,28; 7613,283;   81,216;34208,543;22,07049
 842,85; 7635,628;  102,216;34333,289;22,00753
 843,41; 7575,274;  101,715;34174,238;21,93427
 843,97; 7474,019;   93,515;33927,188;21,81408
 844,54; 7438,165;  106,314;33683,836;21,83559
 845,10; 7404,109;   99,614;33447,383;21,90400
 845,67; 7402,555;   77,213;33269,629;22,06932
 846,23; 7354,700;  103,213;33224,379;21,89382
 846,79; 7328,045;  108,812;32973,328;21,96665
 847,36; 7209,690;   67,111;32864,273;21,77804
 847,92; 7255,936;   88,411;32868,023;21,86580
 848,48; 7201,681;   56,410;32851,570;21,78758
 849,04; 7136,126;   70,710;32682,721;21,66508
 849,61; 7065,572;   59,109;32504,168;21,59485
 850,17; 7066,617;   70,509;32576,316;21,52264
 850,73; 7016,162;   70,408;32366,064;21,50677
 851,30; 6931,507;   54,308;32162,713;21,41869
 851,86; 6876,553;   67,507;31977,561;21,33825
 852,42; 6885,298;   62,306;32107,209;21,29197
 852,99; 6893,343;   96,006;32017,758;21,29375
 853,55; 6834,088;   83,305;31799,506;21,28497
 854,11; 6765,233;   70,705;31699,553;21,16589
 854,67; 6796,579;   96,004;31494,301;21,34057
 855,24; 6688,824;   55,304;31331,250;21,20966
 855,80; 6659,469;   79,803;31543,799;20,91173
 856,36; 6655,814;   70,703;31319,646;21,07307
 856,92; 6643,060;   55,102;31022,594;21,27378
 857,49; 6602,605;   85,102;31039,643;21,05508
 858,05; 6610,150;   72,701;30859,191;21,23480
 858,61; 6565,596;   72,500;30936,939;21,03746
 859,17; 6542,441;   83,000;30820,986;21,01452
 859,74; 6556,486;   85,299;30645,336;21,17532
 860,30; 6518,031;  105,199;30506,584;21,09388
 860,86; 6500,477;   69,998;30433,432;21,17836
 861,42; 6457,722;   85,998;30371,080;21,03915
 861,99; 6396,367;   63,297;30177,027;21,03051
 862,55; 6291,512;   73,097;29970,076;20,79948
 863,11; 6390,458;   91,896;30127,523;20,97030
 863,67; 6293,803;   66,795;30045,172;20,77166
 864,23; 6263,048;   83,795;29931,920;20,70232
 864,80; 6233,493;   69,294;29597,270;20,87579
 865,36; 6217,639;   84,494;29668,217;20,73148
 865,92; 6132,584;  101,993;29589,766;20,45116
 866,48; 6128,429;   69,793;29520,813;20,57191
 867,04; 6042,375;   54,992;29244,861;20,51185
 867,60; 6008,919;   87,792;29071,910;20,42887
 868,17; 5991,665;  102,091;28909,059;20,44496
 868,73; 5927,910;   85,891;28762,406;20,37214
 869,29; 5859,355;   60,390;28711,254;20,24011
 869,85; 5812,500;  110,289;28446,201;20,12362
 870,41; 5774,346;   85,589;28238,350;20,20675
 870,97; 5761,191;  107,188;28291,998;20,06046
 871,54; 5640,136;   73,088;28003,646;19,93175
 872,10; 5611,082;   84,987;27703,895;20,00837
 872,66; 5550,227;   76,487;27456,043;19,99207
 873,22; 5499,672;   90,186;27453,092;19,76941
 873,78; 5395,717;   78,886;27139,439;19,64790
 874,34; 5364,663;   99,085;26999,787;19,57413
 874,90; 5368,163;  114,485;26774,588;19,70614
 875,46; 5333,063;  109,085;26704,387;19,64248
 876,03; 5293,763;   87,285;26403,287;19,78446
 876,59; 5220,063;   69,285;26175,588;19,73002
 877,15; 5256,563;  107,185;26130,887;19,78726
 877,71; 5205,563;   88,485;26141,188;19,64125
 878,27; 5126,862;   99,585;25897,588;19,48708
 878,83; 5123,663;  113,885;25881,088;19,44246
 879,39; 5126,862;  100,485;25804,988;19,55446
 879,95; 5094,663;   99,785;25691,088;19,51787
 880,51; 5081,362;   75,685;25879,387;19,39907
 881,07; 5041,862;   83,685;26030,488;19,10901
 881,63; 5047,362;   92,985;26092,887;19,05537
 882,19; 5089,362;   84,985;25970,688;19,33259
 882,75; 5053,962;   94,885;26024,287;19,12531
 883,31; 5087,763;   92,385;26209,488;19,12684
 883,88; 5058,962;   95,985;26315,588;18,92850
 884,44; 5077,862;   88,385;26391,287;18,96930
 885,00; 5085,163;  106,285;26737,588;18,69558
 885,56; 5035,263;  104,285;26828,387;18,45143
 886,12; 5038,763;  114,885;27066,688;18,26920
 886,68; 5058,563;   96,185;26972,688;18,46363
 887,24; 5039,263;  119,085;27399,287;18,03571
 887,80; 5052,163;   95,385;27358,188;18,18147
 888,36; 5077,362;  111,585;27635,787;18,04149
 888,92; 5098,163;  107,985;27724,287;18,06968
 889,48; 5150,962;  108,485;28080,588;18,02681
 890,04; 5086,862;  110,585;28084,387;17,78906
 890,60; 5086,462;  120,085;28245,287;17,65810
 891,16; 5036,763;   96,885;28391,088;17,45897
 891,72; 5040,362;  117,785;28391,287;17,41057
 892,28; 5056,462;  125,385;28413,787;17,43145
 892,84; 5080,962;  108,185;28199,188;17,70238
 893,39; 5092,063;  127,585;28371,988;17,57685
 893,95; 5008,763;  123,785;28291,088;17,34272
 894,51; 4909,263;   63,885;28130,188;17,26404
 895,07; 4896,163;  146,385;28192,488;16,93561
 895,63; 4766,263;   77,785;27759,688;16,93698
 896,19; 4752,663;   99,385;27677,188;16,87327
 896,75; 4709,962;  116,885;27502,488;16,77187
 897,31; 4672,063;   95,285;27397,387;16,76346
 897,87; 4592,163;  102,485;27202,887;16,56683
 898,43; 4590,763;  104,485;26834,088;16,78393
 898,99; 4521,862;  108,285;26505,588;16,71980
 899,55; 4497,862;  113,785;26408,387;16,67292
 900,11; 4400,263;  105,885;26277,787;16,40835
 900,67; 4329,862;  100,985;26103,387;16,26341
 901,22; 4276,563;  120,085;25789,688;16,19222
 901,78; 4192,462;   86,285;25623,688;16,07907
 902,34; 4227,563;  120,785;25449,887;16,21367
 902,90; 4098,362;   77,285;25260,887;15,96705
 903,46; 4053,063;  108,985;25158,188;15,74532
 904,02; 3987,163;   91,185;24856,787;15,73141
 904,58; 3876,262;   85,885;24697,387;15,40084
 905,14; 3859,863;   72,885;24593,387;15,44413
 905,70; 3783,363;   81,785;24409,387;15,21555
 906,25; 3760,163;   82,585;24460,588;15,08564
 906,81; 3721,163;   93,685;24376,488;14,93846
 907,37; 3664,363;   73,585;24145,588;14,91682
 907,93; 3553,363;   77,585;24015,488;14,51997
 908,49; 3536,663;  110,285;23841,088;14,43852
 909,05; 3538,462;   94,485;23967,088;14,42648
 909,60; 3518,063;   92,285;23775,387;14,46507
 910,16; 3424,563;   73,485;23571,188;14,26130
 910,72; 3376,462;  105,985;23524,887;13,96512
 911,28; 3351,663;   99,785;23299,488;14,01689
 911,84; 3299,563;   84,885;23241,387;13,88240
 912,39; 3236,363;   72,785;23037,787;13,77565
 912,95; 3203,863;  101,885;23158,287;13,45387
 913,51; 3203,762;  107,485;23089,387;13,47268
 914,07; 3165,063;   87,585;22717,988;13,59886
 914,63; 3106,762;   80,385;22709,787;13,37365
 915,18; 3074,462;   82,985;22633,488;13,26568
 915,74; 3040,063;   73,885;22387,787;13,29296
 916,30; 2952,863;   60,985;22193,588;13,06614
 916,86; 2985,163;   92,785;22035,387;13,18156
 917,42; 2964,663;   97,885;22132,688;13,01023
 917,97; 2879,262;   96,985;21890,688;12,76643
 918,53; 2823,363;   69,485;21738,688;12,70872
 919,09; 2834,363;  106,785;21703,188;12,62978
 919,65; 2818,462;   90,785;21453,088;12,76865
 920,20; 2725,462;   76,985;21260,387;12,50261
 920,76; 2662,762;   74,585;21079,287;12,32190
 921,32; 2623,363;   90,285;20984,188;12,12353
 921,87; 2573,363;   89,885;20647,588;12,08052
 922,43; 2495,563;   68,785;20533,387;11,85842
 922,99; 2413,863;   64,885;20137,088;11,70264
 923,55; 2432,863;   65,485;20009,188;11,87030
 924,10; 2380,462;   70,385;20001,088;11,59055
 924,66; 2335,563;   79,185;19796,787;11,44347
 925,22; 2251,663;   55,485;19602,688;11,23525
 925,77; 2220,663;   76,385;19254,688;11,18075
 926,33; 2197,563;   91,385;19173,488;11,03745
 926,89; 2167,363;   80,085;18934,988;11,07021
 927,44; 2061,563;   56,085;18646,787;10,78753
 928,00; 2028,662;   73,685;18425,088;10,65301
 928,56; 1982,762;   93,785;18165,887;10,45245
 929,12; 1965,162;   94,185;18029,588;10,43176
 929,67; 1883,863;   53,185;17690,188;10,37975
 930,23; 1829,463;   56,585;17430,188;10,20443
 930,78; 1863,662;  110,285;17292,988;10,20432
 931,34; 1775,963;   69,485;16895,588;10,14185
 931,90; 1708,662;   71,985;16495,488; 9,96546
 932,45; 1681,762;   83,085;16088,188; 9,98855
 933,01; 1614,262;   77,385;15695,188; 9,84055
 933,57; 1552,563;   73,485;15207,987; 9,77288
 934,12; 1497,563;   79,485;14578,888; 9,78025
 934,68; 1420,463;   63,185;13806,987; 9,87556
 935,24; 1341,762;   81,385;13091,787; 9,68746
 935,79; 1276,363;   80,585;12266,487; 9,81279
 936,35; 1201,162;   86,985;11501,388; 9,76115
 936,90; 1095,162;  100,485;10583,787; 9,48821
 937,46; 1022,063;   82,385; 9839,987; 9,63021
 938,02;  939,862;   72,385; 8967,287; 9,75252
 938,57;  875,063;   83,185; 8376,188; 9,54874
 939,13;  818,563;   81,585; 7777,987; 9,57561
 939,68;  748,763;   62,285; 7204,788; 9,61116
 940,24;  720,763;   78,885; 6876,288; 9,44298
 940,79;  723,463;  106,085; 6589,788; 9,52199
 941,35;  677,662;   95,285; 6296,888; 9,39076
 941,91;  640,662;   71,885; 6126,587; 9,39398
 942,46;  612,162;   74,985; 5977,188; 9,10131
 943,02;  594,963;   78,885; 5912,487; 8,84664
 943,57;  573,362;   63,085; 5846,688; 8,82283
 944,13;  590,862;   75,785; 5912,587; 8,82465
 944,68;  591,763;   68,585; 5973,688; 8,85975
 945,24;  604,563;   88,485; 6052,888; 8,65263
 945,79;  576,963;   68,085; 6070,188; 8,47832
 946,35;  588,263;   61,185; 6182,788; 8,61012
 946,90;  613,463;  112,785; 6334,087; 8,04779
 947,46;  596,662;   56,285; 6539,087; 8,33555
 948,01;  585,662;   55,485; 6671,288; 8,01380
 948,57;  631,763;   92,985; 6915,087; 7,89753
 949,12;  630,862;   83,285; 7090,087; 7,81494
 949,68;  663,362;   90,585; 7317,388; 7,92574
 950,23;  651,763;   77,385; 7512,788; 7,72490
 950,79;  674,563;   82,885; 7745,688; 7,72142
 951,34;  678,763;   85,985; 7985,288; 7,50418
 951,90;  696,963;   64,685; 8279,987; 7,69634
 952,45;  714,362;   97,685; 8464,188; 7,37079
 953,01;  685,563;   69,085; 8675,088; 7,16334
 953,56;  734,563;   86,985; 8965,188; 7,29402
 954,12;  713,963;   57,385; 9127,388; 7,23900
 954,67;  739,763;   73,485; 9305,487; 7,21704
 955,23;  726,563;   75,385; 9487,487; 6,91851
 955,78;  741,963;   77,585; 9767,987; 6,85604
 956,33;  731,763;   58,785; 9861,487; 6,86522
 956,89;  750,463;   62,885;10079,088; 6,86465
 957,44;  785,263;   61,185;10322,088; 7,05666
 958,00;  779,963;   66,285;10490,688; 6,84622
 958,55;  787,563;   70,585;10689,188; 6,75209
 959,10;  766,362;   61,685;10798,487; 6,56320
 959,66;  801,763;   77,585;11005,388; 6,62693
 960,21;  782,263;   71,285;11144,987; 6,42041
 960,77;  769,563;   59,185;11196,487; 6,37836
 961,32;  773,463;   66,385;11442,688; 6,21535
 961,87;  803,162;   91,885;11490,588; 6,23999
 962,43;  788,263;   68,985;11614,987; 6,22967
 962,98;  781,763;   85,785;11731,088; 5,97647
 963,54;  746,063;   43,585;11798,787; 5,97589
 964,09;  786,662;   71,085;11852,487; 6,07379
 964,64;  788,862;   83,385;11906,987; 5,96669
 965,20;  773,063;   61,285;11952,688; 5,98565
 965,75;  772,263;   73,685;12053,487; 5,83129
 966,30;  768,263;   88,485;12085,688; 5,66613
 966,86;  776,662;   80,985;12260,888; 5,71168
 967,41;  765,263;   89,985;12288,388; 5,53579
 967,96;  768,263;   72,785;12324,688; 5,67649
 968,52;  786,463;   91,285;12494,487; 5,60482
 969,07;  764,162;   77,885;12456,888; 5,54388
 969,62;  757,162;   92,985;12395,388; 5,39876
 970,18;  753,463;   67,485;12430,888; 5,54845
 970,73;  742,362;   76,685;12440,588; 5,38404
 971,28;  757,963;   97,685;12509,088; 5,31993
 971,84;  742,463;   72,485;12497,588; 5,39213
 972,39;  770,763;  103,885;12516,287; 5,37267
 972,94;  740,662;   62,285;12606,888; 5,40772
 973,49;  728,763;   71,785;12486,388; 5,29197
 974,05;  742,963;   85,185;12512,287; 5,29309
 974,60;  749,763;   77,585;12438,588; 5,43789
 975,15;  734,563;   86,785;12506,287; 5,21581
 975,71;  720,162;   74,085;12471,088; 5,21156
 976,26;  740,662;   89,485;12460,787; 5,26361
 976,81;  731,563;   91,385;12477,987; 5,16831
 977,36;  749,463;   90,885;12515,787; 5,30046
 977,92;  747,862;  106,785;12414,287; 5,20884
 978,47;  718,063;   82,685;12367,787; 5,17194
 979,02;  709,862;   84,685;12372,888; 5,08762
 979,57;  692,063;   87,685;12184,588; 4,99613
 980,13;  697,263;   73,085;12274,688; 5,11554
 980,68;  683,063;   82,085;12299,088; 4,91919
 981,23;  694,563;   98,285;12232,588; 4,91398
 981,78;  696,963;   87,585;12193,987; 5,03351
 982,33;  691,463;   93,585;12131,088; 4,96679
 982,89;  672,263;   86,385;12112,987; 4,87151
 983,44;  654,063;   77,485;11963,388; 4,85094
 983,99;  689,463;  102,185;12085,188; 4,90092
 984,54;  650,263;   88,185;12037,188; 4,70397
 985,09;  660,563;  104,185;11970,688; 4,68864
 985,65;  629,963;   87,085;11900,888; 4,59528
 986,20;  659,463;  108,485;11873,088; 4,68335
 986,75;  655,763;  109,085;11844,987; 4,65816
 987,30;  651,263;  104,785;11731,588; 4,70015
 987,85;  646,463;   93,485;11707,287; 4,76138
 988,40;  622,963;  102,085;11630,287; 4,51829
 988,96;  624,662;  110,985;11597,987; 4,47181
 989,51;  624,563;  109,185;11503,188; 4,52323
 990,06;  634,263;  139,085;11439,987; 4,38175
 990,61;  603,563;   96,285;11312,888; 4,52256
 991,16;  630,662;  126,785;11284,987; 4,51576
 991,71;  605,063;   95,285;11178,987; 4,59934
 992,26;  596,463;   96,185;11124,787; 4,53618
 992,81;  581,862;   90,585;11117,088; 4,45542
 993,37;  613,362;  112,785;11091,088; 4,55970
 993,92;  593,763;  111,485;10895,787; 4,47203
 994,47;  595,862;  127,285;10881,688; 4,35708
 995,02;  598,162;  120,885;10830,487; 4,45654
 995,57;  581,963;  105,885;10676,287; 4,50387
 996,12;  615,862;  146,185;10671,787; 4,46224
 996,67;  596,862;  120,585;10625,487; 4,53386
 997,22;  571,162;  110,885;10516,388; 4,42340
 997,77;  598,162;  123,885;10509,188; 4,56681
 998,32;  554,862;  113,285;10354,388; 4,31182
 998,87;  562,063;  118,685;10322,987; 4,34501
 999,42;  550,963;  114,485;10232,588; 4,31383
 999,97;  535,263;  106,385;10221,888; 4,23980
1000,53;  571,063;  131,385;10169,188; 4,38022
1001,08;  535,862;  116,785;10035,088; 4,22529
1001,63;  592,362;  142,485; 9961,388; 4,58175
1002,18;  506,763;   80,985; 9795,388; 4,38295
1002,73;  565,763;  138,285; 9811,987; 4,41896
1003,28;  523,563;  112,585; 9773,088; 4,25420
1003,83;  545,662;  131,985; 9598,088; 4,37009
1004,38;  535,563;  133,285; 9567,388; 4,26408
1004,93;  495,462;  121,585; 9472,787; 3,99818
1005,48;  516,162;  125,485; 9456,987; 4,18665
1006,03;  504,563;  110,685; 9367,487; 4,25501
1006,58;  499,862;  108,485; 9267,688; 4,27305
1007,13;  472,663;   87,285; 9216,688; 4,22128
1007,68;  486,063;  104,185; 9176,987; 4,20904
1008,23;  493,063;  115,485; 9089,388; 4,20751
1008,78;  472,563;  112,885; 9076,688; 4,01255
1009,33;  485,862;  130,185; 8977,388; 4,02023
1009,88;  451,163;   91,085; 8917,888; 4,07937
1010,43;  472,862;  106,485; 8847,987; 4,19124
1010,98;  454,763;  107,585; 8784,088; 4,00135
1011,52;  470,263;   98,385; 8757,888; 4,29444
1012,07;  502,663;  151,085; 8797,588; 4,06612
1012,62;  455,263;  102,885; 8672,287; 4,11204
1013,17;  469,962;  107,085; 8654,987; 4,24522
1013,72;  448,962;   96,285; 8549,787; 4,17197
1014,27;  452,362;  115,785; 8482,088; 4,02301
1014,82;  441,362;  100,085; 8280,987; 4,17164
1015,37;  416,063;   90,685; 8148,587; 4,03799
1015,92;  442,962;  113,385; 8078,388; 4,13782
1016,47;  401,862;   89,585; 8002,087; 3,94663
1017,02;  390,163;   83,585; 7781,587; 3,98256
1017,57;  413,962;  110,885; 7677,987; 4,00520
1018,11;  392,263;   93,585; 7625,788; 3,96534
1018,66;  414,063;  120,285; 7544,188; 3,95718
1019,21;  397,763;   97,185; 7441,587; 4,09261
1019,76;  366,763;   91,485; 7241,388; 3,85009
1020,31;  368,063;   87,385; 7140,987; 3,97921
1020,86;  379,362;   99,585; 7136,087; 3,97609
1021,41;  362,263;   85,585; 7046,288; 3,97485
1021,96;  364,962;   91,785; 6968,587; 3,97245
1022,50;  397,163;  114,785; 6908,788; 4,15628
1023,05;  359,362;   96,185; 6774,188; 3,94096
1023,60;  363,163;  109,285; 6668,487; 3,87055
1024,15;  342,663;   82,585; 6582,487; 4,00125
1024,70;  356,962;  118,285; 6556,688; 3,70709
1025,25;  341,563;  105,085; 6444,587; 3,73022
1025,79;  357,763;  111,185; 6416,087; 3,91089
1026,34;  354,962;  103,685; 6359,487; 4,01671
1026,89;  347,663;  101,985; 6282,688; 3,97491
1027,44;  342,163;   91,385; 6238,288; 4,07974
1027,99;  341,263;  102,585; 6140,788; 3,95279
1028,53;  346,362;   99,685; 6068,188; 4,13299
1029,08;  354,362;  105,085; 5984,888; 4,23956
1029,63;  346,263;  117,485; 5934,888; 3,93264
1030,18;  334,263;  106,385; 5824,587; 3,98512
1030,73;  307,362;   87,885; 5655,688; 3,94191
1031,27;  300,462;   88,685; 5663,688; 3,79870
1031,82;  293,763;   90,885; 5572,688; 3,70093
1032,37;  313,862;  103,485; 5566,888; 3,85067
1032,92;  322,862;  107,585; 5490,587; 3,99921
1033,46;  310,563;  106,885; 5381,188; 3,86170
1034,01;  297,962;   85,985; 5319,487; 4,05039
1034,56;  321,263;  109,785; 5296,987; 4,07691
1035,11;  301,563;  104,585; 5234,587; 3,83972
1035,65;  292,263;   96,685; 5100,587; 3,90850
1036,20;  301,962;  106,585; 5087,188; 3,92277
1036,75;  325,663;  121,685; 5047,788; 4,14075
1037,29;  284,862;  100,385; 4975,388; 3,78415
1037,84;  272,763;   83,185; 4881,288; 3,95109
1038,39;  286,862;   98,385; 4838,288; 3,97640
1038,94;  271,962;   83,685; 4734,788; 4,04802
1039,48;  277,263;  100,385; 4724,288; 3,82529
1040,03;  292,962;  106,285; 4702,788; 4,06129
1040,58;  279,763;  100,685; 4594,388; 3,98508
1041,12;  266,862;  110,285; 4521,288; 3,54970
1041,67;  266,462;  103,485; 4461,188; 3,73999
1042,22;  287,362;  121,285; 4432,688; 3,85205
1042,76;  262,462;   98,385; 4327,688; 3,87954
1043,31;  274,263;   93,985; 4289,487; 4,29692
1043,86;  269,763;  118,285; 4202,987; 3,70841
1044,40;  279,962;  106,585; 4136,288; 4,30249
1044,95;  269,263;   99,685; 4102,788; 4,23615
1045,50;  237,663;   84,385; 4030,988; 3,88378
1046,04;  276,962;  121,885; 4008,288; 3,99026
1046,59;  245,262;   96,585; 3927,087; 3,88141
1047,13;  278,063;  118,885; 3891,887; 4,21885
1047,68;  259,962;  114,085; 3865,988; 3,88809
1048,23;  264,163;  121,185; 3817,087; 3,86854
1048,77;  241,962;  104,285; 3716,887; 3,81103
1049,32;  242,262;  109,485; 3669,288; 3,72991
1049,86;  247,262;  106,585; 3625,587; 3,99765
1050,41;  239,863;   93,085; 3587,587; 4,20024
1050,96;  240,762;  110,485; 3541,688; 3,79685
1051,50;  240,563;   98,185; 3486,488; 4,20203
1052,05;  226,962;  104,285; 3428,387; 3,69054
1052,59;  225,063;   97,785; 3377,488; 3,88076
1053,14;  210,863;   89,085; 3312,087; 3,77839
1053,69;  235,563;   99,185; 3261,087; 4,31315
1054,23;  238,663;  114,385; 3244,387; 3,97052
1054,78;  231,262;  109,485; 3203,087; 3,93643
1055,32;  244,462;  131,285; 3124,587; 3,78102
1055,87;  201,462;   86,785; 3086,387; 3,82309
1056,41;  200,363;   91,985; 3038,288; 3,67842
1056,96;  208,462;   92,085; 2979,988; 4,02983
1057,50;  230,163;  122,285; 2963,887; 3,79636
1058,05;  210,663;   84,685; 2903,087; 4,46982
1058,59;  216,863;   95,885; 2856,587; 4,38213
1059,14;  226,663;  113,685; 2828,988; 4,16077
1059,68;  199,863;   86,585; 2787,188; 4,19453
1060,23;  229,363;  135,385; 2801,688; 3,52464
1060,77;  210,762;  114,585; 2694,087; 3,72853
1061,32;  218,962;  113,585; 2690,387; 4,08947
1061,86;  210,762;  100,585; 2638,988; 4,34043
1062,41;  211,163;  112,985; 2588,988; 3,96516
1062,95;  207,163;  103,385; 2532,488; 4,27226
1063,50;  211,962;  121,385; 2531,587; 3,75809
1064,04;  182,163;   87,585; 2470,887; 3,96834
1064,59;  196,563;  118,685; 2420,688; 3,38303
1065,13;  200,563;  114,485; 2390,688; 3,78163
1065,68;  194,262;  111,085; 2340,587; 3,73077
1066,22;  219,063;  120,185; 2342,988; 4,44833
1066,76;  222,663;  126,585; 2324,887; 4,37053
1067,31;  193,163;  103,485; 2240,387; 4,19661
1067,85;  187,262;   98,785; 2227,688; 4,15601
1068,40;  198,962;  112,885; 2216,288; 4,09230
1068,94;  187,063;  103,985; 2163,288; 4,03425
1069,49;  185,962;   97,485; 2154,188; 4,30191
1070,03;  180,563;  104,485; 2089,887; 3,83184
1070,57;  177,863;   95,985; 2073,887; 4,13961
1071,12;  163,163;   83,785; 2044,988; 4,04739
1071,66;  234,462;  134,085; 2075,788; 5,16956
1072,21;  201,563;  116,685; 2020,387; 4,45855
1072,75;  192,563;  102,685; 1991,188; 4,75919
1073,29;  163,563;   88,185; 1929,287; 4,09415
1073,84;  168,063;  105,985; 1934,188; 3,39555
1074,38;  177,262;   99,785; 1900,988; 4,30143
1074,92;  184,663;  107,985; 1903,188; 4,27125
1075,47;  190,262;  116,785; 1900,088; 4,12030
1076,01;  201,663;  135,585; 1865,787; 3,81906
1076,56;  167,462;  103,485; 1816,887; 3,73394
1077,10;  163,663;   90,485; 1785,588; 4,31700
1077,64;  164,363;   97,685; 1777,787; 3,96866
1078,19;  190,962;  131,885; 1776,588; 3,59199
1078,73;  174,163;  108,685; 1757,688; 3,97073
1079,27;  191,962;  127,585; 1725,887; 4,02787
1079,81;  196,663;  128,585; 1709,188; 4,30706
1080,36;  169,363;  108,085; 1672,688; 3,91649
1080,90;  175,762;  107,885; 1631,188; 4,45594
1081,44;  158,563;   95,485; 1628,188; 4,11544
1081,99;  137,663;   71,785; 1579,287; 4,36998
1082,53;  186,663;  120,785; 1598,887; 4,45690
1083,07;  169,063;  114,685; 1569,887; 3,73677
1083,62;  183,762;  113,585; 1553,988; 4,87208
1084,16;  163,363;  112,485; 1541,988; 3,55911
1084,70;  178,863;  119,085; 1527,688; 4,24375
1085,24;  174,563;  116,085; 1504,188; 4,21277
1085,79;  167,762;  106,485; 1481,287; 4,45719
1086,33;  145,363;  104,485; 1424,887; 3,09584
1086,87;  161,563;  115,785; 1426,588; 3,49233
1087,41;  154,863;   91,185; 1424,588; 4,77557
1087,96;  177,262;  132,185; 1431,287; 3,46990
1088,50;  166,262;  106,685; 1378,988; 4,68265
1089,04;  181,262;  123,885; 1413,787; 4,44820
1089,58;  138,762;   87,285; 1345,488; 4,09135
1090,13;  166,163;  108,585; 1338,588; 4,68109
1090,67;  159,563;  120,585; 1335,188; 3,20907
1091,21;  149,863;   97,685; 1289,988; 4,37620
1091,75;  161,762;   94,485; 1295,287; 5,60271
1092,29;  168,063;  121,385; 1309,887; 3,92742
1092,84;  159,262;  108,285; 1255,188; 4,44480
1093,38;  182,762;  138,685; 1289,088; 3,83148
1093,92;  175,762;  126,485; 1245,688; 4,40291
1094,46;  176,163;  125,885; 1241,387; 4,50716
1095,00;  144,363;  102,185; 1207,188; 3,81696
1095,54;  140,962;   91,585; 1185,588; 4,51347
1096,09;  158,163;  117,085; 1174,988; 3,88292
1096,63;  162,863;  129,785; 1177,887; 3,15594
1097,17;  149,063;  104,485; 1142,287; 4,29537
1097,71;  171,063;  128,785; 1148,988; 4,14403
1098,25;  146,962;  106,185; 1074,488; 4,21124
1098,79;  168,462;  113,285; 1111,287; 5,52879
1099,33;  163,363;  125,085; 1078,988; 4,01273
1099,88;  145,163;  117,685; 1058,287; 2,92127
1100,42;  126,363;   84,285; 1020,888; 4,49257

