CICIMAUCR0044_M
Integration time [ms]:   8,000
Averaging Nr. [scans]: 10
Smoothing Nr. [pixels]: 0
Data measured with spectrometer [name]: 7314920SP
Wave   ;Sample   ;Dark     ;Reference;Reflectance
[nm]   ;[counts] ;[counts] ;[counts] ;[%]

 199,42;   95,321;   69,124;  212,912;18,21960
 200,02;  108,705;   97,516;  201,017;10,81021
 200,62;   71,029;   69,328;  116,337; 3,61887
 201,22;  115,445;   89,808;  191,196;25,28562
 201,82;  101,741;   78,699;  227,849;15,44838
 202,42;  115,325;  107,919;  211,990; 7,11626
 203,03;   67,026;   49,933;  144,859;18,00654
 203,63;   95,206;   68,244;  153,253;31,71685
 204,23;  101,943;   79,167;  197,491;19,24873
 204,83;   89,546;   74,949;  153,601;18,55928
 205,43;   86,421;   62,524;  192,612;18,37033
 206,03;   66,666;   65,952;  137,574; 0,99765
 206,63;   71,488;   73,695;  129,953;-3,92370
 207,24;  110,280;   74,278;  246,960;20,84880
 207,84;   59,086;   58,255;  132,648; 1,11827
 208,44;   70,145;   55,408;  142,596;16,90204
 209,04;   63,868;   54,593;  111,779;16,21927
 209,64;   98,042;   74,340;  200,454;18,79407
 210,24;   61,946;   59,249;  129,701; 3,82838
 210,84;   66,925;   60,406;  155,122; 6,88272
 211,44;   99,944;   82,595;  190,227;16,11921
 212,05;   72,768;   77,893;  120,879;-11,92176
 212,65;   95,826;   82,933;  164,459;15,81445
 213,25;  119,025;   88,219;  192,990;29,40309
 213,85;   90,187;   87,282;  147,585; 4,81854
 214,45;   75,046;   57,349;  133,901;23,11796
 215,05;   53,725;   41,406;  140,122;12,47924
 215,65;   66,104;   58,803;  153,048; 7,74752
 216,25;   55,146;   55,649;  132,501;-0,65431
 216,85;   42,665;   29,911;  142,569;11,32080
 217,45;   59,226;   57,033;  133,359; 2,87305
 218,05;   84,284;   64,486;  160,906;20,53248
 218,66;   47,585;   32,114;  123,343;16,95859
 219,26;   55,406;   32,444;  110,553;29,39763
 219,86;   40,383;   33,573;  147,938; 5,95505
 220,46;   85,504;   55,689;  156,280;29,63965
 221,06;   70,343;   59,567;  179,691; 8,97057
 221,66;   75,783;   48,459;  173,070;21,92720
 222,26;   62,542;   37,740;  169,554;18,81587
 222,86;   77,965;   70,125;  156,338; 9,09460
 223,46;   71,446;   49,349;  140,501;24,24221
 224,06;   83,863;   53,770;  170,464;25,78800
 224,66;   90,144;   63,681;  184,759;21,85586
 225,26;   71,864;   54,297;  152,501;17,88825
 225,86;   58,782;   50,732;  174,133; 6,52328
 226,46;   69,645;   56,922;  154,264;13,07075
 227,06;   54,344;   31,681;  136,259;21,67056
 227,66;   58,108;   46,384;  122,058;15,49163
 228,27;   54,504;   40,089;  152,380;12,83701
 228,87;  101,564;   86,284;  181,333;16,07594
 229,47;   60,222;   42,137;  179,680;13,14829
 230,07;   22,064;   10,997;  120,401;10,11568
 230,67;   51,765;   52,311;  147,769;-0,57215
 231,27;   57,104;   37,789;  150,380;17,15484
 231,87;   59,365;   45,111;  153,169;13,19086
 232,47;   85,220;   61,983;  211,507;15,54060
 233,07;   54,508;   50,698;  111,627; 6,25323
 233,67;   71,526;   47,333;  137,259;26,90311
 234,27;   37,066;   19,552;  106,574;20,12645
 234,87;   69,283;   38,773;  173,938;22,57274
 235,47;   41,964;   25,997;  134,501;14,71556
 236,07;   52,907;   33,871;  104,390;26,99440
 236,67;   62,827;   45,360;  136,795;19,10277
 237,27;   62,681;   40,218;  177,065;16,41467
 237,87;   61,544;   42,281;  161,659;16,13584
 238,47;   39,505;   26,116;  114,617;15,12831
 239,07;   52,962;   25,643;  171,528;18,72663
 239,67;   78,059;   51,548;  217,050;16,01854
 240,27;   70,682;   52,032;  182,133;14,33484
 240,87;   73,361;   48,316;  206,091;15,87415
 241,47;   46,349;   50,817;  107,142;-7,93313
 242,07;   60,985;   45,327;  127,711;19,00625
 242,67;   26,001;    0,121;  128,039;20,23202
 243,27;   31,646;   18,649;   93,101;17,45720
 243,87;   61,363;   63,270;  167,664;-1,82660
 244,47;   60,443;   44,467;  161,591;13,64010
 245,07;   18,825;   18,606;  116,922; 0,22282
 245,67;   51,826;   44,533;  125,259; 9,03412
 246,27;   41,288;   39,595;   96,053; 2,99805
 246,87;   43,965;   22,125;  117,738;22,84282
 247,46;   18,329;   18,828;   63,537;-1,11570
 248,06;   40,184;   27,886;  124,906;12,67514
 248,66;   46,242;   38,540;  161,754; 6,25087
 249,26;   38,607;   36,471;  101,190; 3,30073
 249,86;   61,982;   51,532;  172,833; 8,61476
 250,46;   41,000;   23,280;  176,234;11,58496
 251,06;   39,326;   29,033;  111,359;12,50260
 251,66;   29,603;   19,476;  139,512; 8,43736
 252,26;   50,767;   36,365;  104,343;21,18569
 252,86;   45,525;   32,306;  140,922;12,17041
 253,46;   13,146;    1,549;   78,501;15,07072
 254,06;   47,127;   44,874;  100,464; 4,05393
 254,66;   53,921;   24,424;  155,112;22,57100
 255,26;   77,262;   41,629;  185,460;24,77395
 255,86;   33,649;   46,817;   99,342;-25,07059
 256,46;   39,344;   21,995;  127,027;16,51823
 257,05;   29,824;   25,678;  125,685; 4,14497
 257,65;   67,283;   42,773;  167,138;19,70848
 258,25;   58,222;   39,437;  160,880;15,46780
 258,85;   43,825;   26,106;  127,022;17,55815
 259,45;   22,765;    9,311;  107,069;13,76233
 260,05;   49,546;   40,249;  112,801;12,81455
 260,65;   47,267;   40,365;  108,043;10,19759
 261,25;   38,463;   41,070;  143,564;-2,54343
 261,85;   22,803;   -5,838;  119,043;22,93453
 262,45;   69,725;   48,806;  144,522;21,85523
 263,04;   69,242;   45,927;  178,986;17,52230
 263,64;   42,886;   38,741;  115,980; 5,36650
 264,24;   67,323;   43,265;  155,817;21,37525
 264,84;   86,181;   66,305;  203,697;14,46666
 265,44;   30,446;   28,435;  102,832; 2,70207
 266,04;   65,967;   54,079;  117,411;18,77150
 266,64;   52,827;   54,560;  123,795;-2,50352
 267,24;   38,127;   44,260;  105,895;-9,95099
 267,84;   43,525;   32,519;  118,090;12,86177
 268,43;   60,006;   59,330;  133,785; 0,90725
 269,03;   65,285;   45,214;  136,843;21,90479
 269,63;   75,387;   62,268;  128,816;19,71328
 270,23;   23,808;   17,984;   65,758;12,18891
 270,83;   63,767;   56,265;  128,243;10,42197
 271,43;   43,766;   29,638;  107,206;18,21328
 272,03;   67,046;   50,535;  136,332;19,24343
 272,62;   42,804;   19,803;  122,348;22,43070
 273,22;   26,764;   16,184;  111,433;11,10776
 273,82;   20,931;   30,483;   40,710;-93,38724
 274,42;   29,429;   25,614;   68,869; 8,81832
 275,02;   42,828;   33,801;   87,500;16,81095
 275,62;   70,422;   51,537;  170,781;15,83704
 276,21;   39,224;   39,192;  122,554; 0,03859
 276,81;   54,686;   50,655;  118,848; 5,91247
 277,41;   51,163;   22,156;  132,796;26,21685
 278,01;   12,428;   19,001;   72,600;-12,26248
 278,61;   64,245;   59,408;  151,996; 5,22366
 279,20;   78,882;   63,732;  183,233;12,67754
 279,80;    8,850;    2,358;   11,347;72,22468
 280,40;   49,807;   34,171;   90,290;27,86254
 281,00;   10,045;    9,408;   86,096; 0,82994
 281,60;   41,101;   32,007;  150,670; 7,66322
 282,20;   59,444;   38,695;  129,627;22,81856
 282,79;   38,506;   35,030;   99,785; 5,36715
 283,39;   33,687;   29,168;   73,516;10,18942
 283,99;   23,208;   27,598;   55,627;-15,66265
 284,59;   22,584;    9,100;  105,375;14,00609
 285,19;   33,766;   33,752;   96,274; 0,02325
 285,78;   40,044;   26,295;  122,227;14,33249
 286,38;   43,888;   46,795;   84,853;-7,63943
 286,98;   42,806;   42,730;  109,785; 0,11258
 287,58;   23,743;    4,767;  110,991;17,86400
 288,17;   37,062;   23,729;  140,560;11,41180
 288,77;   56,299;   30,667;  176,065;17,62924
 289,37;   26,725;   13,206;   99,322;15,69858
 289,97;   39,908;   50,698;  100,827;-21,52471
 290,57;   57,623;   37,851;  142,149;18,95675
 291,16;   80,246;   72,635;  130,432;13,16724
 291,76;   23,764;   13,884;  103,733;10,99626
 292,36;   42,406;   36,344;  103,253; 9,06057
 292,96;   26,902;    1,335;  116,607;22,17985
 293,55;   41,086;   35,255;  100,448; 8,94556
 294,15;   46,924;   28,492;  119,754;20,19702
 294,75;   59,188;   42,295;   85,853;38,78233
 295,35;   30,246;   22,535;   96,932;10,36368
 295,94;   38,707;   40,557;   96,022;-3,33673
 296,54;   36,345;   31,722;  108,464; 6,02453
 297,14;   61,883;   33,859;  144,270;25,38127
 297,73;   21,728;    9,887;   70,132;19,65398
 298,33;   44,727;   40,174;   99,364; 7,69316
 298,93;   58,565;   30,325;  113,638;33,89711
 299,53;   39,382;   21,246;  138,401;15,48084
 300,12;   15,683;    7,459;  114,770; 7,66337
 300,72;   62,386;   68,241;  124,580;-10,39247
 301,32;   64,383;   40,773;  145,238;22,60130
 301,92;   20,709;   24,312;   62,295;-9,48604
 302,51;   37,626;   14,346;   96,927;28,19036
 303,11;   35,766;   20,952;   93,674;20,37133
 303,71;   41,005;   30,616;  121,617;11,41601
 304,30;   20,647;   18,176;   83,737; 3,76895
 304,90;   22,427;   22,074;   85,164; 0,56044
 305,50;   34,908;   35,584;   89,058;-1,26585
 306,09;   35,907;   23,571;   88,790;18,91502
 306,69;   47,123;   37,765;  140,017; 9,15222
 307,29;   17,451;   24,885;   43,884;-39,12848
 307,88;   58,684;   48,300;  142,675;11,00329
 308,48;   29,404;   11,989;  111,680;17,46879
 309,08;   -2,731;    8,834;   44,084;-32,80520
 309,68;   28,328;   26,887;   87,532; 2,37528
 310,27;   32,804;   17,703;  113,848;15,70711
 310,87;   39,145;   29,822;  103,864;12,59195
 311,47;   66,946;   52,349;  116,401;22,78970
 312,06;   47,448;   46,190;   96,406; 2,50491
 312,66;   68,746;   52,235;  146,232;17,56468
 313,26;   67,203;   45,676;  157,012;19,33593
 313,85;   61,066;   33,452;  110,474;35,85256
 314,45;   65,845;   49,208;  130,496;20,46619
 315,04;   64,548;   63,290;  105,606; 2,97255
 315,64;   36,686;   27,641;  103,480;11,92664
 316,24;   54,504;   38,789;  125,980;18,02343
 316,83;   50,307;   43,171;  121,990; 9,05390
 317,43;   41,666;   29,738;  114,606;14,05437
 318,03;   50,389;   52,323;  100,590;-4,00600
 318,62;   65,191;   86,763;  121,994;-61,23269
 319,22;   29,425;   21,719;  124,690; 7,48362
 319,82;   46,746;   44,535;  123,932; 2,78381
 320,41;   70,705;   57,916;  170,917;11,31732
 321,01;   92,508;   84,785;  169,258; 9,14260
 321,60;   69,129;   79,214;  137,469;-17,31332
 322,20;   85,021;   55,024;  210,912;19,24304
 322,80;   64,086;   61,241;  161,180; 2,84676
 323,39;   63,848;   51,304;  108,574;21,90447
 323,99;   69,167;   75,665;  148,943;-8,86846
 324,59;   76,589;   75,523;  121,990; 2,29501
 325,18;   67,326;   54,546;  141,027;14,77761
 325,78;   79,328;   75,387;  154,332; 4,99144
 326,37;   77,626;   71,333;  171,659; 6,27243
 326,97;   79,786;   66,641;  181,780;11,41667
 327,57;   38,829;   41,428;  117,237;-3,42812
 328,16;   64,349;   59,717;  137,042; 5,98987
 328,76;   66,907;   66,157;  165,422; 0,75485
 329,35;   86,783;   71,673;  215,438;10,51054
 329,95;   64,244;   47,995;  188,127;11,59582
 330,54;   73,946;   53,049;  176,901;16,87274
 331,14;   57,886;   43,955;  145,248;13,75402
 331,74;   82,608;   49,084;  157,158;31,01872
 332,33;   66,804;   37,489;  190,880;19,11117
 332,93;   50,409;   51,512;  148,895;-1,13274
 333,52;   71,887;   52,668;  187,116;14,29460
 334,12;   92,485;   68,714;  222,743;15,43291
 334,71;   66,107;   43,171;  179,090;16,87489
 335,31;   89,366;   68,952;  192,674;16,50027
 335,90;   42,550;   29,144;  139,379;12,16087
 336,50;   40,088;   31,295;  156,953; 6,99729
 337,10;   66,904;   56,203;  213,048; 6,82308
 337,69;   71,188;   58,595;  181,353;10,25813
 338,29;   57,006;   41,044;  190,353;10,69080
 338,88;   34,965;   26,425;  201,238; 4,88564
 339,48;   75,370;   72,747;  186,852; 2,29861
 340,07;   72,147;   52,063;  212,169;12,54421
 340,67;   60,583;   40,273;  267,038; 8,95662
 341,26;   62,007;   58,271;  227,390; 2,20921
 341,86;   98,164;   67,997;  282,701;14,05049
 342,45;   70,484;   54,300;  294,375; 6,74137
 343,05;   77,984;   48,700;  266,775;13,42857
 343,64;   76,127;   55,660;  261,695; 9,93358
 344,24;   53,988;   43,595;  237,153; 5,36927
 344,83;   92,408;   63,198;  283,827;13,23945
 345,43;   55,107;   33,657;  279,522; 8,72404
 346,02;   56,165;   42,211;  304,369; 5,32267
 346,62;   83,403;   53,076;  330,912;10,91574
 347,21;   75,728;   54,787;  311,732; 8,14980
 347,81;   65,223;   43,951;  355,349; 6,83097
 348,40;   51,849;   37,717;  297,542; 5,43892
 349,00;   69,389;   52,723;  328,190; 6,05024
 349,59;  101,064;   76,784;  420,333; 7,06741
 350,19;   70,503;   48,176;  412,212; 6,13343
 350,78;   65,166;   52,652;  383,074; 3,78744
 351,38;   54,165;   22,311;  389,069; 8,68524
 351,97;   64,307;   34,957;  401,122; 8,01533
 352,57;   66,104;   31,789;  439,980; 8,40655
 353,16;   51,548;   36,404;  411,674; 4,03569
 353,76;   69,664;   42,384;  494,333; 6,03609
 354,35;   58,364;   30,497;  490,701; 6,05535
 354,95;   76,424;   50,292;  532,454; 5,41979
 355,54;   69,425;   43,119;  531,090; 5,39089
 356,14;   64,264;   44,397;  535,601; 4,04454
 356,73;   73,370;   46,047;  497,052; 6,05821
 357,32;   56,305;   25,916;  543,817; 5,86765
 357,92;   67,102;   29,248;  620,175; 6,40589
 358,51;   94,182;   53,846;  654,401; 6,71656
 359,11;   84,423;   45,951;  660,349; 6,26166
 359,70;   63,124;   30,078;  655,785; 5,28127
 360,30;   91,150;   56,558;  633,847; 5,99221
 360,89;   61,265;   20,725;  679,238; 6,15641
 361,48;   90,724;   53,792;  746,354; 5,33269
 362,08;   57,666;   26,038;  709,306; 4,62888
 362,67;   77,329;   34,028;  722,537; 6,28913
 363,27;   97,226;   50,946;  777,927; 6,36603
 363,86;   82,508;   24,184;  785,858; 7,65723
 364,46;  110,749;   53,717;  816,942; 7,47246
 365,05;  108,773;   63,815;  839,894; 5,79288
 365,64;  113,232;   52,496;  883,078; 7,31242
 366,24;  127,993;   33,732;  926,136;10,56266
 366,83;  139,215;   52,089; 1030,183; 8,90779
 367,43;  142,483;   72,101; 1067,428; 7,07127
 368,02;  173,342;   47,769; 1189,245;11,00099
 368,61;  195,468;   71,021; 1314,370;10,00902
 369,21;  172,783;   37,616; 1309,751;10,62522
 369,80;  220,393;   55,375; 1431,649;11,99022
 370,39;  250,054;   60,796; 1667,838;11,77675
 370,99;  255,507;   51,442; 1696,093;12,40778
 371,58;  262,859;   31,647; 1771,243;13,29109
 372,18;  297,525;   37,705; 1907,216;13,89771
 372,77;  276,197;   52,340; 1905,576;12,07925
 373,36;  301,420;   48,898; 1956,423;13,23820
 373,96;  289,988;   51,724; 1859,937;13,17679
 374,55;  290,301;   43,949; 1820,723;13,86514
 375,14;  273,217;   46,343; 1722,950;13,53176
 375,74;  264,351;   74,185; 1591,878;12,52997
 376,33;  204,866;   44,338; 1488,500;11,11564
 376,92;  184,635;   39,463; 1433,460;10,41411
 377,52;  267,595;   93,543; 1607,390;11,49738
 378,11;  212,316;   60,159; 1524,532;10,39059
 378,71;  247,609;   72,082; 1607,944;11,42859
 379,30;  260,845;   63,665; 1696,477;12,07610
 379,89;  266,728;   65,044; 1708,013;12,27558
 380,49;  244,124;   28,849; 1764,635;12,40220
 381,08;  295,314;   84,991; 1727,991;12,80113
 381,67;  273,612;   63,350; 1745,186;12,50192
 382,26;  275,214;   46,191; 1718,491;13,69507
 382,86;  273,036;   47,448; 1715,838;13,52128
 383,45;  289,328;   48,558; 1836,281;13,46801
 384,04;  287,669;   49,263; 1871,629;13,08221
 384,64;  284,607;   51,628; 1928,071;12,41603
 385,23;  306,773;   68,886; 1889,243;13,06819
 385,82;  306,866;   57,095; 1958,887;13,13346
 386,42;  333,300;   64,923; 2066,646;13,40726
 387,01;  329,648;   60,033; 2023,818;13,72933
 387,60;  332,191;   79,634; 2039,544;12,88618
 388,20;  328,528;   48,158; 2070,681;13,86243
 388,79;  377,864;   79,840; 2211,914;13,97811
 389,38;  326,714;   45,191; 2114,591;13,60407
 389,97;  379,806;   60,100; 2256,534;14,55568
 390,57;  399,047;   70,519; 2282,250;14,85387
 391,16;  388,447;   67,819; 2344,350;14,08405
 391,75;  399,408;   62,141; 2361,739;14,66633
 392,34;  429,982;   62,689; 2534,314;14,86040
 392,94;  434,224;   57,435; 2531,866;15,22729
 393,53;  419,086;   40,684; 2583,592;14,88066
 394,12;  450,540;   55,742; 2671,462;15,09328
 394,72;  466,088;   63,238; 2681,066;15,38869
 395,31;  460,366;   37,495; 2721,087;15,75766
 395,90;  485,079;   48,221; 2829,972;15,70445
 396,49;  523,437;   54,447; 2959,684;16,14290
 397,09;  507,625;   47,362; 2931,503;15,95840
 397,68;  547,499;   54,610; 3083,778;16,27144
 398,27;  561,518;   57,372; 3138,847;16,36054
 398,86;  564,519;   36,699; 3190,583;16,73555
 399,45;  596,814;   53,590; 3290,237;16,78356
 400,05;  555,843;   43,410; 3227,204;16,09503
 400,64;  602,684;   66,930; 3333,119;16,40303
 401,23;  606,262;   58,900; 3394,109;16,41165
 401,82;  627,862;   81,200; 3450,009;16,22718
 402,42;  648,362;   63,386; 3526,141;16,89337
 403,01;  674,199;   82,610; 3624,378;16,70322
 403,60;  692,654;   63,468; 3703,948;17,28304
 404,19;  710,739;   73,615; 3713,925;17,50192
 404,78;  692,201;   73,264; 3693,351;17,09729
 405,38;  735,053;   70,354; 3880,579;17,44513
 405,97;  714,858;   60,077; 3843,494;17,30660
 406,56;  759,676;   87,139; 3973,463;17,30523
 407,15;  759,315;   70,417; 3987,473;17,58715
 407,74;  777,175;   87,198; 4097,358;17,20572
 408,34;  778,713;   55,849; 4144,632;17,67920
 408,93;  786,814;   66,976; 4153,269;17,61591
 409,52;  786,431;   60,697; 4245,132;17,34365
 410,11;  846,974;   86,171; 4321,721;17,96231
 410,70;  820,057;   66,763; 4271,226;17,91653
 411,29;  837,117;   68,244; 4342,310;17,98925
 411,89;  865,171;   69,889; 4445,711;18,17445
 412,48;  861,796;   59,242; 4494,437;18,09514
 413,07;  880,472;   72,530; 4563,316;17,99111
 413,66;  877,311;   69,295; 4633,159;17,70465
 414,25;  911,709;   62,054; 4719,854;18,24156
 414,84;  907,814;   73,276; 4642,269;18,26525
 415,44;  931,515;   92,604; 4746,905;18,02443
 416,03;  931,690;   71,765; 4819,648;18,11176
 416,62;  954,348;   72,432; 4873,064;18,37084
 417,21;  953,772;   77,516; 4873,048;18,27233
 417,80;  954,589;   75,351; 4894,480;18,24475
 418,39;  965,307;   83,199; 4954,581;18,10796
 418,98;  931,952;   60,327; 4924,443;17,91949
 419,58;  948,633;   74,038; 4935,637;17,98985
 420,17;  927,371;   66,603; 4989,979;17,48329
 420,76;  971,190;   84,165; 5072,948;17,78039
 421,35;  942,951;   61,586; 5004,337;17,83145
 421,94;  997,607;   94,499; 5096,880;18,05356
 422,53;  969,167;   65,494; 5058,333;18,09939
 423,12;  989,488;   72,024; 5078,744;18,32466
 423,71;  964,471;   66,689; 5068,211;17,95017
 424,30;  996,950;   89,573; 5100,569;18,10772
 424,90;  954,909;   43,340; 5114,485;17,97560
 425,49;  999,727;   81,202; 5178,854;18,01860
 426,08;  984,227;   92,902; 5202,554;17,44395
 426,67;  969,730;   45,784; 5121,564;18,20305
 427,26;  976,305;   68,045; 5250,607;17,52531
 427,85;  968,889;   70,837; 5203,512;17,49675
 428,44;  979,706;   77,458; 5282,875;17,33285
 429,03; 1011,686;   94,369; 5336,070;17,50036
 429,62;  982,406;   78,572; 5320,344;17,24291
 430,21;  998,164;   87,626; 5379,691;17,20573
 430,80;  949,803;   68,390; 5384,834;16,57899
 431,39;  970,224;   64,020; 5422,044;16,91302
 431,99;  981,371;   78,389; 5404,911;16,95255
 432,58;  997,188;   88,924; 5475,443;16,86180
 433,17;  963,011;   61,295; 5473,958;16,65938
 433,76;  993,022;   76,252; 5611,203;16,56328
 434,35; 1014,743;   87,396; 5644,881;16,68646
 434,94;  999,860;   86,117; 5689,945;16,30570
 435,53; 1003,645;   85,037; 5702,586;16,35247
 436,12; 1011,844;   77,723; 5717,418;16,56333
 436,71; 1017,327;  100,188; 5794,986;16,10485
 437,30; 1018,646;   85,677; 5821,891;16,26454
 437,89; 1051,363;   90,098; 5954,555;16,39137
 438,48; 1016,325;   84,647; 5952,581;15,87744
 439,07; 1045,628;   82,929; 5962,491;16,37365
 439,66; 1084,921;   92,139; 6155,134;16,37445
 440,25; 1088,444;   88,523; 6180,618;16,41342
 440,84; 1108,160;   93,003; 6242,677;16,50749
 441,43; 1113,316;   82,602; 6365,051;16,40624
 442,02; 1115,479;   68,192; 6383,382;16,58362
 442,61; 1161,024;   96,420; 6402,044;16,88340
 443,20; 1173,680;   94,106; 6499,250;16,85479
 443,79; 1148,542;   78,469; 6561,544;16,50565
 444,38; 1188,961;   88,030; 6697,713;16,65633
 444,97; 1217,143;   88,182; 6713,613;17,03981
 445,56; 1261,682;   97,374; 6900,792;17,11358
 446,15; 1269,039;   90,373; 6925,066;17,24533
 446,74; 1239,804;   74,118; 6970,271;16,90343
 447,33; 1304,942;   85,569; 7177,945;17,19274
 447,92; 1328,679;   87,779; 7318,514;17,16147
 448,51; 1368,323;  101,279; 7302,839;17,59401
 449,10; 1389,283;  101,288; 7460,160;17,50262
 449,69; 1404,839;   81,787; 7609,035;17,57684
 450,28; 1438,541;   79,941; 7744,508;17,72572
 450,87; 1453,781;   85,947; 7863,655;17,58660
 451,46; 1507,021;   91,425; 8014,566;17,86660
 452,05; 1494,560;   84,103; 8123,077;17,54523
 452,64; 1537,859;   76,190; 8257,108;17,86682
 453,23; 1613,938;  117,160; 8452,598;17,95681
 453,82; 1598,999;   84,981; 8555,787;17,87336
 454,40; 1617,459;   65,490; 8714,309;17,94430
 454,99; 1676,017;  105,030; 8923,988;17,81375
 455,58; 1669,562;   77,058; 9016,950;17,81346
 456,17; 1717,938;   70,246; 9261,930;17,92589
 456,76; 1740,279;   71,479; 9410,114;17,86985
 457,35; 1774,961;   89,230; 9515,113;17,88406
 457,94; 1796,837;   70,219; 9743,293;17,84973
 458,53; 1833,519;   67,984; 9887,661;17,97956
 459,12; 1862,334;   91,751;10171,451;17,56583
 459,71; 1896,401;   64,036;10274,061;17,94673
 460,30; 1893,521;   84,539;10423,935;17,49602
 460,89; 1915,179;   71,479;10599,313;17,51262
 461,48; 1960,937;   81,219;10776,394;17,57538
 462,06; 1968,520;   83,598;10916,430;17,40008
 462,65; 1934,180;   46,919;11103,619;17,06893
 463,24; 2042,915;   79,275;11350,114;17,42230
 463,83; 2003,120;   60,398;11498,529;16,98461
 464,42; 2030,160;   85,317;11657,945;16,80555
 465,01; 2054,159;   87,290;11862,509;16,70347
 465,60; 2038,179;   73,592;12020,182;16,44475
 466,19; 2083,537;   84,019;12227,993;16,46510
 466,77; 2079,739;   78,373;12394,166;16,25040
 467,36; 2075,254;   67,653;12490,426;16,16065
 467,95; 2103,618;   79,570;12596,793;16,17010
 468,54; 2095,056;   83,208;12840,198;15,77056
 469,13; 2123,058;   78,262;12922,172;15,92035
 469,72; 2114,835;   63,791;13155,057;15,66727
 470,31; 2157,295;   84,786;13289,810;15,69485
 470,90; 2133,040;   85,300;13438,703;15,33496
 471,48; 2098,814;   41,648;13679,478;15,08426
 472,07; 2177,642;  115,055;13836,477;15,03187
 472,66; 2178,977;   82,738;14008,309;15,05317
 473,25; 2165,339;   74,173;14079,467;14,93125
 473,84; 2178,296;   77,000;14304,478;14,76928
 474,43; 2190,752;   63,613;14592,221;14,64104
 475,01; 2224,136;   77,105;14597,425;14,78639
 475,60; 2219,456;   52,594;14820,130;14,67314
 476,19; 2300,193;   91,032;15001,136;14,81654
 476,78; 2286,454;   76,553;15242,125;14,57183
 477,37; 2320,156;   62,594;15246,130;14,86848
 477,95; 2342,655;   82,681;15389,262;14,76472
 478,54; 2381,917;   77,430;15582,488;14,86281
 479,13; 2401,317;   67,430;15669,188;14,95913
 479,72; 2435,596;   91,113;15805,546;14,91930
 480,31; 2487,212;   76,707;15975,573;15,16149
 480,89; 2462,936;   62,705;16059,024;15,00490
 481,48; 2511,372;   52,588;16219,657;15,20859
 482,07; 2540,856;   54,108;16308,898;15,29856
 482,66; 2569,997;   48,927;16383,015;15,43441
 483,25; 2649,372;   83,288;16630,057;15,50806
 483,83; 2649,116;   63,202;16703,451;15,54011
 484,42; 2690,237;   60,119;16806,393;15,70569
 485,01; 2719,633;   70,837;16977,482;15,66719
 485,60; 2741,229;   76,114;17039,768;15,71073
 486,18; 2769,855;   64,381;17116,361;15,86604
 486,77; 2778,438;   86,760;17139,299;15,78462
 487,36; 2835,309;   64,012;17352,295;16,02991
 487,95; 2861,571;   59,474;17409,289;16,15059
 488,53; 2863,891;   75,477;17539,963;15,96620
 489,12; 2888,609;   56,625;17605,164;16,13800
 489,71; 2875,810;   30,953;17645,000;16,15107
 490,30; 2879,631;   71,683;17741,910;15,89085
 490,88; 2933,751;   92,672;17887,416;15,96583
 491,47; 2918,389;   64,623;17893,189;16,00671
 492,06; 2924,890;   61,236;17920,559;16,03450
 492,65; 2854,711;   73,466;17965,068;15,54497
 493,23; 2867,792;   61,491;18055,730;15,59555
 493,82; 2854,437;   81,132;18124,662;15,37008
 494,41; 2821,271;   54,061;18115,820;15,32082
 494,99; 2831,696;   79,100;18195,479;15,19396
 495,58; 2826,231;   86,883;18196,910;15,12614
 496,17; 2765,415;   64,075;18207,414;14,88888
 496,76; 2786,355;   76,081;18266,463;14,89949
 497,34; 2755,894;   59,145;18340,604;14,75128
 497,93; 2754,114;   58,248;18376,379;14,71693
 498,52; 2765,172;   78,402;18390,025;14,67249
 499,10; 2719,590;   80,950;18436,826;14,37491
 499,69; 2676,532;   65,096;18438,979;14,21276
 500,28; 2652,612;   49,807;18460,174;14,13772
 500,86; 2682,250;   69,258;18459,047;14,20893
 501,45; 2645,350;   55,558;18434,447;14,09113
 502,04; 2640,710;   64,653;18547,600;13,93748
 502,62; 2635,215;   84,875;18603,514;13,77175
 503,21; 2605,875;   62,370;18554,467;13,75455
 503,80; 2629,070;   68,447;18810,752;13,66226
 504,38; 2609,992;   56,591;18774,932;13,64117
 504,97; 2618,870;   51,647;18819,252;13,67901
 505,56; 2598,173;   65,115;18835,395;13,49504
 506,14; 2606,888;   77,809;18917,422;13,42426
 506,73; 2606,588;   39,495;18841,553;13,65325
 507,32; 2626,408;   68,584;18928,357;13,56232
 507,90; 2613,072;   79,788;18947,057;13,42687
 508,49; 2641,368;   56,893;18952,180;13,67788
 509,08; 2674,349;   68,117;19047,643;13,73181
 509,66; 2684,552;   72,885;19103,883;13,72322
 510,25; 2695,831;   63,469;19226,143;13,73692
 510,83; 2725,588;   56,595;19281,453;13,88303
 511,42; 2769,945;   69,122;19226,863;14,09782
 512,01; 2826,748;   53,304;19400,574;14,33507
 512,59; 2833,470;   55,547;19512,553;14,27724
 513,18; 2869,371;   58,661;19397,521;14,53400
 513,77; 2855,474;   53,456;19431,299;14,45991
 514,35; 2923,510;   53,139;19622,031;14,66803
 514,94; 2975,590;   72,350;19687,326;14,80114
 515,52; 2998,607;   46,271;19662,590;15,05041
 516,11; 3085,008;   78,298;19882,627;15,18208
 516,69; 3056,892;   52,504;19688,600;15,30033
 517,28; 3104,713;   85,734;19688,811;15,40054
 517,87; 3138,654;   59,940;19713,758;15,66471
 518,45; 3148,473;   79,329;19768,162;15,58825
 519,04; 3169,513;   54,421;19868,842;15,72134
 519,62; 3210,090;   54,136;19872,158;15,92466
 520,21; 3218,287;   35,768;19909,316;16,01384
 520,79; 3282,226;   54,433;20074,359;16,12290
 521,38; 3293,711;   56,080;20088,336;16,16209
 521,97; 3334,865;   61,825;20362,438;16,12287
 522,55; 3335,493;   68,018;20268,967;16,17486
 523,14; 3331,873;   41,615;20435,494;16,13355
 523,72; 3388,491;   72,577;20645,963;16,11749
 524,31; 3389,088;   80,995;20602,152;16,12040
 524,89; 3400,646;   52,835;20792,332;16,14220
 525,48; 3387,327;   38,060;20930,895;16,03070
 526,06; 3399,948;   61,004;20986,475;15,95637
 526,65; 3435,244;   70,081;21225,059;15,90719
 527,23; 3392,730;   60,842;21099,305;15,83713
 527,82; 3439,026;   51,846;21394,326;15,87060
 528,41; 3455,947;   70,963;21467,369;15,82034
 528,99; 3424,068;   76,793;21623,979;15,53463
 529,58; 3415,150;   54,944;21678,078;15,53986
 530,16; 3443,071;   52,161;21849,721;15,55637
 530,75; 3502,969;   91,906;22135,348;15,47427
 531,33; 3513,427;   46,160;22062,895;15,74832
 531,92; 3513,651;   55,185;22305,984;15,54311
 532,50; 3654,724;   95,992;22653,354;15,77637
 533,09; 3679,988;   75,582;22696,484;15,93396
 533,67; 3757,333;   78,923;22811,215;16,18143
 534,26; 3872,512;   69,593;23054,404;16,54535
 534,84; 4030,911;   71,366;23213,969;17,10933
 535,42; 4110,068;   55,806;23406,248;17,36268
 536,01; 4286,490;   85,136;23645,059;17,83263
 536,59; 4428,387;   39,368;23888,217;18,40348
 537,18; 4554,932;   88,196;24159,578;18,55621
 537,76; 4702,942;   74,254;24458,422;18,98235
 538,35; 4902,686;   70,127;24575,412;19,72047
 538,93; 5043,348;   81,404;24764,273;20,10279
 539,52; 5185,644;   64,781;24960,459;20,56928
 540,10; 5369,805;   70,803;25277,049;21,02257
 540,69; 5493,569;   79,720;25578,816;21,23153
 541,27; 5582,190;   74,050;25731,926;21,46764
 541,85; 5724,027;   61,374;26132,963;21,71963
 542,44; 5817,771;   53,688;26216,357;22,03171
 543,02; 5965,004;   89,603;26640,949;22,12845
 543,61; 6048,946;   90,849;26820,500;22,29022
 544,19; 6103,847;   63,676;26889,137;22,51656
 544,78; 6152,867;   69,165;27105,543;22,50191
 545,36; 6282,045;  102,308;27548,295;22,51599
 545,94; 6322,369;   69,206;27636,047;22,68364
 546,53; 6387,483;   78,959;27848,270;22,71761
 547,11; 6498,025;  100,319;28165,689;22,79573
 547,70; 6526,332;   70,196;28238,479;22,91988
 548,28; 6533,668;   48,793;28532,080;22,76730
 548,86; 6654,668;   89,193;28783,080;22,88109
 549,45; 6657,365;   42,825;28966,537;22,86892
 550,03; 6733,706;   81,444;29260,053;22,79842
 550,62; 6855,307;   68,671;29762,590;22,85531
 551,20; 6929,346;   76,749;30011,801;22,89155
 551,78; 6912,309;   67,712;29974,994;22,88605
 552,37; 6989,269;   49,706;30399,547;22,86523
 552,95; 7055,408;   71,098;30509,926;22,94540
 553,54; 7144,388;   57,095;30897,453;22,98058
 554,12; 7157,386;   84,641;31044,379;22,84498
 554,70; 7264,225;   68,419;31504,891;22,88999
 555,29; 7288,328;   62,687;31736,232;22,81286
 555,87; 7413,384;   60,586;31982,207;23,03391
 556,45; 7403,010;   67,753;32206,900;22,82344
 557,04; 7526,687;   57,255;32612,447;22,94390
 557,62; 7631,386;   75,455;32861,547;23,04615
 558,20; 7669,063;   42,756;33276,695;22,94734
 558,79; 7769,326;  106,633;33556,160;22,90822
 559,37; 7768,546;   57,649;33863,102;22,80963
 559,95; 7906,385;   54,914;34136,043;23,03759
 560,54; 7942,245;   72,222;34305,766;22,98922
 561,12; 7986,667;   59,665;34682,145;22,89553
 561,70; 8116,165;   46,911;34991,668;23,09146
 562,29; 8185,286;   80,127;35404,613;22,94487
 562,87; 8235,965;   77,425;35710,539;22,89595
 563,45; 8363,365;   78,425;36018,738;23,05194
 564,04; 8410,229;   59,142;36042,004;23,20851
 564,62; 8496,005;   47,716;36491,316;23,18182
 565,20; 8559,250;   66,858;36805,246;23,11585
 565,78; 8616,748;   68,890;37188,805;23,02769
 566,37; 8763,527;   71,774;37480,063;23,23483
 566,95; 8779,404;   51,503;37583,648;23,25447
 567,53; 8924,710;   74,253;38052,199;23,30420
 568,12; 8948,068;   59,193;38062,680;23,38963
 568,70; 9041,729;   87,801;38674,398;23,20476
 569,28; 9148,865;   66,111;38869,070;23,40738
 569,86; 9133,166;   68,352;39075,074;23,23911
 570,45; 9314,885;   78,500;39478,477;23,44261
 571,03; 9341,030;   59,855;39592,273;23,47738
 571,61; 9418,203;   73,276;40053,410;23,37393
 572,19; 9457,770;   64,434;40072,484;23,47861
 572,78; 9564,525;   67,633;40432,859;23,52741
 573,36; 9600,769;   97,006;40710,348;23,40059
 573,94; 9639,009;   60,012;40918,395;23,44439
 574,52; 9711,313;   71,507;41099,672;23,49558
 575,11; 9761,849;   37,317;41357,844;23,53438
 575,69; 9787,627;   53,360;41544,496;23,46108
 576,27; 9823,171;   59,374;41726,988;23,43258
 576,85; 9897,269;   41,506;42173,148;23,39278
 577,44;10028,010;   44,753;42382,301;23,58015
 578,02; 9998,572;   28,402;42406,926;23,52647
 578,60;10063,129;   61,614;42851,668;23,37346
 579,18;10189,810;   49,025;43107,563;23,55116
 579,76;10226,648;   34,004;43175,176;23,62626
 580,35;10295,244;   68,795;43417,727;23,59101
 580,93;10306,666;   57,138;43808,508;23,42676
 581,51;10383,924;   41,292;44046,855;23,50301
 582,09;10450,010;   64,239;44214,832;23,52351
 582,67;10499,146;   54,349;44465,402;23,51846
 583,26;10577,245;   36,522;44784,965;23,55551
 583,84;10635,488;   32,609;45104,422;23,52441
 584,42;10715,729;   61,001;45460,102;23,46903
 585,00;10809,526;   91,760;45715,797;23,49149
 585,58;10894,786;   39,255;45961,547;23,63891
 586,17;10905,892;   62,477;45973,762;23,61819
 586,75;10920,887;   11,568;46134,516;23,65269
 587,33;11073,227;   45,046;46571,527;23,70302
 587,91;11077,487;   82,468;46748,816;23,56092
 588,49;11126,311;   78,053;46766,602;23,66374
 589,07;11128,546;   48,635;46805,531;23,69685
 589,65;11059,307;   40,957;46709,723;23,60969
 590,24;11154,630;   48,755;46929,875;23,68944
 590,82;11120,011;   38,666;47030,867;23,58124
 591,40;11178,188;   45,309;47090,820;23,66406
 591,98;11115,692;   57,604;46914,301;23,59980
 592,56;11232,211;   59,566;47130,367;23,73583
 593,14;11205,092;   52,004;47190,000;23,66050
 593,72;11241,588;   45,195;47402,055;23,64260
 594,30;11203,772;   49,302;47338,324;23,58787
 594,89;11236,448;   48,504;47193,375;23,73099
 595,47;11237,491;   34,677;47507,563;23,59834
 596,05;11275,486;   26,755;47496,148;23,69681
 596,63;11295,286;   39,555;47656,648;23,63801
 597,21;11312,907;   36,371;47898,391;23,56051
 597,79;11252,807;   44,357;47797,922;23,47144
 598,37;11291,864;   46,797;47735,902;23,57995
 598,95;11256,887;   60,568;47945,016;23,38195
 599,53;11196,574;   41,756;47673,598;23,41883
 600,11;11338,608;   56,998;48051,426;23,50608
 600,70;11244,689;   56,123;47864,090;23,40314
 601,28;11216,188;   44,809;48052,723;23,26987
 601,86;11217,087;   59,768;47991,918;23,27732
 602,44;11190,311;   25,766;48088,270;23,22922
 603,02;11211,935;   40,278;48089,488;23,25045
 603,60;11234,394;   70,032;48463,637;23,06991
 604,18;11129,449;   63,931;48321,609;22,93007
 604,76;11085,710;   52,839;48313,832;22,86085
 605,34;10995,567;   39,079;48122,813;22,78627
 605,92;10971,990;   62,863;47909,996;22,79996
 606,50;10886,830;   19,555;47963,875;22,66645
 607,08;10837,727;   44,460;47738,996;22,62999
 607,66;10774,807;   61,171;47912,391;22,38947
 608,24;10673,666;   50,152;47913,875;22,19534
 608,82;10546,449;   33,417;47994,344;21,91999
 609,40;10394,847;   58,063;47801,270;21,65080
 609,98;10233,548;   38,604;47812,473;21,34000
 610,56;10050,011;   55,680;47786,738;20,93884
 611,14; 9852,828;   55,687;47626,133;20,59502
 611,72; 9674,868;   61,793;47800,578;20,13682
 612,30; 9471,529;   42,242;47687,906;19,79044
 612,88; 9234,593;   69,218;47868,668;19,17464
 613,46; 9005,931;   24,355;47567,574;18,89139
 614,04; 8784,625;   44,319;47735,391;18,32692
 614,62; 8658,171;   56,074;47474,188;18,14095
 615,20; 8563,346;   53,335;47490,133;17,93968
 615,78; 8442,704;   34,003;47445,250;17,73567
 616,36; 8468,509;   33,512;47368,293;17,81987
 616,94; 8506,307;   13,571;47345,391;17,94297
 617,52; 8597,466;   20,638;47151,305;18,19798
 618,10; 8763,832;   73,110;47277,746;18,41074
 618,68; 8947,627;   32,074;47203,863;18,90018
 619,26; 9001,006;   42,230;47278,984;18,96569
 619,84; 9126,850;   39,031;46848,809;19,41436
 620,42; 9255,988;   46,995;46977,055;19,62280
 621,00; 9355,888;   29,095;46918,152;19,89119
 621,58; 9388,332;   40,796;46835,078;19,97581
 622,16; 9464,523;   52,978;46764,285;20,14832
 622,74; 9438,607;   44,971;47010,891;20,00096
 623,32; 9435,647;   36,376;46796,137;20,10120
 623,90; 9377,583;   69,073;46749,637;19,94087
 624,48; 9410,330;   43,455;46528,375;20,15035
 625,05; 9289,530;   26,455;46671,973;19,85845
 625,63; 9278,130;   50,655;46568,375;19,83647
 626,21; 9179,830;   36,342;46637,707;19,62064
 626,79; 9209,746;   61,549;46653,902;19,63455
 627,37; 9065,190;   44,150;46569,926;19,38934
 627,95; 9073,346;   78,235;46474,934;19,38739
 628,53; 8985,288;   43,895;46391,652;19,29196
 629,11; 8896,753;   45,613;46209,320;19,17337
 629,69; 8870,405;   52,716;46415,516;19,01889
 630,27; 8835,050;   79,831;46333,211;18,92882
 630,84; 8720,130;   44,355;46174,574;18,80714
 631,42; 8786,966;   59,238;46441,008;18,81715
 632,00; 8743,912;   47,107;46328,672;18,79108
 632,58; 8677,469;   62,620;46192,816;18,67508
 633,16; 8708,044;   57,181;46244,859;18,72981
 633,74; 8650,729;   69,401;46156,301;18,61988
 634,32; 8611,051;   42,172;46079,516;18,61289
 634,90; 8663,863;   70,784;46435,531;18,53365
 635,47; 8587,451;   42,385;46012,984;18,58811
 636,05; 8504,251;   45,572;45855,316;18,46480
 636,63; 8452,388;   59,695;46075,453;18,23874
 637,21; 8427,648;   49,204;46146,773;18,17546
 637,79; 8382,088;   69,182;46261,484;17,99630
 638,37; 8268,516;   55,589;45920,184;17,90690
 638,94; 8273,628;   42,087;45894,230;17,95236
 639,52; 8206,428;   49,987;46062,531;17,72656
 640,10; 8187,730;   61,312;46201,988;17,61227
 640,68; 8133,087;   54,011;46143,938;17,52894
 641,26; 8068,443;   29,510;46023,387;17,47827
 641,84; 8055,800;   58,610;46039,234;17,39252
 642,41; 8028,757;   29,109;46052,684;17,38163
 642,99; 8099,713;   55,709;46103,629;17,46877
 643,57; 8067,070;   30,008;46112,680;17,44053
 644,15; 8161,827;   26,308;46156,527;17,63599
 644,73; 8262,384;   44,607;46289,676;17,77006
 645,30; 8325,840;   79,507;46210,223;17,87601
 645,88; 8380,997;   66,206;46235,473;18,00936
 646,46; 8449,753;   62,005;46367,621;18,11389
 647,04; 8525,410;   52,105;46320,270;18,31347
 647,61; 8596,667;   44,804;46301,816;18,48771
 648,19; 8677,623;   69,504;46384,266;18,58612
 648,77; 8736,080;   29,603;46427,012;18,76501
 649,35; 8712,137;   54,803;46487,262;18,64500
 649,92; 8773,593;   50,502;46409,508;18,81639
 650,50; 8698,050;   31,102;46441,855;18,67444
 651,08; 8746,507;   52,101;46384,605;18,76524
 651,66; 8724,863;   29,100;46667,754;18,64497
 652,23; 8693,520;   41,600;46518,000;18,61573
 652,81; 8700,076;   39,699;46704,750;18,55859
 653,39; 8653,233;   80,299;46763,996;18,36387
 653,97; 8586,390;   24,898;46865,746;18,27783
 654,54; 8485,146;   26,698;46614,395;18,15597
 655,12; 8427,403;   35,897;46912,141;17,90140
 655,70; 8399,659;   51,597;47117,492;17,73697
 656,28; 8350,716;   39,996;47191,539;17,62555
 656,85; 8259,173;   47,396;47130,387;17,44107
 657,43; 8115,229;   16,295;47018,234;17,23106
 658,01; 8160,786;   21,494;47262,984;17,22912
 658,58; 8172,243;   65,494;47656,633;17,03416
 659,16; 8115,700;   59,593;47278,879;17,06105
 659,74; 8136,756;   68,593;47494,027;17,01231
 660,32; 8229,313;   74,792;47569,176;17,16944
 660,89; 8207,569;   43,092;47511,125;17,19995
 661,47; 8292,226;   58,091;47867,473;17,22284
 662,05; 8325,482;   46,191;47948,621;17,28366
 662,62; 8468,839;   64,390;48243,270;17,44426
 663,20; 8579,096;   87,089;48433,516;17,56491
 663,78; 8762,753;   61,489;48846,266;17,83602
 664,35; 8822,109;   54,988;48955,414;17,92852
 664,93; 8925,366;   68,088;48995,359;18,10295
 665,51; 8911,322;   51,587;48983,609;18,10621
 666,08; 8947,579;   44,587;49290,957;18,07847
 666,66; 9161,735;   46,686;49966,707;18,25931
 667,23; 9226,992;   59,186;49907,453;18,39142
 667,81; 9323,949;   65,185;50605,402;18,31960
 668,39; 9308,506;   51,285;50611,852;18,30917
 668,96; 9329,662;   62,684;50956,699;18,20838
 669,54; 9349,319;   38,083;51466,645;18,10518
 670,12; 9489,376;   53,483;51883,996;18,20529
 670,69; 9435,933;   69,682;52389,543;17,90190
 671,27; 9445,589;   34,282;52652,191;17,88613
 671,84; 9357,245;   49,681;52463,039;17,75800
 672,42; 9381,002;   84,481;52984,488;17,57376
 673,00; 9396,759;   62,280;53245,234;17,55164
 673,57; 9338,216;   69,680;52998,383;17,51136
 674,15; 9385,872;   68,479;53364,434;17,48236
 674,72; 9302,829;   57,978;53046,281;17,44697
 675,30; 9323,386;   81,878;53068,227;17,44130
 675,88; 9262,442;   59,777;53131,375;17,34009
 676,45; 9445,698;   66,277;53408,426;17,58351
 677,03; 9456,556;   73,976;53198,973;17,66133
 677,60; 9518,612;   33,776;53411,922;17,76914
 678,18; 9629,568;   53,275;53629,270;17,87422
 678,76; 9708,726;   39,975;53442,918;18,10528
 679,33; 9776,682;   65,974;53470,566;18,18328
 679,91; 9869,839;   45,573;53507,914;18,37605
 680,48; 9868,595;   41,173;53547,363;18,36689
 681,06; 9965,052;   59,372;53492,711;18,53839
 681,63;10025,608;   37,072;53339,258;18,73945
 682,21;10073,365;   63,671;53256,508;18,81775
 682,78; 9957,922;   21,171;52780,656;18,83406
 683,36;10043,778;   52,370;53056,602;18,85021
 683,93;10000,035;   42,570;52885,551;18,84350
 684,51; 9974,292;   43,969;52822,297;18,81515
 685,08;10128,349;   48,169;53078,445;19,00835
 685,66;10017,905;   58,168;53179,797;18,74893
 686,24; 9985,562;   52,967;53178,742;18,69638
 686,81;10059,918;   60,367;53275,191;18,79091
 687,39; 9958,775;   49,866;53298,738;18,60867
 687,96; 9963,731;   56,166;53404,387;18,57150
 688,54; 9947,188;   35,465;53481,938;18,54514
 689,11; 9852,945;   27,465;53681,984;18,31249
 689,69; 9865,901;   31,064;53730,031;18,31476
 690,26; 9916,559;   73,564;54071,480;18,22847
 690,84; 9933,915;   55,563;53842,828;18,36560
 691,41;10026,071;   43,962;54165,375;18,44392
 691,98; 9956,828;   37,562;54195,523;18,31543
 692,56;10037,085;   41,261;54274,172;18,43129
 693,13;10221,541;   58,961;54603,621;18,63167
 693,71;10248,098;   43,360;54667,969;18,68158
 694,28;10344,354;   39,860;54832,617;18,80631
 694,86;10529,411;   50,659;55173,266;19,00990
 695,43;10711,368;   61,159;55058,313;19,36502
 696,01;10806,125;   48,858;55477,363;19,40746
 696,58;10904,281;   49,858;55361,910;19,62398
 697,16;11018,438;   42,557;55431,758;19,81592
 697,73;11260,694;   76,356;55810,008;20,06748
 698,30;11271,651;   55,156;55690,656;20,16068
 698,88;11440,708;   34,555;55941,102;20,40218
 699,45;11499,265;   40,755;56208,852;20,40039
 700,03;11612,021;   59,254;56380,699;20,51220
 700,60;11698,578;   66,154;56539,246;20,59817
 701,18;11833,135;   56,053;56680,996;20,79840
 701,75;11942,891;   75,953;57150,145;20,79213
 702,32;11836,748;   51,852;56796,793;20,76819
 702,90;11930,404;   53,051;57066,941;20,83238
 703,47;11902,061;   51,051;57460,688;20,64289
 704,05;11967,718;   74,050;57541,035;20,69652
 704,62;11960,874;   40,550;57539,184;20,73149
 705,19;11950,631;   43,849;57563,734;20,70029
 705,77;11908,588;   39,749;57818,680;20,54181
 706,34;11935,645;   74,148;57908,730;20,50935
 706,91;11966,301;   54,948;57997,379;20,55722
 707,49;11937,957;   64,047;58274,027;20,39841
 708,06;12018,814;   83,146;58384,973;20,47220
 708,64;12073,171;   35,346;58413,621;20,62038
 709,21;12111,728;   65,945;58609,969;20,57560
 709,78;12239,184;   61,545;58767,219;20,74355
 710,36;12296,940;   69,044;59027,266;20,73993
 710,93;12423,997;   65,444;59277,016;20,87185
 711,50;12567,154;   53,143;59302,664;21,12086
 712,08;12705,110;   60,943;59889,211;21,13410
 712,65;12765,967;   64,042;59580,059;21,34203
 713,22;12829,124;   81,542;59653,605;21,39859
 713,80;12946,181;   81,041;59879,855;21,51404
 714,37;12939,637;   57,440;59519,605;21,66453
 714,94;13106,794;   66,040;59479,551;21,94914
 715,52;13226,950;   62,339;59611,398;22,10717
 716,09;13324,507;   48,839;59741,449;22,24005
 716,66;13353,964;   76,138;59670,395;22,28038
 717,23;13490,521;   76,238;59753,844;22,47792
 717,81;13435,277;   59,937;59513,094;22,49728
 718,38;13334,033;   56,437;59206,742;22,44722
 718,95;13386,391;   77,336;59080,891;22,55636
 719,53;13518,146;   58,635;59153,836;22,77598
 720,10;13402,703;   67,635;59244,586;22,53423
 720,67;13257,760;   39,134;58810,133;22,49175
 721,24;13246,117;   69,934;58290,582;22,63146
 721,82;13263,674;   52,633;58242,730;22,70325
 722,39;13270,130;   70,733;58534,477;22,57706
 722,96;13298,986;   69,632;58535,527;22,62747
 723,53;13181,943;   92,032;58405,773;22,44739
 724,11;13314,900;   81,531;58418,422;22,68439
 724,68;13308,757;   76,031;58469,973;22,66113
 725,25;13350,813;   70,130;58659,320;22,66746
 725,82;13397,070;   93,129;59047,066;22,56667
 726,40;13425,826;   76,629;59143,414;22,60018
 726,97;13412,883;   62,928;59210,363;22,57064
 727,54;13536,140;   59,028;59296,012;22,75118
 728,11;13576,496;   53,427;59595,258;22,71188
 728,69;13638,453;   40,727;59430,406;22,89577
 729,26;13811,210;   61,226;59899,258;22,97867
 729,83;13907,666;   49,426;60292,703;23,00380
 730,40;14083,723;   67,025;60108,352;23,34508
 730,97;14280,080;   54,424;60556,699;23,51260
 731,55;14378,937;   45,024;60690,648;23,63553
 732,12;14475,793;   91,223;60692,797;23,73630
 732,69;14421,850;   74,323;60754,344;23,64456
 733,26;14599,807;   60,522;60783,395;23,94367
 733,83;14674,663;   40,622;60893,340;24,04830
 734,41;14863,720;   72,321;61214,391;24,19185
 734,98;14948,376;   55,921;61057,438;24,41325
 735,55;15141,333;   54,020;61239,086;24,65849
 736,12;15217,390;   80,319;61632,633;24,59220
 736,69;15305,746;   80,919;61557,781;24,76513
 737,26;15278,003;   62,718;61698,129;24,68595
 737,84;15254,359;   64,818;61653,879;24,66273
 738,41;15396,916;   64,117;61895,625;24,79771
 738,98;15341,873;   67,917;61786,477;24,74775
 739,55;15320,129;   52,516;61643,723;24,78862
 740,12;15416,786;   57,816;62108,270;24,75239
 740,69;15531,242;   74,115;61972,621;24,97173
 741,26;15420,199;   77,315;61881,668;24,82493
 741,83;15414,156;   68,514;61724,715;24,88905
 742,41;15556,713;   65,313;61882,563;25,05999
 742,98;15512,669;   94,613;62100,914;24,86531
 743,55;15540,326;   77,912;62231,461;24,87777
 744,12;15474,183;   55,512;62051,008;24,87063
 744,69;15441,039;   67,111;62200,758;24,74332
 745,26;15467,796;   49,811;61966,406;24,90122
 745,83;15461,152;   72,810;62373,352;24,70017
 746,40;15499,809;   67,110;62052,801;24,89720
 746,97;15525,865;   50,109;61967,551;24,99418
 747,55;15552,422;   63,908;61938,199;25,03223
 748,12;15702,579;   68,708;61927,547;25,27346
 748,69;15749,836;   73,107;61816,492;25,39013
 749,26;15813,792;   61,907;62114,242;25,38484
 749,83;15788,148;   50,406;62049,590;25,38379
 750,40;15971,905;   93,406;61932,438;25,67715
 750,97;16040,962;  105,505;62078,688;25,71347
 751,54;16021,719;   44,505;61752,434;25,89167
 752,11;16083,075;   60,404;61797,984;25,95287
 752,68;16064,032;   93,003;61696,633;25,92547
 753,25;16005,188;   64,303;61339,980;26,01503
 753,82;16066,945;   72,902;61456,027;26,05609
 754,39;16117,302;   77,402;61643,777;26,05302
 754,96;16074,459;   67,501;61359,523;26,11589
 755,53;16270,115;   45,801;61551,871;26,37840
 756,10;16188,872;   72,100;61327,820;26,31064
 756,67;16183,229;   72,500;61544,969;26,20804
 757,24;16036,985;   79,399;61345,215;26,04648
 757,81;16113,742;   22,199;61266,965;26,27415
 758,38;16137,099;   63,598;61495,012;26,16495
 758,95;16135,155;   83,497;61168,961;26,27738
 759,52;16036,912;   53,797;60702,711;26,35351
 760,09;16058,969;   80,196;60693,457;26,36184
 760,66;15866,325;   66,096;60242,406;26,25656
 761,23;15889,182;   88,695;60198,652;26,28597
 761,80;15779,438;   67,295;60262,402;26,10203
 762,37;15816,895;   79,794;60200,852;26,17569
 762,94;15904,651;   81,194;60215,199;26,31366
 763,51;15838,208;   49,293;60035,145;26,32107
 764,08;15789,064;   69,392;60022,195;26,22008
 764,65;15756,121;   80,492;59748,141;26,27157
 765,22;15755,479;   60,191;59771,191;26,28542
 765,79;15675,335;   83,491;59544,438;26,22199
 766,36;15648,991;   73,990;59413,586;26,24723
 766,93;15760,648;   58,690;59539,535;26,39834
 767,50;15788,904;   77,689;59556,785;26,41468
 768,07;15799,661;   67,389;59555,531;26,44606
 768,64;15761,118;   90,388;59193,578;26,51419
 769,21;15673,175;   61,288;58606,828;26,66623
 769,78;15663,331;   81,087;58207,375;26,80757
 770,34;15572,188;   36,986;58160,023;26,72813
 770,91;15624,645;   60,186;58034,773;26,84704
 771,48;15610,602;   70,585;57894,922;26,87453
 772,05;15507,857;   58,285;57586,770;26,85552
 772,62;15479,814;   51,284;57213,918;26,99059
 773,19;15509,371;   57,684;57361,766;26,96437
 773,76;15467,728;   78,183;57313,715;26,88810
 774,33;15522,784;   70,983;57111,762;27,08904
 774,90;15340,941;   54,582;56564,109;27,05094
 775,47;15368,498;   73,181;56633,859;27,04231
 776,03;15273,654;   66,481;56357,707;27,01518
 776,60;15168,311;   64,480;56136,152;26,93665
 777,17;15134,268;   69,780;55955,602;26,95583
 777,74;14941,524;   40,979;55430,750;26,90126
 778,31;15053,181;   64,779;55665,000;26,95745
 778,88;14871,438;   25,178;55315,047;26,85168
 779,45;14736,994;   76,978;55020,195;26,68212
 780,01;14807,051;   63,277;55023,242;26,82639
 780,58;14728,008;   70,076;54696,891;26,83285
 781,15;14688,664;   46,576;54313,441;26,98164
 781,72;14551,121;   85,875;54310,289;26,67663
 782,29;14493,777;   65,975;54010,734;26,74551
 782,86;14431,434;   74,074;53636,184;26,80507
 783,42;14420,291;   64,974;53663,332;26,78313
 783,99;14342,147;   68,373;53469,980;26,72911
 784,56;14334,404;   69,573;53343,430;26,77642
 785,13;14225,360;   42,572;52994,277;26,78438
 785,70;14066,417;   69,172;52649,625;26,62063
 786,26;14097,374;   62,371;52642,371;26,69266
 786,83;14121,131;   81,570;52462,320;26,80290
 787,40;14090,787;   74,970;52177,871;26,90026
 787,97;14070,644;   45,669;52106,719;26,93948
 788,54;14005,000;   76,969;51899,164;26,87658
 789,10;13958,957;   61,568;51627,113;26,95092
 789,67;13919,414;   73,868;51235,262;27,06249
 790,24;13922,771;   63,567;51157,609;27,12489
 790,81;13809,027;   85,767;50574,457;27,18086
 791,37;13720,184;   79,866;50510,508;27,04768
 791,94;13728,340;   80,665;50570,754;27,03040
 792,51;13713,797;   56,165;50218,805;27,22670
 793,08;13592,953;   66,364;49950,852;27,11582
 793,64;13526,710;   65,464;49827,301;27,05134
 794,21;13454,167;   77,863;49479,348;27,07672
 794,78;13411,523;   55,163;49217,996;27,16760
 795,35;13295,580;   76,762;49034,742;27,00033
 795,91;13285,837;   51,162;48702,293;27,20322
 796,48;13171,693;   65,461;48451,738;27,08667
 797,05;13065,550;   75,961;48155,590;27,01682
 797,62;13010,307;   62,260;48153,535;26,92390
 798,18;12896,563;   57,059;47786,684;26,90049
 798,75;12863,720;   65,659;47600,832;26,92335
 799,32;12844,977;   73,458;47550,383;26,90048
 799,88;12867,233;   55,658;47393,430;27,06417
 800,45;12657,590;   41,357;46711,777;27,03261
 801,02;12659,847;   66,457;46736,125;26,98410
 801,58;12558,403;  103,656;46334,172;26,94053
 802,15;12523,860;   71,656;46161,523;27,01723
 802,72;12465,116;   77,255;45929,070;27,01717
 803,28;12348,273;   59,654;45792,617;26,87038
 803,85;12304,830;   45,254;45498,766;26,97168
 804,42;12301,087;   80,753;45311,516;27,01775
 804,98;12241,543;  101,253;45317,164;26,84960
 805,55;12183,399;   67,352;44887,012;27,03289
 806,12;12154,456;   87,852;44742,457;27,02208
 806,68;12013,113;   72,951;44340,906;26,97247
 807,25;12078,170;   88,851;44179,156;27,19264
 807,82;12029,526;   84,150;44195,102;27,08030
 808,38;12039,983;   73,549;43813,652;27,35804
 808,95;11957,540;   63,749;43737,699;27,23315
 809,52;12011,796;   59,648;43807,047;27,32082
 810,08;11967,153;   70,748;43565,098;27,35161
 810,65;11957,210;   76,847;43732,043;27,21409
 811,21;11961,966;   74,347;43598,191;27,31289
 811,78;11982,723;   85,446;43629,039;27,32268
 812,35;12012,979;   69,846;43379,188;27,57635
 812,91;11997,036;   92,745;43541,438;27,39850
 813,48;11973,293;   70,045;43341,285;27,50845
 814,04;11877,850;   74,244;43530,332;27,16214
 814,61;11915,206;   78,943;43190,980;27,45466
 815,18;11777,463;   76,443;43015,629;27,25021
 815,74;11739,119;   81,642;42867,379;27,24618
 816,31;11641,076;   93,042;42608,227;27,16214
 816,87;11508,933;   43,141;42052,676;27,29331
 817,44;11467,489;   96,041;41998,824;27,13769
 818,00;11409,446;   56,140;41704,570;27,25987
 818,57;11328,702;   77,340;41640,117;27,07077
 819,14;11269,159;   94,739;41450,367;27,02031
 819,70;11216,216;   90,138;41083,016;27,14149
 820,27;11086,572;   65,338;40847,563;27,02460
 820,83;11063,029;   76,437;40615,113;27,10151
 821,40;10984,786;  108,537;40237,160;27,10347
 821,96;10951,542;   78,536;40230,809;27,07943
 822,53;10872,499;   86,236;39938,355;27,06572
 823,09;10878,056;   97,135;39618,305;27,27885
 823,66;10823,612;   82,735;39519,152;27,23594
 824,22;10736,869;   81,934;39276,801;27,18452
 824,79;10634,926;   77,233;38978,047;27,14003
 825,35;10667,683;   88,233;38961,195;27,21544
 825,92;10569,438;   79,632;38659,246;27,19002
 826,48;10521,796;   91,832;38252,191;27,33193
 827,05;10414,353;  100,231;38092,641;27,14785
 827,61;10415,209;   69,431;38141,289;27,17435
 828,18;10308,766;   74,030;37948,039;27,02311
 828,74;10311,422;  102,130;37810,285;27,07449
 829,31;10268,679;  112,729;37720,332;27,00504
 829,87;10299,436;   73,029;37591,383;27,25708
 830,44;10200,292;   83,128;37188,332;27,26616
 831,00;10178,749;   94,627;37026,078;27,30497
 831,57;10171,705;  111,327;37133,625;27,17383
 832,13;10041,462;   83,826;36566,773;27,29395
 832,69;10013,019;   77,626;36531,824;27,25445
 833,26; 9951,075;  101,325;36464,973;27,08680
 833,82; 9836,231;  116,625;36341,219;26,83151
 834,39; 9799,688;   87,224;36149,969;26,93213
 834,95; 9768,445;   76,024;36031,016;26,95710
 835,52; 9719,502;  105,023;35825,164;26,91613
 836,08; 9651,559;  109,022;35731,211;26,78818
 836,64; 9619,715;   91,122;35587,961;26,84350
 837,21; 9574,672;   90,721;35487,109;26,79355
 837,77; 9577,729;   95,721;35148,656;27,05054
 838,34; 9523,685;   79,720;35189,105;26,89869
 838,90; 9387,241;   67,820;34846,453;26,79640
 839,46; 9382,099;   92,219;34863,402;26,71718
 840,03; 9419,055;   87,619;34824,848;26,86293
 840,59; 9300,312;   96,418;34530,496;26,72903
 841,16; 9326,468;  108,518;34448,344;26,84332
 841,72; 9154,524;   61,717;34317,793;26,54363
 842,28; 9170,781;   81,216;34208,543;26,63427
 842,85; 9150,838;  102,216;34333,289;26,43394
 843,41; 9155,295;  101,715;34174,238;26,57150
 843,97; 9135,352;   93,515;33927,188;26,72437
 844,54; 9067,708;  106,314;33683,836;26,68867
 845,10; 9005,864;   99,614;33447,383;26,70719
 845,67; 8922,621;   77,213;33269,629;26,64888
 846,23; 8943,078;  103,213;33224,379;26,68948
 846,79; 8866,635;  108,812;32973,328;26,64826
 847,36; 8800,991;   67,111;32864,273;26,62999
 847,92; 8833,348;   88,411;32868,023;26,67797
 848,48; 8768,005;   56,410;32851,570;26,56366
 849,04; 8677,861;   70,710;32682,721;26,39258
 849,61; 8677,817;   59,109;32504,168;26,56401
 850,17; 8769,274;   70,509;32576,316;26,76065
 850,73; 8644,731;   70,408;32366,064;26,54946
 851,30; 8559,588;   54,308;32162,713;26,48926
 851,86; 8473,244;   67,507;31977,561;26,34197
 852,42; 8450,701;   62,306;32107,209;26,17700
 852,99; 8466,657;   96,006;32017,758;26,22241
 853,55; 8366,414;   83,305;31799,506;26,11633
 854,11; 8327,571;   70,705;31699,553;26,10549
 854,67; 8372,428;   96,004;31494,301;26,35947
 855,24; 8244,185;   55,304;31331,250;26,18268
 855,80; 8231,641;   79,803;31543,799;25,90846
 856,36; 8177,498;   70,703;31319,646;25,94262
 856,92; 8078,654;   55,102;31022,594;25,90960
 857,49; 8089,011;   85,102;31039,643;25,85698
 858,05; 8038,768;   72,701;30859,191;25,87520
 858,61; 8023,924;   72,500;30936,939;25,76241
 859,17; 7994,980;   83,000;30820,986;25,74007
 859,74; 8044,637;   85,299;30645,336;26,04492
 860,30; 7973,194;  105,199;30506,584;25,88038
 860,86; 7892,150;   69,998;30433,432;25,76175
 861,42; 7874,307;   85,998;30371,080;25,71665
 861,99; 7874,364;   63,297;30177,027;25,93856
 862,55; 7783,621;   73,097;29970,076;25,79031
 863,11; 7768,477;   91,896;30127,523;25,55825
 863,67; 7758,234;   66,795;30045,172;25,65662
 864,23; 7722,490;   83,795;29931,920;25,59188
 864,80; 7690,947;   69,294;29597,270;25,81163
 865,36; 7653,104;   84,494;29668,217;25,58370
 865,92; 7589,860;  101,993;29589,766;25,39313
 866,48; 7595,017;   69,793;29520,813;25,55166
 867,04; 7512,773;   54,992;29244,861;25,54921
 867,60; 7514,630;   87,792;29071,910;25,62382
 868,17; 7394,387;  102,091;28909,059;25,31435
 868,73; 7332,043;   85,891;28762,406;25,26860
 869,29; 7348,100;   60,390;28711,254;25,43627
 869,85; 7332,857;  110,289;28446,201;25,48910
 870,41; 7229,813;   85,589;28238,350;25,37664
 870,97; 7208,870;  107,188;28291,998;25,19684
 871,54; 7098,427;   73,088;28003,646;25,15288
 872,10; 7041,783;   84,987;27703,895;25,18853
 872,66; 6947,040;   76,487;27456,043;25,09374
 873,22; 6985,797;   90,186;27453,092;25,20058
 873,78; 6887,153;   78,886;27139,439;25,15938
 874,34; 6837,110;   99,085;26999,787;25,04777
 874,90; 6799,010;  114,485;26774,588;25,07314
 875,46; 6728,110;  109,085;26704,387;24,88795
 876,03; 6612,010;   87,285;26403,287;24,79375
 876,59; 6566,810;   69,285;26175,588;24,88872
 877,15; 6533,010;  107,185;26130,887;24,69220
 877,71; 6516,210;   88,485;26141,188;24,67201
 878,27; 6423,110;   99,585;25897,588;24,51168
 878,83; 6478,410;  113,885;25881,088;24,70010
 879,39; 6491,410;  100,485;25804,988;24,86306
 879,95; 6418,310;   99,785;25691,088;24,69013
 880,51; 6387,510;   75,685;25879,387;24,46093
 881,07; 6409,210;   83,685;26030,488;24,37882
 881,63; 6420,810;   92,985;26092,887;24,33788
 882,19; 6373,210;   84,985;25970,688;24,29227
 882,75; 6415,910;   94,885;26024,287;24,37783
 883,31; 6440,310;   92,385;26209,488;24,30562
 883,88; 6431,110;   95,985;26315,588;24,16179
 884,44; 6403,110;   88,385;26391,287;24,00771
 885,00; 6454,110;  106,285;26737,588;23,83595
 885,56; 6467,310;  104,285;26828,387;23,81006
 886,12; 6486,910;  114,885;27066,688;23,64230
 886,68; 6493,610;   96,185;26972,688;23,80304
 887,24; 6545,410;  119,085;27399,287;23,55674
 887,80; 6515,610;   95,385;27358,188;23,54939
 888,36; 6548,810;  111,585;27635,787;23,38751
 888,92; 6569,710;  107,985;27724,287;23,39823
 889,48; 6623,610;  108,485;28080,588;23,29151
 890,04; 6574,110;  110,585;28084,387;23,10564
 890,60; 6635,810;  120,085;28245,287;23,16686
 891,16; 6621,910;   96,885;28391,088;23,06135
 891,72; 6577,710;  117,785;28391,287;22,84798
 892,28; 6591,910;  125,385;28413,787;22,85928
 892,84; 6510,810;  108,185;28199,188;22,79244
 893,39; 6532,710;  127,585;28371,988;22,67750
 893,95; 6518,210;  123,785;28291,088;22,70159
 894,51; 6408,410;   63,885;28130,188;22,60549
 895,07; 6442,410;  146,385;28192,488;22,44884
 895,63; 6305,010;   77,785;27759,688;22,49565
 896,19; 6279,610;   99,385;27677,188;22,41014
 896,75; 6212,110;  116,885;27502,488;22,25704
 897,31; 6099,710;   95,285;27397,387;21,99254
 897,87; 5995,310;  102,485;27202,887;21,74442
 898,43; 5959,710;  104,485;26834,088;21,90539
 898,99; 5907,410;  108,285;26505,588;21,96863
 899,55; 5859,810;  113,785;26408,387;21,85249
 900,11; 5763,810;  105,885;26277,787;21,61832
 900,67; 5681,110;  100,985;26103,387;21,46004
 901,22; 5656,410;  120,085;25789,688;21,56763
 901,78; 5560,710;   86,285;25623,688;21,43689
 902,34; 5524,810;  120,785;25449,887;21,33524
 902,90; 5401,010;   77,285;25260,887;21,13965
 903,46; 5411,610;  108,985;25158,188;21,16884
 904,02; 5354,310;   91,185;24856,787;21,25175
 904,58; 5241,210;   85,885;24697,387;20,94681
 905,14; 5185,610;   72,885;24593,387;20,85082
 905,70; 5131,110;   81,785;24409,387;20,75554
 906,25; 5085,010;   82,585;24460,588;20,52024
 906,81; 5034,910;   93,685;24376,488;20,34866
 907,37; 4982,810;   73,585;24145,588;20,39392
 907,93; 4912,510;   77,585;24015,488;20,19778
 908,49; 4886,110;  110,285;23841,088;20,12500
 909,05; 4874,610;   94,485;23967,088;20,02348
 909,60; 4822,810;   92,285;23775,387;19,97426
 910,16; 4745,410;   73,485;23571,188;19,88248
 910,72; 4748,910;  105,985;23524,887;19,82555
 911,28; 4696,410;   99,785;23299,488;19,81329
 911,84; 4616,410;   84,885;23241,387;19,56913
 912,39; 4579,610;   72,785;23037,787;19,62475
 912,95; 4557,010;  101,885;23158,287;19,32272
 913,51; 4511,510;  107,485;23089,387;19,16301
 914,07; 4388,210;   87,585;22717,988;19,00375
 914,63; 4369,810;   80,385;22709,787;18,95510
 915,18; 4330,510;   82,985;22633,488;18,83561
 915,74; 4268,410;   73,885;22387,787;18,79781
 916,30; 4194,010;   60,985;22193,588;18,67392
 916,86; 4187,710;   92,785;22035,387;18,66198
 917,42; 4152,510;   97,885;22132,688;18,40100
 917,97; 4063,710;   96,985;21890,688;18,20124
 918,53; 4012,110;   69,485;21738,688;18,19460
 919,09; 3926,010;  106,785;21703,188;17,68454
 919,65; 3916,610;   90,785;21453,088;17,90924
 920,20; 3817,210;   76,985;21260,387;17,65639
 920,76; 3768,110;   74,585;21079,287;17,58428
 921,32; 3720,710;   90,285;20984,188;17,37552
 921,87; 3648,810;   89,885;20647,588;17,31188
 922,43; 3570,610;   68,785;20533,387;17,11162
 922,99; 3503,410;   64,885;20137,088;17,13078
 923,55; 3429,310;   65,485;20009,188;16,86660
 924,10; 3398,110;   70,385;20001,088;16,69648
 924,66; 3375,010;   79,185;19796,787;16,71514
 925,22; 3296,910;   55,485;19602,688;16,58255
 925,77; 3225,010;   76,385;19254,688;16,41764
 926,33; 3228,510;   91,385;19173,488;16,44014
 926,89; 3132,310;   80,085;18934,988;16,18796
 927,44; 3037,910;   56,085;18646,787;16,03933
 928,00; 3006,110;   73,685;18425,088;15,97930
 928,56; 2999,510;   93,785;18165,887;16,07851
 929,12; 2932,310;   94,185;18029,588;15,82415
 929,67; 2809,810;   53,185;17690,188;15,62978
 930,23; 2743,010;   56,585;17430,188;15,46268
 930,78; 2777,110;  110,285;17292,988;15,52040
 931,34; 2668,210;   69,485;16895,588;15,44460
 931,90; 2587,210;   71,985;16495,488;15,31479
 932,45; 2487,610;   83,085;16088,188;15,02349
 933,01; 2401,610;   77,385;15695,188;14,88190
 933,57; 2332,810;   73,485;15207,987;14,92831
 934,12; 2229,710;   79,485;14578,888;14,82975
 934,68; 2054,210;   63,185;13806,987;14,48671
 935,24; 1954,210;   81,385;13091,787;14,39483
 935,79; 1846,610;   80,585;12266,487;14,49236
 936,35; 1709,610;   86,985;11501,388;14,21559
 936,90; 1574,310;  100,485;10583,787;14,05879
 937,46; 1440,310;   82,385; 9839,987;13,91659
 938,02; 1308,410;   72,385; 8967,287;13,89588
 938,57; 1228,410;   83,185; 8376,188;13,80953
 939,13; 1155,510;   81,585; 7777,987;13,95360
 939,68; 1043,210;   62,285; 7204,788;13,73363
 940,24; 1003,710;   78,885; 6876,288;13,60556
 940,79;  989,710;  106,085; 6589,788;13,62840
 941,35;  925,110;   95,285; 6296,888;13,38081
 941,91;  863,010;   71,885; 6126,587;13,06629
 942,46;  846,210;   74,985; 5977,188;13,06673
 943,02;  840,510;   78,885; 5912,487;13,05583
 943,57;  816,510;   63,085; 5846,688;13,02692
 944,13;  811,510;   75,785; 5912,587;12,60493
 944,68;  815,610;   68,585; 5973,688;12,65050
 945,24;  830,310;   88,485; 6052,888;12,43754
 945,79;  814,710;   68,085; 6070,188;12,43939
 946,35;  821,010;   61,185; 6182,788;12,41219
 946,90;  870,910;  112,785; 6334,087;12,18595
 947,46;  824,310;   56,285; 6539,087;11,84711
 948,01;  826,410;   55,485; 6671,288;11,65278
 948,57;  872,510;   92,985; 6915,087;11,42646
 949,12;  882,610;   83,285; 7090,087;11,40784
 949,68;  908,610;   90,585; 7317,388;11,31932
 950,23;  927,110;   77,385; 7512,788;11,42810
 950,79;  926,610;   82,885; 7745,688;11,01066
 951,34;  942,910;   85,985; 7985,288;10,84811
 951,90;  946,310;   64,685; 8279,987;10,73150
 952,45;  988,810;   97,685; 8464,188;10,65111
 953,01;  962,110;   69,085; 8675,088;10,37677
 953,56;  979,610;   86,985; 8965,188;10,05412
 954,12;  949,810;   57,385; 9127,388; 9,83930
 954,67;  980,210;   73,485; 9305,487; 9,82154
 955,23;  983,710;   75,385; 9487,487; 9,65061
 955,78;  999,010;   77,585; 9767,987; 9,50864
 956,33;  986,210;   58,785; 9861,487; 9,46091
 956,89;  968,410;   62,885;10079,088; 9,04060
 957,44; 1009,110;   61,185;10322,088; 9,23822
 958,00;  987,710;   66,285;10490,688; 8,83912
 958,55; 1010,510;   70,585;10689,188; 8,85168
 959,10; 1009,310;   61,685;10798,487; 8,82595
 959,66; 1032,110;   77,585;11005,388; 8,73483
 960,21; 1023,110;   71,285;11144,987; 8,59536
 960,77;  992,710;   59,185;11196,487; 8,38197
 961,32; 1012,210;   66,385;11442,688; 8,31399
 961,87; 1024,110;   91,885;11490,588; 8,17834
 962,43; 1003,110;   68,985;11614,987; 8,09046
 962,98; 1027,710;   85,785;11731,088; 8,08845
 963,54;  990,610;   43,585;11798,787; 8,05622
 964,09; 1004,110;   71,085;11852,487; 7,91947
 964,64; 1019,110;   83,385;11906,987; 7,91404
 965,20;  989,910;   61,285;11952,688; 7,80921
 965,75; 1018,410;   73,685;12053,487; 7,88598
 966,30; 1001,910;   88,485;12085,688; 7,61365
 966,86; 1000,810;   80,985;12260,888; 7,55199
 967,41;  985,410;   89,985;12288,388; 7,34051
 967,96;  990,710;   72,785;12324,688; 7,49210
 968,52; 1000,710;   91,285;12494,487; 7,33218
 969,07;  981,210;   77,885;12456,888; 7,29724
 969,62;  968,810;   92,985;12395,388; 7,11914
 970,18;  943,210;   67,485;12430,888; 7,08320
 970,73;  954,810;   76,685;12440,588; 7,10233
 971,28;  968,910;   97,685;12509,088; 7,01955
 971,84;  922,110;   72,485;12497,588; 6,83797
 972,39;  940,910;  103,885;12516,287; 6,74346
 972,94;  907,710;   62,285;12606,888; 6,73935
 973,49;  902,610;   71,785;12486,388; 6,69232
 974,05;  877,510;   85,185;12512,287; 6,37578
 974,60;  895,310;   77,585;12438,588; 6,61536
 975,15;  888,410;   86,785;12506,287; 6,45457
 975,71;  850,410;   74,085;12471,088; 6,26220
 976,26;  865,510;   89,485;12460,787; 6,27278
 976,81;  874,910;   91,385;12477,987; 6,32558
 977,36;  853,610;   90,885;12515,787; 6,13868
 977,92;  869,010;  106,785;12414,287; 6,19317
 978,47;  827,310;   82,685;12367,787; 6,06120
 979,02;  840,210;   84,685;12372,888; 6,14838
 979,57;  830,910;   87,685;12184,588; 6,14393
 980,13;  824,310;   73,085;12274,688; 6,15677
 980,68;  794,010;   82,085;12299,088; 5,82733
 981,23;  806,910;   98,285;12232,588; 5,83985
 981,78;  804,410;   87,585;12193,987; 5,92104
 982,33;  797,610;   93,585;12131,088; 5,84860
 982,89;  792,110;   86,385;12112,987; 5,86803
 983,44;  764,610;   77,485;11963,388; 5,78101
 983,99;  800,610;  102,185;12085,188; 5,82846
 984,54;  790,210;   88,185;12037,188; 5,87518
 985,09;  781,710;  104,185;11970,688; 5,70956
 985,65;  734,210;   87,085;11900,888; 5,47770
 986,20;  776,510;  108,485;11873,088; 5,67826
 986,75;  769,710;  109,085;11844,987; 5,62909
 987,30;  760,310;  104,785;11731,588; 5,63805
 987,85;  735,810;   93,485;11707,287; 5,53070
 988,40;  740,310;  102,085;11630,287; 5,53621
 988,96;  749,610;  110,985;11597,987; 5,55954
 989,51;  745,710;  109,185;11503,188; 5,58649
 990,06;  755,810;  139,085;11439,987; 5,45731
 990,61;  711,910;   96,285;11312,888; 5,48852
 991,16;  721,910;  126,785;11284,987; 5,33352
 991,71;  681,010;   95,285;11178,987; 5,28456
 992,26;  678,310;   96,185;11124,787; 5,27832
 992,81;  665,510;   90,585;11117,088; 5,21403
 993,37;  684,510;  112,785;11091,088; 5,20777
 993,92;  666,210;  111,485;10895,787; 5,14382
 994,47;  664,510;  127,285;10881,688; 4,99540
 995,02;  664,310;  120,885;10830,487; 5,07418
 995,57;  641,310;  105,885;10676,287; 5,06532
 996,12;  670,110;  146,185;10671,787; 4,97762
 996,67;  654,210;  120,585;10625,487; 5,07977
 997,22;  634,410;  110,885;10516,388; 5,03123
 997,77;  645,110;  123,885;10509,188; 5,01887
 998,32;  620,610;  113,285;10354,388; 4,95381
 998,87;  629,110;  118,685;10322,987; 5,00206
 999,42;  619,210;  114,485;10232,588; 4,98834
 999,97;  617,610;  106,385;10221,888; 5,05388
1000,53;  636,110;  131,385;10169,188; 5,02824
1001,08;  596,610;  116,785;10035,088; 4,83777
1001,63;  622,210;  142,485; 9961,388; 4,88573
1002,18;  559,610;   80,985; 9795,388; 4,92696
1002,73;  607,410;  138,285; 9811,987; 4,84949
1003,28;  585,110;  112,585; 9773,088; 4,89131
1003,83;  587,910;  131,985; 9598,088; 4,81640
1004,38;  606,310;  133,285; 9567,388; 5,01399
1004,93;  575,310;  121,585; 9472,787; 4,85205
1005,48;  575,210;  125,485; 9456,987; 4,81943
1006,03;  552,210;  110,685; 9367,487; 4,76974
1006,58;  550,110;  108,485; 9267,688; 4,82165
1007,13;  535,510;   87,285; 9216,688; 4,90969
1007,68;  544,410;  104,185; 9176,987; 4,85214
1008,23;  544,510;  115,485; 9089,388; 4,78081
1008,78;  536,610;  112,885; 9076,688; 4,72707
1009,33;  531,010;  130,185; 8977,388; 4,53053
1009,88;  504,510;   91,085; 8917,888; 4,68375
1010,43;  519,110;  106,485; 8847,987; 4,72030
1010,98;  516,210;  107,585; 8784,088; 4,70956
1011,52;  495,610;   98,385; 8757,888; 4,58716
1012,07;  549,910;  151,085; 8797,588; 4,61256
1012,62;  506,510;  102,885; 8672,287; 4,71007
1013,17;  495,310;  107,085; 8654,987; 4,54176
1013,72;  486,710;   96,285; 8549,787; 4,61850
1014,27;  485,610;  115,785; 8482,088; 4,42041
1014,82;  454,510;  100,085; 8280,987; 4,33235
1015,37;  451,210;   90,685; 8148,587; 4,47418
1015,92;  473,210;  113,385; 8078,388; 4,51758
1016,47;  436,010;   89,585; 8002,087; 4,37820
1017,02;  427,110;   83,585; 7781,587; 4,46252
1017,57;  447,610;  110,885; 7677,987; 4,44985
1018,11;  420,810;   93,585; 7625,788; 4,34435
1018,66;  440,910;  120,285; 7544,188; 4,31882
1019,21;  429,610;   97,185; 7441,587; 4,52624
1019,76;  398,510;   91,485; 7241,388; 4,29411
1020,31;  405,910;   87,385; 7140,987; 4,51578
1020,86;  405,010;   99,585; 7136,087; 4,34058
1021,41;  391,310;   85,585; 7046,288; 4,39216
1021,96;  386,510;   91,785; 6968,587; 4,28579
1022,50;  431,010;  114,785; 6908,788; 4,65447
1023,05;  404,310;   96,185; 6774,188; 4,61403
1023,60;  401,610;  109,285; 6668,487; 4,45672
1024,15;  361,710;   82,585; 6582,487; 4,29430
1024,70;  394,010;  118,285; 6556,688; 4,28251
1025,25;  381,010;  105,085; 6444,587; 4,35247
1025,79;  392,910;  111,185; 6416,087; 4,46835
1026,34;  378,410;  103,685; 6359,487; 4,39152
1026,89;  380,110;  101,985; 6282,688; 4,49989
1027,44;  363,010;   91,385; 6238,288; 4,41889
1027,99;  360,710;  102,585; 6140,788; 4,27486
1028,53;  348,610;   99,685; 6068,188; 4,17064
1029,08;  377,610;  105,085; 5984,888; 4,63493
1029,63;  372,510;  117,485; 5934,888; 4,38383
1030,18;  351,910;  106,385; 5824,587; 4,29374
1030,73;  332,710;   87,885; 5655,688; 4,39716
1031,27;  330,910;   88,685; 5663,688; 4,34484
1031,82;  331,410;   90,885; 5572,688; 4,38770
1032,37;  354,510;  103,485; 5566,888; 4,59466
1032,92;  331,110;  107,585; 5490,587; 4,15242
1033,46;  316,310;  106,885; 5381,188; 3,97067
1034,01;  316,110;   85,985; 5319,487; 4,39715
1034,56;  339,310;  109,785; 5296,987; 4,42483
1035,11;  312,310;  104,585; 5234,587; 4,04922
1035,65;  312,410;   96,685; 5100,587; 4,31114
1036,20;  297,210;  106,585; 5087,188; 3,82735
1036,75;  337,810;  121,685; 5047,788; 4,38734
1037,29;  309,910;  100,385; 4975,388; 4,29795
1037,84;  279,310;   83,185; 4881,288; 4,08755
1038,39;  308,910;   98,385; 4838,288; 4,44155
1038,94;  281,810;   83,685; 4734,788; 4,25974
1039,48;  306,210;  100,385; 4724,288; 4,45133
1040,03;  314,610;  106,285; 4702,788; 4,53225
1040,58;  290,610;  100,685; 4594,388; 4,22647
1041,12;  304,510;  110,285; 4521,288; 4,40319
1041,67;  276,510;  103,485; 4461,188; 3,97056
1042,22;  309,410;  121,285; 4432,688; 4,36343
1042,76;  283,010;   98,385; 4327,688; 4,36538
1043,31;  287,310;   93,985; 4289,487; 4,60791
1043,86;  287,410;  118,285; 4202,987; 4,14045
1044,40;  281,110;  106,585; 4136,288; 4,33096
1044,95;  288,310;   99,685; 4102,788; 4,71197
1045,50;  247,810;   84,385; 4030,988; 4,14090
1046,04;  285,310;  121,885; 4008,288; 4,20505
1046,59;  259,510;   96,585; 3927,087; 4,25336
1047,13;  291,910;  118,885; 3891,887; 4,58587
1047,68;  272,610;  114,085; 3865,988; 4,22519
1048,23;  275,410;  121,185; 3817,087; 4,17286
1048,77;  253,810;  104,285; 3716,887; 4,13898
1049,32;  257,410;  109,485; 3669,288; 4,15543
1049,86;  254,610;  106,585; 3625,587; 4,20645
1050,41;  232,810;   93,085; 3587,587; 3,99842
1050,96;  249,410;  110,485; 3541,688; 4,04887
1051,50;  256,010;   98,185; 3486,488; 4,65794
1052,05;  256,610;  104,285; 3428,387; 4,58244
1052,59;  242,510;   97,785; 3377,488; 4,41275
1053,14;  235,010;   89,085; 3312,087; 4,52761
1053,69;  227,210;   99,185; 3261,087; 4,04899
1054,23;  248,710;  114,385; 3244,387; 4,29153
1054,78;  230,810;  109,485; 3203,087; 3,92180
1055,32;  260,110;  131,285; 3124,587; 4,30377
1055,87;  217,110;   86,785; 3086,387; 4,34474
1056,41;  203,610;   91,985; 3038,288; 3,78865
1056,96;  215,510;   92,085; 2979,988; 4,27386
1057,50;  245,510;  122,285; 2963,887; 4,33646
1058,05;  199,510;   84,685; 2903,087; 4,07412
1058,59;  227,310;   95,885; 2856,587; 4,76056
1059,14;  238,810;  113,685; 2828,988; 4,60814
1059,68;  200,810;   86,585; 2787,188; 4,22961
1060,23;  248,010;  135,385; 2801,688; 4,22401
1060,77;  225,010;  114,585; 2694,087; 4,28086
1061,32;  225,710;  113,585; 2690,387; 4,35132
1061,86;  220,710;  100,585; 2638,988; 4,73231
1062,41;  234,510;  112,985; 2588,988; 4,90811
1062,95;  213,310;  103,385; 2532,488; 4,52533
1063,50;  227,910;  121,385; 2531,587; 4,41975
1064,04;  197,510;   87,585; 2470,887; 4,61230
1064,59;  231,410;  118,685; 2420,688; 4,89682
1065,13;  228,910;  114,485; 2390,688; 5,02701
1065,68;  201,510;  111,085; 2340,587; 4,05584
1066,22;  233,310;  120,185; 2342,988; 5,08930
1066,76;  226,510;  126,585; 2324,887; 4,54555
1067,31;  206,810;  103,485; 2240,387; 4,83527
1067,85;  202,110;   98,785; 2227,688; 4,85344
1068,40;  208,710;  112,885; 2216,288; 4,55571
1068,94;  198,910;  103,985; 2163,288; 4,60957
1069,49;  188,110;   97,485; 2154,188; 4,40633
1070,03;  193,010;  104,485; 2089,887; 4,45879
1070,57;  180,510;   95,985; 2073,887; 4,27347
1071,12;  174,210;   83,785; 2044,988; 4,61069
1071,66;  227,010;  134,085; 2075,788; 4,78575
1072,21;  203,410;  116,685; 2020,387; 4,55560
1072,75;  198,310;  102,685; 1991,188; 5,06354
1073,29;  169,610;   88,185; 1929,287; 4,42262
1073,84;  190,210;  105,985; 1934,188; 4,60698
1074,38;  184,010;   99,785; 1900,988; 4,67604
1074,92;  184,310;  107,985; 1903,188; 4,25161
1075,47;  193,710;  116,785; 1900,088; 4,31363
1076,01;  209,510;  135,585; 1865,787; 4,27262
1076,56;  178,210;  103,485; 1816,887; 4,36121
1077,10;  170,310;   90,485; 1785,588; 4,70915
1077,64;  167,310;   97,685; 1777,787; 4,14409
1078,19;  199,210;  131,885; 1776,588; 4,09345
1078,73;  180,510;  108,685; 1757,688; 4,35566
1079,27;  196,610;  127,585; 1725,887; 4,31864
1079,81;  202,910;  128,585; 1709,188; 4,70232
1080,36;  186,910;  108,085; 1672,688; 5,03802
1080,90;  182,810;  107,885; 1631,188; 4,91859
1081,44;  160,310;   95,485; 1628,188; 4,22946
1081,99;  154,210;   71,785; 1579,287; 5,46765
1082,53;  180,310;  120,785; 1598,887; 4,02712
1083,07;  174,010;  114,685; 1569,887; 4,07675
1083,62;  180,110;  113,585; 1553,988; 4,61850
1084,16;  187,810;  112,485; 1541,988; 5,26932
1084,70;  180,810;  119,085; 1527,688; 4,38200
1085,24;  176,710;  116,085; 1504,188; 4,36747
1085,79;  181,310;  106,485; 1481,287; 5,44260
1086,33;  165,810;  104,485; 1424,887; 4,64442
1086,87;  167,610;  115,785; 1426,588; 3,95368
1087,41;  167,410;   91,185; 1424,588; 5,71658
1087,96;  189,610;  132,185; 1431,287; 4,42036
1088,50;  163,410;  106,685; 1378,988; 4,45845
1089,04;  187,710;  123,885; 1413,787; 4,94805
1089,58;  144,910;   87,285; 1345,488; 4,57995
1090,13;  156,310;  108,585; 1338,588; 3,88007
1090,67;  173,510;  120,585; 1335,188; 4,35739
1091,21;  161,410;   97,685; 1289,988; 5,34470
1091,75;  163,010;   94,485; 1295,287; 5,70660
1092,29;  169,310;  121,385; 1309,887; 4,03239
1092,84;  157,310;  108,285; 1255,188; 4,27456
1093,38;  189,510;  138,685; 1289,088; 4,41802
1093,92;  185,810;  126,485; 1245,688; 5,30065
1094,46;  174,210;  125,885; 1241,387; 4,33213
1095,00;  160,610;  102,185; 1207,188; 5,28732
1095,54;  151,810;   91,585; 1185,588; 5,50501
1096,09;  169,210;  117,085; 1174,988; 4,92720
1096,63;  176,510;  129,785; 1177,887; 4,45806
1097,17;  149,910;  104,485; 1142,287; 4,37704
1097,71;  170,210;  128,785; 1148,988; 4,06047
1098,25;  147,910;  106,185; 1074,488; 4,30909
1098,79;  174,010;  113,285; 1111,287; 6,08465
1099,33;  154,610;  125,085; 1078,988; 3,09518
1099,88;  157,910;  117,685; 1058,287; 4,27652
1100,42;  139,710;   84,285; 1020,888; 5,91767

