PE UV       SUBTECH     SPECTRUM    ASCII       PEDS        4.00        
   -1
CICIMAUCR0104-3.Sample.ASC
24/04/04
11:30:21.00
24/04/04
11:30:21.00
Vinicio Soto Monge
C. resplendens
250,000000
1
Lambda 1050
1050L1511233
PerkinElmer UV WinLab 6.3.2.0749 / 2.02.05 Lambda 900 UV/VIS/NIR, Aug  7 2015 09:38:08

0
0
3350/servo 860,8/2
0
0
UV/VIS
1
1
1
DoubleDePol,CommonBeamDepol,RBeamAtt,SBeamAtt,60mm sphere, WB InGaAs Detector
0
0
0
0
Program
Program
3350/servo 860,8/2
3350/0,2 860,8/0,2
3350/0,2 860,8/0,2
0
15.00
 
 
 
0
 
860,8
319,2
860,8
Front
100
on
S:100 R:100
0
0
0
0
 
0
 
 
 
0
 
 
0
0
0
0
0
 
 
 
 
0
0


0
0
#HDR
-1
-1
#GR
nm
%R
1.0
0.0
2500,000000
-1,000000
2251
8
72,628200
5,074300
#DATA
250.000000	0.168392
251.000000	0.166278
252.000000	0.149447
253.000000	0.156167
254.000000	0.150283
255.000000	0.167106
256.000000	0.171779
257.000000	0.165516
258.000000	0.160561
259.000000	0.129911
260.000000	0.161677
261.000000	0.155509
262.000000	0.145896
263.000000	0.149001
264.000000	0.184938
265.000000	0.147317
266.000000	0.155824
267.000000	0.146579
268.000000	0.142377
269.000000	0.180669
270.000000	0.149336
271.000000	0.160201
272.000000	0.131466
273.000000	0.135393
274.000000	0.165956
275.000000	0.129486
276.000000	0.144785
277.000000	0.169519
278.000000	0.151402
279.000000	0.164219
280.000000	0.143220
281.000000	0.151257
282.000000	0.137631
283.000000	0.125187
284.000000	0.146717
285.000000	0.158148
286.000000	0.105163
287.000000	0.156786
288.000000	0.149813
289.000000	0.161226
290.000000	0.145650
291.000000	0.141113
292.000000	0.167162
293.000000	0.155356
294.000000	0.151957
295.000000	0.137457
296.000000	0.153455
297.000000	0.153600
298.000000	0.135939
299.000000	0.152433
300.000000	0.139777
301.000000	0.122835
302.000000	0.137219
303.000000	0.139205
304.000000	0.149261
305.000000	0.146123
306.000000	0.145101
307.000000	0.163125
308.000000	0.144672
309.000000	0.098492
310.000000	0.134228
311.000000	0.167486
312.000000	0.126270
313.000000	0.149250
314.000000	0.157595
315.000000	0.124191
316.000000	0.134015
317.000000	0.098656
318.000000	0.232377
319.000000	0.124116
320.000000	0.134310
321.000000	0.230607
322.000000	0.116571
323.000000	0.079609
324.000000	0.133265
325.000000	0.253794
326.000000	0.090857
327.000000	0.181495
328.000000	0.150967
329.000000	0.153849
330.000000	0.152596
331.000000	0.164361
332.000000	0.169615
333.000000	0.139687
334.000000	0.200200
335.000000	0.099311
336.000000	0.134311
337.000000	0.166506
338.000000	0.189307
339.000000	0.150591
340.000000	0.142298
341.000000	0.168887
342.000000	0.170218
343.000000	0.122386
344.000000	0.170847
345.000000	0.139147
346.000000	0.153262
347.000000	0.130322
348.000000	0.146296
349.000000	0.145810
350.000000	0.139487
351.000000	0.137813
352.000000	0.136889
353.000000	0.168633
354.000000	0.163791
355.000000	0.159368
356.000000	0.172422
357.000000	0.138957
358.000000	0.122024
359.000000	0.171971
360.000000	0.138402
361.000000	0.162454
362.000000	0.194713
363.000000	0.132041
364.000000	0.218392
365.000000	0.175015
366.000000	0.178251
367.000000	0.187482
368.000000	0.168157
369.000000	0.195631
370.000000	0.225574
371.000000	0.244895
372.000000	0.242690
373.000000	0.244702
374.000000	0.272862
375.000000	0.285382
376.000000	0.247966
377.000000	0.226570
378.000000	0.225534
379.000000	0.228838
380.000000	0.238537
381.000000	0.245896
382.000000	0.257023
383.000000	0.282050
384.000000	0.286017
385.000000	0.287549
386.000000	0.296836
387.000000	0.307079
388.000000	0.319850
389.000000	0.329755
390.000000	0.341886
391.000000	0.356682
392.000000	0.374061
393.000000	0.397857
394.000000	0.416850
395.000000	0.430726
396.000000	0.433153
397.000000	0.446185
398.000000	0.472487
399.000000	0.481268
400.000000	0.489457
401.000000	0.490647
402.000000	0.480226
403.000000	0.493428
404.000000	0.496313
405.000000	0.475921
406.000000	0.472443
407.000000	0.463154
408.000000	0.440514
409.000000	0.435451
410.000000	0.422626
411.000000	0.406317
412.000000	0.388810
413.000000	0.372051
414.000000	0.369240
415.000000	0.342610
416.000000	0.317325
417.000000	0.305646
418.000000	0.294277
419.000000	0.276453
420.000000	0.259305
421.000000	0.261868
422.000000	0.265877
423.000000	0.251950
424.000000	0.250006
425.000000	0.254135
426.000000	0.257375
427.000000	0.255971
428.000000	0.271615
429.000000	0.287962
430.000000	0.285022
431.000000	0.294779
432.000000	0.303608
433.000000	0.311200
434.000000	0.324062
435.000000	0.330991
436.000000	0.347455
437.000000	0.359372
438.000000	0.358314
439.000000	0.379671
440.000000	0.401442
441.000000	0.414331
442.000000	0.432602
443.000000	0.448775
444.000000	0.475227
445.000000	0.502055
446.000000	0.512558
447.000000	0.522591
448.000000	0.550380
449.000000	0.568810
450.000000	0.578896
451.000000	0.579565
452.000000	0.590740
453.000000	0.591060
454.000000	0.593076
455.000000	0.600593
456.000000	0.599376
457.000000	0.586142
458.000000	0.566958
459.000000	0.535004
460.000000	0.489225
461.000000	0.437023
462.000000	0.393757
463.000000	0.336048
464.000000	0.279673
465.000000	0.241886
466.000000	0.221104
467.000000	0.209024
468.000000	0.220292
469.000000	0.242490
470.000000	0.266561
471.000000	0.301253
472.000000	0.337468
473.000000	0.362897
474.000000	0.378741
475.000000	0.372463
476.000000	0.366790
477.000000	0.355461
478.000000	0.329146
479.000000	0.310887
480.000000	0.296758
481.000000	0.272111
482.000000	0.267648
483.000000	0.266931
484.000000	0.251369
485.000000	0.259473
486.000000	0.257258
487.000000	0.278818
488.000000	0.291848
489.000000	0.311584
490.000000	0.341881
491.000000	0.361696
492.000000	0.376817
493.000000	0.387149
494.000000	0.402098
495.000000	0.419025
496.000000	0.416541
497.000000	0.386993
498.000000	0.342848
499.000000	0.315004
500.000000	0.271899
501.000000	0.233978
502.000000	0.188166
503.000000	0.189147
504.000000	0.214028
505.000000	0.263840
506.000000	0.346660
507.000000	0.439573
508.000000	0.530476
509.000000	0.622159
510.000000	0.714730
511.000000	0.814197
512.000000	0.913408
513.000000	1.002654
514.000000	1.078632
515.000000	1.160362
516.000000	1.232688
517.000000	1.296751
518.000000	1.366887
519.000000	1.439177
520.000000	1.496926
521.000000	1.535252
522.000000	1.577738
523.000000	1.592587
524.000000	1.607973
525.000000	1.611593
526.000000	1.609583
527.000000	1.599440
528.000000	1.594493
529.000000	1.573961
530.000000	1.531588
531.000000	1.492923
532.000000	1.460874
533.000000	1.417509
534.000000	1.390280
535.000000	1.340954
536.000000	1.289062
537.000000	1.255998
538.000000	1.232398
539.000000	1.188570
540.000000	1.155384
541.000000	1.137624
542.000000	1.115161
543.000000	1.066946
544.000000	1.016011
545.000000	0.983353
546.000000	0.926852
547.000000	0.916707
548.000000	0.864293
549.000000	0.840403
550.000000	0.815080
551.000000	0.792870
552.000000	0.785125
553.000000	0.762032
554.000000	0.764187
555.000000	0.767552
556.000000	0.767240
557.000000	0.776201
558.000000	0.799337
559.000000	0.820415
560.000000	0.821752
561.000000	0.809042
562.000000	0.811149
563.000000	0.804064
564.000000	0.802667
565.000000	0.769602
566.000000	0.762338
567.000000	0.749767
568.000000	0.767223
569.000000	0.772532
570.000000	0.742912
571.000000	0.755316
572.000000	0.762322
573.000000	0.746233
574.000000	0.802560
575.000000	0.794508
576.000000	0.827760
577.000000	0.835576
578.000000	0.852910
579.000000	0.863473
580.000000	0.875907
581.000000	0.894171
582.000000	0.918780
583.000000	0.881599
584.000000	0.900870
585.000000	0.949365
586.000000	0.923997
587.000000	0.931428
588.000000	0.938432
589.000000	0.946562
590.000000	0.926273
591.000000	0.975324
592.000000	0.975267
593.000000	0.992350
594.000000	1.037703
595.000000	1.045859
596.000000	1.079623
597.000000	1.124261
598.000000	1.178744
599.000000	1.226260
600.000000	1.251090
601.000000	1.268868
602.000000	1.336149
603.000000	1.395949
604.000000	1.394108
605.000000	1.448375
606.000000	1.467258
607.000000	1.511904
608.000000	1.534770
609.000000	1.550645
610.000000	1.597280
611.000000	1.645017
612.000000	1.672791
613.000000	1.695335
614.000000	1.743054
615.000000	1.818271
616.000000	1.846741
617.000000	1.901599
618.000000	1.972384
619.000000	2.069582
620.000000	2.108882
621.000000	2.195009
622.000000	2.252099
623.000000	2.336612
624.000000	2.397909
625.000000	2.417860
626.000000	2.432285
627.000000	2.408077
628.000000	2.330598
629.000000	2.252072
630.000000	2.172836
631.000000	2.021369
632.000000	1.901200
633.000000	1.731039
634.000000	1.549060
635.000000	1.363956
636.000000	1.173710
637.000000	0.984178
638.000000	0.774502
639.000000	0.609321
640.000000	0.431071
641.000000	0.331504
642.000000	0.358811
643.000000	0.462675
644.000000	0.582066
645.000000	0.729274
646.000000	0.883892
647.000000	0.991324
648.000000	1.106204
649.000000	1.216420
650.000000	1.245946
651.000000	1.286828
652.000000	1.309226
653.000000	1.282510
654.000000	1.297217
655.000000	1.231229
656.000000	1.187436
657.000000	1.115625
658.000000	1.000722
659.000000	0.901913
660.000000	0.825389
661.000000	0.682520
662.000000	0.569057
663.000000	0.476382
664.000000	0.377795
665.000000	0.275132
666.000000	0.208822
667.000000	0.126832
668.000000	0.117573
669.000000	0.190878
670.000000	0.263385
671.000000	0.317471
672.000000	0.398702
673.000000	0.464167
674.000000	0.508752
675.000000	0.586571
676.000000	0.612473
677.000000	0.661857
678.000000	0.710172
679.000000	0.751168
680.000000	0.812562
681.000000	0.855870
682.000000	0.886181
683.000000	0.946629
684.000000	0.989042
685.000000	1.033268
686.000000	1.054146
687.000000	1.050314
688.000000	1.081704
689.000000	1.093016
690.000000	1.099313
691.000000	1.105267
692.000000	1.125867
693.000000	1.182312
694.000000	1.176937
695.000000	1.170326
696.000000	1.204966
697.000000	1.216549
698.000000	1.225999
699.000000	1.242474
700.000000	1.245056
701.000000	1.209611
702.000000	1.198851
703.000000	1.172469
704.000000	1.151063
705.000000	1.159139
706.000000	1.125540
707.000000	1.096148
708.000000	1.017405
709.000000	0.990870
710.000000	0.940071
711.000000	0.878611
712.000000	0.816702
713.000000	0.777942
714.000000	0.751356
715.000000	0.722585
716.000000	0.652312
717.000000	0.619307
718.000000	0.566182
719.000000	0.525638
720.000000	0.533888
721.000000	0.539857
722.000000	0.528958
723.000000	0.517573
724.000000	0.537564
725.000000	0.532939
726.000000	0.568838
727.000000	0.620490
728.000000	0.686526
729.000000	0.726761
730.000000	0.725298
731.000000	0.783887
732.000000	0.826391
733.000000	0.846430
734.000000	0.903394
735.000000	0.981503
736.000000	1.005969
737.000000	1.008665
738.000000	1.016784
739.000000	1.006950
740.000000	1.050359
741.000000	1.069077
742.000000	1.063328
743.000000	1.105626
744.000000	1.123488
745.000000	1.117434
746.000000	1.130455
747.000000	1.134928
748.000000	1.162759
749.000000	1.210074
750.000000	1.176282
751.000000	1.174124
752.000000	1.213509
753.000000	1.250142
754.000000	1.293155
755.000000	1.333814
756.000000	1.361203
757.000000	1.282464
758.000000	1.297901
759.000000	1.373497
760.000000	1.370246
761.000000	1.363097
762.000000	1.368375
763.000000	1.396909
764.000000	1.397732
765.000000	1.379668
766.000000	1.407008
767.000000	1.440167
768.000000	1.368931
769.000000	1.331759
770.000000	1.341048
771.000000	1.316820
772.000000	1.275936
773.000000	1.246142
774.000000	1.200885
775.000000	1.147829
776.000000	1.121069
777.000000	1.093023
778.000000	1.004387
779.000000	0.964188
780.000000	0.953709
781.000000	0.906826
782.000000	0.900048
783.000000	0.950366
784.000000	0.925698
785.000000	0.929738
786.000000	0.919748
787.000000	0.838809
788.000000	0.868770
789.000000	0.909010
790.000000	0.949093
791.000000	1.013370
792.000000	1.023069
793.000000	1.049460
794.000000	1.027902
795.000000	0.964329
796.000000	1.004745
797.000000	0.936385
798.000000	0.991097
799.000000	1.026344
800.000000	1.091955
801.000000	1.078800
802.000000	1.170615
803.000000	1.151929
804.000000	1.249316
805.000000	1.280296
806.000000	1.236378
807.000000	1.236776
808.000000	1.225807
809.000000	1.254862
810.000000	1.303293
811.000000	1.328202
812.000000	1.358646
813.000000	1.442799
814.000000	1.526927
815.000000	1.452353
816.000000	1.446408
817.000000	1.505910
818.000000	1.523674
819.000000	1.562129
820.000000	1.521200
821.000000	1.555334
822.000000	1.620210
823.000000	1.626220
824.000000	1.596221
825.000000	1.524497
826.000000	1.496723
827.000000	1.530513
828.000000	1.406226
829.000000	1.322486
830.000000	1.354059
831.000000	1.247898
832.000000	1.339680
833.000000	1.143346
834.000000	1.114270
835.000000	1.091812
836.000000	0.937576
837.000000	1.026973
838.000000	1.020964
839.000000	0.841900
840.000000	0.784451
841.000000	0.867485
842.000000	0.814481
843.000000	0.715659
844.000000	0.635108
845.000000	0.672796
846.000000	0.789160
847.000000	0.665140
848.000000	0.695229
849.000000	0.696688
850.000000	0.721969
851.000000	0.831299
852.000000	0.971756
853.000000	0.825993
854.000000	0.653469
855.000000	0.620866
856.000000	1.063035
857.000000	0.766275
858.000000	0.344262
859.000000	0.751934
860.000000	0.783065
861.000000	0.817242
862.000000	0.828780
863.000000	0.860730
864.000000	0.921866
865.000000	0.960247
866.000000	0.993658
867.000000	1.018197
868.000000	1.043772
869.000000	1.084643
870.000000	1.112214
871.000000	1.143315
872.000000	1.168269
873.000000	1.181605
874.000000	1.188380
875.000000	1.208033
876.000000	1.207842
877.000000	1.219775
878.000000	1.229412
879.000000	1.222118
880.000000	1.205775
881.000000	1.209266
882.000000	1.206380
883.000000	1.188764
884.000000	1.194165
885.000000	1.180571
886.000000	1.166846
887.000000	1.143112
888.000000	1.143129
889.000000	1.124474
890.000000	1.116039
891.000000	1.118247
892.000000	1.093876
893.000000	1.093266
894.000000	1.087120
895.000000	1.084558
896.000000	1.071182
897.000000	1.086295
898.000000	1.080540
899.000000	1.078152
900.000000	1.070295
901.000000	1.081717
902.000000	1.086666
903.000000	1.093936
904.000000	1.099741
905.000000	1.103707
906.000000	1.098620
907.000000	1.154098
908.000000	1.171338
909.000000	1.173228
910.000000	1.208397
911.000000	1.195126
912.000000	1.226728
913.000000	1.241312
914.000000	1.242642
915.000000	1.267109
916.000000	1.263150
917.000000	1.273156
918.000000	1.277601
919.000000	1.271884
920.000000	1.282789
921.000000	1.284690
922.000000	1.269159
923.000000	1.291384
924.000000	1.281863
925.000000	1.289897
926.000000	1.286127
927.000000	1.285306
928.000000	1.271390
929.000000	1.265298
930.000000	1.252276
931.000000	1.224843
932.000000	1.198109
933.000000	1.181671
934.000000	1.166003
935.000000	1.137216
936.000000	1.118106
937.000000	1.093021
938.000000	1.073629
939.000000	1.084642
940.000000	1.071931
941.000000	1.059106
942.000000	1.056978
943.000000	1.052846
944.000000	1.047824
945.000000	1.045312
946.000000	1.062571
947.000000	1.057327
948.000000	1.047948
949.000000	1.076202
950.000000	1.077102
951.000000	1.079430
952.000000	1.083770
953.000000	1.076534
954.000000	1.088279
955.000000	1.104575
956.000000	1.087900
957.000000	1.090548
958.000000	1.117714
959.000000	1.111964
960.000000	1.102872
961.000000	1.113152
962.000000	1.115838
963.000000	1.135375
964.000000	1.125287
965.000000	1.116566
966.000000	1.123427
967.000000	1.121833
968.000000	1.119100
969.000000	1.121805
970.000000	1.104742
971.000000	1.111139
972.000000	1.100174
973.000000	1.082894
974.000000	1.082072
975.000000	1.061632
976.000000	1.062689
977.000000	1.049282
978.000000	1.046362
979.000000	1.043961
980.000000	1.045423
981.000000	1.036507
982.000000	1.036818
983.000000	1.036237
984.000000	1.026740
985.000000	1.026264
986.000000	1.023446
987.000000	1.006941
988.000000	1.014596
989.000000	1.019115
990.000000	1.009521
991.000000	0.998833
992.000000	0.985557
993.000000	0.983791
994.000000	0.985007
995.000000	0.968828
996.000000	0.966113
997.000000	0.966073
998.000000	0.959357
999.000000	0.961369
1000.000000	0.953614
1001.000000	0.947565
1002.000000	0.950627
1003.000000	0.944199
1004.000000	0.942097
1005.000000	0.944747
1006.000000	0.934557
1007.000000	0.931838
1008.000000	0.920266
1009.000000	0.916761
1010.000000	0.911143
1011.000000	0.893486
1012.000000	0.883730
1013.000000	0.882338
1014.000000	0.881358
1015.000000	0.865809
1016.000000	0.854251
1017.000000	0.848281
1018.000000	0.844668
1019.000000	0.848316
1020.000000	0.854559
1021.000000	0.849193
1022.000000	0.847531
1023.000000	0.844676
1024.000000	0.854540
1025.000000	0.860317
1026.000000	0.858370
1027.000000	0.859287
1028.000000	0.855655
1029.000000	0.852773
1030.000000	0.860716
1031.000000	0.865483
1032.000000	0.861766
1033.000000	0.861838
1034.000000	0.865143
1035.000000	0.857121
1036.000000	0.857706
1037.000000	0.876188
1038.000000	0.881192
1039.000000	0.874878
1040.000000	0.887292
1041.000000	0.886864
1042.000000	0.878013
1043.000000	0.880438
1044.000000	0.893673
1045.000000	0.887476
1046.000000	0.883370
1047.000000	0.887090
1048.000000	0.887964
1049.000000	0.885193
1050.000000	0.880043
1051.000000	0.881296
1052.000000	0.887153
1053.000000	0.879945
1054.000000	0.872483
1055.000000	0.866253
1056.000000	0.861184
1057.000000	0.863456
1058.000000	0.867667
1059.000000	0.861360
1060.000000	0.847221
1061.000000	0.850660
1062.000000	0.848617
1063.000000	0.847560
1064.000000	0.838806
1065.000000	0.841571
1066.000000	0.842267
1067.000000	0.846579
1068.000000	0.858424
1069.000000	0.855267
1070.000000	0.848363
1071.000000	0.860597
1072.000000	0.863338
1073.000000	0.864142
1074.000000	0.864930
1075.000000	0.875272
1076.000000	0.890854
1077.000000	0.882422
1078.000000	0.887407
1079.000000	0.891630
1080.000000	0.897031
1081.000000	0.901833
1082.000000	0.909737
1083.000000	0.915748
1084.000000	0.918122
1085.000000	0.929308
1086.000000	0.928756
1087.000000	0.937836
1088.000000	0.945052
1089.000000	0.952766
1090.000000	0.966673
1091.000000	0.973800
1092.000000	0.976071
1093.000000	0.975541
1094.000000	0.982696
1095.000000	0.982809
1096.000000	0.994631
1097.000000	0.987395
1098.000000	0.991046
1099.000000	0.996925
1100.000000	0.990442
1101.000000	0.998096
1102.000000	1.004307
1103.000000	1.003890
1104.000000	1.013613
1105.000000	1.012138
1106.000000	1.011065
1107.000000	1.003591
1108.000000	1.014064
1109.000000	1.016146
1110.000000	1.015351
1111.000000	1.012300
1112.000000	1.007334
1113.000000	1.013551
1114.000000	1.010782
1115.000000	1.014919
1116.000000	1.008614
1117.000000	1.004983
1118.000000	1.009590
1119.000000	1.007293
1120.000000	1.005296
1121.000000	1.002720
1122.000000	0.993064
1123.000000	0.997340
1124.000000	0.998588
1125.000000	1.006282
1126.000000	0.997848
1127.000000	0.992273
1128.000000	1.000959
1129.000000	0.984324
1130.000000	0.983296
1131.000000	0.981462
1132.000000	0.977326
1133.000000	0.970228
1134.000000	0.965052
1135.000000	0.960146
1136.000000	0.945701
1137.000000	0.956989
1138.000000	0.930205
1139.000000	0.911387
1140.000000	0.912692
1141.000000	0.910360
1142.000000	0.889324
1143.000000	0.895638
1144.000000	0.870014
1145.000000	0.866881
1146.000000	0.855415
1147.000000	0.868906
1148.000000	0.855350
1149.000000	0.855602
1150.000000	0.853612
1151.000000	0.849781
1152.000000	0.854686
1153.000000	0.860664
1154.000000	0.879241
1155.000000	0.874409
1156.000000	0.876664
1157.000000	0.864170
1158.000000	0.865765
1159.000000	0.857294
1160.000000	0.868316
1161.000000	0.845344
1162.000000	0.828999
1163.000000	0.837188
1164.000000	0.844561
1165.000000	0.826881
1166.000000	0.808019
1167.000000	0.797240
1168.000000	0.786246
1169.000000	0.774842
1170.000000	0.769808
1171.000000	0.747091
1172.000000	0.750197
1173.000000	0.746290
1174.000000	0.732086
1175.000000	0.717646
1176.000000	0.725569
1177.000000	0.711353
1178.000000	0.712646
1179.000000	0.702240
1180.000000	0.703784
1181.000000	0.693003
1182.000000	0.690184
1183.000000	0.678333
1184.000000	0.664287
1185.000000	0.638076
1186.000000	0.618745
1187.000000	0.606014
1188.000000	0.593216
1189.000000	0.579785
1190.000000	0.591753
1191.000000	0.594559
1192.000000	0.610130
1193.000000	0.607916
1194.000000	0.627573
1195.000000	0.645678
1196.000000	0.665911
1197.000000	0.671592
1198.000000	0.682464
1199.000000	0.675777
1200.000000	0.695016
1201.000000	0.708119
1202.000000	0.707483
1203.000000	0.702780
1204.000000	0.709810
1205.000000	0.696022
1206.000000	0.719207
1207.000000	0.707124
1208.000000	0.717062
1209.000000	0.726290
1210.000000	0.723027
1211.000000	0.722456
1212.000000	0.733122
1213.000000	0.730759
1214.000000	0.744051
1215.000000	0.742676
1216.000000	0.745078
1217.000000	0.739761
1218.000000	0.742560
1219.000000	0.746959
1220.000000	0.746835
1221.000000	0.743993
1222.000000	0.756309
1223.000000	0.763177
1224.000000	0.763587
1225.000000	0.758993
1226.000000	0.775834
1227.000000	0.778423
1228.000000	0.782221
1229.000000	0.782335
1230.000000	0.791584
1231.000000	0.795347
1232.000000	0.798595
1233.000000	0.802599
1234.000000	0.799658
1235.000000	0.800641
1236.000000	0.809768
1237.000000	0.816130
1238.000000	0.808269
1239.000000	0.812504
1240.000000	0.813359
1241.000000	0.823193
1242.000000	0.832939
1243.000000	0.834984
1244.000000	0.844428
1245.000000	0.852102
1246.000000	0.851485
1247.000000	0.854290
1248.000000	0.853354
1249.000000	0.856383
1250.000000	0.872432
1251.000000	0.869744
1252.000000	0.872952
1253.000000	0.881330
1254.000000	0.873291
1255.000000	0.866715
1256.000000	0.873805
1257.000000	0.889268
1258.000000	0.895276
1259.000000	0.896362
1260.000000	0.902044
1261.000000	0.898509
1262.000000	0.901984
1263.000000	0.907844
1264.000000	0.910377
1265.000000	0.920131
1266.000000	0.923760
1267.000000	0.923480
1268.000000	0.929708
1269.000000	0.935898
1270.000000	0.948821
1271.000000	0.944936
1272.000000	0.941704
1273.000000	0.949957
1274.000000	0.948938
1275.000000	0.942725
1276.000000	0.944254
1277.000000	0.947227
1278.000000	0.956814
1279.000000	0.968787
1280.000000	0.970869
1281.000000	0.966154
1282.000000	0.967407
1283.000000	0.979703
1284.000000	0.993483
1285.000000	0.994394
1286.000000	0.988429
1287.000000	0.993029
1288.000000	1.002831
1289.000000	1.009262
1290.000000	1.016508
1291.000000	1.014374
1292.000000	1.014030
1293.000000	1.018059
1294.000000	1.023364
1295.000000	1.022283
1296.000000	1.016753
1297.000000	1.020243
1298.000000	1.022111
1299.000000	1.024288
1300.000000	1.020580
1301.000000	1.018224
1302.000000	1.015479
1303.000000	1.019030
1304.000000	1.026004
1305.000000	1.018753
1306.000000	1.016044
1307.000000	1.025578
1308.000000	1.022940
1309.000000	1.020793
1310.000000	1.023678
1311.000000	1.014444
1312.000000	1.002693
1313.000000	1.006201
1314.000000	1.007238
1315.000000	1.006289
1316.000000	1.000332
1317.000000	0.996698
1318.000000	0.992566
1319.000000	0.994994
1320.000000	0.993820
1321.000000	0.981007
1322.000000	0.986053
1323.000000	0.988870
1324.000000	0.979895
1325.000000	0.981227
1326.000000	0.972611
1327.000000	0.969487
1328.000000	0.965923
1329.000000	0.961954
1330.000000	0.962150
1331.000000	0.962925
1332.000000	0.951980
1333.000000	0.945203
1334.000000	0.947229
1335.000000	0.944560
1336.000000	0.942148
1337.000000	0.929282
1338.000000	0.924620
1339.000000	0.924896
1340.000000	0.927889
1341.000000	0.923020
1342.000000	0.917578
1343.000000	0.911325
1344.000000	0.909746
1345.000000	0.908912
1346.000000	0.909241
1347.000000	0.899659
1348.000000	0.872755
1349.000000	0.858872
1350.000000	0.858486
1351.000000	0.855539
1352.000000	0.844028
1353.000000	0.833141
1354.000000	0.818190
1355.000000	0.808848
1356.000000	0.792287
1357.000000	0.763157
1358.000000	0.755324
1359.000000	0.752576
1360.000000	0.714050
1361.000000	0.741564
1362.000000	0.761830
1363.000000	0.751393
1364.000000	0.742050
1365.000000	0.735299
1366.000000	0.744975
1367.000000	0.755231
1368.000000	0.756047
1369.000000	0.749817
1370.000000	0.742496
1371.000000	0.748116
1372.000000	0.729455
1373.000000	0.724886
1374.000000	0.719034
1375.000000	0.693345
1376.000000	0.686987
1377.000000	0.669666
1378.000000	0.657029
1379.000000	0.651737
1380.000000	0.651784
1381.000000	0.644993
1382.000000	0.636595
1383.000000	0.636401
1384.000000	0.658992
1385.000000	0.641178
1386.000000	0.618146
1387.000000	0.611563
1388.000000	0.591295
1389.000000	0.603102
1390.000000	0.603232
1391.000000	0.591425
1392.000000	0.589205
1393.000000	0.602205
1394.000000	0.590088
1395.000000	0.585462
1396.000000	0.612473
1397.000000	0.620538
1398.000000	0.609876
1399.000000	0.608607
1400.000000	0.619466
1401.000000	0.641469
1402.000000	0.641771
1403.000000	0.626836
1404.000000	0.636515
1405.000000	0.637803
1406.000000	0.668169
1407.000000	0.656292
1408.000000	0.664590
1409.000000	0.653630
1410.000000	0.671468
1411.000000	0.654618
1412.000000	0.642732
1413.000000	0.649774
1414.000000	0.646235
1415.000000	0.683418
1416.000000	0.656160
1417.000000	0.649230
1418.000000	0.648353
1419.000000	0.657417
1420.000000	0.660306
1421.000000	0.663686
1422.000000	0.651552
1423.000000	0.645817
1424.000000	0.665835
1425.000000	0.658555
1426.000000	0.670066
1427.000000	0.670186
1428.000000	0.657129
1429.000000	0.654183
1430.000000	0.664193
1431.000000	0.664724
1432.000000	0.669414
1433.000000	0.669725
1434.000000	0.670029
1435.000000	0.677609
1436.000000	0.669076
1437.000000	0.663926
1438.000000	0.675087
1439.000000	0.682550
1440.000000	0.676603
1441.000000	0.660586
1442.000000	0.690471
1443.000000	0.689873
1444.000000	0.685198
1445.000000	0.686779
1446.000000	0.702091
1447.000000	0.705941
1448.000000	0.705580
1449.000000	0.691786
1450.000000	0.696215
1451.000000	0.707501
1452.000000	0.716015
1453.000000	0.714238
1454.000000	0.711442
1455.000000	0.713688
1456.000000	0.724550
1457.000000	0.719993
1458.000000	0.722574
1459.000000	0.724592
1460.000000	0.712659
1461.000000	0.705939
1462.000000	0.728875
1463.000000	0.721974
1464.000000	0.718825
1465.000000	0.705981
1466.000000	0.706878
1467.000000	0.707519
1468.000000	0.707943
1469.000000	0.704299
1470.000000	0.711243
1471.000000	0.698805
1472.000000	0.695219
1473.000000	0.685205
1474.000000	0.677545
1475.000000	0.675569
1476.000000	0.675332
1477.000000	0.680478
1478.000000	0.668458
1479.000000	0.664401
1480.000000	0.668260
1481.000000	0.660655
1482.000000	0.658177
1483.000000	0.652454
1484.000000	0.649445
1485.000000	0.648251
1486.000000	0.644632
1487.000000	0.644342
1488.000000	0.649812
1489.000000	0.646663
1490.000000	0.643102
1491.000000	0.638383
1492.000000	0.631407
1493.000000	0.628088
1494.000000	0.625808
1495.000000	0.619664
1496.000000	0.615731
1497.000000	0.631074
1498.000000	0.628702
1499.000000	0.626840
1500.000000	0.613070
1501.000000	0.610238
1502.000000	0.599264
1503.000000	0.604718
1504.000000	0.605167
1505.000000	0.607842
1506.000000	0.608712
1507.000000	0.604663
1508.000000	0.597865
1509.000000	0.598703
1510.000000	0.597292
1511.000000	0.607147
1512.000000	0.612496
1513.000000	0.609004
1514.000000	0.594449
1515.000000	0.588619
1516.000000	0.591013
1517.000000	0.602402
1518.000000	0.603297
1519.000000	0.594438
1520.000000	0.590830
1521.000000	0.602765
1522.000000	0.596559
1523.000000	0.598613
1524.000000	0.606058
1525.000000	0.603821
1526.000000	0.596939
1527.000000	0.598989
1528.000000	0.605397
1529.000000	0.605022
1530.000000	0.608457
1531.000000	0.606619
1532.000000	0.604237
1533.000000	0.619173
1534.000000	0.621392
1535.000000	0.606721
1536.000000	0.608948
1537.000000	0.614137
1538.000000	0.611632
1539.000000	0.615638
1540.000000	0.616532
1541.000000	0.615117
1542.000000	0.614920
1543.000000	0.616806
1544.000000	0.622733
1545.000000	0.622647
1546.000000	0.624336
1547.000000	0.628025
1548.000000	0.630177
1549.000000	0.639157
1550.000000	0.635375
1551.000000	0.637438
1552.000000	0.637725
1553.000000	0.643807
1554.000000	0.643055
1555.000000	0.636522
1556.000000	0.642658
1557.000000	0.646872
1558.000000	0.647178
1559.000000	0.653564
1560.000000	0.653892
1561.000000	0.653342
1562.000000	0.654007
1563.000000	0.649775
1564.000000	0.652901
1565.000000	0.652059
1566.000000	0.652426
1567.000000	0.656579
1568.000000	0.649361
1569.000000	0.647473
1570.000000	0.646060
1571.000000	0.643497
1572.000000	0.653290
1573.000000	0.650129
1574.000000	0.647087
1575.000000	0.652119
1576.000000	0.642619
1577.000000	0.636047
1578.000000	0.638130
1579.000000	0.640798
1580.000000	0.643344
1581.000000	0.633705
1582.000000	0.623846
1583.000000	0.625595
1584.000000	0.626096
1585.000000	0.619396
1586.000000	0.615926
1587.000000	0.608989
1588.000000	0.606965
1589.000000	0.609078
1590.000000	0.605643
1591.000000	0.597558
1592.000000	0.600134
1593.000000	0.591940
1594.000000	0.582752
1595.000000	0.580270
1596.000000	0.582029
1597.000000	0.578374
1598.000000	0.575177
1599.000000	0.560685
1600.000000	0.552978
1601.000000	0.560830
1602.000000	0.557115
1603.000000	0.545063
1604.000000	0.539919
1605.000000	0.534247
1606.000000	0.536431
1607.000000	0.533158
1608.000000	0.527376
1609.000000	0.524917
1610.000000	0.519594
1611.000000	0.503490
1612.000000	0.499660
1613.000000	0.504222
1614.000000	0.500322
1615.000000	0.497451
1616.000000	0.493212
1617.000000	0.477681
1618.000000	0.475482
1619.000000	0.471365
1620.000000	0.476107
1621.000000	0.473451
1622.000000	0.457184
1623.000000	0.460106
1624.000000	0.451518
1625.000000	0.439099
1626.000000	0.443092
1627.000000	0.447512
1628.000000	0.436227
1629.000000	0.433427
1630.000000	0.439088
1631.000000	0.436898
1632.000000	0.436088
1633.000000	0.433700
1634.000000	0.431518
1635.000000	0.436209
1636.000000	0.424940
1637.000000	0.419596
1638.000000	0.432586
1639.000000	0.421759
1640.000000	0.425019
1641.000000	0.420083
1642.000000	0.417384
1643.000000	0.424779
1644.000000	0.420652
1645.000000	0.416653
1646.000000	0.416081
1647.000000	0.415408
1648.000000	0.417947
1649.000000	0.409111
1650.000000	0.430141
1651.000000	0.419276
1652.000000	0.417636
1653.000000	0.417673
1654.000000	0.417985
1655.000000	0.424340
1656.000000	0.421489
1657.000000	0.403365
1658.000000	0.415271
1659.000000	0.416194
1660.000000	0.422814
1661.000000	0.421889
1662.000000	0.412931
1663.000000	0.419220
1664.000000	0.420331
1665.000000	0.414879
1666.000000	0.427043
1667.000000	0.418023
1668.000000	0.409137
1669.000000	0.407881
1670.000000	0.414723
1671.000000	0.421355
1672.000000	0.441987
1673.000000	0.443242
1674.000000	0.453856
1675.000000	0.479032
1676.000000	0.511333
1677.000000	0.543437
1678.000000	0.572183
1679.000000	0.595429
1680.000000	0.635749
1681.000000	0.662543
1682.000000	0.643829
1683.000000	0.664435
1684.000000	0.664317
1685.000000	0.648139
1686.000000	0.632571
1687.000000	0.631507
1688.000000	0.633973
1689.000000	0.639398
1690.000000	0.659167
1691.000000	0.684055
1692.000000	0.700314
1693.000000	0.725256
1694.000000	0.708229
1695.000000	0.720355
1696.000000	0.718209
1697.000000	0.697429
1698.000000	0.684069
1699.000000	0.673155
1700.000000	0.650995
1701.000000	0.641331
1702.000000	0.644029
1703.000000	0.649269
1704.000000	0.627951
1705.000000	0.641097
1706.000000	0.621735
1707.000000	0.609827
1708.000000	0.600642
1709.000000	0.584569
1710.000000	0.592817
1711.000000	0.586149
1712.000000	0.574547
1713.000000	0.564928
1714.000000	0.573953
1715.000000	0.559355
1716.000000	0.559638
1717.000000	0.545455
1718.000000	0.524691
1719.000000	0.525594
1720.000000	0.504938
1721.000000	0.490169
1722.000000	0.497556
1723.000000	0.488404
1724.000000	0.491474
1725.000000	0.510299
1726.000000	0.506453
1727.000000	0.512097
1728.000000	0.532656
1729.000000	0.536364
1730.000000	0.561297
1731.000000	0.552652
1732.000000	0.559834
1733.000000	0.558850
1734.000000	0.554627
1735.000000	0.555624
1736.000000	0.543487
1737.000000	0.526150
1738.000000	0.511050
1739.000000	0.496530
1740.000000	0.463272
1741.000000	0.459548
1742.000000	0.457796
1743.000000	0.451186
1744.000000	0.442308
1745.000000	0.428185
1746.000000	0.430342
1747.000000	0.416407
1748.000000	0.430146
1749.000000	0.429950
1750.000000	0.431276
1751.000000	0.427538
1752.000000	0.424413
1753.000000	0.422261
1754.000000	0.427657
1755.000000	0.438575
1756.000000	0.433076
1757.000000	0.440327
1758.000000	0.437150
1759.000000	0.450841
1760.000000	0.448497
1761.000000	0.454188
1762.000000	0.450879
1763.000000	0.450050
1764.000000	0.449090
1765.000000	0.438904
1766.000000	0.435821
1767.000000	0.430224
1768.000000	0.435772
1769.000000	0.422173
1770.000000	0.406756
1771.000000	0.415086
1772.000000	0.406636
1773.000000	0.396974
1774.000000	0.389912
1775.000000	0.395175
1776.000000	0.393122
1777.000000	0.384006
1778.000000	0.394215
1779.000000	0.400735
1780.000000	0.402480
1781.000000	0.396801
1782.000000	0.394902
1783.000000	0.398534
1784.000000	0.390861
1785.000000	0.392535
1786.000000	0.390287
1787.000000	0.387491
1788.000000	0.380373
1789.000000	0.381104
1790.000000	0.383373
1791.000000	0.386763
1792.000000	0.387201
1793.000000	0.383022
1794.000000	0.383734
1795.000000	0.384591
1796.000000	0.388802
1797.000000	0.380012
1798.000000	0.381071
1799.000000	0.385995
1800.000000	0.387600
1801.000000	0.393784
1802.000000	0.389834
1803.000000	0.382677
1804.000000	0.391066
1805.000000	0.392967
1806.000000	0.388593
1807.000000	0.382326
1808.000000	0.383310
1809.000000	0.390431
1810.000000	0.393778
1811.000000	0.390402
1812.000000	0.387286
1813.000000	0.397490
1814.000000	0.399412
1815.000000	0.392026
1816.000000	0.396871
1817.000000	0.398357
1818.000000	0.387907
1819.000000	0.377305
1820.000000	0.380269
1821.000000	0.384688
1822.000000	0.395846
1823.000000	0.396123
1824.000000	0.378901
1825.000000	0.364149
1826.000000	0.363637
1827.000000	0.368332
1828.000000	0.364912
1829.000000	0.365925
1830.000000	0.364087
1831.000000	0.365371
1832.000000	0.367853
1833.000000	0.366520
1834.000000	0.365068
1835.000000	0.358996
1836.000000	0.367118
1837.000000	0.376651
1838.000000	0.374934
1839.000000	0.373580
1840.000000	0.373329
1841.000000	0.376144
1842.000000	0.382047
1843.000000	0.382217
1844.000000	0.380659
1845.000000	0.379966
1846.000000	0.387850
1847.000000	0.382750
1848.000000	0.370921
1849.000000	0.369420
1850.000000	0.370561
1851.000000	0.376914
1852.000000	0.383300
1853.000000	0.388444
1854.000000	0.390292
1855.000000	0.396091
1856.000000	0.394268
1857.000000	0.397615
1858.000000	0.403664
1859.000000	0.403760
1860.000000	0.398006
1861.000000	0.395717
1862.000000	0.400965
1863.000000	0.399090
1864.000000	0.400481
1865.000000	0.413632
1866.000000	0.416621
1867.000000	0.431901
1868.000000	0.438958
1869.000000	0.423521
1870.000000	0.430604
1871.000000	0.438176
1872.000000	0.436857
1873.000000	0.433568
1874.000000	0.441463
1875.000000	0.447117
1876.000000	0.450700
1877.000000	0.438838
1878.000000	0.460553
1879.000000	0.465139
1880.000000	0.471742
1881.000000	0.487268
1882.000000	0.501799
1883.000000	0.503808
1884.000000	0.516269
1885.000000	0.525625
1886.000000	0.533996
1887.000000	0.538460
1888.000000	0.530984
1889.000000	0.521737
1890.000000	0.518171
1891.000000	0.524361
1892.000000	0.527912
1893.000000	0.528124
1894.000000	0.519744
1895.000000	0.509555
1896.000000	0.499876
1897.000000	0.485906
1898.000000	0.480685
1899.000000	0.488880
1900.000000	0.489902
1901.000000	0.477739
1902.000000	0.466828
1903.000000	0.461527
1904.000000	0.446047
1905.000000	0.446860
1906.000000	0.463189
1907.000000	0.452173
1908.000000	0.453250
1909.000000	0.446963
1910.000000	0.440890
1911.000000	0.429205
1912.000000	0.426298
1913.000000	0.419148
1914.000000	0.420758
1915.000000	0.423496
1916.000000	0.437015
1917.000000	0.416221
1918.000000	0.404852
1919.000000	0.402036
1920.000000	0.397878
1921.000000	0.417492
1922.000000	0.403521
1923.000000	0.418810
1924.000000	0.421132
1925.000000	0.412898
1926.000000	0.421276
1927.000000	0.419655
1928.000000	0.414311
1929.000000	0.421589
1930.000000	0.420949
1931.000000	0.430733
1932.000000	0.437178
1933.000000	0.433774
1934.000000	0.431931
1935.000000	0.433080
1936.000000	0.436485
1937.000000	0.450444
1938.000000	0.445957
1939.000000	0.447554
1940.000000	0.457685
1941.000000	0.458409
1942.000000	0.447026
1943.000000	0.466109
1944.000000	0.460291
1945.000000	0.480644
1946.000000	0.489020
1947.000000	0.476484
1948.000000	0.482767
1949.000000	0.478633
1950.000000	0.493934
1951.000000	0.501674
1952.000000	0.492380
1953.000000	0.495004
1954.000000	0.497454
1955.000000	0.516254
1956.000000	0.492071
1957.000000	0.509377
1958.000000	0.513315
1959.000000	0.506678
1960.000000	0.513485
1961.000000	0.514404
1962.000000	0.517310
1963.000000	0.515101
1964.000000	0.515189
1965.000000	0.515449
1966.000000	0.515699
1967.000000	0.515990
1968.000000	0.512388
1969.000000	0.520606
1970.000000	0.519392
1971.000000	0.503979
1972.000000	0.507292
1973.000000	0.513801
1974.000000	0.517279
1975.000000	0.513889
1976.000000	0.506290
1977.000000	0.508509
1978.000000	0.496540
1979.000000	0.486857
1980.000000	0.494905
1981.000000	0.490350
1982.000000	0.489779
1983.000000	0.488167
1984.000000	0.488065
1985.000000	0.487858
1986.000000	0.467304
1987.000000	0.478622
1988.000000	0.468843
1989.000000	0.467977
1990.000000	0.464997
1991.000000	0.469301
1992.000000	0.461361
1993.000000	0.455555
1994.000000	0.454300
1995.000000	0.462096
1996.000000	0.441334
1997.000000	0.444189
1998.000000	0.433560
1999.000000	0.428963
2000.000000	0.431285
2001.000000	0.435822
2002.000000	0.428461
2003.000000	0.429294
2004.000000	0.423547
2005.000000	0.418970
2006.000000	0.420140
2007.000000	0.413728
2008.000000	0.411195
2009.000000	0.406581
2010.000000	0.393731
2011.000000	0.396740
2012.000000	0.392056
2013.000000	0.386142
2014.000000	0.382592
2015.000000	0.367449
2016.000000	0.366694
2017.000000	0.378423
2018.000000	0.361856
2019.000000	0.354056
2020.000000	0.346066
2021.000000	0.340701
2022.000000	0.343422
2023.000000	0.324201
2024.000000	0.309380
2025.000000	0.311358
2026.000000	0.314619
2027.000000	0.312749
2028.000000	0.307673
2029.000000	0.301334
2030.000000	0.290046
2031.000000	0.282052
2032.000000	0.277928
2033.000000	0.262372
2034.000000	0.249037
2035.000000	0.254259
2036.000000	0.255046
2037.000000	0.233832
2038.000000	0.230441
2039.000000	0.229471
2040.000000	0.216482
2041.000000	0.207038
2042.000000	0.206295
2043.000000	0.189178
2044.000000	0.188521
2045.000000	0.180865
2046.000000	0.168827
2047.000000	0.160921
2048.000000	0.139245
2049.000000	0.137477
2050.000000	0.129050
2051.000000	0.120034
2052.000000	0.122156
2053.000000	0.117398
2054.000000	0.100938
2055.000000	0.097120
2056.000000	0.104699
2057.000000	0.104507
2058.000000	0.096543
2059.000000	0.101200
2060.000000	0.099057
2061.000000	0.102773
2062.000000	0.109809
2063.000000	0.116097
2064.000000	0.115085
2065.000000	0.109872
2066.000000	0.111748
2067.000000	0.111701
2068.000000	0.103083
2069.000000	0.115241
2070.000000	0.124891
2071.000000	0.119715
2072.000000	0.116692
2073.000000	0.118949
2074.000000	0.122940
2075.000000	0.122864
2076.000000	0.123711
2077.000000	0.128728
2078.000000	0.124284
2079.000000	0.118220
2080.000000	0.124736
2081.000000	0.125513
2082.000000	0.111161
2083.000000	0.111650
2084.000000	0.114037
2085.000000	0.105805
2086.000000	0.095299
2087.000000	0.094557
2088.000000	0.097685
2089.000000	0.089322
2090.000000	0.085117
2091.000000	0.089067
2092.000000	0.094589
2093.000000	0.088041
2094.000000	0.078862
2095.000000	0.076302
2096.000000	0.072862
2097.000000	0.068615
2098.000000	0.070341
2099.000000	0.068472
2100.000000	0.053066
2101.000000	0.051264
2102.000000	0.058460
2103.000000	0.067700
2104.000000	0.082863
2105.000000	0.079787
2106.000000	0.072561
2107.000000	0.077484
2108.000000	0.078407
2109.000000	0.072795
2110.000000	0.071518
2111.000000	0.081723
2112.000000	0.090822
2113.000000	0.090474
2114.000000	0.084028
2115.000000	0.092085
2116.000000	0.093424
2117.000000	0.092868
2118.000000	0.097556
2119.000000	0.100347
2120.000000	0.107392
2121.000000	0.111226
2122.000000	0.110444
2123.000000	0.119780
2124.000000	0.129252
2125.000000	0.144074
2126.000000	0.151474
2127.000000	0.147924
2128.000000	0.150157
2129.000000	0.158944
2130.000000	0.170293
2131.000000	0.169023
2132.000000	0.167034
2133.000000	0.174433
2134.000000	0.173150
2135.000000	0.174801
2136.000000	0.179172
2137.000000	0.172364
2138.000000	0.169600
2139.000000	0.179251
2140.000000	0.180909
2141.000000	0.173027
2142.000000	0.176924
2143.000000	0.183305
2144.000000	0.183094
2145.000000	0.176713
2146.000000	0.174401
2147.000000	0.185020
2148.000000	0.184015
2149.000000	0.163436
2150.000000	0.179477
2151.000000	0.174442
2152.000000	0.175899
2153.000000	0.173614
2154.000000	0.160935
2155.000000	0.165965
2156.000000	0.163826
2157.000000	0.172156
2158.000000	0.170563
2159.000000	0.163858
2160.000000	0.153533
2161.000000	0.154121
2162.000000	0.153588
2163.000000	0.150374
2164.000000	0.147210
2165.000000	0.145724
2166.000000	0.139597
2167.000000	0.128225
2168.000000	0.119750
2169.000000	0.125411
2170.000000	0.132073
2171.000000	0.118417
2172.000000	0.117655
2173.000000	0.116827
2174.000000	0.115574
2175.000000	0.112150
2176.000000	0.097777
2177.000000	0.100712
2178.000000	0.104305
2179.000000	0.105204
2180.000000	0.103047
2181.000000	0.091993
2182.000000	0.079386
2183.000000	0.084505
2184.000000	0.099923
2185.000000	0.086143
2186.000000	0.070865
2187.000000	0.085633
2188.000000	0.093790
2189.000000	0.078564
2190.000000	0.083916
2191.000000	0.077304
2192.000000	0.083532
2193.000000	0.073861
2194.000000	0.084150
2195.000000	0.087518
2196.000000	0.082566
2197.000000	0.076333
2198.000000	0.082686
2199.000000	0.078483
2200.000000	0.077521
2201.000000	0.064902
2202.000000	0.067360
2203.000000	0.077554
2204.000000	0.079440
2205.000000	0.062083
2206.000000	0.067782
2207.000000	0.062722
2208.000000	0.073443
2209.000000	0.062569
2210.000000	0.068630
2211.000000	0.068984
2212.000000	0.069886
2213.000000	0.058626
2214.000000	0.065960
2215.000000	0.058237
2216.000000	0.051647
2217.000000	0.070289
2218.000000	0.070008
2219.000000	0.091684
2220.000000	0.065108
2221.000000	0.062376
2222.000000	0.059119
2223.000000	0.047861
2224.000000	0.057452
2225.000000	0.069590
2226.000000	0.062196
2227.000000	0.054179
2228.000000	0.060648
2229.000000	0.058164
2230.000000	0.068937
2231.000000	0.063542
2232.000000	0.066247
2233.000000	0.077688
2234.000000	0.054736
2235.000000	0.061592
2236.000000	0.043918
2237.000000	0.073383
2238.000000	0.059150
2239.000000	0.060379
2240.000000	0.036969
2241.000000	0.054041
2242.000000	0.054357
2243.000000	0.046928
2244.000000	0.055260
2245.000000	0.051533
2246.000000	0.055783
2247.000000	0.064103
2248.000000	0.044549
2249.000000	0.051902
2250.000000	0.055923
2251.000000	0.048611
2252.000000	0.037664
2253.000000	0.066221
2254.000000	0.057672
2255.000000	0.070244
2256.000000	0.046812
2257.000000	0.069341
2258.000000	0.092053
2259.000000	0.094101
2260.000000	0.077014
2261.000000	0.080072
2262.000000	0.106606
2263.000000	0.104709
2264.000000	0.116839
2265.000000	0.109318
2266.000000	0.127585
2267.000000	0.130297
2268.000000	0.137227
2269.000000	0.135064
2270.000000	0.144345
2271.000000	0.145886
2272.000000	0.143867
2273.000000	0.148715
2274.000000	0.158588
2275.000000	0.167604
2276.000000	0.152138
2277.000000	0.153694
2278.000000	0.165872
2279.000000	0.168339
2280.000000	0.168410
2281.000000	0.187706
2282.000000	0.180705
2283.000000	0.174161
2284.000000	0.189429
2285.000000	0.186719
2286.000000	0.191822
2287.000000	0.200327
2288.000000	0.195210
2289.000000	0.187938
2290.000000	0.203733
2291.000000	0.203277
2292.000000	0.209956
2293.000000	0.207204
2294.000000	0.213387
2295.000000	0.217775
2296.000000	0.221564
2297.000000	0.239485
2298.000000	0.245408
2299.000000	0.230769
2300.000000	0.230277
2301.000000	0.250746
2302.000000	0.245851
2303.000000	0.245001
2304.000000	0.240563
2305.000000	0.235891
2306.000000	0.240035
2307.000000	0.250947
2308.000000	0.248496
2309.000000	0.255055
2310.000000	0.247311
2311.000000	0.249744
2312.000000	0.253441
2313.000000	0.251293
2314.000000	0.236483
2315.000000	0.245676
2316.000000	0.251514
2317.000000	0.242266
2318.000000	0.243469
2319.000000	0.249388
2320.000000	0.252662
2321.000000	0.248653
2322.000000	0.253121
2323.000000	0.262970
2324.000000	0.259790
2325.000000	0.254513
2326.000000	0.260059
2327.000000	0.258311
2328.000000	0.275779
2329.000000	0.286067
2330.000000	0.281882
2331.000000	0.276851
2332.000000	0.281884
2333.000000	0.290581
2334.000000	0.296908
2335.000000	0.293332
2336.000000	0.295606
2337.000000	0.292400
2338.000000	0.299754
2339.000000	0.300896
2340.000000	0.299726
2341.000000	0.290925
2342.000000	0.293345
2343.000000	0.305792
2344.000000	0.304723
2345.000000	0.299339
2346.000000	0.299896
2347.000000	0.301410
2348.000000	0.300655
2349.000000	0.298963
2350.000000	0.293066
2351.000000	0.283656
2352.000000	0.282113
2353.000000	0.274769
2354.000000	0.277642
2355.000000	0.277547
2356.000000	0.278433
2357.000000	0.286276
2358.000000	0.277444
2359.000000	0.267959
2360.000000	0.271080
2361.000000	0.278717
2362.000000	0.282835
2363.000000	0.284184
2364.000000	0.280069
2365.000000	0.285605
2366.000000	0.289839
2367.000000	0.287094
2368.000000	0.285524
2369.000000	0.284412
2370.000000	0.296294
2371.000000	0.305977
2372.000000	0.302603
2373.000000	0.302893
2374.000000	0.298557
2375.000000	0.300886
2376.000000	0.299255
2377.000000	0.293980
2378.000000	0.296021
2379.000000	0.300181
2380.000000	0.304124
2381.000000	0.303352
2382.000000	0.303586
2383.000000	0.305206
2384.000000	0.310825
2385.000000	0.309143
2386.000000	0.300053
2387.000000	0.296309
2388.000000	0.299992
2389.000000	0.301666
2390.000000	0.300310
2391.000000	0.304757
2392.000000	0.313068
2393.000000	0.309631
2394.000000	0.309335
2395.000000	0.300538
2396.000000	0.299583
2397.000000	0.301388
2398.000000	0.296051
2399.000000	0.309476
2400.000000	0.299503
2401.000000	0.287689
2402.000000	0.301568
2403.000000	0.306075
2404.000000	0.302617
2405.000000	0.304990
2406.000000	0.315500
2407.000000	0.301858
2408.000000	0.299882
2409.000000	0.298073
2410.000000	0.306298
2411.000000	0.302715
2412.000000	0.302448
2413.000000	0.307821
2414.000000	0.304248
2415.000000	0.296170
2416.000000	0.304943
2417.000000	0.315243
2418.000000	0.300378
2419.000000	0.295430
2420.000000	0.298615
2421.000000	0.306915
2422.000000	0.309815
2423.000000	0.313300
2424.000000	0.309893
2425.000000	0.305683
2426.000000	0.315442
2427.000000	0.311441
2428.000000	0.313823
2429.000000	0.307946
2430.000000	0.306013
2431.000000	0.322844
2432.000000	0.324036
2433.000000	0.314847
2434.000000	0.316889
2435.000000	0.318646
2436.000000	0.327167
2437.000000	0.323526
2438.000000	0.323662
2439.000000	0.314535
2440.000000	0.304604
2441.000000	0.313975
2442.000000	0.335072
2443.000000	0.334157
2444.000000	0.328307
2445.000000	0.330550
2446.000000	0.318879
2447.000000	0.329157
2448.000000	0.323571
2449.000000	0.322105
2450.000000	0.313195
2451.000000	0.310280
2452.000000	0.311955
2453.000000	0.306536
2454.000000	0.300929
2455.000000	0.305439
2456.000000	0.314192
2457.000000	0.296075
2458.000000	0.311677
2459.000000	0.314980
2460.000000	0.297958
2461.000000	0.309552
2462.000000	0.298103
2463.000000	0.297942
2464.000000	0.327915
2465.000000	0.297316
2466.000000	0.307973
2467.000000	0.288632
2468.000000	0.319214
2469.000000	0.287634
2470.000000	0.319675
2471.000000	0.313317
2472.000000	0.289787
2473.000000	0.285384
2474.000000	0.290816
2475.000000	0.334445
2476.000000	0.281181
2477.000000	0.306222
2478.000000	0.320485
2479.000000	0.361631
2480.000000	0.296048
2481.000000	0.317031
2482.000000	0.250876
2483.000000	0.274471
2484.000000	0.329505
2485.000000	0.361642
2486.000000	0.312476
2487.000000	0.271265
2488.000000	0.332704
2489.000000	0.272578
2490.000000	0.336801
2491.000000	0.319318
2492.000000	0.284976
2493.000000	0.315280
2494.000000	0.297885
2495.000000	0.292609
2496.000000	0.294254
2497.000000	0.343546
2498.000000	0.264396
2499.000000	0.331594
2500.000000	0.374758
