PE UV       SUBTECH     SPECTRUM    ASCII       PEDS        4.00        
   -1
CICIMAUCR0205-3.Sample.ASC
24/05/31
16:47:51.00
24/05/31
16:47:51.00
Vinicio Soto Monge
C. cupreomarginata. Sex F. Dorsal
250,000000
1
Lambda 1050
1050L1511233
PerkinElmer UV WinLab 6.3.2.0749 / 2.02.05 Lambda 900 UV/VIS/NIR, Aug  7 2015 09:38:08

0
0
3350/servo 860,8/2
0
0
UV/VIS
1
1
1
DoubleDePol,CommonBeamDepol,RBeamAtt,SBeamAtt,60mm sphere, WB InGaAs Detector
0
0
0
0
Program
Program
3350/servo 860,8/2
3350/0,2 860,8/0,2
3350/0,2 860,8/0,2
0
15.00
 
 
 
0
 
860,8
319,2
860,8
Front
100
on
S:100 R:100
0
0
0
0
 
0
 
 
 
0
 
 
0
0
0
0
0
 
 
 
 
0
0


0
0
#HDR
-1
-1
#GR
nm
%R
1.0
0.0
2500,000000
-1,000000
2251
8
69,495500
5,503700
#DATA
250.000000	0.195539
251.000000	0.200246
252.000000	0.173751
253.000000	0.193812
254.000000	0.178526
255.000000	0.192484
256.000000	0.176079
257.000000	0.178560
258.000000	0.172780
259.000000	0.181423
260.000000	0.190233
261.000000	0.173533
262.000000	0.180095
263.000000	0.178329
264.000000	0.187008
265.000000	0.180763
266.000000	0.164075
267.000000	0.152519
268.000000	0.138566
269.000000	0.128711
270.000000	0.141095
271.000000	0.174654
272.000000	0.174413
273.000000	0.144325
274.000000	0.172921
275.000000	0.170222
276.000000	0.186722
277.000000	0.182309
278.000000	0.162687
279.000000	0.157014
280.000000	0.175591
281.000000	0.194960
282.000000	0.182161
283.000000	0.169691
284.000000	0.158517
285.000000	0.177109
286.000000	0.184713
287.000000	0.174679
288.000000	0.185628
289.000000	0.197716
290.000000	0.149778
291.000000	0.163391
292.000000	0.171009
293.000000	0.162369
294.000000	0.164945
295.000000	0.158441
296.000000	0.153252
297.000000	0.165001
298.000000	0.181505
299.000000	0.194483
300.000000	0.169431
301.000000	0.152640
302.000000	0.174275
303.000000	0.176323
304.000000	0.147251
305.000000	0.153621
306.000000	0.164082
307.000000	0.137439
308.000000	0.157251
309.000000	0.189274
310.000000	0.183170
311.000000	0.158557
312.000000	0.166291
313.000000	0.152712
314.000000	0.136725
315.000000	0.161593
316.000000	0.042794
317.000000	0.305074
318.000000	0.431398
319.000000	0.482760
320.000000	0.346703
321.000000	0.287276
322.000000	0.238372
323.000000	0.114222
324.000000	0.233705
325.000000	0.306032
326.000000	0.241620
327.000000	0.064607
328.000000	0.071789
329.000000	0.085767
330.000000	0.211936
331.000000	0.058587
332.000000	0.208029
333.000000	0.212437
334.000000	0.138250
335.000000	0.014413
336.000000	0.108104
337.000000	0.099666
338.000000	0.081903
339.000000	0.068382
340.000000	0.118775
341.000000	0.095604
342.000000	0.071901
343.000000	0.037514
344.000000	0.119012
345.000000	0.074368
346.000000	0.172854
347.000000	0.259942
348.000000	0.193157
349.000000	0.118994
350.000000	0.070171
351.000000	0.006462
352.000000	0.117704
353.000000	0.146126
354.000000	0.136576
355.000000	0.232830
356.000000	0.162788
357.000000	0.174341
358.000000	0.225059
359.000000	0.201191
360.000000	0.155200
361.000000	0.055316
362.000000	0.087414
363.000000	0.098542
364.000000	0.142626
365.000000	0.185041
366.000000	0.179371
367.000000	0.234874
368.000000	0.155060
369.000000	0.182889
370.000000	0.270098
371.000000	0.340518
372.000000	0.321877
373.000000	0.297818
374.000000	0.285031
375.000000	0.196060
376.000000	0.143691
377.000000	0.149903
378.000000	0.157950
379.000000	0.162051
380.000000	0.170856
381.000000	0.162277
382.000000	0.153509
383.000000	0.157579
384.000000	0.163246
385.000000	0.154888
386.000000	0.165572
387.000000	0.159736
388.000000	0.163778
389.000000	0.189892
390.000000	0.167751
391.000000	0.173392
392.000000	0.182573
393.000000	0.167430
394.000000	0.171652
395.000000	0.178261
396.000000	0.189986
397.000000	0.184588
398.000000	0.180976
399.000000	0.181328
400.000000	0.163864
401.000000	0.158078
402.000000	0.165970
403.000000	0.155115
404.000000	0.144547
405.000000	0.138099
406.000000	0.133344
407.000000	0.142473
408.000000	0.128965
409.000000	0.120033
410.000000	0.135489
411.000000	0.142527
412.000000	0.131932
413.000000	0.144205
414.000000	0.146144
415.000000	0.161525
416.000000	0.183316
417.000000	0.173142
418.000000	0.194833
419.000000	0.192130
420.000000	0.220034
421.000000	0.240863
422.000000	0.239836
423.000000	0.238108
424.000000	0.246554
425.000000	0.259369
426.000000	0.238669
427.000000	0.240006
428.000000	0.243135
429.000000	0.249921
430.000000	0.262565
431.000000	0.257264
432.000000	0.260230
433.000000	0.286976
434.000000	0.281741
435.000000	0.281979
436.000000	0.301071
437.000000	0.299141
438.000000	0.305172
439.000000	0.307704
440.000000	0.306585
441.000000	0.304774
442.000000	0.308826
443.000000	0.308278
444.000000	0.289862
445.000000	0.302618
446.000000	0.316671
447.000000	0.318159
448.000000	0.277799
449.000000	0.253695
450.000000	0.249421
451.000000	0.250877
452.000000	0.262064
453.000000	0.240480
454.000000	0.245349
455.000000	0.267849
456.000000	0.289693
457.000000	0.290353
458.000000	0.299427
459.000000	0.334494
460.000000	0.347657
461.000000	0.362118
462.000000	0.351086
463.000000	0.369772
464.000000	0.369104
465.000000	0.380919
466.000000	0.376063
467.000000	0.356517
468.000000	0.365646
469.000000	0.353075
470.000000	0.346083
471.000000	0.316079
472.000000	0.317934
473.000000	0.307318
474.000000	0.303505
475.000000	0.301382
476.000000	0.323106
477.000000	0.314578
478.000000	0.323918
479.000000	0.329695
480.000000	0.308317
481.000000	0.331049
482.000000	0.333310
483.000000	0.340012
484.000000	0.335901
485.000000	0.333460
486.000000	0.329978
487.000000	0.328404
488.000000	0.328775
489.000000	0.321331
490.000000	0.360382
491.000000	0.339523
492.000000	0.333589
493.000000	0.339035
494.000000	0.324236
495.000000	0.369533
496.000000	0.366638
497.000000	0.372605
498.000000	0.356548
499.000000	0.396308
500.000000	0.364532
501.000000	0.394976
502.000000	0.417738
503.000000	0.399440
504.000000	0.400511
505.000000	0.394833
506.000000	0.415302
507.000000	0.413396
508.000000	0.414809
509.000000	0.438834
510.000000	0.423664
511.000000	0.441266
512.000000	0.440919
513.000000	0.444389
514.000000	0.451461
515.000000	0.482163
516.000000	0.494616
517.000000	0.502433
518.000000	0.513818
519.000000	0.515560
520.000000	0.520796
521.000000	0.548180
522.000000	0.543980
523.000000	0.595728
524.000000	0.619107
525.000000	0.650859
526.000000	0.717902
527.000000	0.747881
528.000000	0.801513
529.000000	0.847119
530.000000	0.895558
531.000000	0.983927
532.000000	1.042620
533.000000	1.109632
534.000000	1.159586
535.000000	1.211336
536.000000	1.245720
537.000000	1.260452
538.000000	1.281749
539.000000	1.286867
540.000000	1.303075
541.000000	1.349191
542.000000	1.351417
543.000000	1.360878
544.000000	1.361381
545.000000	1.339427
546.000000	1.308604
547.000000	1.322034
548.000000	1.305629
549.000000	1.306847
550.000000	1.310545
551.000000	1.288687
552.000000	1.263629
553.000000	1.233535
554.000000	1.182531
555.000000	1.139553
556.000000	1.062883
557.000000	1.038031
558.000000	0.995770
559.000000	0.968235
560.000000	0.949252
561.000000	0.903750
562.000000	0.893833
563.000000	0.852137
564.000000	0.816170
565.000000	0.809744
566.000000	0.818052
567.000000	0.809212
568.000000	0.794744
569.000000	0.778701
570.000000	0.758068
571.000000	0.756107
572.000000	0.727719
573.000000	0.698757
574.000000	0.693012
575.000000	0.683297
576.000000	0.657265
577.000000	0.608096
578.000000	0.583744
579.000000	0.571097
580.000000	0.561639
581.000000	0.544449
582.000000	0.555407
583.000000	0.561301
584.000000	0.584540
585.000000	0.591374
586.000000	0.626545
587.000000	0.665304
588.000000	0.697893
589.000000	0.708567
590.000000	0.746823
591.000000	0.779378
592.000000	0.759117
593.000000	0.750966
594.000000	0.730008
595.000000	0.690972
596.000000	0.677274
597.000000	0.657243
598.000000	0.620817
599.000000	0.614470
600.000000	0.596013
601.000000	0.564513
602.000000	0.546852
603.000000	0.548984
604.000000	0.546238
605.000000	0.540609
606.000000	0.537642
607.000000	0.541927
608.000000	0.567480
609.000000	0.596206
610.000000	0.639457
611.000000	0.696705
612.000000	0.734935
613.000000	0.748242
614.000000	0.787676
615.000000	0.817420
616.000000	0.873739
617.000000	0.909625
618.000000	0.937639
619.000000	0.969007
620.000000	1.025268
621.000000	1.087529
622.000000	1.145134
623.000000	1.207732
624.000000	1.266402
625.000000	1.322891
626.000000	1.375004
627.000000	1.395428
628.000000	1.416881
629.000000	1.471687
630.000000	1.488859
631.000000	1.517470
632.000000	1.549947
633.000000	1.578840
634.000000	1.575223
635.000000	1.567504
636.000000	1.557470
637.000000	1.559806
638.000000	1.541370
639.000000	1.505745
640.000000	1.467526
641.000000	1.410940
642.000000	1.367885
643.000000	1.318416
644.000000	1.266064
645.000000	1.190287
646.000000	1.103950
647.000000	1.035134
648.000000	0.955778
649.000000	0.856605
650.000000	0.799118
651.000000	0.745168
652.000000	0.662390
653.000000	0.577516
654.000000	0.544147
655.000000	0.528160
656.000000	0.548158
657.000000	0.568374
658.000000	0.601024
659.000000	0.682008
660.000000	0.736149
661.000000	0.767680
662.000000	0.846050
663.000000	0.881178
664.000000	0.906038
665.000000	0.956545
666.000000	0.991905
667.000000	1.002093
668.000000	0.989851
669.000000	1.005900
670.000000	1.044241
671.000000	1.033849
672.000000	1.004027
673.000000	1.024405
674.000000	1.024557
675.000000	1.020647
676.000000	1.021177
677.000000	1.032552
678.000000	1.023206
679.000000	1.006069
680.000000	1.010577
681.000000	1.052549
682.000000	1.062671
683.000000	1.036700
684.000000	1.006907
685.000000	1.042878
686.000000	1.057106
687.000000	1.059211
688.000000	1.058785
689.000000	1.102019
690.000000	1.136207
691.000000	1.098084
692.000000	1.111994
693.000000	1.139743
694.000000	1.135858
695.000000	1.109780
696.000000	1.064867
697.000000	1.094408
698.000000	1.126133
699.000000	1.153246
700.000000	1.139529
701.000000	1.148653
702.000000	1.142546
703.000000	1.155420
704.000000	1.144121
705.000000	1.153371
706.000000	1.127423
707.000000	1.101712
708.000000	1.097241
709.000000	1.117325
710.000000	1.058190
711.000000	1.070090
712.000000	1.046349
713.000000	1.063536
714.000000	1.005547
715.000000	1.031345
716.000000	1.028363
717.000000	1.051246
718.000000	1.070475
719.000000	1.053614
720.000000	1.075620
721.000000	1.027835
722.000000	1.021534
723.000000	1.010717
724.000000	1.084428
725.000000	1.128621
726.000000	1.123332
727.000000	1.081474
728.000000	1.097202
729.000000	1.152669
730.000000	1.194653
731.000000	1.176748
732.000000	1.213405
733.000000	1.160443
734.000000	1.200395
735.000000	1.243967
736.000000	1.203089
737.000000	1.260655
738.000000	1.252509
739.000000	1.241815
740.000000	1.243180
741.000000	1.315575
742.000000	1.301737
743.000000	1.250947
744.000000	1.244291
745.000000	1.253245
746.000000	1.278095
747.000000	1.341405
748.000000	1.308472
749.000000	1.268301
750.000000	1.265977
751.000000	1.327280
752.000000	1.288628
753.000000	1.270519
754.000000	1.229038
755.000000	1.267045
756.000000	1.323846
757.000000	1.275158
758.000000	1.347736
759.000000	1.280856
760.000000	1.338618
761.000000	1.328312
762.000000	1.288248
763.000000	1.336788
764.000000	1.297873
765.000000	1.406472
766.000000	1.409154
767.000000	1.464138
768.000000	1.483902
769.000000	1.408218
770.000000	1.391137
771.000000	1.526920
772.000000	1.555418
773.000000	1.459551
774.000000	1.435352
775.000000	1.563838
776.000000	1.517417
777.000000	1.492808
778.000000	1.483952
779.000000	1.510131
780.000000	1.500020
781.000000	1.450403
782.000000	1.569024
783.000000	1.566823
784.000000	1.596582
785.000000	1.464575
786.000000	1.684157
787.000000	1.613603
788.000000	1.636500
789.000000	1.702982
790.000000	1.652311
791.000000	1.684806
792.000000	1.663748
793.000000	1.700840
794.000000	1.647072
795.000000	1.665680
796.000000	1.674148
797.000000	1.687188
798.000000	1.739719
799.000000	1.758454
800.000000	1.793992
801.000000	1.725650
802.000000	1.929298
803.000000	1.762362
804.000000	1.921084
805.000000	1.797364
806.000000	1.770314
807.000000	1.885677
808.000000	1.958354
809.000000	2.022873
810.000000	2.102907
811.000000	1.929951
812.000000	1.925242
813.000000	1.961305
814.000000	2.005284
815.000000	1.977203
816.000000	2.077551
817.000000	2.165944
818.000000	2.156830
819.000000	2.136594
820.000000	2.172808
821.000000	2.351992
822.000000	2.319598
823.000000	2.309382
824.000000	2.377102
825.000000	2.372680
826.000000	2.437810
827.000000	2.501214
828.000000	2.506962
829.000000	2.438658
830.000000	2.431248
831.000000	2.493941
832.000000	2.447857
833.000000	2.423622
834.000000	2.689518
835.000000	2.613010
836.000000	2.658355
837.000000	2.612684
838.000000	2.517565
839.000000	2.562642
840.000000	2.845090
841.000000	3.009394
842.000000	2.884083
843.000000	2.748146
844.000000	2.999505
845.000000	2.881272
846.000000	2.967045
847.000000	3.254600
848.000000	3.054551
849.000000	2.796836
850.000000	2.851892
851.000000	2.872285
852.000000	2.954191
853.000000	3.028847
854.000000	2.854794
855.000000	3.001506
856.000000	3.376402
857.000000	3.351308
858.000000	3.339619
859.000000	3.352598
860.000000	3.354775
861.000000	3.354192
862.000000	3.347919
863.000000	3.340702
864.000000	3.349030
865.000000	3.357736
866.000000	3.353604
867.000000	3.372186
868.000000	3.363574
869.000000	3.340121
870.000000	3.280551
871.000000	3.185146
872.000000	3.113880
873.000000	3.134135
874.000000	3.187337
875.000000	3.182808
876.000000	3.189332
877.000000	3.190249
878.000000	3.198845
879.000000	3.200335
880.000000	3.200520
881.000000	3.215117
882.000000	3.222548
883.000000	3.225346
884.000000	3.230628
885.000000	3.231114
886.000000	3.239563
887.000000	3.245818
888.000000	3.242103
889.000000	3.257470
890.000000	3.250923
891.000000	3.263328
892.000000	3.277773
893.000000	3.285920
894.000000	3.287820
895.000000	3.282067
896.000000	3.283043
897.000000	3.294097
898.000000	3.304556
899.000000	3.313530
900.000000	3.305035
901.000000	3.302101
902.000000	3.300863
903.000000	3.301645
904.000000	3.298018
905.000000	3.290388
906.000000	3.285352
907.000000	3.268752
908.000000	3.252675
909.000000	3.245692
910.000000	3.238170
911.000000	3.227264
912.000000	3.214303
913.000000	3.198397
914.000000	3.182503
915.000000	3.173067
916.000000	3.166107
917.000000	3.163361
918.000000	3.147770
919.000000	3.140466
920.000000	3.150255
921.000000	3.156272
922.000000	3.158178
923.000000	3.156407
924.000000	3.156801
925.000000	3.169534
926.000000	3.181757
927.000000	3.198091
928.000000	3.207747
929.000000	3.216905
930.000000	3.246753
931.000000	3.263751
932.000000	3.269609
933.000000	3.283452
934.000000	3.311208
935.000000	3.331032
936.000000	3.341419
937.000000	3.358655
938.000000	3.387205
939.000000	3.411511
940.000000	3.431078
941.000000	3.435265
942.000000	3.447824
943.000000	3.475298
944.000000	3.482393
945.000000	3.484582
946.000000	3.501079
947.000000	3.514133
948.000000	3.523620
949.000000	3.535582
950.000000	3.543076
951.000000	3.546500
952.000000	3.549589
953.000000	3.555266
954.000000	3.553454
955.000000	3.550489
956.000000	3.554240
957.000000	3.551050
958.000000	3.549321
959.000000	3.548253
960.000000	3.538169
961.000000	3.526095
962.000000	3.522384
963.000000	3.521347
964.000000	3.507767
965.000000	3.498462
966.000000	3.491506
967.000000	3.478755
968.000000	3.473286
969.000000	3.460770
970.000000	3.458700
971.000000	3.443918
972.000000	3.431880
973.000000	3.430213
974.000000	3.410664
975.000000	3.404059
976.000000	3.411385
977.000000	3.409699
978.000000	3.393174
979.000000	3.381839
980.000000	3.382684
981.000000	3.391078
982.000000	3.385509
983.000000	3.377803
984.000000	3.376738
985.000000	3.388191
986.000000	3.383020
987.000000	3.384042
988.000000	3.391222
989.000000	3.396645
990.000000	3.394053
991.000000	3.401208
992.000000	3.414873
993.000000	3.410028
994.000000	3.407698
995.000000	3.411271
996.000000	3.428048
997.000000	3.435904
998.000000	3.426938
999.000000	3.439267
1000.000000	3.451645
1001.000000	3.456593
1002.000000	3.455073
1003.000000	3.463851
1004.000000	3.472795
1005.000000	3.473115
1006.000000	3.475395
1007.000000	3.471656
1008.000000	3.496437
1009.000000	3.489352
1010.000000	3.489043
1011.000000	3.500802
1012.000000	3.508854
1013.000000	3.498608
1014.000000	3.503559
1015.000000	3.496465
1016.000000	3.497990
1017.000000	3.493812
1018.000000	3.481947
1019.000000	3.477058
1020.000000	3.469390
1021.000000	3.460377
1022.000000	3.453695
1023.000000	3.434955
1024.000000	3.432346
1025.000000	3.417875
1026.000000	3.417238
1027.000000	3.403593
1028.000000	3.391951
1029.000000	3.391890
1030.000000	3.382546
1031.000000	3.380035
1032.000000	3.375385
1033.000000	3.377314
1034.000000	3.362805
1035.000000	3.357965
1036.000000	3.355550
1037.000000	3.349466
1038.000000	3.338885
1039.000000	3.326855
1040.000000	3.331067
1041.000000	3.324703
1042.000000	3.316959
1043.000000	3.314318
1044.000000	3.312399
1045.000000	3.315265
1046.000000	3.309709
1047.000000	3.301643
1048.000000	3.287233
1049.000000	3.291050
1050.000000	3.291635
1051.000000	3.288538
1052.000000	3.284148
1053.000000	3.285335
1054.000000	3.289504
1055.000000	3.284340
1056.000000	3.274328
1057.000000	3.270327
1058.000000	3.268788
1059.000000	3.271051
1060.000000	3.267404
1061.000000	3.260918
1062.000000	3.259642
1063.000000	3.260664
1064.000000	3.261476
1065.000000	3.266539
1066.000000	3.257307
1067.000000	3.259201
1068.000000	3.276486
1069.000000	3.263176
1070.000000	3.255259
1071.000000	3.257808
1072.000000	3.263185
1073.000000	3.260058
1074.000000	3.254899
1075.000000	3.259874
1076.000000	3.253720
1077.000000	3.262151
1078.000000	3.259738
1079.000000	3.268429
1080.000000	3.264596
1081.000000	3.268322
1082.000000	3.251932
1083.000000	3.263147
1084.000000	3.262197
1085.000000	3.266597
1086.000000	3.267169
1087.000000	3.261435
1088.000000	3.252234
1089.000000	3.261706
1090.000000	3.252378
1091.000000	3.261069
1092.000000	3.259609
1093.000000	3.271745
1094.000000	3.269379
1095.000000	3.262559
1096.000000	3.270544
1097.000000	3.258431
1098.000000	3.274618
1099.000000	3.263540
1100.000000	3.276335
1101.000000	3.274012
1102.000000	3.271247
1103.000000	3.278221
1104.000000	3.265985
1105.000000	3.268633
1106.000000	3.267274
1107.000000	3.273240
1108.000000	3.270136
1109.000000	3.265629
1110.000000	3.275944
1111.000000	3.277245
1112.000000	3.278485
1113.000000	3.282250
1114.000000	3.284154
1115.000000	3.286356
1116.000000	3.284597
1117.000000	3.266076
1118.000000	3.280809
1119.000000	3.296006
1120.000000	3.290740
1121.000000	3.300248
1122.000000	3.299574
1123.000000	3.312305
1124.000000	3.321414
1125.000000	3.323945
1126.000000	3.325828
1127.000000	3.327798
1128.000000	3.340892
1129.000000	3.364651
1130.000000	3.387326
1131.000000	3.412283
1132.000000	3.425976
1133.000000	3.464514
1134.000000	3.499170
1135.000000	3.542263
1136.000000	3.582574
1137.000000	3.621044
1138.000000	3.659336
1139.000000	3.687084
1140.000000	3.733442
1141.000000	3.777061
1142.000000	3.820577
1143.000000	3.843209
1144.000000	3.884862
1145.000000	3.919727
1146.000000	3.937024
1147.000000	3.946422
1148.000000	3.940828
1149.000000	3.948477
1150.000000	3.948534
1151.000000	3.934893
1152.000000	3.938562
1153.000000	3.942249
1154.000000	3.952891
1155.000000	3.973954
1156.000000	3.990423
1157.000000	4.017086
1158.000000	4.043306
1159.000000	4.077950
1160.000000	4.119773
1161.000000	4.155660
1162.000000	4.194909
1163.000000	4.226698
1164.000000	4.267716
1165.000000	4.317277
1166.000000	4.348351
1167.000000	4.380439
1168.000000	4.421668
1169.000000	4.465020
1170.000000	4.500163
1171.000000	4.546761
1172.000000	4.590624
1173.000000	4.615940
1174.000000	4.657852
1175.000000	4.698124
1176.000000	4.733192
1177.000000	4.778738
1178.000000	4.828809
1179.000000	4.880124
1180.000000	4.936434
1181.000000	5.011930
1182.000000	5.077128
1183.000000	5.136709
1184.000000	5.181134
1185.000000	5.217693
1186.000000	5.224092
1187.000000	5.225565
1188.000000	5.215831
1189.000000	5.180221
1190.000000	5.134735
1191.000000	5.083621
1192.000000	5.031425
1193.000000	4.983297
1194.000000	4.949676
1195.000000	4.924967
1196.000000	4.904903
1197.000000	4.895905
1198.000000	4.884873
1199.000000	4.878981
1200.000000	4.881764
1201.000000	4.891210
1202.000000	4.897558
1203.000000	4.892062
1204.000000	4.897149
1205.000000	4.902277
1206.000000	4.895408
1207.000000	4.889725
1208.000000	4.891003
1209.000000	4.893827
1210.000000	4.879631
1211.000000	4.864472
1212.000000	4.851225
1213.000000	4.835825
1214.000000	4.822573
1215.000000	4.808181
1216.000000	4.793508
1217.000000	4.773179
1218.000000	4.761179
1219.000000	4.743287
1220.000000	4.725952
1221.000000	4.706125
1222.000000	4.683120
1223.000000	4.662315
1224.000000	4.635749
1225.000000	4.623502
1226.000000	4.596408
1227.000000	4.570554
1228.000000	4.547333
1229.000000	4.516725
1230.000000	4.496754
1231.000000	4.480032
1232.000000	4.461514
1233.000000	4.443309
1234.000000	4.415637
1235.000000	4.393026
1236.000000	4.381165
1237.000000	4.362301
1238.000000	4.345697
1239.000000	4.332338
1240.000000	4.307667
1241.000000	4.292216
1242.000000	4.284021
1243.000000	4.272776
1244.000000	4.253780
1245.000000	4.240345
1246.000000	4.231036
1247.000000	4.221108
1248.000000	4.218699
1249.000000	4.217454
1250.000000	4.209035
1251.000000	4.198338
1252.000000	4.182946
1253.000000	4.184455
1254.000000	4.175994
1255.000000	4.160145
1256.000000	4.158717
1257.000000	4.152124
1258.000000	4.137800
1259.000000	4.127380
1260.000000	4.123722
1261.000000	4.120892
1262.000000	4.101945
1263.000000	4.091426
1264.000000	4.096078
1265.000000	4.090500
1266.000000	4.083241
1267.000000	4.071956
1268.000000	4.064375
1269.000000	4.057436
1270.000000	4.055503
1271.000000	4.045580
1272.000000	4.042162
1273.000000	4.033796
1274.000000	4.022864
1275.000000	4.030536
1276.000000	4.024990
1277.000000	4.016487
1278.000000	4.009692
1279.000000	3.999385
1280.000000	3.999913
1281.000000	3.998979
1282.000000	3.988744
1283.000000	3.980075
1284.000000	3.982656
1285.000000	3.975557
1286.000000	3.980500
1287.000000	3.976453
1288.000000	3.975078
1289.000000	3.970904
1290.000000	3.964591
1291.000000	3.976367
1292.000000	3.978758
1293.000000	3.969317
1294.000000	3.970009
1295.000000	3.973577
1296.000000	3.976672
1297.000000	3.975462
1298.000000	3.984092
1299.000000	3.982220
1300.000000	3.981695
1301.000000	3.974484
1302.000000	3.979767
1303.000000	3.980611
1304.000000	3.984285
1305.000000	3.991377
1306.000000	3.992712
1307.000000	3.998083
1308.000000	4.007642
1309.000000	4.009064
1310.000000	4.019774
1311.000000	4.016473
1312.000000	4.031327
1313.000000	4.028051
1314.000000	4.034462
1315.000000	4.041168
1316.000000	4.050571
1317.000000	4.063334
1318.000000	4.066018
1319.000000	4.079635
1320.000000	4.092477
1321.000000	4.084763
1322.000000	4.099753
1323.000000	4.114537
1324.000000	4.128249
1325.000000	4.145246
1326.000000	4.153334
1327.000000	4.168567
1328.000000	4.177553
1329.000000	4.189284
1330.000000	4.199376
1331.000000	4.214909
1332.000000	4.230513
1333.000000	4.245870
1334.000000	4.265408
1335.000000	4.280400
1336.000000	4.291056
1337.000000	4.307901
1338.000000	4.323521
1339.000000	4.343357
1340.000000	4.360113
1341.000000	4.373721
1342.000000	4.410395
1343.000000	4.415165
1344.000000	4.427306
1345.000000	4.449124
1346.000000	4.480198
1347.000000	4.507697
1348.000000	4.526950
1349.000000	4.535587
1350.000000	4.576848
1351.000000	4.617941
1352.000000	4.625372
1353.000000	4.702174
1354.000000	4.765244
1355.000000	4.814096
1356.000000	4.832599
1357.000000	4.848647
1358.000000	4.857953
1359.000000	4.871537
1360.000000	4.875705
1361.000000	4.876210
1362.000000	4.864834
1363.000000	4.867224
1364.000000	4.882900
1365.000000	4.885839
1366.000000	4.907403
1367.000000	4.904926
1368.000000	4.941872
1369.000000	4.948291
1370.000000	4.970343
1371.000000	4.997380
1372.000000	5.030760
1373.000000	5.053720
1374.000000	5.049722
1375.000000	5.079696
1376.000000	5.090735
1377.000000	5.080587
1378.000000	5.091731
1379.000000	5.096175
1380.000000	5.096660
1381.000000	5.097041
1382.000000	5.129376
1383.000000	5.135052
1384.000000	5.175746
1385.000000	5.183639
1386.000000	5.202677
1387.000000	5.212908
1388.000000	5.215339
1389.000000	5.204887
1390.000000	5.224786
1391.000000	5.208175
1392.000000	5.198526
1393.000000	5.196204
1394.000000	5.185479
1395.000000	5.180376
1396.000000	5.150448
1397.000000	5.126644
1398.000000	5.127572
1399.000000	5.124707
1400.000000	5.111110
1401.000000	5.098223
1402.000000	5.107781
1403.000000	5.112507
1404.000000	5.096275
1405.000000	5.102197
1406.000000	5.113628
1407.000000	5.105926
1408.000000	5.094047
1409.000000	5.076217
1410.000000	5.072079
1411.000000	5.073417
1412.000000	5.071508
1413.000000	5.056610
1414.000000	5.040035
1415.000000	5.026577
1416.000000	5.015222
1417.000000	5.033231
1418.000000	5.046905
1419.000000	5.031503
1420.000000	5.019974
1421.000000	5.018321
1422.000000	5.020695
1423.000000	5.013963
1424.000000	5.015303
1425.000000	5.007996
1426.000000	5.002333
1427.000000	5.015112
1428.000000	5.002587
1429.000000	5.015475
1430.000000	5.003817
1431.000000	5.015144
1432.000000	5.009466
1433.000000	4.994695
1434.000000	5.006732
1435.000000	5.006751
1436.000000	4.998275
1437.000000	5.004742
1438.000000	5.000945
1439.000000	4.997075
1440.000000	4.996350
1441.000000	5.003945
1442.000000	4.996032
1443.000000	5.003598
1444.000000	5.027466
1445.000000	5.009673
1446.000000	5.003570
1447.000000	4.993486
1448.000000	5.014788
1449.000000	5.014951
1450.000000	5.011302
1451.000000	5.009369
1452.000000	5.008299
1453.000000	5.015891
1454.000000	5.005512
1455.000000	5.010055
1456.000000	5.012378
1457.000000	5.006966
1458.000000	5.012024
1459.000000	5.006222
1460.000000	5.008902
1461.000000	5.005027
1462.000000	4.996673
1463.000000	4.994518
1464.000000	4.994098
1465.000000	4.998523
1466.000000	4.994496
1467.000000	4.988260
1468.000000	4.986485
1469.000000	4.985572
1470.000000	4.981001
1471.000000	4.979716
1472.000000	4.974586
1473.000000	4.968977
1474.000000	4.971155
1475.000000	4.968497
1476.000000	4.976448
1477.000000	4.975128
1478.000000	4.969260
1479.000000	4.974998
1480.000000	4.981547
1481.000000	4.978486
1482.000000	4.985417
1483.000000	4.981692
1484.000000	4.982375
1485.000000	4.995013
1486.000000	5.001311
1487.000000	5.005588
1488.000000	5.007891
1489.000000	5.004487
1490.000000	5.000325
1491.000000	5.000294
1492.000000	5.014508
1493.000000	5.025529
1494.000000	5.027502
1495.000000	5.030643
1496.000000	5.028888
1497.000000	5.036053
1498.000000	5.047691
1499.000000	5.048555
1500.000000	5.050534
1501.000000	5.065167
1502.000000	5.066486
1503.000000	5.069951
1504.000000	5.084362
1505.000000	5.093714
1506.000000	5.095769
1507.000000	5.103721
1508.000000	5.120878
1509.000000	5.131297
1510.000000	5.139007
1511.000000	5.138380
1512.000000	5.142975
1513.000000	5.167991
1514.000000	5.175645
1515.000000	5.176205
1516.000000	5.185683
1517.000000	5.189017
1518.000000	5.186530
1519.000000	5.202987
1520.000000	5.214513
1521.000000	5.215245
1522.000000	5.233893
1523.000000	5.243021
1524.000000	5.247555
1525.000000	5.255698
1526.000000	5.262572
1527.000000	5.268303
1528.000000	5.271730
1529.000000	5.278536
1530.000000	5.288073
1531.000000	5.299373
1532.000000	5.303179
1533.000000	5.311324
1534.000000	5.319796
1535.000000	5.319523
1536.000000	5.322165
1537.000000	5.324610
1538.000000	5.337672
1539.000000	5.350090
1540.000000	5.349086
1541.000000	5.352774
1542.000000	5.367307
1543.000000	5.372722
1544.000000	5.379752
1545.000000	5.396459
1546.000000	5.411541
1547.000000	5.419606
1548.000000	5.431697
1549.000000	5.442697
1550.000000	5.456173
1551.000000	5.470615
1552.000000	5.476149
1553.000000	5.491234
1554.000000	5.502998
1555.000000	5.506896
1556.000000	5.516266
1557.000000	5.535780
1558.000000	5.558075
1559.000000	5.558268
1560.000000	5.560481
1561.000000	5.575763
1562.000000	5.587053
1563.000000	5.587407
1564.000000	5.591008
1565.000000	5.591608
1566.000000	5.607021
1567.000000	5.610046
1568.000000	5.604472
1569.000000	5.629494
1570.000000	5.624433
1571.000000	5.620288
1572.000000	5.633669
1573.000000	5.636683
1574.000000	5.626957
1575.000000	5.641727
1576.000000	5.660809
1577.000000	5.671028
1578.000000	5.673281
1579.000000	5.684258
1580.000000	5.692610
1581.000000	5.692325
1582.000000	5.709771
1583.000000	5.720888
1584.000000	5.726732
1585.000000	5.728610
1586.000000	5.746536
1587.000000	5.744454
1588.000000	5.756498
1589.000000	5.765057
1590.000000	5.780388
1591.000000	5.774837
1592.000000	5.783336
1593.000000	5.790845
1594.000000	5.800332
1595.000000	5.806633
1596.000000	5.813605
1597.000000	5.803340
1598.000000	5.811887
1599.000000	5.827742
1600.000000	5.829559
1601.000000	5.835559
1602.000000	5.839540
1603.000000	5.841485
1604.000000	5.851297
1605.000000	5.853222
1606.000000	5.859931
1607.000000	5.862184
1608.000000	5.874177
1609.000000	5.870590
1610.000000	5.889436
1611.000000	5.874176
1612.000000	5.893347
1613.000000	5.878708
1614.000000	5.874827
1615.000000	5.878429
1616.000000	5.872962
1617.000000	5.890151
1618.000000	5.885792
1619.000000	5.876599
1620.000000	5.875395
1621.000000	5.871196
1622.000000	5.874320
1623.000000	5.869563
1624.000000	5.873586
1625.000000	5.875276
1626.000000	5.870872
1627.000000	5.881687
1628.000000	5.871159
1629.000000	5.846613
1630.000000	5.864803
1631.000000	5.861686
1632.000000	5.860423
1633.000000	5.851761
1634.000000	5.848611
1635.000000	5.842877
1636.000000	5.833527
1637.000000	5.836884
1638.000000	5.839313
1639.000000	5.818439
1640.000000	5.827562
1641.000000	5.817515
1642.000000	5.815421
1643.000000	5.814390
1644.000000	5.802676
1645.000000	5.794898
1646.000000	5.783320
1647.000000	5.778369
1648.000000	5.778317
1649.000000	5.768893
1650.000000	5.774843
1651.000000	5.758960
1652.000000	5.763488
1653.000000	5.741720
1654.000000	5.753634
1655.000000	5.722569
1656.000000	5.731296
1657.000000	5.720255
1658.000000	5.711298
1659.000000	5.703093
1660.000000	5.694607
1661.000000	5.684471
1662.000000	5.678290
1663.000000	5.663688
1664.000000	5.651183
1665.000000	5.644070
1666.000000	5.631427
1667.000000	5.617565
1668.000000	5.612335
1669.000000	5.614746
1670.000000	5.597967
1671.000000	5.601505
1672.000000	5.608592
1673.000000	5.605593
1674.000000	5.624325
1675.000000	5.631020
1676.000000	5.658301
1677.000000	5.646574
1678.000000	5.692717
1679.000000	5.719928
1680.000000	5.742853
1681.000000	5.779864
1682.000000	5.785147
1683.000000	5.794832
1684.000000	5.783897
1685.000000	5.775590
1686.000000	5.757011
1687.000000	5.742840
1688.000000	5.746156
1689.000000	5.758667
1690.000000	5.770568
1691.000000	5.786978
1692.000000	5.813937
1693.000000	5.847799
1694.000000	5.860105
1695.000000	5.868896
1696.000000	5.880447
1697.000000	5.877487
1698.000000	5.855763
1699.000000	5.851516
1700.000000	5.850956
1701.000000	5.812527
1702.000000	5.804025
1703.000000	5.798160
1704.000000	5.777059
1705.000000	5.758956
1706.000000	5.759225
1707.000000	5.746642
1708.000000	5.719433
1709.000000	5.702215
1710.000000	5.691093
1711.000000	5.679429
1712.000000	5.653979
1713.000000	5.628024
1714.000000	5.609744
1715.000000	5.597438
1716.000000	5.581763
1717.000000	5.543116
1718.000000	5.520157
1719.000000	5.505748
1720.000000	5.476341
1721.000000	5.455303
1722.000000	5.456220
1723.000000	5.447611
1724.000000	5.441329
1725.000000	5.449659
1726.000000	5.456577
1727.000000	5.468647
1728.000000	5.477748
1729.000000	5.495881
1730.000000	5.522049
1731.000000	5.542528
1732.000000	5.553070
1733.000000	5.572641
1734.000000	5.582551
1735.000000	5.590994
1736.000000	5.587220
1737.000000	5.575212
1738.000000	5.575840
1739.000000	5.572912
1740.000000	5.569970
1741.000000	5.552625
1742.000000	5.538497
1743.000000	5.522385
1744.000000	5.521570
1745.000000	5.510244
1746.000000	5.499311
1747.000000	5.486307
1748.000000	5.487540
1749.000000	5.488592
1750.000000	5.485812
1751.000000	5.478281
1752.000000	5.474023
1753.000000	5.478003
1754.000000	5.478387
1755.000000	5.476037
1756.000000	5.480049
1757.000000	5.481456
1758.000000	5.490771
1759.000000	5.498310
1760.000000	5.505110
1761.000000	5.507630
1762.000000	5.522344
1763.000000	5.524287
1764.000000	5.525117
1765.000000	5.531301
1766.000000	5.524758
1767.000000	5.518754
1768.000000	5.520219
1769.000000	5.519012
1770.000000	5.517086
1771.000000	5.510516
1772.000000	5.497912
1773.000000	5.497837
1774.000000	5.490311
1775.000000	5.478810
1776.000000	5.477166
1777.000000	5.476103
1778.000000	5.464475
1779.000000	5.456466
1780.000000	5.463828
1781.000000	5.457612
1782.000000	5.444876
1783.000000	5.429068
1784.000000	5.432023
1785.000000	5.435554
1786.000000	5.425714
1787.000000	5.414164
1788.000000	5.404671
1789.000000	5.396754
1790.000000	5.389695
1791.000000	5.392592
1792.000000	5.386434
1793.000000	5.382961
1794.000000	5.383352
1795.000000	5.379630
1796.000000	5.370083
1797.000000	5.368175
1798.000000	5.371299
1799.000000	5.367837
1800.000000	5.369592
1801.000000	5.361458
1802.000000	5.358725
1803.000000	5.362052
1804.000000	5.359650
1805.000000	5.363111
1806.000000	5.360564
1807.000000	5.352184
1808.000000	5.355739
1809.000000	5.359971
1810.000000	5.357552
1811.000000	5.350619
1812.000000	5.351694
1813.000000	5.359243
1814.000000	5.360961
1815.000000	5.352774
1816.000000	5.346152
1817.000000	5.353472
1818.000000	5.363038
1819.000000	5.368558
1820.000000	5.353798
1821.000000	5.340771
1822.000000	5.333642
1823.000000	5.327750
1824.000000	5.330869
1825.000000	5.332217
1826.000000	5.320963
1827.000000	5.322441
1828.000000	5.317513
1829.000000	5.304297
1830.000000	5.298469
1831.000000	5.285803
1832.000000	5.278836
1833.000000	5.293114
1834.000000	5.308296
1835.000000	5.296333
1836.000000	5.274037
1837.000000	5.271704
1838.000000	5.274812
1839.000000	5.272620
1840.000000	5.266522
1841.000000	5.254004
1842.000000	5.242104
1843.000000	5.239407
1844.000000	5.255468
1845.000000	5.262254
1846.000000	5.258420
1847.000000	5.237966
1848.000000	5.223975
1849.000000	5.201413
1850.000000	5.188938
1851.000000	5.177308
1852.000000	5.174981
1853.000000	5.172919
1854.000000	5.154183
1855.000000	5.143806
1856.000000	5.135968
1857.000000	5.129384
1858.000000	5.110681
1859.000000	5.090739
1860.000000	5.068715
1861.000000	5.062848
1862.000000	5.063016
1863.000000	5.070377
1864.000000	5.072538
1865.000000	5.061203
1866.000000	5.059481
1867.000000	5.060741
1868.000000	5.051865
1869.000000	5.036530
1870.000000	5.020872
1871.000000	5.000531
1872.000000	4.989755
1873.000000	4.963646
1874.000000	4.963231
1875.000000	4.936267
1876.000000	4.927778
1877.000000	4.911747
1878.000000	4.889091
1879.000000	4.883106
1880.000000	4.864162
1881.000000	4.831111
1882.000000	4.797253
1883.000000	4.755476
1884.000000	4.709940
1885.000000	4.662075
1886.000000	4.604782
1887.000000	4.547754
1888.000000	4.458188
1889.000000	4.384891
1890.000000	4.321660
1891.000000	4.213298
1892.000000	4.122267
1893.000000	4.043050
1894.000000	3.968139
1895.000000	3.915856
1896.000000	3.853359
1897.000000	3.760310
1898.000000	3.693845
1899.000000	3.610416
1900.000000	3.522515
1901.000000	3.454762
1902.000000	3.390323
1903.000000	3.320403
1904.000000	3.248259
1905.000000	3.166921
1906.000000	3.084728
1907.000000	3.032174
1908.000000	3.001482
1909.000000	2.941906
1910.000000	2.909962
1911.000000	2.865718
1912.000000	2.797565
1913.000000	2.733570
1914.000000	2.676144
1915.000000	2.649688
1916.000000	2.628120
1917.000000	2.586861
1918.000000	2.558874
1919.000000	2.524284
1920.000000	2.491558
1921.000000	2.436269
1922.000000	2.392248
1923.000000	2.363402
1924.000000	2.354636
1925.000000	2.333546
1926.000000	2.317355
1927.000000	2.299866
1928.000000	2.282515
1929.000000	2.267405
1930.000000	2.225141
1931.000000	2.225493
1932.000000	2.229571
1933.000000	2.224397
1934.000000	2.215071
1935.000000	2.206889
1936.000000	2.225174
1937.000000	2.204035
1938.000000	2.221562
1939.000000	2.214939
1940.000000	2.222414
1941.000000	2.210211
1942.000000	2.221645
1943.000000	2.236631
1944.000000	2.262400
1945.000000	2.262068
1946.000000	2.260048
1947.000000	2.276953
1948.000000	2.299898
1949.000000	2.303514
1950.000000	2.328757
1951.000000	2.349168
1952.000000	2.356340
1953.000000	2.368132
1954.000000	2.386921
1955.000000	2.405634
1956.000000	2.428553
1957.000000	2.434813
1958.000000	2.454383
1959.000000	2.467703
1960.000000	2.496635
1961.000000	2.512663
1962.000000	2.523556
1963.000000	2.548293
1964.000000	2.555840
1965.000000	2.587665
1966.000000	2.607165
1967.000000	2.615014
1968.000000	2.633854
1969.000000	2.663972
1970.000000	2.677162
1971.000000	2.713095
1972.000000	2.724773
1973.000000	2.734850
1974.000000	2.750589
1975.000000	2.776207
1976.000000	2.796017
1977.000000	2.811929
1978.000000	2.839713
1979.000000	2.860580
1980.000000	2.880863
1981.000000	2.894804
1982.000000	2.909451
1983.000000	2.939999
1984.000000	2.958809
1985.000000	2.990150
1986.000000	2.976045
1987.000000	3.007178
1988.000000	3.030075
1989.000000	3.049681
1990.000000	3.067692
1991.000000	3.073187
1992.000000	3.096047
1993.000000	3.112291
1994.000000	3.129316
1995.000000	3.140936
1996.000000	3.161816
1997.000000	3.175933
1998.000000	3.187384
1999.000000	3.200515
2000.000000	3.219588
2001.000000	3.234705
2002.000000	3.239859
2003.000000	3.257622
2004.000000	3.260676
2005.000000	3.259777
2006.000000	3.270073
2007.000000	3.281945
2008.000000	3.284371
2009.000000	3.297653
2010.000000	3.307909
2011.000000	3.305449
2012.000000	3.307408
2013.000000	3.314315
2014.000000	3.320073
2015.000000	3.317901
2016.000000	3.309882
2017.000000	3.306031
2018.000000	3.307770
2019.000000	3.320259
2020.000000	3.319683
2021.000000	3.314005
2022.000000	3.308836
2023.000000	3.301400
2024.000000	3.292304
2025.000000	3.286986
2026.000000	3.286678
2027.000000	3.274911
2028.000000	3.275647
2029.000000	3.266113
2030.000000	3.247330
2031.000000	3.244226
2032.000000	3.226934
2033.000000	3.224077
2034.000000	3.201018
2035.000000	3.182104
2036.000000	3.175597
2037.000000	3.164127
2038.000000	3.138718
2039.000000	3.124561
2040.000000	3.102885
2041.000000	3.082363
2042.000000	3.065092
2043.000000	3.052862
2044.000000	3.030643
2045.000000	3.012719
2046.000000	3.002323
2047.000000	2.989846
2048.000000	2.977600
2049.000000	2.966525
2050.000000	2.964020
2051.000000	2.968918
2052.000000	2.963176
2053.000000	2.963233
2054.000000	2.958479
2055.000000	2.968538
2056.000000	2.994270
2057.000000	3.006010
2058.000000	3.010492
2059.000000	3.027422
2060.000000	3.044289
2061.000000	3.063200
2062.000000	3.085339
2063.000000	3.099332
2064.000000	3.124117
2065.000000	3.151905
2066.000000	3.169606
2067.000000	3.185322
2068.000000	3.198938
2069.000000	3.220504
2070.000000	3.244238
2071.000000	3.259601
2072.000000	3.281179
2073.000000	3.305421
2074.000000	3.314463
2075.000000	3.320359
2076.000000	3.335100
2077.000000	3.348425
2078.000000	3.372838
2079.000000	3.385822
2080.000000	3.386692
2081.000000	3.393571
2082.000000	3.396436
2083.000000	3.400983
2084.000000	3.410972
2085.000000	3.421824
2086.000000	3.414299
2087.000000	3.409605
2088.000000	3.426382
2089.000000	3.425772
2090.000000	3.426250
2091.000000	3.429292
2092.000000	3.421257
2093.000000	3.421992
2094.000000	3.428613
2095.000000	3.431486
2096.000000	3.438647
2097.000000	3.436147
2098.000000	3.435548
2099.000000	3.440460
2100.000000	3.448650
2101.000000	3.449450
2102.000000	3.445813
2103.000000	3.453303
2104.000000	3.461686
2105.000000	3.469883
2106.000000	3.468144
2107.000000	3.465967
2108.000000	3.468258
2109.000000	3.472500
2110.000000	3.476508
2111.000000	3.476175
2112.000000	3.467093
2113.000000	3.459693
2114.000000	3.470381
2115.000000	3.469256
2116.000000	3.464009
2117.000000	3.469739
2118.000000	3.461313
2119.000000	3.459419
2120.000000	3.466199
2121.000000	3.454853
2122.000000	3.439399
2123.000000	3.430468
2124.000000	3.422859
2125.000000	3.416778
2126.000000	3.420160
2127.000000	3.400911
2128.000000	3.392202
2129.000000	3.385202
2130.000000	3.376894
2131.000000	3.363480
2132.000000	3.350705
2133.000000	3.339937
2134.000000	3.324487
2135.000000	3.324876
2136.000000	3.303405
2137.000000	3.285084
2138.000000	3.269382
2139.000000	3.255231
2140.000000	3.237214
2141.000000	3.221240
2142.000000	3.212611
2143.000000	3.189837
2144.000000	3.177275
2145.000000	3.163137
2146.000000	3.135593
2147.000000	3.116065
2148.000000	3.108716
2149.000000	3.099648
2150.000000	3.073484
2151.000000	3.064473
2152.000000	3.049243
2153.000000	3.036746
2154.000000	3.023371
2155.000000	2.998236
2156.000000	2.988839
2157.000000	2.986835
2158.000000	2.972508
2159.000000	2.959457
2160.000000	2.944753
2161.000000	2.929281
2162.000000	2.923557
2163.000000	2.929162
2164.000000	2.911390
2165.000000	2.916018
2166.000000	2.903569
2167.000000	2.910412
2168.000000	2.899792
2169.000000	2.894436
2170.000000	2.888063
2171.000000	2.905046
2172.000000	2.913656
2173.000000	2.900819
2174.000000	2.895662
2175.000000	2.887983
2176.000000	2.901790
2177.000000	2.915508
2178.000000	2.930148
2179.000000	2.932007
2180.000000	2.927603
2181.000000	2.941367
2182.000000	2.942874
2183.000000	2.935810
2184.000000	2.944234
2185.000000	2.939620
2186.000000	2.933733
2187.000000	2.940697
2188.000000	2.947360
2189.000000	2.962281
2190.000000	2.961818
2191.000000	2.971715
2192.000000	2.978880
2193.000000	2.971967
2194.000000	2.985869
2195.000000	2.995539
2196.000000	2.989055
2197.000000	3.001001
2198.000000	3.007380
2199.000000	3.022083
2200.000000	3.026344
2201.000000	3.027613
2202.000000	3.039644
2203.000000	3.040326
2204.000000	3.050599
2205.000000	3.053685
2206.000000	3.076736
2207.000000	3.077466
2208.000000	3.074763
2209.000000	3.096641
2210.000000	3.113047
2211.000000	3.117838
2212.000000	3.115056
2213.000000	3.148666
2214.000000	3.156358
2215.000000	3.165135
2216.000000	3.181139
2217.000000	3.198131
2218.000000	3.208043
2219.000000	3.216180
2220.000000	3.237844
2221.000000	3.252175
2222.000000	3.263879
2223.000000	3.278312
2224.000000	3.300477
2225.000000	3.310940
2226.000000	3.301326
2227.000000	3.315603
2228.000000	3.324390
2229.000000	3.330660
2230.000000	3.331274
2231.000000	3.340699
2232.000000	3.331296
2233.000000	3.330942
2234.000000	3.323767
2235.000000	3.332294
2236.000000	3.328224
2237.000000	3.333816
2238.000000	3.299686
2239.000000	3.309096
2240.000000	3.290127
2241.000000	3.284153
2242.000000	3.274927
2243.000000	3.246327
2244.000000	3.229225
2245.000000	3.232712
2246.000000	3.193809
2247.000000	3.163735
2248.000000	3.134047
2249.000000	3.088918
2250.000000	3.058851
2251.000000	3.038268
2252.000000	3.001903
2253.000000	2.959711
2254.000000	2.929823
2255.000000	2.877808
2256.000000	2.845162
2257.000000	2.800142
2258.000000	2.749232
2259.000000	2.696761
2260.000000	2.681238
2261.000000	2.644774
2262.000000	2.592419
2263.000000	2.548871
2264.000000	2.529830
2265.000000	2.509590
2266.000000	2.486662
2267.000000	2.471451
2268.000000	2.467879
2269.000000	2.459309
2270.000000	2.447534
2271.000000	2.456195
2272.000000	2.453162
2273.000000	2.456658
2274.000000	2.465844
2275.000000	2.476832
2276.000000	2.481022
2277.000000	2.480004
2278.000000	2.496295
2279.000000	2.499976
2280.000000	2.507608
2281.000000	2.527392
2282.000000	2.527929
2283.000000	2.526901
2284.000000	2.532187
2285.000000	2.525760
2286.000000	2.529628
2287.000000	2.526704
2288.000000	2.526900
2289.000000	2.523834
2290.000000	2.511251
2291.000000	2.488840
2292.000000	2.463526
2293.000000	2.468643
2294.000000	2.445187
2295.000000	2.437255
2296.000000	2.415223
2297.000000	2.393953
2298.000000	2.379809
2299.000000	2.349766
2300.000000	2.339178
2301.000000	2.323815
2302.000000	2.339365
2303.000000	2.321721
2304.000000	2.323925
2305.000000	2.321842
2306.000000	2.323744
2307.000000	2.343464
2308.000000	2.359931
2309.000000	2.371687
2310.000000	2.390152
2311.000000	2.410622
2312.000000	2.440447
2313.000000	2.455289
2314.000000	2.482802
2315.000000	2.506464
2316.000000	2.529215
2317.000000	2.558342
2318.000000	2.579355
2319.000000	2.596293
2320.000000	2.619456
2321.000000	2.626352
2322.000000	2.638292
2323.000000	2.653345
2324.000000	2.659850
2325.000000	2.668622
2326.000000	2.677859
2327.000000	2.683128
2328.000000	2.679640
2329.000000	2.689114
2330.000000	2.697902
2331.000000	2.698448
2332.000000	2.694556
2333.000000	2.689460
2334.000000	2.688643
2335.000000	2.691090
2336.000000	2.690514
2337.000000	2.683079
2338.000000	2.680582
2339.000000	2.676342
2340.000000	2.667230
2341.000000	2.661853
2342.000000	2.658094
2343.000000	2.656653
2344.000000	2.658962
2345.000000	2.647604
2346.000000	2.646010
2347.000000	2.650016
2348.000000	2.640552
2349.000000	2.654488
2350.000000	2.662762
2351.000000	2.660815
2352.000000	2.666324
2353.000000	2.672412
2354.000000	2.674680
2355.000000	2.668253
2356.000000	2.686251
2357.000000	2.700083
2358.000000	2.691546
2359.000000	2.689232
2360.000000	2.704983
2361.000000	2.720893
2362.000000	2.719787
2363.000000	2.721103
2364.000000	2.717701
2365.000000	2.715775
2366.000000	2.724785
2367.000000	2.739298
2368.000000	2.741727
2369.000000	2.726571
2370.000000	2.733792
2371.000000	2.742123
2372.000000	2.749336
2373.000000	2.753094
2374.000000	2.743622
2375.000000	2.742450
2376.000000	2.763111
2377.000000	2.761116
2378.000000	2.755337
2379.000000	2.758122
2380.000000	2.752970
2381.000000	2.751838
2382.000000	2.753803
2383.000000	2.752855
2384.000000	2.758441
2385.000000	2.755315
2386.000000	2.745866
2387.000000	2.742618
2388.000000	2.738686
2389.000000	2.739048
2390.000000	2.728878
2391.000000	2.718501
2392.000000	2.718072
2393.000000	2.715028
2394.000000	2.709249
2395.000000	2.704155
2396.000000	2.702308
2397.000000	2.698070
2398.000000	2.689540
2399.000000	2.681769
2400.000000	2.665220
2401.000000	2.658225
2402.000000	2.652881
2403.000000	2.643947
2404.000000	2.634950
2405.000000	2.630124
2406.000000	2.620060
2407.000000	2.622959
2408.000000	2.620764
2409.000000	2.608846
2410.000000	2.591266
2411.000000	2.586627
2412.000000	2.573151
2413.000000	2.563983
2414.000000	2.557938
2415.000000	2.547233
2416.000000	2.531120
2417.000000	2.524074
2418.000000	2.506876
2419.000000	2.484346
2420.000000	2.481910
2421.000000	2.475581
2422.000000	2.456547
2423.000000	2.442655
2424.000000	2.432017
2425.000000	2.410400
2426.000000	2.396457
2427.000000	2.389671
2428.000000	2.380434
2429.000000	2.355871
2430.000000	2.318313
2431.000000	2.304481
2432.000000	2.278769
2433.000000	2.265659
2434.000000	2.262137
2435.000000	2.242603
2436.000000	2.219243
2437.000000	2.188029
2438.000000	2.166727
2439.000000	2.152499
2440.000000	2.132017
2441.000000	2.099545
2442.000000	2.067007
2443.000000	2.048164
2444.000000	2.043447
2445.000000	2.026370
2446.000000	1.995089
2447.000000	1.987145
2448.000000	1.947028
2449.000000	1.931972
2450.000000	1.919309
2451.000000	1.881153
2452.000000	1.843786
2453.000000	1.827220
2454.000000	1.827646
2455.000000	1.800395
2456.000000	1.767839
2457.000000	1.755099
2458.000000	1.735642
2459.000000	1.743022
2460.000000	1.722920
2461.000000	1.679555
2462.000000	1.678389
2463.000000	1.673158
2464.000000	1.672853
2465.000000	1.664606
2466.000000	1.674405
2467.000000	1.638733
2468.000000	1.605993
2469.000000	1.619009
2470.000000	1.625187
2471.000000	1.655736
2472.000000	1.632982
2473.000000	1.571837
2474.000000	1.583816
2475.000000	1.617443
2476.000000	1.596065
2477.000000	1.580585
2478.000000	1.545073
2479.000000	1.591802
2480.000000	1.582811
2481.000000	1.554457
2482.000000	1.512983
2483.000000	1.542362
2484.000000	1.564487
2485.000000	1.567910
2486.000000	1.562106
2487.000000	1.550407
2488.000000	1.542889
2489.000000	1.569950
2490.000000	1.510717
2491.000000	1.479758
2492.000000	1.501153
2493.000000	1.529912
2494.000000	1.562888
2495.000000	1.513263
2496.000000	1.593622
2497.000000	1.598057
2498.000000	1.500609
2499.000000	1.622963
2500.000000	1.574479
