PE UV       SUBTECH     SPECTRUM    ASCII       PEDS        4.00        
   -1
CICIMAUCR0225-1.ASC
24/05/30
14:22:50.00
24/05/30
14:22:50.00
Vinicio Soto Monge
C. resplendens, F Ventral
250,000000
1
Lambda 1050
1050L1511233
PerkinElmer UV WinLab 6.3.2.0749 / 2.02.05 Lambda 900 UV/VIS/NIR, Aug  7 2015 09:38:08

0
0
3350/servo 860,8/2
0
0
UV/VIS
1
1
1
DoubleDePol,CommonBeamDepol,RBeamAtt,SBeamAtt,60mm sphere, WB InGaAs Detector
0
0
0
0
Program
Program
3350/servo 860,8/2
3350/0,2 860,8/0,2
3350/0,2 860,8/0,2
0
15.00
 
 
 
0
 
860,8
319,2
860,8
Front
100
on
S:100 R:100
0
0
0
0
 
0
 
 
 
0
 
 
0
0
0
0
0
 
 
 
 
0
0


0
0
#HDR
-1
-1
#GR
nm
%R
1.0
0.0
2500,000000
-1,000000
2251
8
50,965100
3,714600
#DATA
2500.000000	4.989565
2499.000000	4.959521
2498.000000	4.882498
2497.000000	4.868077
2496.000000	4.770732
2495.000000	4.977875
2494.000000	4.862942
2493.000000	4.786028
2492.000000	4.937233
2491.000000	4.905769
2490.000000	4.817711
2489.000000	4.912652
2488.000000	4.873430
2487.000000	4.767783
2486.000000	4.832351
2485.000000	4.807004
2484.000000	4.733368
2483.000000	4.866219
2482.000000	4.844041
2481.000000	4.720149
2480.000000	4.742764
2479.000000	4.758278
2478.000000	4.714795
2477.000000	4.834317
2476.000000	4.707147
2475.000000	4.732276
2474.000000	4.703979
2473.000000	4.734570
2472.000000	4.680053
2471.000000	4.691634
2470.000000	4.682347
2469.000000	4.652084
2468.000000	4.670329
2467.000000	4.643562
2466.000000	4.649244
2465.000000	4.671750
2464.000000	4.661589
2463.000000	4.649353
2462.000000	4.665085
2461.000000	4.669565
2460.000000	4.677431
2459.000000	4.655580
2458.000000	4.681145
2457.000000	4.642907
2456.000000	4.687263
2455.000000	4.700920
2454.000000	4.691415
2453.000000	4.709770
2452.000000	4.726704
2451.000000	4.731402
2450.000000	4.713812
2449.000000	4.698626
2448.000000	4.722661
2447.000000	4.745714
2446.000000	4.766362
2445.000000	4.768329
2444.000000	4.803727
2443.000000	4.805912
2442.000000	4.803508
2441.000000	4.827107
2440.000000	4.821098
2439.000000	4.833334
2438.000000	4.859227
2437.000000	4.862832
2436.000000	4.877581
2435.000000	4.875943
2434.000000	4.857261
2433.000000	4.890583
2432.000000	4.911231
2431.000000	4.916803
2430.000000	4.927073
2429.000000	4.934284
2428.000000	4.941494
2427.000000	4.952201
2426.000000	4.969791
2425.000000	4.962143
2424.000000	4.968807
2423.000000	4.996667
2422.000000	5.009122
2421.000000	4.996011
2420.000000	4.987380
2419.000000	4.986506
2418.000000	5.006609
2417.000000	5.007592
2416.000000	5.015349
2415.000000	5.042881
2414.000000	5.051184
2413.000000	5.054243
2412.000000	5.043427
2411.000000	5.027476
2410.000000	5.024526
2409.000000	5.042007
2408.000000	5.059269
2407.000000	5.061017
2406.000000	5.080027
2405.000000	5.095759
2404.000000	5.089204
2403.000000	5.082430
2402.000000	5.074892
2401.000000	5.077295
2400.000000	5.103297
2399.000000	5.108323
2398.000000	5.118265
2397.000000	5.138586
2396.000000	5.153116
2395.000000	5.156940
2394.000000	5.165462
2393.000000	5.183489
2392.000000	5.177480
2391.000000	5.170269
2390.000000	5.170378
2389.000000	5.194851
2388.000000	5.198129
2387.000000	5.189935
2386.000000	5.196490
2385.000000	5.203373
2384.000000	5.203700
2383.000000	5.204356
2382.000000	5.216920
2381.000000	5.219542
2380.000000	5.210365
2379.000000	5.211457
2378.000000	5.215500
2377.000000	5.218340
2376.000000	5.201078
2375.000000	5.188624
2374.000000	5.179774
2373.000000	5.197036
2372.000000	5.200532
2371.000000	5.189388
2370.000000	5.183707
2369.000000	5.175295
2368.000000	5.176497
2367.000000	5.169177
2366.000000	5.163277
2365.000000	5.155848
2364.000000	5.142956
2363.000000	5.143393
2362.000000	5.134762
2361.000000	5.123291
2360.000000	5.119576
2359.000000	5.094776
2358.000000	5.086254
2357.000000	5.074673
2356.000000	5.061017
2355.000000	5.061781
2354.000000	5.053697
2353.000000	5.047032
2352.000000	5.036544
2351.000000	5.032065
2350.000000	5.035233
2349.000000	5.038838
2348.000000	5.029661
2347.000000	5.036544
2346.000000	5.046923
2345.000000	5.040477
2344.000000	5.047906
2343.000000	5.059596
2342.000000	5.072816
2341.000000	5.071723
2340.000000	5.084943
2339.000000	5.083850
2338.000000	5.086909
2337.000000	5.103953
2336.000000	5.113349
2335.000000	5.123837
2334.000000	5.116954
2333.000000	5.098381
2332.000000	5.097179
2331.000000	5.120559
2330.000000	5.128316
2329.000000	5.106684
2328.000000	5.090733
2327.000000	5.085052
2326.000000	5.084397
2325.000000	5.063639
2324.000000	5.049982
2323.000000	5.043645
2322.000000	5.027039
2321.000000	5.005953
2320.000000	4.996230
2319.000000	4.985414
2318.000000	4.959630
2317.000000	4.941822
2316.000000	4.907517
2315.000000	4.865236
2314.000000	4.844806
2313.000000	4.836503
2312.000000	4.813013
2311.000000	4.773573
2310.000000	4.761664
2309.000000	4.761664
2308.000000	4.733477
2307.000000	4.711955
2306.000000	4.709005
2305.000000	4.716325
2304.000000	4.692835
2303.000000	4.695130
2302.000000	4.710534
2301.000000	4.719930
2300.000000	4.726048
2299.000000	4.750302
2298.000000	4.759698
2297.000000	4.767783
2296.000000	4.788650
2295.000000	4.796188
2294.000000	4.808097
2293.000000	4.820333
2292.000000	4.838797
2291.000000	4.864034
2290.000000	4.881187
2289.000000	4.861740
2288.000000	4.862505
2287.000000	4.867640
2286.000000	4.864799
2285.000000	4.871026
2284.000000	4.885557
2283.000000	4.879657
2282.000000	4.872884
2281.000000	4.876161
2280.000000	4.865891
2279.000000	4.870371
2278.000000	4.860538
2277.000000	4.867312
2276.000000	4.850924
2275.000000	4.860210
2274.000000	4.864471
2273.000000	4.852890
2272.000000	4.872447
2271.000000	4.872774
2270.000000	4.860538
2269.000000	4.866765
2268.000000	4.895827
2267.000000	4.907407
2266.000000	4.919971
2265.000000	4.953294
2264.000000	4.960067
2263.000000	4.998852
2262.000000	5.050965
2261.000000	5.059050
2260.000000	5.115315
2259.000000	5.161638
2258.000000	5.203482
2257.000000	5.234182
2256.000000	5.297548
2255.000000	5.369218
2254.000000	5.431383
2253.000000	5.486118
2252.000000	5.539652
2251.000000	5.574176
2250.000000	5.637542
2249.000000	5.684412
2248.000000	5.735651
2247.000000	5.799018
2246.000000	5.850039
2245.000000	5.889151
2244.000000	5.924658
2243.000000	5.984529
2242.000000	6.018725
2241.000000	6.047677
2240.000000	6.066031
2239.000000	6.115850
2238.000000	6.152231
2237.000000	6.186100
2236.000000	6.198882
2235.000000	6.229036
2234.000000	6.261375
2233.000000	6.260391
2232.000000	6.260938
2231.000000	6.297537
2230.000000	6.332061
2229.000000	6.339490
2228.000000	6.339709
2227.000000	6.322228
2226.000000	6.348449
2225.000000	6.336977
2224.000000	6.352819
2223.000000	6.340911
2222.000000	6.347684
2221.000000	6.342768
2220.000000	6.338070
2219.000000	6.312833
2218.000000	6.320043
2217.000000	6.326380
2216.000000	6.301798
2215.000000	6.293276
2214.000000	6.293823
2213.000000	6.318623
2212.000000	6.282679
2211.000000	6.260501
2210.000000	6.291091
2209.000000	6.281149
2208.000000	6.268804
2207.000000	6.268258
2206.000000	6.258316
2205.000000	6.247937
2204.000000	6.224447
2203.000000	6.243785
2202.000000	6.255584
2201.000000	6.219312
2200.000000	6.215379
2199.000000	6.209480
2198.000000	6.225431
2197.000000	6.178780
2196.000000	6.218001
2195.000000	6.222699
2194.000000	6.217783
2193.000000	6.191999
2192.000000	6.189159
2191.000000	6.197462
2190.000000	6.191125
2189.000000	6.198008
2188.000000	6.173973
2187.000000	6.160862
2186.000000	6.182057
2185.000000	6.190142
2184.000000	6.168182
2183.000000	6.184352
2182.000000	6.175174
2181.000000	6.159114
2180.000000	6.147533
2179.000000	6.156820
2178.000000	6.158677
2177.000000	6.150702
2176.000000	6.148189
2175.000000	6.152341
2174.000000	6.137701
2173.000000	6.151357
2172.000000	6.152341
2171.000000	6.181293
2170.000000	6.178233
2169.000000	6.171132
2168.000000	6.160862
2167.000000	6.175939
2166.000000	6.168619
2165.000000	6.192546
2164.000000	6.206093
2163.000000	6.218985
2162.000000	6.228271
2161.000000	6.235700
2160.000000	6.230128
2159.000000	6.239196
2158.000000	6.272081
2157.000000	6.281914
2156.000000	6.312505
2155.000000	6.320590
2154.000000	6.317093
2153.000000	6.331406
2152.000000	6.371283
2151.000000	6.362324
2150.000000	6.370081
2149.000000	6.398924
2148.000000	6.403949
2147.000000	6.426674
2146.000000	6.436179
2145.000000	6.450928
2144.000000	6.472341
2143.000000	6.484796
2142.000000	6.483376
2141.000000	6.494410
2140.000000	6.515168
2139.000000	6.512656
2138.000000	6.524564
2137.000000	6.533960
2136.000000	6.535380
2135.000000	6.551113
2134.000000	6.547835
2133.000000	6.561601
2132.000000	6.571215
2131.000000	6.565425
2130.000000	6.565425
2129.000000	6.571761
2128.000000	6.584216
2127.000000	6.578644
2126.000000	6.572308
2125.000000	6.571215
2124.000000	6.560617
2123.000000	6.563130
2122.000000	6.551003
2121.000000	6.532867
2120.000000	6.552970
2119.000000	6.551768
2118.000000	6.533632
2117.000000	6.521396
2116.000000	6.502167
2115.000000	6.494629
2114.000000	6.500201
2113.000000	6.485998
2112.000000	6.477804
2111.000000	6.471358
2110.000000	6.449835
2109.000000	6.448087
2108.000000	6.438036
2107.000000	6.429733
2106.000000	6.424380
2105.000000	6.423506
2104.000000	6.406134
2103.000000	6.384612
2102.000000	6.381990
2101.000000	6.383956
2100.000000	6.368114
2099.000000	6.348012
2098.000000	6.336977
2097.000000	6.325287
2096.000000	6.332498
2095.000000	6.333481
2094.000000	6.320371
2093.000000	6.321136
2092.000000	6.312942
2091.000000	6.308244
2090.000000	6.289999
2089.000000	6.281149
2088.000000	6.296991
2087.000000	6.285192
2086.000000	6.288797
2085.000000	6.286721
2084.000000	6.255475
2083.000000	6.243348
2082.000000	6.248592
2081.000000	6.245096
2080.000000	6.240070
2079.000000	6.227179
2078.000000	6.199975
2077.000000	6.206530
2076.000000	6.194512
2075.000000	6.178452
2074.000000	6.182713
2073.000000	6.172771
2072.000000	6.155946
2071.000000	6.125901
2070.000000	6.099899
2069.000000	6.103505
2068.000000	6.095529
2067.000000	6.062753
2066.000000	6.046912
2065.000000	6.045601
2064.000000	6.012497
2063.000000	6.010968
2062.000000	6.009110
2061.000000	5.981907
2060.000000	5.953719
2059.000000	5.939080
2058.000000	5.942029
2057.000000	5.935802
2056.000000	5.930230
2055.000000	5.924221
2054.000000	5.937659
2053.000000	5.936348
2052.000000	5.938424
2051.000000	5.946946
2050.000000	5.972511
2049.000000	5.992176
2048.000000	6.006707
2047.000000	6.022221
2046.000000	6.050517
2045.000000	6.080889
2044.000000	6.098261
2043.000000	6.119346
2042.000000	6.157038
2041.000000	6.174956
2040.000000	6.196479
2039.000000	6.230893
2038.000000	6.274813
2037.000000	6.296773
2036.000000	6.331406
2035.000000	6.369207
2034.000000	6.391713
2033.000000	6.395974
2032.000000	6.418698
2031.000000	6.435523
2030.000000	6.456609
2029.000000	6.477258
2028.000000	6.496814
2027.000000	6.525110
2026.000000	6.537674
2025.000000	6.534397
2024.000000	6.554172
2023.000000	6.564114
2022.000000	6.568374
2021.000000	6.570778
2020.000000	6.574820
2019.000000	6.605957
2018.000000	6.605520
2017.000000	6.612185
2016.000000	6.613605
2015.000000	6.615790
2014.000000	6.599184
2013.000000	6.615790
2012.000000	6.609453
2011.000000	6.612512
2010.000000	6.616227
2009.000000	6.597654
2008.000000	6.597763
2007.000000	6.588695
2006.000000	6.594814
2005.000000	6.571215
2004.000000	6.560945
2003.000000	6.547398
2002.000000	6.558214
2001.000000	6.517790
2000.000000	6.517353
1999.000000	6.506974
1998.000000	6.490477
1997.000000	6.471904
1996.000000	6.434322
1995.000000	6.416732
1994.000000	6.401655
1993.000000	6.412471
1992.000000	6.375653
1991.000000	6.336650
1990.000000	6.310101
1989.000000	6.279183
1988.000000	6.278090
1987.000000	6.250886
1986.000000	6.228380
1985.000000	6.213413
1984.000000	6.189705
1983.000000	6.163266
1982.000000	6.142945
1981.000000	6.110606
1980.000000	6.090722
1979.000000	6.065376
1978.000000	6.038281
1977.000000	6.020254
1976.000000	5.993487
1975.000000	5.958636
1974.000000	5.944651
1973.000000	5.947820
1972.000000	5.901060
1971.000000	5.889916
1970.000000	5.860090
1969.000000	5.832340
1968.000000	5.818246
1967.000000	5.810162
1966.000000	5.775419
1965.000000	5.748871
1964.000000	5.738383
1963.000000	5.734559
1962.000000	5.723524
1961.000000	5.703312
1960.000000	5.670755
1959.000000	5.681680
1958.000000	5.649997
1957.000000	5.634483
1956.000000	5.615255
1955.000000	5.596026
1954.000000	5.576579
1953.000000	5.555712
1952.000000	5.544568
1951.000000	5.551451
1950.000000	5.548611
1949.000000	5.523592
1948.000000	5.486992
1947.000000	5.479017
1946.000000	5.476723
1945.000000	5.464268
1944.000000	5.467327
1943.000000	5.475958
1942.000000	5.464814
1941.000000	5.457385
1940.000000	5.457057
1939.000000	5.429963
1938.000000	5.458368
1937.000000	5.468529
1936.000000	5.461209
1935.000000	5.439905
1934.000000	5.463503
1933.000000	5.458150
1932.000000	5.484043
1931.000000	5.477924
1930.000000	5.505893
1929.000000	5.508406
1928.000000	5.549485
1927.000000	5.551998
1926.000000	5.569587
1925.000000	5.601380
1924.000000	5.628584
1923.000000	5.639072
1922.000000	5.683538
1921.000000	5.735433
1920.000000	5.760670
1919.000000	5.786344
1918.000000	5.820759
1917.000000	5.854955
1916.000000	5.887294
1915.000000	5.930449
1914.000000	5.997639
1913.000000	6.016212
1912.000000	6.084495
1911.000000	6.149282
1910.000000	6.174628
1909.000000	6.229582
1908.000000	6.311631
1907.000000	6.358937
1906.000000	6.418480
1905.000000	6.519866
1904.000000	6.606831
1903.000000	6.705923
1902.000000	6.782182
1901.000000	6.856364
1900.000000	6.946607
1899.000000	7.059793
1898.000000	7.176693
1897.000000	7.252733
1896.000000	7.363187
1895.000000	7.458018
1894.000000	7.557438
1893.000000	7.686575
1892.000000	7.837889
1891.000000	7.984725
1890.000000	8.128174
1889.000000	8.285279
1888.000000	8.439434
1887.000000	8.612162
1886.000000	8.811439
1885.000000	9.011044
1884.000000	9.242550
1883.000000	9.525951
1882.000000	9.817328
1881.000000	10.110015
1880.000000	10.401173
1879.000000	10.695500
1878.000000	10.981195
1877.000000	11.282623
1876.000000	11.619340
1875.000000	11.926012
1874.000000	12.226238
1873.000000	12.536734
1872.000000	12.828657
1871.000000	13.081249
1870.000000	13.320839
1869.000000	13.520335
1868.000000	13.738294
1867.000000	13.924132
1866.000000	14.052285
1865.000000	14.178254
1864.000000	14.288162
1863.000000	14.387800
1862.000000	14.493447
1861.000000	14.590464
1860.000000	14.692833
1859.000000	14.768436
1858.000000	14.851687
1857.000000	14.901397
1856.000000	14.934500
1855.000000	14.965746
1854.000000	14.988143
1853.000000	14.995026
1852.000000	14.969461
1851.000000	14.957880
1850.000000	14.953182
1849.000000	14.946846
1848.000000	14.954166
1847.000000	14.937887
1846.000000	14.883807
1845.000000	14.832240
1844.000000	14.814869
1843.000000	14.779798
1842.000000	14.768764
1841.000000	14.783732
1840.000000	14.749863
1839.000000	14.722987
1838.000000	14.695455
1837.000000	14.658965
1836.000000	14.628593
1835.000000	14.589043
1834.000000	14.531358
1833.000000	14.481430
1832.000000	14.421778
1831.000000	14.370866
1830.000000	14.338637
1829.000000	14.281279
1828.000000	14.235611
1827.000000	14.164706
1826.000000	14.099155
1825.000000	14.046386
1824.000000	13.996348
1823.000000	13.957017
1822.000000	13.947840
1821.000000	13.950462
1820.000000	13.915938
1819.000000	13.876717
1818.000000	13.839352
1817.000000	13.826460
1816.000000	13.820124
1815.000000	13.810073
1814.000000	13.800458
1813.000000	13.792264
1812.000000	13.788003
1811.000000	13.769977
1810.000000	13.730974
1809.000000	13.700274
1808.000000	13.687600
1807.000000	13.655043
1806.000000	13.612762
1805.000000	13.583920
1804.000000	13.547211
1803.000000	13.509628
1802.000000	13.472810
1801.000000	13.431731
1800.000000	13.386719
1799.000000	13.344766
1798.000000	13.311662
1797.000000	13.274407
1796.000000	13.234748
1795.000000	13.192905
1794.000000	13.153683
1793.000000	13.125277
1792.000000	13.088459
1791.000000	13.051641
1790.000000	13.004772
1789.000000	12.956373
1788.000000	12.919445
1787.000000	12.881535
1786.000000	12.833791
1785.000000	12.766492
1784.000000	12.713177
1783.000000	12.669039
1782.000000	12.612555
1781.000000	12.555197
1780.000000	12.506361
1779.000000	12.440373
1778.000000	12.379956
1777.000000	12.318993
1776.000000	12.247979
1775.000000	12.177511
1774.000000	12.101581
1773.000000	12.012212
1772.000000	11.929289
1771.000000	11.850300
1770.000000	11.756452
1769.000000	11.672327
1768.000000	11.594867
1767.000000	11.503860
1766.000000	11.438417
1765.000000	11.396683
1764.000000	11.347192
1763.000000	11.303163
1762.000000	11.287758
1761.000000	11.297591
1760.000000	11.325669
1759.000000	11.378219
1758.000000	11.417113
1757.000000	11.447267
1756.000000	11.481463
1755.000000	11.517626
1754.000000	11.542863
1753.000000	11.573235
1752.000000	11.600548
1751.000000	11.589295
1750.000000	11.575420
1749.000000	11.557066
1748.000000	11.511507
1747.000000	11.476110
1746.000000	11.433501
1745.000000	11.360083
1744.000000	11.284808
1743.000000	11.184296
1742.000000	11.086187
1741.000000	10.957815
1740.000000	10.824855
1739.000000	10.669716
1738.000000	10.542219
1737.000000	10.413628
1736.000000	10.288862
1735.000000	10.196543
1734.000000	10.133177
1733.000000	10.091333
1732.000000	10.089257
1731.000000	10.105427
1730.000000	10.133177
1729.000000	10.198728
1728.000000	10.262313
1727.000000	10.308746
1726.000000	10.372003
1725.000000	10.439630
1724.000000	10.480491
1723.000000	10.532058
1722.000000	10.548009
1721.000000	10.574994
1720.000000	10.594878
1719.000000	10.630932
1718.000000	10.651471
1717.000000	10.671355
1716.000000	10.710468
1715.000000	10.768808
1714.000000	10.805845
1713.000000	10.855555
1712.000000	10.894667
1711.000000	10.944705
1710.000000	10.959454
1709.000000	10.975405
1708.000000	10.996709
1707.000000	10.983708
1706.000000	10.955740
1705.000000	10.952899
1704.000000	10.911055
1703.000000	10.876641
1702.000000	10.854572
1701.000000	10.764001
1700.000000	10.673977
1699.000000	10.592584
1698.000000	10.514031
1697.000000	10.412864
1696.000000	10.363044
1695.000000	10.320654
1694.000000	10.302628
1693.000000	10.321747
1692.000000	10.368179
1691.000000	10.473717
1690.000000	10.558606
1689.000000	10.658682
1688.000000	10.721502
1687.000000	10.775254
1686.000000	10.819174
1685.000000	10.818300
1684.000000	10.865934
1683.000000	10.927771
1682.000000	11.073623
1681.000000	11.279673
1680.000000	11.552259
1679.000000	11.896295
1678.000000	12.285453
1677.000000	12.641179
1676.000000	13.013949
1675.000000	13.351212
1674.000000	13.672305
1673.000000	13.960623
1672.000000	14.219660
1671.000000	14.397305
1670.000000	14.569159
1669.000000	14.744073
1668.000000	14.875941
1667.000000	15.053585
1666.000000	15.138912
1665.000000	15.227843
1664.000000	15.310657
1663.000000	15.382436
1662.000000	15.478796
1661.000000	15.511791
1660.000000	15.569695
1659.000000	15.605857
1658.000000	15.651416
1657.000000	15.684519
1656.000000	15.689982
1655.000000	15.715547
1654.000000	15.712160
1653.000000	15.719917
1652.000000	15.693806
1651.000000	15.700579
1650.000000	15.677745
1649.000000	15.621808
1648.000000	15.605202
1647.000000	15.592201
1646.000000	15.551668
1645.000000	15.502504
1644.000000	15.450719
1643.000000	15.414665
1642.000000	15.389428
1641.000000	15.329667
1640.000000	15.261712
1639.000000	15.234398
1638.000000	15.172780
1637.000000	15.134979
1636.000000	15.092370
1635.000000	15.000816
1634.000000	14.963452
1633.000000	14.905876
1632.000000	14.849065
1631.000000	14.770621
1630.000000	14.702229
1629.000000	14.650116
1628.000000	14.579866
1627.000000	14.533762
1626.000000	14.438166
1625.000000	14.371303
1624.000000	14.325417
1623.000000	14.256260
1622.000000	14.190381
1621.000000	14.121989
1620.000000	14.051084
1619.000000	14.010223
1618.000000	13.933200
1617.000000	13.884146
1616.000000	13.828645
1615.000000	13.787020
1614.000000	13.718519
1613.000000	13.685743
1612.000000	13.631445
1611.000000	13.570591
1610.000000	13.506023
1609.000000	13.429655
1608.000000	13.386828
1607.000000	13.354489
1606.000000	13.291014
1605.000000	13.223058
1604.000000	13.170180
1603.000000	13.124076
1602.000000	13.082450
1601.000000	13.025202
1600.000000	12.958339
1599.000000	12.913000
1598.000000	12.862306
1597.000000	12.800251
1596.000000	12.752726
1595.000000	12.725413
1594.000000	12.677888
1593.000000	12.638339
1592.000000	12.596932
1591.000000	12.542852
1590.000000	12.510950
1589.000000	12.466375
1588.000000	12.427809
1587.000000	12.413934
1586.000000	12.364989
1585.000000	12.334507
1584.000000	12.335381
1583.000000	12.290697
1582.000000	12.259778
1581.000000	12.233339
1580.000000	12.199034
1579.000000	12.171502
1578.000000	12.171393
1577.000000	12.154677
1576.000000	12.143206
1575.000000	12.141239
1574.000000	12.142987
1573.000000	12.138727
1572.000000	12.121355
1571.000000	12.125398
1570.000000	12.130096
1569.000000	12.142878
1568.000000	12.141786
1567.000000	12.142441
1566.000000	12.153585
1565.000000	12.172049
1564.000000	12.170956
1563.000000	12.187999
1562.000000	12.186907
1561.000000	12.195756
1560.000000	12.202639
1559.000000	12.205261
1558.000000	12.226893
1557.000000	12.224271
1556.000000	12.204715
1555.000000	12.199362
1554.000000	12.195756
1553.000000	12.183957
1552.000000	12.171939
1551.000000	12.155005
1550.000000	12.139819
1549.000000	12.127255
1548.000000	12.105514
1547.000000	12.097648
1546.000000	12.089781
1545.000000	12.063779
1544.000000	12.052636
1543.000000	12.042584
1542.000000	12.035811
1541.000000	12.014616
1540.000000	12.004783
1539.000000	12.010683
1538.000000	12.006531
1537.000000	11.985664
1536.000000	11.968402
1535.000000	11.952560
1534.000000	11.954090
1533.000000	11.942946
1532.000000	11.918692
1531.000000	11.900337
1530.000000	11.892908
1529.000000	11.875100
1528.000000	11.843417
1527.000000	11.811078
1526.000000	11.801245
1525.000000	11.779067
1524.000000	11.751098
1523.000000	11.722583
1522.000000	11.698657
1521.000000	11.676697
1520.000000	11.644140
1519.000000	11.622290
1518.000000	11.600985
1517.000000	11.570613
1516.000000	11.539367
1515.000000	11.518390
1514.000000	11.488674
1513.000000	11.450545
1512.000000	11.420828
1511.000000	11.390456
1510.000000	11.356587
1509.000000	11.326324
1508.000000	11.303600
1507.000000	11.268748
1506.000000	11.232804
1505.000000	11.203961
1504.000000	11.167253
1503.000000	11.132292
1502.000000	11.107819
1501.000000	11.087389
1500.000000	11.058983
1499.000000	11.026208
1498.000000	11.005122
1497.000000	10.985456
1496.000000	10.959782
1495.000000	10.942629
1494.000000	10.926132
1493.000000	10.907668
1492.000000	10.881885
1491.000000	10.865497
1490.000000	10.849983
1489.000000	10.834251
1488.000000	10.846706
1487.000000	10.852933
1486.000000	10.828460
1485.000000	10.805627
1484.000000	10.781154
1483.000000	10.782356
1482.000000	10.778204
1481.000000	10.766733
1480.000000	10.781809
1479.000000	10.783011
1478.000000	10.786289
1477.000000	10.796340
1476.000000	10.782356
1475.000000	10.778204
1474.000000	10.771977
1473.000000	10.794046
1472.000000	10.809560
1471.000000	10.817644
1470.000000	10.823981
1469.000000	10.820703
1468.000000	10.815896
1467.000000	10.837201
1466.000000	10.859707
1465.000000	10.877842
1464.000000	10.879263
1463.000000	10.887129
1462.000000	10.926023
1461.000000	10.938368
1460.000000	10.970270
1459.000000	11.008836
1458.000000	11.004248
1457.000000	11.037461
1456.000000	11.104869
1455.000000	11.149554
1454.000000	11.202978
1453.000000	11.255092
1452.000000	11.307314
1451.000000	11.375051
1450.000000	11.426181
1449.000000	11.483320
1448.000000	11.537947
1447.000000	11.597052
1446.000000	11.652771
1445.000000	11.727172
1444.000000	11.795346
1443.000000	11.849207
1442.000000	11.924810
1441.000000	12.020952
1440.000000	12.084209
1439.000000	12.158392
1438.000000	12.243172
1437.000000	12.299983
1436.000000	12.378427
1435.000000	12.472275
1434.000000	12.552138
1433.000000	12.641725
1432.000000	12.731313
1431.000000	12.824833
1430.000000	12.930371
1429.000000	13.030665
1428.000000	13.146582
1427.000000	13.252010
1426.000000	13.363776
1425.000000	13.516292
1424.000000	13.676238
1423.000000	13.836184
1422.000000	13.973624
1421.000000	14.152798
1420.000000	14.319736
1419.000000	14.499238
1418.000000	14.694363
1417.000000	14.869604
1416.000000	15.060796
1415.000000	15.240735
1414.000000	15.459131
1413.000000	15.692385
1412.000000	15.912857
1411.000000	16.098259
1410.000000	16.353800
1409.000000	16.656321
1408.000000	16.979053
1407.000000	17.314131
1406.000000	17.647242
1405.000000	17.985269
1404.000000	18.362191
1403.000000	18.754080
1402.000000	19.095931
1401.000000	19.450456
1400.000000	19.863430
1399.000000	20.246688
1398.000000	20.575648
1397.000000	20.832501
1396.000000	21.118305
1395.000000	21.473267
1394.000000	21.766173
1393.000000	22.010681
1392.000000	22.239674
1391.000000	22.540665
1390.000000	22.837941
1389.000000	23.151714
1388.000000	23.495751
1387.000000	23.923584
1386.000000	24.345080
1385.000000	24.836826
1384.000000	25.319613
1383.000000	25.906628
1382.000000	26.488507
1381.000000	27.044930
1380.000000	27.444139
1379.000000	27.785116
1378.000000	28.040767
1377.000000	28.230867
1376.000000	28.463356
1375.000000	28.658809
1374.000000	28.886273
1373.000000	29.217090
1372.000000	29.567245
1371.000000	29.976177
1370.000000	30.427062
1369.000000	30.773721
1368.000000	31.155996
1367.000000	31.502326
1366.000000	31.807359
1365.000000	32.062683
1364.000000	32.299761
1363.000000	32.524930
1362.000000	32.734368
1361.000000	32.944242
1360.000000	33.137182
1359.000000	33.200548
1358.000000	33.326407
1357.000000	33.463192
1356.000000	33.647719
1355.000000	33.952752
1354.000000	34.364853
1353.000000	34.909368
1352.000000	35.420233
1351.000000	36.061436
1350.000000	36.656317
1349.000000	37.199958
1348.000000	37.711915
1347.000000	38.181920
1346.000000	38.684591
1345.000000	39.070143
1344.000000	39.482135
1343.000000	39.935970
1342.000000	40.327531
1341.000000	40.697679
1340.000000	41.078861
1339.000000	41.447370
1338.000000	41.819266
1337.000000	42.149755
1336.000000	42.492699
1335.000000	42.825264
1334.000000	43.137617
1333.000000	43.467778
1332.000000	43.776307
1331.000000	44.082979
1330.000000	44.351522
1329.000000	44.646177
1328.000000	44.913955
1327.000000	45.124375
1326.000000	45.377950
1325.000000	45.614919
1324.000000	45.837576
1323.000000	46.067553
1322.000000	46.254156
1321.000000	46.451466
1320.000000	46.621354
1319.000000	46.792116
1318.000000	46.960911
1317.000000	47.136589
1316.000000	47.289543
1315.000000	47.448614
1314.000000	47.607577
1313.000000	47.736604
1312.000000	47.847059
1311.000000	47.981986
1310.000000	48.105004
1309.000000	48.209996
1308.000000	48.311054
1307.000000	48.401079
1306.000000	48.482035
1305.000000	48.576101
1304.000000	48.634988
1303.000000	48.684043
1302.000000	48.733971
1301.000000	48.774176
1300.000000	48.815037
1299.000000	48.835139
1298.000000	48.860267
1297.000000	48.889656
1296.000000	48.901565
1295.000000	48.923852
1294.000000	48.946030
1293.000000	48.931718
1292.000000	48.914456
1291.000000	48.906262
1290.000000	48.881353
1289.000000	48.867915
1288.000000	48.841148
1287.000000	48.811213
1286.000000	48.753637
1285.000000	48.683496
1284.000000	48.621659
1283.000000	48.566159
1282.000000	48.500280
1281.000000	48.424131
1280.000000	48.366118
1279.000000	48.276858
1278.000000	48.204205
1277.000000	48.138763
1276.000000	48.077145
1275.000000	48.021754
1274.000000	47.967018
1273.000000	47.916653
1272.000000	47.875792
1271.000000	47.824553
1270.000000	47.768178
1269.000000	47.724040
1268.000000	47.677717
1267.000000	47.625713
1266.000000	47.562346
1265.000000	47.495484
1264.000000	47.446866
1263.000000	47.397266
1262.000000	47.335429
1261.000000	47.269987
1260.000000	47.219403
1259.000000	47.164230
1258.000000	47.092779
1257.000000	47.041867
1256.000000	46.973366
1255.000000	46.884653
1254.000000	46.802167
1253.000000	46.740112
1252.000000	46.645280
1251.000000	46.539524
1250.000000	46.463484
1249.000000	46.353139
1248.000000	46.242794
1247.000000	46.123708
1246.000000	45.979386
1245.000000	45.839324
1244.000000	45.703632
1243.000000	45.556032
1242.000000	45.387674
1241.000000	45.212979
1240.000000	45.061009
1239.000000	44.888280
1238.000000	44.698072
1237.000000	44.527200
1236.000000	44.343438
1235.000000	44.155305
1234.000000	43.958759
1233.000000	43.753364
1232.000000	43.555727
1231.000000	43.336129
1230.000000	43.122212
1229.000000	42.918019
1228.000000	42.689681
1227.000000	42.458394
1226.000000	42.233115
1225.000000	41.994398
1224.000000	41.775893
1223.000000	41.561976
1222.000000	41.324024
1221.000000	41.103006
1220.000000	40.877400
1219.000000	40.648734
1218.000000	40.432741
1217.000000	40.220573
1216.000000	40.027305
1215.000000	39.844089
1214.000000	39.669284
1213.000000	39.500161
1212.000000	39.332459
1211.000000	39.175791
1210.000000	39.029720
1209.000000	38.879825
1208.000000	38.738234
1207.000000	38.615653
1206.000000	38.500173
1205.000000	38.409165
1204.000000	38.349404
1203.000000	38.287130
1202.000000	38.247362
1201.000000	38.195904
1200.000000	38.128277
1199.000000	38.079441
1198.000000	37.989198
1197.000000	37.856019
1196.000000	37.702192
1195.000000	37.494393
1194.000000	37.197226
1193.000000	36.838550
1192.000000	36.421424
1191.000000	35.946503
1190.000000	35.426570
1189.000000	34.929798
1188.000000	34.483392
1187.000000	34.156181
1186.000000	33.944558
1185.000000	33.861964
1184.000000	33.931776
1183.000000	34.162190
1182.000000	34.534304
1181.000000	35.017637
1180.000000	35.584658
1179.000000	36.179976
1178.000000	36.737273
1177.000000	37.271409
1176.000000	37.725790
1175.000000	38.132756
1174.000000	38.505089
1173.000000	38.868463
1172.000000	39.242107
1171.000000	39.624163
1170.000000	40.024465
1169.000000	40.419740
1168.000000	40.820260
1167.000000	41.240992
1166.000000	41.654732
1165.000000	42.104087
1164.000000	42.545359
1163.000000	42.964342
1162.000000	43.401680
1161.000000	43.874089
1160.000000	44.299627
1159.000000	44.737184
1158.000000	45.157260
1157.000000	45.553082
1156.000000	45.915801
1155.000000	46.252517
1154.000000	46.528599
1153.000000	46.748415
1152.000000	46.916336
1151.000000	47.022857
1150.000000	47.106326
1149.000000	47.173407
1148.000000	47.220167
1147.000000	47.293367
1146.000000	47.415511
1145.000000	47.604190
1144.000000	47.849899
1143.000000	48.170556
1142.000000	48.544636
1141.000000	48.954661
1140.000000	49.370367
1139.000000	49.813933
1138.000000	50.270718
1137.000000	50.750337
1136.000000	51.227552
1135.000000	51.719844
1134.000000	52.260754
1133.000000	52.718850
1132.000000	53.145590
1131.000000	53.541085
1130.000000	53.921721
1129.000000	54.237024
1128.000000	54.532224
1127.000000	54.762419
1126.000000	54.961150
1125.000000	55.123499
1124.000000	55.229583
1123.000000	55.323322
1122.000000	55.453114
1121.000000	55.512329
1120.000000	55.572855
1119.000000	55.610547
1118.000000	55.648021
1117.000000	55.666921
1116.000000	55.680687
1115.000000	55.671947
1114.000000	55.659055
1113.000000	55.659929
1112.000000	55.651408
1111.000000	55.636221
1110.000000	55.620817
1109.000000	55.600277
1108.000000	55.573292
1107.000000	55.547618
1106.000000	55.548273
1105.000000	55.538987
1104.000000	55.516481
1103.000000	55.503807
1102.000000	55.473326
1101.000000	55.445139
1100.000000	55.400345
1099.000000	55.373906
1098.000000	55.351181
1097.000000	55.313926
1096.000000	55.285411
1095.000000	55.237340
1094.000000	55.209372
1093.000000	55.140215
1092.000000	55.103178
1091.000000	55.036316
1090.000000	54.973714
1089.000000	54.929029
1088.000000	54.859326
1087.000000	54.819995
1086.000000	54.719592
1085.000000	54.689220
1084.000000	54.615038
1083.000000	54.543368
1082.000000	54.485136
1081.000000	54.368236
1080.000000	54.315576
1079.000000	54.249806
1078.000000	54.187860
1077.000000	54.116300
1076.000000	54.066699
1075.000000	53.976784
1074.000000	53.924998
1073.000000	53.834537
1072.000000	53.765489
1071.000000	53.713595
1070.000000	53.627066
1069.000000	53.551791
1068.000000	53.480012
1067.000000	53.399712
1066.000000	53.318537
1065.000000	53.259650
1064.000000	53.182190
1063.000000	53.105713
1062.000000	53.024757
1061.000000	52.951230
1060.000000	52.860769
1059.000000	52.767030
1058.000000	52.696125
1057.000000	52.608832
1056.000000	52.508648
1055.000000	52.420590
1054.000000	52.336903
1053.000000	52.244475
1052.000000	52.163410
1051.000000	52.051754
1050.000000	52.005103
1049.000000	51.918247
1048.000000	51.849090
1047.000000	51.766058
1046.000000	51.691766
1045.000000	51.639653
1044.000000	51.561974
1043.000000	51.469984
1042.000000	51.422568
1041.000000	51.332544
1040.000000	51.259454
1039.000000	51.165060
1038.000000	51.103987
1037.000000	51.034503
1036.000000	50.954858
1035.000000	50.869422
1034.000000	50.804308
1033.000000	50.708930
1032.000000	50.620108
1031.000000	50.508561
1030.000000	50.413730
1029.000000	50.327092
1028.000000	50.251926
1027.000000	50.166491
1026.000000	50.053196
1025.000000	49.937170
1024.000000	49.837422
1023.000000	49.733086
1022.000000	49.627876
1021.000000	49.526489
1020.000000	49.411009
1019.000000	49.294437
1018.000000	49.222330
1017.000000	49.122036
1016.000000	49.025566
1015.000000	48.950400
1014.000000	48.848031
1013.000000	48.762486
1012.000000	48.722390
1011.000000	48.655309
1010.000000	48.606036
1009.000000	48.574572
1008.000000	48.527811
1007.000000	48.497986
1006.000000	48.458545
1005.000000	48.428173
1004.000000	48.381522
1003.000000	48.346671
1002.000000	48.318921
1001.000000	48.281447
1000.000000	48.258176
999.000000	48.221030
998.000000	48.171211
997.000000	48.138872
996.000000	48.098230
995.000000	48.090364
994.000000	48.046772
993.000000	48.007114
992.000000	47.978817
991.000000	47.950849
990.000000	47.903542
989.000000	47.875574
988.000000	47.856017
987.000000	47.826301
986.000000	47.809804
985.000000	47.793197
984.000000	47.778339
983.000000	47.752664
982.000000	47.747093
981.000000	47.717376
980.000000	47.688970
979.000000	47.663296
978.000000	47.637840
977.000000	47.625385
976.000000	47.612056
975.000000	47.575457
974.000000	47.541370
973.000000	47.521049
972.000000	47.503459
971.000000	47.474180
970.000000	47.447631
969.000000	47.428512
968.000000	47.394971
967.000000	47.356405
966.000000	47.335538
965.000000	47.319259
964.000000	47.303090
963.000000	47.280693
962.000000	47.250977
961.000000	47.232294
960.000000	47.220932
959.000000	47.223008
958.000000	47.213175
957.000000	47.193728
956.000000	47.169256
955.000000	47.142817
954.000000	47.117033
953.000000	47.085896
952.000000	47.061970
951.000000	47.019470
950.000000	46.968886
949.000000	46.941246
948.000000	46.901805
947.000000	46.861054
946.000000	46.833522
945.000000	46.793536
944.000000	46.743935
943.000000	46.699360
942.000000	46.663962
941.000000	46.590545
940.000000	46.525102
939.000000	46.487957
938.000000	46.431036
937.000000	46.365375
936.000000	46.316321
935.000000	46.262350
934.000000	46.211001
933.000000	46.173200
932.000000	46.111691
931.000000	46.052804
930.000000	46.000799
929.000000	45.954148
928.000000	45.888378
927.000000	45.812776
926.000000	45.741980
925.000000	45.694237
924.000000	45.629668
923.000000	45.562915
922.000000	45.495069
921.000000	45.433778
920.000000	45.363966
919.000000	45.304423
918.000000	45.231770
917.000000	45.174631
916.000000	45.096843
915.000000	44.977649
914.000000	44.879103
913.000000	44.807652
912.000000	44.722544
911.000000	44.639512
910.000000	44.546320
909.000000	44.446791
908.000000	44.386046
907.000000	44.334370
906.000000	44.277121
905.000000	44.228504
904.000000	44.185786
903.000000	44.140774
902.000000	44.110511
901.000000	44.075550
900.000000	44.025403
899.000000	44.000275
898.000000	43.973290
897.000000	43.952423
896.000000	43.915495
895.000000	43.889821
894.000000	43.822412
893.000000	43.776089
892.000000	43.732388
891.000000	43.669786
890.000000	43.604890
889.000000	43.537044
888.000000	43.461005
887.000000	43.382780
886.000000	43.321161
885.000000	43.227750
884.000000	43.129204
883.000000	43.041584
882.000000	42.958115
881.000000	42.855527
880.000000	42.732399
879.000000	42.621289
878.000000	42.531047
877.000000	42.376782
876.000000	42.212357
875.000000	42.045419
874.000000	41.853244
873.000000	41.627418
872.000000	41.470641
871.000000	41.346858
870.000000	41.273222
869.000000	41.253338
868.000000	41.252354
867.000000	41.267540
866.000000	41.257926
865.000000	41.232798
864.000000	41.214881
863.000000	41.196963
862.000000	41.177189
861.000000	41.142883
860.000000	41.147800
859.000000	41.143976
858.000000	41.141900
857.000000	40.796100
856.000000	41.220800
855.000000	41.408800
854.000000	40.944400
853.000000	41.279100
852.000000	41.258800
851.000000	41.234600
850.000000	40.899300
849.000000	40.963600
848.000000	41.094200
847.000000	41.239200
846.000000	41.042800
845.000000	41.615100
844.000000	41.248600
843.000000	41.104000
842.000000	41.170900
841.000000	41.232900
840.000000	41.127500
839.000000	40.897200
838.000000	40.893600
837.000000	41.003400
836.000000	40.818800
835.000000	41.027900
834.000000	41.032700
833.000000	40.848800
832.000000	40.649900
831.000000	40.857700
830.000000	40.684400
829.000000	40.759900
828.000000	40.742800
827.000000	40.628300
826.000000	40.528200
825.000000	40.529500
824.000000	40.483200
823.000000	40.450000
822.000000	40.482200
821.000000	40.234300
820.000000	40.374200
819.000000	40.321200
818.000000	40.258800
817.000000	40.206500
816.000000	40.128800
815.000000	40.046700
814.000000	40.089200
813.000000	39.916400
812.000000	39.977300
811.000000	39.900900
810.000000	39.807600
809.000000	39.739200
808.000000	39.849900
807.000000	39.841200
806.000000	39.668800
805.000000	39.731800
804.000000	39.663500
803.000000	39.616900
802.000000	39.570500
801.000000	39.488900
800.000000	39.520700
799.000000	39.418400
798.000000	39.449500
797.000000	39.363800
796.000000	39.298000
795.000000	39.237300
794.000000	39.223700
793.000000	39.203500
792.000000	39.126100
791.000000	39.136200
790.000000	39.045500
789.000000	39.045700
788.000000	38.959100
787.000000	38.919100
786.000000	38.977600
785.000000	38.838400
784.000000	38.909600
783.000000	38.820400
782.000000	38.708000
781.000000	38.782400
780.000000	38.789200
779.000000	38.621300
778.000000	38.647400
777.000000	38.551000
776.000000	38.469600
775.000000	38.472900
774.000000	38.315700
773.000000	38.322100
772.000000	38.236300
771.000000	38.168500
770.000000	38.153700
769.000000	38.140200
768.000000	38.052600
767.000000	38.086200
766.000000	38.000000
765.000000	37.968600
764.000000	37.886900
763.000000	37.765000
762.000000	37.749700
761.000000	37.681500
760.000000	37.600400
759.000000	37.522200
758.000000	37.397800
757.000000	37.274200
756.000000	37.245000
755.000000	37.122000
754.000000	36.992100
753.000000	36.974800
752.000000	36.892700
751.000000	36.726200
750.000000	36.662600
749.000000	36.500800
748.000000	36.533500
747.000000	36.287300
746.000000	36.212400
745.000000	36.174600
744.000000	36.013800
743.000000	35.920100
742.000000	35.797800
741.000000	35.614000
740.000000	35.530900
739.000000	35.394500
738.000000	35.218000
737.000000	35.131800
736.000000	34.952400
735.000000	34.781300
734.000000	34.626100
733.000000	34.485000
732.000000	34.332200
731.000000	34.188000
730.000000	33.993500
729.000000	33.837500
728.000000	33.707800
727.000000	33.470800
726.000000	33.355100
725.000000	33.180500
724.000000	32.977800
723.000000	32.801300
722.000000	32.632300
721.000000	32.427500
720.000000	32.286100
719.000000	32.095300
718.000000	31.895600
717.000000	31.732900
716.000000	31.518000
715.000000	31.308900
714.000000	31.127200
713.000000	30.943600
712.000000	30.778600
711.000000	30.585800
710.000000	30.456700
709.000000	30.246100
708.000000	30.017600
707.000000	29.836800
706.000000	29.686400
705.000000	29.515300
704.000000	29.321400
703.000000	29.177900
702.000000	28.966000
701.000000	28.783500
700.000000	28.591900
699.000000	28.438000
698.000000	28.278800
697.000000	28.077300
696.000000	27.914400
695.000000	27.765400
694.000000	27.602100
693.000000	27.456400
692.000000	27.249100
691.000000	27.102300
690.000000	26.967800
689.000000	26.788300
688.000000	26.623800
687.000000	26.474600
686.000000	26.344400
685.000000	26.198700
684.000000	26.049800
683.000000	25.919300
682.000000	25.767800
681.000000	25.628000
680.000000	25.490800
679.000000	25.350000
678.000000	25.215600
677.000000	25.131100
676.000000	24.997100
675.000000	24.876900
674.000000	24.740500
673.000000	24.603100
672.000000	24.475900
671.000000	24.363900
670.000000	24.230100
669.000000	24.093500
668.000000	23.992600
667.000000	23.870400
666.000000	23.757100
665.000000	23.669000
664.000000	23.572900
663.000000	23.471700
662.000000	23.361900
661.000000	23.259700
660.000000	23.153000
659.000000	23.055100
658.000000	22.954000
657.000000	22.865000
656.000000	22.807900
655.000000	22.696000
654.000000	22.584400
653.000000	22.512200
652.000000	22.427500
651.000000	22.337500
650.000000	22.261900
649.000000	22.202100
648.000000	22.130000
647.000000	22.055100
646.000000	21.974300
645.000000	21.906400
644.000000	21.854600
643.000000	21.799000
642.000000	21.748100
641.000000	21.682600
640.000000	21.624700
639.000000	21.573200
638.000000	21.521600
637.000000	21.476700
636.000000	21.442200
635.000000	21.406700
634.000000	21.358800
633.000000	21.311900
632.000000	21.267000
631.000000	21.243500
630.000000	21.213900
629.000000	21.178700
628.000000	21.149400
627.000000	21.136300
626.000000	21.122300
625.000000	21.097900
624.000000	21.082400
623.000000	21.073400
622.000000	21.071200
621.000000	21.058000
620.000000	21.039800
619.000000	21.030800
618.000000	21.054000
617.000000	21.066100
616.000000	21.077300
615.000000	21.093900
614.000000	21.094600
613.000000	21.113700
612.000000	21.123500
611.000000	21.135700
610.000000	21.151800
609.000000	21.172100
608.000000	21.199700
607.000000	21.224900
606.000000	21.249700
605.000000	21.285700
604.000000	21.312000
603.000000	21.318900
602.000000	21.359100
601.000000	21.395600
600.000000	21.410600
599.000000	21.443900
598.000000	21.484500
597.000000	21.522400
596.000000	21.543500
595.000000	21.548600
594.000000	21.582200
593.000000	21.622200
592.000000	21.648100
591.000000	21.655900
590.000000	21.682000
589.000000	21.698700
588.000000	21.740800
587.000000	21.766000
586.000000	21.780000
585.000000	21.804400
584.000000	21.823300
583.000000	21.848500
582.000000	21.849300
581.000000	21.864300
580.000000	21.874500
579.000000	21.890100
578.000000	21.886500
577.000000	21.879300
576.000000	21.875000
575.000000	21.878300
574.000000	21.859500
573.000000	21.848400
572.000000	21.834200
571.000000	21.800000
570.000000	21.759700
569.000000	21.736100
568.000000	21.705600
567.000000	21.668500
566.000000	21.632100
565.000000	21.584200
564.000000	21.532200
563.000000	21.465700
562.000000	21.385100
561.000000	21.313200
560.000000	21.271200
559.000000	21.195300
558.000000	21.129300
557.000000	21.046900
556.000000	20.957300
555.000000	20.851200
554.000000	20.763600
553.000000	20.645700
552.000000	20.520800
551.000000	20.406100
550.000000	20.293500
549.000000	20.160500
548.000000	20.036600
547.000000	19.900600
546.000000	19.757400
545.000000	19.599300
544.000000	19.447100
543.000000	19.294700
542.000000	19.126200
541.000000	18.954900
540.000000	18.774900
539.000000	18.600100
538.000000	18.433500
537.000000	18.240000
536.000000	18.075700
535.000000	17.876100
534.000000	17.659600
533.000000	17.474200
532.000000	17.266700
531.000000	17.072100
530.000000	16.858000
529.000000	16.639300
528.000000	16.436300
527.000000	16.237500
526.000000	16.016200
525.000000	15.791500
524.000000	15.587600
523.000000	15.366400
522.000000	15.137000
521.000000	14.919800
520.000000	14.707100
519.000000	14.492600
518.000000	14.283700
517.000000	14.064700
516.000000	13.849600
515.000000	13.636700
514.000000	13.451700
513.000000	13.258800
512.000000	13.065300
511.000000	12.871200
510.000000	12.693000
509.000000	12.498700
508.000000	12.345100
507.000000	12.185800
506.000000	12.021400
505.000000	11.851300
504.000000	11.693900
503.000000	11.559900
502.000000	11.409000
501.000000	11.262200
500.000000	11.110500
499.000000	10.966800
498.000000	10.843600
497.000000	10.728800
496.000000	10.622200
495.000000	10.494000
494.000000	10.373200
493.000000	10.274100
492.000000	10.164800
491.000000	10.062900
490.000000	9.956200
489.000000	9.867800
488.000000	9.781000
487.000000	9.688700
486.000000	9.626100
485.000000	9.516000
484.000000	9.437200
483.000000	9.349200
482.000000	9.252800
481.000000	9.156500
480.000000	9.066000
479.000000	8.971700
478.000000	8.872600
477.000000	8.802100
476.000000	8.726200
475.000000	8.633100
474.000000	8.555200
473.000000	8.461500
472.000000	8.407000
471.000000	8.325200
470.000000	8.252500
469.000000	8.196600
468.000000	8.122500
467.000000	8.074400
466.000000	8.009000
465.000000	7.955200
464.000000	7.907200
463.000000	7.859200
462.000000	7.797900
461.000000	7.742400
460.000000	7.689400
459.000000	7.643600
458.000000	7.620700
457.000000	7.568200
456.000000	7.518000
455.000000	7.476300
454.000000	7.429600
453.000000	7.390300
452.000000	7.355500
451.000000	7.313300
450.000000	7.261800
449.000000	7.222900
448.000000	7.181500
447.000000	7.148600
446.000000	7.114700
445.000000	7.061100
444.000000	7.021200
443.000000	6.978900
442.000000	6.939900
441.000000	6.880000
440.000000	6.850100
439.000000	6.808500
438.000000	6.755200
437.000000	6.714600
436.000000	6.680300
435.000000	6.634300
434.000000	6.601300
433.000000	6.560800
432.000000	6.521500
431.000000	6.472000
430.000000	6.434700
429.000000	6.416200
428.000000	6.361600
427.000000	6.339700
426.000000	6.303400
425.000000	6.235900
424.000000	6.213100
423.000000	6.181900
422.000000	6.141400
421.000000	6.109100
420.000000	6.082600
419.000000	6.047000
418.000000	6.002100
417.000000	5.966000
416.000000	5.935800
415.000000	5.899800
414.000000	5.865600
413.000000	5.824600
412.000000	5.785100
411.000000	5.750600
410.000000	5.730500
409.000000	5.690200
408.000000	5.641700
407.000000	5.617700
406.000000	5.578500
405.000000	5.537100
404.000000	5.496100
403.000000	5.476800
402.000000	5.444000
401.000000	5.391900
400.000000	5.358400
399.000000	5.336300
398.000000	5.273200
397.000000	5.230600
396.000000	5.176800
395.000000	5.135700
394.000000	5.105900
393.000000	5.083800
392.000000	5.028500
391.000000	4.996500
390.000000	4.965600
389.000000	4.936200
388.000000	4.885300
387.000000	4.830700
386.000000	4.803900
385.000000	4.786900
384.000000	4.758900
383.000000	4.723600
382.000000	4.679400
381.000000	4.642900
380.000000	4.630800
379.000000	4.589100
378.000000	4.552500
377.000000	4.522400
376.000000	4.419900
375.000000	4.027300
374.000000	3.714600
373.000000	4.011000
372.000000	4.008000
371.000000	3.864100
370.000000	3.842300
369.000000	3.858300
368.000000	3.996600
367.000000	4.054400
366.000000	4.087600
365.000000	4.105900
364.000000	4.173700
363.000000	4.223000
362.000000	4.134100
361.000000	3.944100
360.000000	4.011500
359.000000	4.103200
358.000000	4.205300
357.000000	4.079500
356.000000	4.089400
355.000000	4.198100
354.000000	4.020700
353.000000	4.136700
352.000000	4.199400
351.000000	4.010600
350.000000	3.926800
349.000000	4.027600
348.000000	3.985300
347.000000	3.964200
346.000000	4.100500
345.000000	4.072000
344.000000	3.960700
343.000000	3.932200
342.000000	4.002900
341.000000	4.143200
340.000000	4.194200
339.000000	4.168600
338.000000	4.318100
337.000000	4.210100
336.000000	3.994100
335.000000	4.156500
334.000000	4.393900
333.000000	4.260800
332.000000	4.151400
331.000000	4.230000
330.000000	4.418000
329.000000	4.238200
328.000000	3.993000
327.000000	4.094300
326.000000	3.945400
325.000000	3.937500
324.000000	4.258100
323.000000	4.488000
322.000000	4.421600
321.000000	4.409400
320.000000	4.442800
319.000000	4.774800
318.000000	5.183900
317.000000	5.213200
316.000000	4.424000
315.000000	3.845800
314.000000	3.841600
313.000000	3.855600
312.000000	3.848100
311.000000	3.838000
310.000000	3.840400
309.000000	3.863100
308.000000	3.871000
307.000000	3.853500
306.000000	3.817900
305.000000	3.809400
304.000000	3.848500
303.000000	3.863800
302.000000	3.839500
301.000000	3.886000
300.000000	3.883500
299.000000	3.854900
298.000000	3.863100
297.000000	3.843600
296.000000	3.870600
295.000000	3.850900
294.000000	3.827900
293.000000	3.876800
292.000000	3.902700
291.000000	3.858500
290.000000	3.877000
289.000000	3.852200
288.000000	3.817100
287.000000	3.849400
286.000000	3.893400
285.000000	3.899700
284.000000	3.898300
283.000000	3.852900
282.000000	3.862900
281.000000	3.864400
280.000000	3.857500
279.000000	3.888300
278.000000	3.894000
277.000000	3.908000
276.000000	3.916700
275.000000	3.956100
274.000000	3.931900
273.000000	3.937700
272.000000	3.978400
271.000000	3.962300
270.000000	3.940000
269.000000	3.963300
268.000000	4.001300
267.000000	3.977300
266.000000	3.989900
265.000000	4.021000
264.000000	4.034000
263.000000	4.059400
262.000000	4.091100
261.000000	4.092500
260.000000	4.122800
259.000000	4.105100
258.000000	4.122700
257.000000	4.097300
256.000000	4.131700
255.000000	4.126500
254.000000	4.163800
253.000000	4.138700
252.000000	4.150200
251.000000	4.177900
250.000000	4.210200
