PE UV       SUBTECH     SPECTRUM    ASCII       PEDS        4.00        
   -1
CICIMAUCR0233-1.ASC
24/06/14
12:09:47.00
24/06/14
12:09:47.00
Vinicio Soto Monge
C. resplendens. Sex F. Ventral
250,000000
1
Lambda 1050
1050L1511233
PerkinElmer UV WinLab 6.3.2.0749 / 2.02.05 Lambda 900 UV/VIS/NIR, Aug  7 2015 09:38:08

0
0
3350/servo 860,8/2
0
0
UV/VIS
1
1
1
DoubleDePol,CommonBeamDepol,RBeamAtt,SBeamAtt,60mm sphere, WB InGaAs Detector
0
0
0
0
Program
Program
3350/servo 860,8/2
3350/0,2 860,8/0,2
3350/0,2 860,8/0,2
0
15.00
 
 
 
0
 
860,8
319,2
860,8
Front
100
on
S:100 R:100
0
0
0
0
 
0
 
 
 
0
 
 
0
0
0
0
0
 
 
 
 
0
0


0
0
#HDR
-1
-1
#GR
nm
%R
1.0
0.0
2500,000000
-1,000000
2251
8
49,687100
4,221700
#DATA
2500,000000	4,565400
2499,000000	4,549000
2498,000000	4,548800
2497,000000	4,503200
2496,000000	4,620600
2495,000000	4,585300
2494,000000	4,472800
2493,000000	4,501400
2492,000000	4,488100
2491,000000	4,455000
2490,000000	4,520900
2489,000000	4,491300
2488,000000	4,401300
2487,000000	4,338700
2486,000000	4,421600
2485,000000	4,434700
2484,000000	4,368100
2483,000000	4,408800
2482,000000	4,394800
2481,000000	4,338100
2480,000000	4,381400
2479,000000	4,458600
2478,000000	4,372900
2477,000000	4,362500
2476,000000	4,376600
2475,000000	4,378700
2474,000000	4,374300
2473,000000	4,408700
2472,000000	4,343600
2471,000000	4,340500
2470,000000	4,350200
2469,000000	4,352800
2468,000000	4,347600
2467,000000	4,369400
2466,000000	4,355700
2465,000000	4,331600
2464,000000	4,337600
2463,000000	4,356700
2462,000000	4,350700
2461,000000	4,379000
2460,000000	4,363000
2459,000000	4,347600
2458,000000	4,368500
2457,000000	4,334400
2456,000000	4,368300
2455,000000	4,361800
2454,000000	4,377300
2453,000000	4,408500
2452,000000	4,399200
2451,000000	4,422400
2450,000000	4,415000
2449,000000	4,438100
2448,000000	4,448800
2447,000000	4,440500
2446,000000	4,457400
2445,000000	4,471800
2444,000000	4,472500
2443,000000	4,511300
2442,000000	4,521800
2441,000000	4,510600
2440,000000	4,519400
2439,000000	4,532300
2438,000000	4,548700
2437,000000	4,549200
2436,000000	4,571100
2435,000000	4,581800
2434,000000	4,575900
2433,000000	4,578000
2432,000000	4,584500
2431,000000	4,606500
2430,000000	4,610500
2429,000000	4,619400
2428,000000	4,633100
2427,000000	4,639600
2426,000000	4,632800
2425,000000	4,647500
2424,000000	4,672300
2423,000000	4,669900
2422,000000	4,686500
2421,000000	4,693100
2420,000000	4,684200
2419,000000	4,678300
2418,000000	4,706700
2417,000000	4,719200
2416,000000	4,730000
2415,000000	4,743100
2414,000000	4,733800
2413,000000	4,739300
2412,000000	4,741400
2411,000000	4,748300
2410,000000	4,761100
2409,000000	4,764400
2408,000000	4,768600
2407,000000	4,761400
2406,000000	4,765400
2405,000000	4,765700
2404,000000	4,783200
2403,000000	4,797100
2402,000000	4,800900
2401,000000	4,800500
2400,000000	4,813200
2399,000000	4,815800
2398,000000	4,816400
2397,000000	4,813500
2396,000000	4,820000
2395,000000	4,828500
2394,000000	4,825400
2393,000000	4,839300
2392,000000	4,847800
2391,000000	4,858800
2390,000000	4,848900
2389,000000	4,853200
2388,000000	4,848700
2387,000000	4,862000
2386,000000	4,867000
2385,000000	4,863100
2384,000000	4,872700
2383,000000	4,889900
2382,000000	4,877000
2381,000000	4,876700
2380,000000	4,887800
2379,000000	4,884900
2378,000000	4,882500
2377,000000	4,873300
2376,000000	4,874400
2375,000000	4,881200
2374,000000	4,865700
2373,000000	4,867500
2372,000000	4,875600
2371,000000	4,871800
2370,000000	4,858100
2369,000000	4,858800
2368,000000	4,865100
2367,000000	4,856800
2366,000000	4,839400
2365,000000	4,835900
2364,000000	4,838900
2363,000000	4,831100
2362,000000	4,818100
2361,000000	4,815500
2360,000000	4,818700
2359,000000	4,816200
2358,000000	4,803900
2357,000000	4,789400
2356,000000	4,783900
2355,000000	4,792800
2354,000000	4,794200
2353,000000	4,781100
2352,000000	4,774500
2351,000000	4,783300
2350,000000	4,791500
2349,000000	4,782500
2348,000000	4,792000
2347,000000	4,799700
2346,000000	4,791500
2345,000000	4,801900
2344,000000	4,810700
2343,000000	4,808300
2342,000000	4,815600
2341,000000	4,823600
2340,000000	4,814200
2339,000000	4,819600
2338,000000	4,831300
2337,000000	4,836600
2336,000000	4,843200
2335,000000	4,849300
2334,000000	4,852500
2333,000000	4,858900
2332,000000	4,850500
2331,000000	4,847400
2330,000000	4,837900
2329,000000	4,832400
2328,000000	4,836000
2327,000000	4,831500
2326,000000	4,817400
2325,000000	4,799600
2324,000000	4,801300
2323,000000	4,797700
2322,000000	4,777500
2321,000000	4,766100
2320,000000	4,770200
2319,000000	4,758900
2318,000000	4,729900
2317,000000	4,702200
2316,000000	4,682100
2315,000000	4,666100
2314,000000	4,659100
2313,000000	4,656800
2312,000000	4,643400
2311,000000	4,617500
2310,000000	4,604900
2309,000000	4,598800
2308,000000	4,607900
2307,000000	4,593400
2306,000000	4,580900
2305,000000	4,573400
2304,000000	4,581600
2303,000000	4,590900
2302,000000	4,595900
2301,000000	4,580400
2300,000000	4,572000
2299,000000	4,590700
2298,000000	4,618600
2297,000000	4,630100
2296,000000	4,640200
2295,000000	4,659900
2294,000000	4,667800
2293,000000	4,682000
2292,000000	4,688400
2291,000000	4,702700
2290,000000	4,713100
2289,000000	4,706700
2288,000000	4,713900
2287,000000	4,717700
2286,000000	4,721700
2285,000000	4,727000
2284,000000	4,705100
2283,000000	4,707000
2282,000000	4,692300
2281,000000	4,705300
2280,000000	4,715200
2279,000000	4,687500
2278,000000	4,685600
2277,000000	4,677100
2276,000000	4,681000
2275,000000	4,665000
2274,000000	4,639100
2273,000000	4,642700
2272,000000	4,661500
2271,000000	4,644800
2270,000000	4,641800
2269,000000	4,632300
2268,000000	4,642300
2267,000000	4,669800
2266,000000	4,694200
2265,000000	4,699200
2264,000000	4,710100
2263,000000	4,731500
2262,000000	4,756300
2261,000000	4,766600
2260,000000	4,820900
2259,000000	4,851400
2258,000000	4,880800
2257,000000	4,913900
2256,000000	4,975900
2255,000000	5,029400
2254,000000	5,075400
2253,000000	5,110100
2252,000000	5,136200
2251,000000	5,203400
2250,000000	5,234700
2249,000000	5,287400
2248,000000	5,310400
2247,000000	5,352900
2246,000000	5,401000
2245,000000	5,429800
2244,000000	5,473500
2243,000000	5,488800
2242,000000	5,499000
2241,000000	5,556600
2240,000000	5,579000
2239,000000	5,620400
2238,000000	5,636500
2237,000000	5,650500
2236,000000	5,677200
2235,000000	5,670700
2234,000000	5,702300
2233,000000	5,703300
2232,000000	5,729700
2231,000000	5,735200
2230,000000	5,737400
2229,000000	5,757100
2228,000000	5,745900
2227,000000	5,760700
2226,000000	5,776200
2225,000000	5,769500
2224,000000	5,789900
2223,000000	5,762300
2222,000000	5,749900
2221,000000	5,767800
2220,000000	5,756000
2219,000000	5,755900
2218,000000	5,751700
2217,000000	5,751000
2216,000000	5,725200
2215,000000	5,748500
2214,000000	5,709200
2213,000000	5,725100
2212,000000	5,725000
2211,000000	5,713700
2210,000000	5,710300
2209,000000	5,699000
2208,000000	5,692400
2207,000000	5,687100
2206,000000	5,699300
2205,000000	5,689100
2204,000000	5,687700
2203,000000	5,690000
2202,000000	5,690700
2201,000000	5,672200
2200,000000	5,680500
2199,000000	5,690600
2198,000000	5,666400
2197,000000	5,679900
2196,000000	5,683600
2195,000000	5,658700
2194,000000	5,664100
2193,000000	5,678500
2192,000000	5,660400
2191,000000	5,635400
2190,000000	5,641800
2189,000000	5,642200
2188,000000	5,648400
2187,000000	5,660100
2186,000000	5,652100
2185,000000	5,662000
2184,000000	5,648200
2183,000000	5,648500
2182,000000	5,632100
2181,000000	5,650700
2180,000000	5,647500
2179,000000	5,638600
2178,000000	5,636700
2177,000000	5,641000
2176,000000	5,617800
2175,000000	5,612100
2174,000000	5,613700
2173,000000	5,619500
2172,000000	5,622600
2171,000000	5,628000
2170,000000	5,638300
2169,000000	5,650700
2168,000000	5,634000
2167,000000	5,627200
2166,000000	5,644500
2165,000000	5,644900
2164,000000	5,643100
2163,000000	5,669800
2162,000000	5,662200
2161,000000	5,651300
2160,000000	5,684000
2159,000000	5,682600
2158,000000	5,692600
2157,000000	5,675700
2156,000000	5,694100
2155,000000	5,708300
2154,000000	5,710600
2153,000000	5,724200
2152,000000	5,728600
2151,000000	5,744100
2150,000000	5,759000
2149,000000	5,768100
2148,000000	5,780600
2147,000000	5,787700
2146,000000	5,790100
2145,000000	5,794300
2144,000000	5,804200
2143,000000	5,820000
2142,000000	5,826900
2141,000000	5,847900
2140,000000	5,845900
2139,000000	5,851800
2138,000000	5,861000
2137,000000	5,856200
2136,000000	5,871300
2135,000000	5,870000
2134,000000	5,861100
2133,000000	5,857900
2132,000000	5,874200
2131,000000	5,892400
2130,000000	5,899900
2129,000000	5,889100
2128,000000	5,898900
2127,000000	5,897800
2126,000000	5,899100
2125,000000	5,896300
2124,000000	5,884400
2123,000000	5,879700
2122,000000	5,879000
2121,000000	5,885700
2120,000000	5,882700
2119,000000	5,868700
2118,000000	5,871500
2117,000000	5,859600
2116,000000	5,852300
2115,000000	5,865700
2114,000000	5,860600
2113,000000	5,843600
2112,000000	5,829700
2111,000000	5,828400
2110,000000	5,828000
2109,000000	5,820300
2108,000000	5,808600
2107,000000	5,789700
2106,000000	5,791600
2105,000000	5,787900
2104,000000	5,781000
2103,000000	5,771100
2102,000000	5,762300
2101,000000	5,761000
2100,000000	5,757400
2099,000000	5,754000
2098,000000	5,742800
2097,000000	5,730900
2096,000000	5,728000
2095,000000	5,720400
2094,000000	5,715000
2093,000000	5,712400
2092,000000	5,716200
2091,000000	5,715800
2090,000000	5,711600
2089,000000	5,707700
2088,000000	5,707100
2087,000000	5,692000
2086,000000	5,683700
2085,000000	5,690800
2084,000000	5,690800
2083,000000	5,673900
2082,000000	5,665800
2081,000000	5,666400
2080,000000	5,660100
2079,000000	5,657800
2078,000000	5,669500
2077,000000	5,656400
2076,000000	5,623100
2075,000000	5,609700
2074,000000	5,597300
2073,000000	5,597400
2072,000000	5,583200
2071,000000	5,571900
2070,000000	5,578900
2069,000000	5,570800
2068,000000	5,550600
2067,000000	5,532000
2066,000000	5,532500
2065,000000	5,528600
2064,000000	5,527900
2063,000000	5,511600
2062,000000	5,493500
2061,000000	5,480700
2060,000000	5,473300
2059,000000	5,480200
2058,000000	5,466600
2057,000000	5,456400
2056,000000	5,446700
2055,000000	5,441000
2054,000000	5,448600
2053,000000	5,455200
2052,000000	5,456900
2051,000000	5,456500
2050,000000	5,466600
2049,000000	5,474300
2048,000000	5,480100
2047,000000	5,499100
2046,000000	5,505300
2045,000000	5,521700
2044,000000	5,537800
2043,000000	5,544700
2042,000000	5,564100
2041,000000	5,584200
2040,000000	5,586100
2039,000000	5,604900
2038,000000	5,614600
2037,000000	5,646400
2036,000000	5,653000
2035,000000	5,647200
2034,000000	5,662500
2033,000000	5,661400
2032,000000	5,681100
2031,000000	5,694300
2030,000000	5,705900
2029,000000	5,704500
2028,000000	5,704000
2027,000000	5,714400
2026,000000	5,719500
2025,000000	5,709100
2024,000000	5,719000
2023,000000	5,719700
2022,000000	5,711100
2021,000000	5,710100
2020,000000	5,721700
2019,000000	5,732000
2018,000000	5,722800
2017,000000	5,712400
2016,000000	5,718900
2015,000000	5,716400
2014,000000	5,713600
2013,000000	5,705700
2012,000000	5,706700
2011,000000	5,703600
2010,000000	5,674600
2009,000000	5,677700
2008,000000	5,666200
2007,000000	5,649900
2006,000000	5,638000
2005,000000	5,630800
2004,000000	5,638100
2003,000000	5,621700
2002,000000	5,600100
2001,000000	5,578700
2000,000000	5,589600
1999,000000	5,559000
1998,000000	5,580900
1997,000000	5,549900
1996,000000	5,530000
1995,000000	5,516300
1994,000000	5,517900
1993,000000	5,485200
1992,000000	5,450300
1991,000000	5,443800
1990,000000	5,442600
1989,000000	5,418000
1988,000000	5,393500
1987,000000	5,385900
1986,000000	5,384100
1985,000000	5,364600
1984,000000	5,347200
1983,000000	5,337900
1982,000000	5,309300
1981,000000	5,288500
1980,000000	5,282300
1979,000000	5,277800
1978,000000	5,247500
1977,000000	5,227800
1976,000000	5,218400
1975,000000	5,211200
1974,000000	5,193500
1973,000000	5,194000
1972,000000	5,151800
1971,000000	5,138600
1970,000000	5,132200
1969,000000	5,109100
1968,000000	5,121800
1967,000000	5,104600
1966,000000	5,105900
1965,000000	5,093200
1964,000000	5,065000
1963,000000	5,072900
1962,000000	5,055200
1961,000000	5,041100
1960,000000	5,040700
1959,000000	5,015900
1958,000000	5,004400
1957,000000	4,999300
1956,000000	4,995700
1955,000000	4,990900
1954,000000	4,950200
1953,000000	4,963800
1952,000000	4,964300
1951,000000	4,945100
1950,000000	4,945500
1949,000000	4,930700
1948,000000	4,903000
1947,000000	4,920200
1946,000000	4,905000
1945,000000	4,887600
1944,000000	4,894900
1943,000000	4,897000
1942,000000	4,894200
1941,000000	4,886400
1940,000000	4,897900
1939,000000	4,888200
1938,000000	4,891700
1937,000000	4,895400
1936,000000	4,885000
1935,000000	4,883700
1934,000000	4,881300
1933,000000	4,872000
1932,000000	4,874000
1931,000000	4,917700
1930,000000	4,926200
1929,000000	4,924300
1928,000000	4,920700
1927,000000	4,941500
1926,000000	4,952800
1925,000000	4,951900
1924,000000	4,967300
1923,000000	4,996200
1922,000000	5,007600
1921,000000	5,030300
1920,000000	5,063400
1919,000000	5,088800
1918,000000	5,082600
1917,000000	5,092800
1916,000000	5,137000
1915,000000	5,152000
1914,000000	5,171400
1913,000000	5,222800
1912,000000	5,262100
1911,000000	5,290200
1910,000000	5,314100
1909,000000	5,361300
1908,000000	5,383300
1907,000000	5,416600
1906,000000	5,468600
1905,000000	5,523400
1904,000000	5,559400
1903,000000	5,593600
1902,000000	5,678000
1901,000000	5,722000
1900,000000	5,752800
1899,000000	5,829000
1898,000000	5,885700
1897,000000	5,969200
1896,000000	6,027200
1895,000000	6,098200
1894,000000	6,163100
1893,000000	6,276900
1892,000000	6,351800
1891,000000	6,441100
1890,000000	6,548700
1889,000000	6,645000
1888,000000	6,769900
1887,000000	6,880100
1886,000000	7,006400
1885,000000	7,152000
1884,000000	7,309800
1883,000000	7,465600
1882,000000	7,633700
1881,000000	7,820600
1880,000000	8,025200
1879,000000	8,186600
1878,000000	8,381100
1877,000000	8,598100
1876,000000	8,805500
1875,000000	8,985800
1874,000000	9,195200
1873,000000	9,385800
1872,000000	9,578900
1871,000000	9,766500
1870,000000	9,961100
1869,000000	10,133300
1868,000000	10,299800
1867,000000	10,429000
1866,000000	10,551300
1865,000000	10,652800
1864,000000	10,767300
1863,000000	10,858500
1862,000000	10,941700
1861,000000	11,043400
1860,000000	11,156200
1859,000000	11,251500
1858,000000	11,330400
1857,000000	11,405600
1856,000000	11,457400
1855,000000	11,513100
1854,000000	11,567700
1853,000000	11,604100
1852,000000	11,631300
1851,000000	11,640100
1850,000000	11,668600
1849,000000	11,688500
1848,000000	11,711100
1847,000000	11,730600
1846,000000	11,723200
1845,000000	11,718200
1844,000000	11,697300
1843,000000	11,696100
1842,000000	11,714700
1841,000000	11,731200
1840,000000	11,732800
1839,000000	11,736100
1838,000000	11,720700
1837,000000	11,706100
1836,000000	11,694400
1835,000000	11,673100
1834,000000	11,656700
1833,000000	11,618600
1832,000000	11,597900
1831,000000	11,568200
1830,000000	11,545500
1829,000000	11,526400
1828,000000	11,496700
1827,000000	11,459000
1826,000000	11,418900
1825,000000	11,393700
1824,000000	11,372700
1823,000000	11,351100
1822,000000	11,335300
1821,000000	11,311500
1820,000000	11,295800
1819,000000	11,284500
1818,000000	11,267600
1817,000000	11,257900
1816,000000	11,243400
1815,000000	11,232000
1814,000000	11,225100
1813,000000	11,209800
1812,000000	11,204100
1811,000000	11,181500
1810,000000	11,162900
1809,000000	11,148300
1808,000000	11,126400
1807,000000	11,103800
1806,000000	11,087100
1805,000000	11,067100
1804,000000	11,048300
1803,000000	11,019600
1802,000000	10,988200
1801,000000	10,962800
1800,000000	10,929400
1799,000000	10,899400
1798,000000	10,865700
1797,000000	10,846800
1796,000000	10,836300
1795,000000	10,816700
1794,000000	10,795400
1793,000000	10,769600
1792,000000	10,723300
1791,000000	10,686700
1790,000000	10,671600
1789,000000	10,643000
1788,000000	10,602300
1787,000000	10,586100
1786,000000	10,578800
1785,000000	10,539300
1784,000000	10,503100
1783,000000	10,473000
1782,000000	10,447300
1781,000000	10,412800
1780,000000	10,378900
1779,000000	10,347700
1778,000000	10,314400
1777,000000	10,290300
1776,000000	10,250200
1775,000000	10,199700
1774,000000	10,156500
1773,000000	10,121400
1772,000000	10,085800
1771,000000	10,042100
1770,000000	9,992500
1769,000000	9,945000
1768,000000	9,913500
1767,000000	9,863800
1766,000000	9,824400
1765,000000	9,791500
1764,000000	9,770100
1763,000000	9,758000
1762,000000	9,751800
1761,000000	9,763100
1760,000000	9,784500
1759,000000	9,795400
1758,000000	9,824000
1757,000000	9,859100
1756,000000	9,891700
1755,000000	9,929100
1754,000000	9,959200
1753,000000	9,985900
1752,000000	9,997100
1751,000000	10,000500
1750,000000	10,006600
1749,000000	10,008400
1748,000000	10,009100
1747,000000	9,992100
1746,000000	9,968600
1745,000000	9,935400
1744,000000	9,897600
1743,000000	9,850200
1742,000000	9,800800
1741,000000	9,743200
1740,000000	9,671800
1739,000000	9,574700
1738,000000	9,487800
1737,000000	9,408300
1736,000000	9,358100
1735,000000	9,288200
1734,000000	9,236900
1733,000000	9,200500
1732,000000	9,210700
1731,000000	9,220500
1730,000000	9,217900
1729,000000	9,245200
1728,000000	9,301000
1727,000000	9,344100
1726,000000	9,379600
1725,000000	9,424800
1724,000000	9,456700
1723,000000	9,497000
1722,000000	9,527100
1721,000000	9,554300
1720,000000	9,573700
1719,000000	9,595700
1718,000000	9,619300
1717,000000	9,648200
1716,000000	9,667200
1715,000000	9,699700
1714,000000	9,745600
1713,000000	9,776300
1712,000000	9,811700
1711,000000	9,856400
1710,000000	9,871000
1709,000000	9,881400
1708,000000	9,892200
1707,000000	9,900600
1706,000000	9,889200
1705,000000	9,860800
1704,000000	9,842100
1703,000000	9,818000
1702,000000	9,796600
1701,000000	9,732700
1700,000000	9,663500
1699,000000	9,604300
1698,000000	9,551100
1697,000000	9,495000
1696,000000	9,431400
1695,000000	9,411100
1694,000000	9,401500
1693,000000	9,418200
1692,000000	9,424100
1691,000000	9,495500
1690,000000	9,520800
1689,000000	9,590500
1688,000000	9,673300
1687,000000	9,720100
1686,000000	9,753800
1685,000000	9,760500
1684,000000	9,806500
1683,000000	9,860400
1682,000000	9,923000
1681,000000	10,059500
1680,000000	10,216400
1679,000000	10,434900
1678,000000	10,639000
1677,000000	10,874000
1676,000000	11,096900
1675,000000	11,338600
1674,000000	11,540000
1673,000000	11,712100
1672,000000	11,860900
1671,000000	11,992200
1670,000000	12,130200
1669,000000	12,220200
1668,000000	12,320400
1667,000000	12,397300
1666,000000	12,450000
1665,000000	12,511100
1664,000000	12,572600
1663,000000	12,615700
1662,000000	12,639400
1661,000000	12,675000
1660,000000	12,688400
1659,000000	12,727300
1658,000000	12,746900
1657,000000	12,756700
1656,000000	12,778200
1655,000000	12,766100
1654,000000	12,767500
1653,000000	12,764800
1652,000000	12,751900
1651,000000	12,754300
1650,000000	12,730000
1649,000000	12,714700
1648,000000	12,674700
1647,000000	12,681000
1646,000000	12,634200
1645,000000	12,600800
1644,000000	12,581300
1643,000000	12,546500
1642,000000	12,526500
1641,000000	12,495600
1640,000000	12,447900
1639,000000	12,443900
1638,000000	12,398100
1637,000000	12,342300
1636,000000	12,302400
1635,000000	12,268600
1634,000000	12,221500
1633,000000	12,183200
1632,000000	12,167400
1631,000000	12,107800
1630,000000	12,069500
1629,000000	12,034100
1628,000000	11,990200
1627,000000	11,946600
1626,000000	11,897500
1625,000000	11,855600
1624,000000	11,798600
1623,000000	11,771700
1622,000000	11,738600
1621,000000	11,688400
1620,000000	11,635400
1619,000000	11,595300
1618,000000	11,556300
1617,000000	11,528700
1616,000000	11,463200
1615,000000	11,435400
1614,000000	11,382200
1613,000000	11,351300
1612,000000	11,325100
1611,000000	11,293600
1610,000000	11,242700
1609,000000	11,203700
1608,000000	11,173600
1607,000000	11,123200
1606,000000	11,100200
1605,000000	11,050400
1604,000000	11,021200
1603,000000	10,990300
1602,000000	10,940100
1601,000000	10,901400
1600,000000	10,878700
1599,000000	10,823900
1598,000000	10,798400
1597,000000	10,748700
1596,000000	10,713700
1595,000000	10,681000
1594,000000	10,640900
1593,000000	10,616800
1592,000000	10,576800
1591,000000	10,560400
1590,000000	10,516800
1589,000000	10,494600
1588,000000	10,465700
1587,000000	10,451400
1586,000000	10,409500
1585,000000	10,371100
1584,000000	10,358200
1583,000000	10,317400
1582,000000	10,296700
1581,000000	10,271400
1580,000000	10,263500
1579,000000	10,237300
1578,000000	10,225000
1577,000000	10,211200
1576,000000	10,179700
1575,000000	10,156200
1574,000000	10,143900
1573,000000	10,129600
1572,000000	10,120700
1571,000000	10,095000
1570,000000	10,095800
1569,000000	10,098900
1568,000000	10,082500
1567,000000	10,067900
1566,000000	10,065400
1565,000000	10,061000
1564,000000	10,044700
1563,000000	10,050200
1562,000000	10,038400
1561,000000	10,035200
1560,000000	10,032300
1559,000000	10,018900
1558,000000	10,015600
1557,000000	10,006900
1556,000000	9,979700
1555,000000	9,962200
1554,000000	9,956500
1553,000000	9,944500
1552,000000	9,941600
1551,000000	9,924800
1550,000000	9,899800
1549,000000	9,876000
1548,000000	9,850500
1547,000000	9,847400
1546,000000	9,834900
1545,000000	9,809000
1544,000000	9,794400
1543,000000	9,784100
1542,000000	9,773500
1541,000000	9,750600
1540,000000	9,729300
1539,000000	9,711000
1538,000000	9,707600
1537,000000	9,686500
1536,000000	9,662500
1535,000000	9,649600
1534,000000	9,629400
1533,000000	9,613900
1532,000000	9,599000
1531,000000	9,575700
1530,000000	9,557600
1529,000000	9,532200
1528,000000	9,505800
1527,000000	9,478700
1526,000000	9,450900
1525,000000	9,434000
1524,000000	9,421100
1523,000000	9,395000
1522,000000	9,363400
1521,000000	9,334800
1520,000000	9,313000
1519,000000	9,288500
1518,000000	9,266400
1517,000000	9,234900
1516,000000	9,200500
1515,000000	9,177600
1514,000000	9,140600
1513,000000	9,101100
1512,000000	9,075400
1511,000000	9,044000
1510,000000	9,006300
1509,000000	8,993400
1508,000000	8,971600
1507,000000	8,942100
1506,000000	8,901100
1505,000000	8,859700
1504,000000	8,839500
1503,000000	8,819900
1502,000000	8,796200
1501,000000	8,759600
1500,000000	8,724600
1499,000000	8,705000
1498,000000	8,692900
1497,000000	8,663100
1496,000000	8,612100
1495,000000	8,581800
1494,000000	8,561500
1493,000000	8,547700
1492,000000	8,539600
1491,000000	8,516700
1490,000000	8,499100
1489,000000	8,486600
1488,000000	8,461000
1487,000000	8,447100
1486,000000	8,427900
1485,000000	8,417500
1484,000000	8,400800
1483,000000	8,378600
1482,000000	8,361700
1481,000000	8,349100
1480,000000	8,327900
1479,000000	8,316700
1478,000000	8,315100
1477,000000	8,309900
1476,000000	8,300100
1475,000000	8,296300
1474,000000	8,292500
1473,000000	8,283900
1472,000000	8,284100
1471,000000	8,280700
1470,000000	8,286200
1469,000000	8,283300
1468,000000	8,276400
1467,000000	8,273400
1466,000000	8,278200
1465,000000	8,297100
1464,000000	8,289700
1463,000000	8,301400
1462,000000	8,298400
1461,000000	8,309600
1460,000000	8,320600
1459,000000	8,331600
1458,000000	8,342400
1457,000000	8,359400
1456,000000	8,376600
1455,000000	8,404700
1454,000000	8,428900
1453,000000	8,446500
1452,000000	8,466200
1451,000000	8,481800
1450,000000	8,517600
1449,000000	8,540900
1448,000000	8,564100
1447,000000	8,605400
1446,000000	8,632000
1445,000000	8,682800
1444,000000	8,702700
1443,000000	8,738800
1442,000000	8,786200
1441,000000	8,808200
1440,000000	8,850900
1439,000000	8,880800
1438,000000	8,935700
1437,000000	8,975300
1436,000000	9,020200
1435,000000	9,064000
1434,000000	9,117900
1433,000000	9,173500
1432,000000	9,205500
1431,000000	9,275500
1430,000000	9,344800
1429,000000	9,386500
1428,000000	9,470000
1427,000000	9,536900
1426,000000	9,614400
1425,000000	9,689600
1424,000000	9,769200
1423,000000	9,870200
1422,000000	9,972200
1421,000000	10,058900
1420,000000	10,161500
1419,000000	10,295800
1418,000000	10,411300
1417,000000	10,516300
1416,000000	10,626000
1415,000000	10,757400
1414,000000	10,905600
1413,000000	11,061400
1412,000000	11,201900
1411,000000	11,367800
1410,000000	11,532000
1409,000000	11,731100
1408,000000	11,943900
1407,000000	12,154600
1406,000000	12,380800
1405,000000	12,588000
1404,000000	12,833000
1403,000000	13,087500
1402,000000	13,342600
1401,000000	13,614800
1400,000000	13,921800
1399,000000	14,211900
1398,000000	14,431200
1397,000000	14,655300
1396,000000	14,924300
1395,000000	15,253500
1394,000000	15,540500
1393,000000	15,807900
1392,000000	16,083900
1391,000000	16,391500
1390,000000	16,725300
1389,000000	17,025900
1388,000000	17,411700
1387,000000	17,840900
1386,000000	18,264600
1385,000000	18,730600
1384,000000	19,182900
1383,000000	19,722100
1382,000000	20,205000
1381,000000	20,704600
1380,000000	21,075400
1379,000000	21,426800
1378,000000	21,678300
1377,000000	21,908800
1376,000000	22,111700
1375,000000	22,349400
1374,000000	22,567900
1373,000000	22,840300
1372,000000	23,116000
1371,000000	23,437500
1370,000000	23,739100
1369,000000	24,050400
1368,000000	24,331200
1367,000000	24,614400
1366,000000	24,851200
1365,000000	25,053600
1364,000000	25,264500
1363,000000	25,440000
1362,000000	25,617100
1361,000000	25,799100
1360,000000	25,961700
1359,000000	26,039200
1358,000000	26,176400
1357,000000	26,289400
1356,000000	26,426100
1355,000000	26,634100
1354,000000	26,936700
1353,000000	27,267000
1352,000000	27,606400
1351,000000	28,036600
1350,000000	28,433900
1349,000000	28,829300
1348,000000	29,229200
1347,000000	29,610500
1346,000000	29,986300
1345,000000	30,283700
1344,000000	30,641400
1343,000000	30,975700
1342,000000	31,281400
1341,000000	31,611200
1340,000000	31,958300
1339,000000	32,289700
1338,000000	32,611500
1337,000000	32,922600
1336,000000	33,245200
1335,000000	33,589800
1334,000000	33,892200
1333,000000	34,230300
1332,000000	34,535100
1331,000000	34,840500
1330,000000	35,138100
1329,000000	35,456600
1328,000000	35,737500
1327,000000	36,024400
1326,000000	36,296000
1325,000000	36,572500
1324,000000	36,838000
1323,000000	37,089100
1322,000000	37,314800
1321,000000	37,568900
1320,000000	37,783800
1319,000000	38,004000
1318,000000	38,235100
1317,000000	38,462800
1316,000000	38,643600
1315,000000	38,835300
1314,000000	39,038800
1313,000000	39,219900
1312,000000	39,386300
1311,000000	39,553900
1310,000000	39,718100
1309,000000	39,865900
1308,000000	40,016700
1307,000000	40,137100
1306,000000	40,270900
1305,000000	40,387000
1304,000000	40,497800
1303,000000	40,602300
1302,000000	40,683400
1301,000000	40,757500
1300,000000	40,836800
1299,000000	40,897800
1298,000000	40,955100
1297,000000	41,013300
1296,000000	41,073300
1295,000000	41,122000
1294,000000	41,162300
1293,000000	41,205300
1292,000000	41,226100
1291,000000	41,238800
1290,000000	41,254400
1289,000000	41,264800
1288,000000	41,277900
1287,000000	41,283200
1286,000000	41,264400
1285,000000	41,234200
1284,000000	41,213400
1283,000000	41,180000
1282,000000	41,137000
1281,000000	41,102800
1280,000000	41,044800
1279,000000	41,005600
1278,000000	40,970900
1277,000000	40,923900
1276,000000	40,882100
1275,000000	40,842000
1274,000000	40,799400
1273,000000	40,750300
1272,000000	40,712400
1271,000000	40,680800
1270,000000	40,654200
1269,000000	40,618700
1268,000000	40,584200
1267,000000	40,530600
1266,000000	40,482400
1265,000000	40,437700
1264,000000	40,376200
1263,000000	40,319100
1262,000000	40,275200
1261,000000	40,235200
1260,000000	40,180400
1259,000000	40,113200
1258,000000	40,053300
1257,000000	39,983600
1256,000000	39,920400
1255,000000	39,850500
1254,000000	39,774900
1253,000000	39,709400
1252,000000	39,635300
1251,000000	39,550900
1250,000000	39,458400
1249,000000	39,364600
1248,000000	39,283200
1247,000000	39,191100
1246,000000	39,090700
1245,000000	38,984700
1244,000000	38,850100
1243,000000	38,724600
1242,000000	38,610100
1241,000000	38,471000
1240,000000	38,341300
1239,000000	38,220600
1238,000000	38,081400
1237,000000	37,943300
1236,000000	37,812700
1235,000000	37,665800
1234,000000	37,514200
1233,000000	37,357400
1232,000000	37,181200
1231,000000	37,011700
1230,000000	36,856700
1229,000000	36,678300
1228,000000	36,481300
1227,000000	36,296500
1226,000000	36,120800
1225,000000	35,940100
1224,000000	35,757500
1223,000000	35,571600
1222,000000	35,371900
1221,000000	35,170000
1220,000000	34,971900
1219,000000	34,789000
1218,000000	34,611400
1217,000000	34,423800
1216,000000	34,252600
1215,000000	34,090900
1214,000000	33,926700
1213,000000	33,769600
1212,000000	33,622900
1211,000000	33,480100
1210,000000	33,328300
1209,000000	33,183300
1208,000000	33,053200
1207,000000	32,943400
1206,000000	32,842300
1205,000000	32,737800
1204,000000	32,652500
1203,000000	32,596000
1202,000000	32,544000
1201,000000	32,491500
1200,000000	32,442600
1199,000000	32,379300
1198,000000	32,303700
1197,000000	32,214200
1196,000000	32,108300
1195,000000	31,960100
1194,000000	31,752500
1193,000000	31,520600
1192,000000	31,243600
1191,000000	30,894400
1190,000000	30,532300
1189,000000	30,186000
1188,000000	29,865300
1187,000000	29,595600
1186,000000	29,441800
1185,000000	29,360800
1184,000000	29,392900
1183,000000	29,546600
1182,000000	29,814600
1181,000000	30,156400
1180,000000	30,558500
1179,000000	30,992300
1178,000000	31,431300
1177,000000	31,852200
1176,000000	32,232200
1175,000000	32,558600
1174,000000	32,859000
1173,000000	33,145400
1172,000000	33,434400
1171,000000	33,740100
1170,000000	34,041500
1169,000000	34,345600
1168,000000	34,651100
1167,000000	34,982600
1166,000000	35,312300
1165,000000	35,641100
1164,000000	35,987400
1163,000000	36,338900
1162,000000	36,712200
1161,000000	37,075000
1160,000000	37,465000
1159,000000	37,820800
1158,000000	38,172300
1157,000000	38,534500
1156,000000	38,878300
1155,000000	39,204100
1154,000000	39,483200
1153,000000	39,733200
1152,000000	39,958700
1151,000000	40,143700
1150,000000	40,289800
1149,000000	40,431100
1148,000000	40,595100
1147,000000	40,738700
1146,000000	40,923900
1145,000000	41,180700
1144,000000	41,464300
1143,000000	41,797900
1142,000000	42,185200
1141,000000	42,607400
1140,000000	43,036300
1139,000000	43,501100
1138,000000	43,974200
1137,000000	44,454600
1136,000000	44,984800
1135,000000	45,501700
1134,000000	46,086300
1133,000000	46,615000
1132,000000	47,050500
1131,000000	47,484300
1130,000000	47,876100
1129,000000	48,212800
1128,000000	48,493400
1127,000000	48,778500
1126,000000	48,945700
1125,000000	49,112500
1124,000000	49,231900
1123,000000	49,344900
1122,000000	49,454000
1121,000000	49,527300
1120,000000	49,587000
1119,000000	49,618600
1118,000000	49,663000
1117,000000	49,680100
1116,000000	49,687100
1115,000000	49,681400
1114,000000	49,678300
1113,000000	49,678400
1112,000000	49,673400
1111,000000	49,661500
1110,000000	49,645800
1109,000000	49,620400
1108,000000	49,618800
1107,000000	49,603100
1106,000000	49,563900
1105,000000	49,567800
1104,000000	49,542400
1103,000000	49,507800
1102,000000	49,512200
1101,000000	49,480500
1100,000000	49,469200
1099,000000	49,440300
1098,000000	49,405000
1097,000000	49,385900
1096,000000	49,351400
1095,000000	49,323200
1094,000000	49,281500
1093,000000	49,227000
1092,000000	49,192100
1091,000000	49,128700
1090,000000	49,074100
1089,000000	49,025600
1088,000000	48,976700
1087,000000	48,920000
1086,000000	48,865900
1085,000000	48,803300
1084,000000	48,726900
1083,000000	48,644400
1082,000000	48,590600
1081,000000	48,521800
1080,000000	48,450100
1079,000000	48,374800
1078,000000	48,305900
1077,000000	48,231400
1076,000000	48,167500
1075,000000	48,100700
1074,000000	48,013800
1073,000000	47,944000
1072,000000	47,871300
1071,000000	47,790500
1070,000000	47,703400
1069,000000	47,631200
1068,000000	47,559900
1067,000000	47,461600
1066,000000	47,390300
1065,000000	47,303800
1064,000000	47,218200
1063,000000	47,124400
1062,000000	47,055400
1061,000000	46,954800
1060,000000	46,849600
1059,000000	46,780100
1058,000000	46,681100
1057,000000	46,574800
1056,000000	46,480100
1055,000000	46,382900
1054,000000	46,286000
1053,000000	46,205900
1052,000000	46,094700
1051,000000	46,009200
1050,000000	45,921000
1049,000000	45,823700
1048,000000	45,716700
1047,000000	45,639800
1046,000000	45,556200
1045,000000	45,470400
1044,000000	45,391100
1043,000000	45,298400
1042,000000	45,215800
1041,000000	45,119300
1040,000000	45,052700
1039,000000	44,958300
1038,000000	44,861600
1037,000000	44,770200
1036,000000	44,687500
1035,000000	44,582600
1034,000000	44,486100
1033,000000	44,395500
1032,000000	44,298600
1031,000000	44,185300
1030,000000	44,081500
1029,000000	43,974600
1028,000000	43,862400
1027,000000	43,765800
1026,000000	43,657900
1025,000000	43,555800
1024,000000	43,452400
1023,000000	43,347600
1022,000000	43,247400
1021,000000	43,115000
1020,000000	43,009600
1019,000000	42,925500
1018,000000	42,813400
1017,000000	42,702000
1016,000000	42,609100
1015,000000	42,535000
1014,000000	42,449600
1013,000000	42,369500
1012,000000	42,302400
1011,000000	42,220300
1010,000000	42,170700
1009,000000	42,131900
1008,000000	42,067900
1007,000000	42,020200
1006,000000	41,974300
1005,000000	41,931600
1004,000000	41,890600
1003,000000	41,856000
1002,000000	41,816000
1001,000000	41,785100
1000,000000	41,740300
999,000000	41,693300
998,000000	41,671600
997,000000	41,637300
996,000000	41,598100
995,000000	41,568600
994,000000	41,541400
993,000000	41,522600
992,000000	41,505500
991,000000	41,467900
990,000000	41,426900
989,000000	41,412500
988,000000	41,411200
987,000000	41,394000
986,000000	41,373400
985,000000	41,363300
984,000000	41,354500
983,000000	41,342300
982,000000	41,349200
981,000000	41,341400
980,000000	41,342700
979,000000	41,337400
978,000000	41,336800
977,000000	41,350100
976,000000	41,360500
975,000000	41,349600
974,000000	41,348100
973,000000	41,366900
972,000000	41,391200
971,000000	41,395600
970,000000	41,390100
969,000000	41,403600
968,000000	41,416500
967,000000	41,434300
966,000000	41,456200
965,000000	41,476100
964,000000	41,502200
963,000000	41,519700
962,000000	41,548800
961,000000	41,587000
960,000000	41,616400
959,000000	41,656500
958,000000	41,692400
957,000000	41,722700
956,000000	41,766600
955,000000	41,799800
954,000000	41,830600
953,000000	41,869100
952,000000	41,917400
951,000000	41,963200
950,000000	41,993600
949,000000	42,022500
948,000000	42,068600
947,000000	42,105900
946,000000	42,133100
945,000000	42,153900
944,000000	42,185300
943,000000	42,207500
942,000000	42,215000
941,000000	42,220500
940,000000	42,248500
939,000000	42,268500
938,000000	42,256100
937,000000	42,266900
936,000000	42,270700
935,000000	42,289400
934,000000	42,320400
933,000000	42,336200
932,000000	42,341500
931,000000	42,365300
930,000000	42,386700
929,000000	42,385500
928,000000	42,382600
927,000000	42,390600
926,000000	42,386700
925,000000	42,372500
924,000000	42,375800
923,000000	42,370800
922,000000	42,353000
921,000000	42,351200
920,000000	42,367300
919,000000	42,353000
918,000000	42,336900
917,000000	42,320200
916,000000	42,310200
915,000000	42,285800
914,000000	42,255400
913,000000	42,234400
912,000000	42,220600
911,000000	42,200900
910,000000	42,180700
909,000000	42,170300
908,000000	42,165500
907,000000	42,159500
906,000000	42,161500
905,000000	42,152800
904,000000	42,157400
903,000000	42,146000
902,000000	42,147300
901,000000	42,165100
900,000000	42,185200
899,000000	42,231200
898,000000	42,251700
897,000000	42,261100
896,000000	42,250200
895,000000	42,270200
894,000000	42,281200
893,000000	42,290200
892,000000	42,288200
891,000000	42,267500
890,000000	42,250800
889,000000	42,225500
888,000000	42,227400
887,000000	42,225000
886,000000	42,221600
885,000000	42,198000
884,000000	42,176800
883,000000	42,132500
882,000000	42,107100
881,000000	42,068400
880,000000	42,027800
879,000000	41,981900
878,000000	41,914900
877,000000	41,851900
876,000000	41,820700
875,000000	41,760700
874,000000	41,681700
873,000000	41,599900
872,000000	41,510400
871,000000	41,451800
870,000000	41,454700
869,000000	41,502000
868,000000	41,564500
867,000000	41,600900
866,000000	41,636300
865,000000	41,684100
864,000000	41,737300
863,000000	41,753400
862,000000	41,794500
861,000000	41,830000
860,000000	41,878300
859,000000	41,910600
858,000000	41,951800
857,000000	47,288100
856,000000	48,741600
855,000000	48,306700
854,000000	48,562800
853,000000	48,434300
852,000000	48,865600
851,000000	48,636200
850,000000	48,923100
849,000000	48,752200
848,000000	48,529000
847,000000	48,783200
846,000000	49,218400
845,000000	49,215700
844,000000	49,011400
843,000000	48,915200
842,000000	49,191900
841,000000	49,248700
840,000000	49,332700
839,000000	49,193900
838,000000	49,057300
837,000000	49,216200
836,000000	49,253200
835,000000	49,098800
834,000000	48,891100
833,000000	49,008500
832,000000	48,985800
831,000000	48,912900
830,000000	49,153300
829,000000	48,911200
828,000000	48,825300
827,000000	48,759300
826,000000	48,837900
825,000000	48,829100
824,000000	48,830600
823,000000	48,862200
822,000000	48,901700
821,000000	48,839600
820,000000	48,936500
819,000000	48,706600
818,000000	48,674900
817,000000	48,648800
816,000000	48,461100
815,000000	48,605100
814,000000	48,396600
813,000000	48,489900
812,000000	48,465200
811,000000	48,528000
810,000000	48,183800
809,000000	48,091900
808,000000	48,086300
807,000000	48,020700
806,000000	48,097200
805,000000	47,945100
804,000000	47,843000
803,000000	47,695300
802,000000	47,724000
801,000000	47,605400
800,000000	47,614500
799,000000	47,555000
798,000000	47,375500
797,000000	47,428400
796,000000	47,228900
795,000000	47,285800
794,000000	47,187200
793,000000	47,040400
792,000000	46,851800
791,000000	46,807300
790,000000	46,669900
789,000000	46,782800
788,000000	46,689800
787,000000	46,602900
786,000000	46,363100
785,000000	46,251200
784,000000	46,275300
783,000000	46,102900
782,000000	46,095700
781,000000	45,972800
780,000000	45,680800
779,000000	45,802600
778,000000	45,680200
777,000000	45,584900
776,000000	45,389900
775,000000	45,320800
774,000000	45,250800
773,000000	45,098500
772,000000	45,014200
771,000000	44,936500
770,000000	44,840300
769,000000	44,607100
768,000000	44,524800
767,000000	44,511200
766,000000	44,400100
765,000000	44,249100
764,000000	44,113400
763,000000	44,033200
762,000000	43,902300
761,000000	43,761300
760,000000	43,654200
759,000000	43,419500
758,000000	43,330900
757,000000	43,176700
756,000000	43,076100
755,000000	42,919200
754,000000	42,706700
753,000000	42,612500
752,000000	42,578500
751,000000	42,377600
750,000000	42,339600
749,000000	42,123100
748,000000	41,985400
747,000000	41,884900
746,000000	41,752900
745,000000	41,646800
744,000000	41,460200
743,000000	41,152100
742,000000	41,059600
741,000000	40,872200
740,000000	40,692700
739,000000	40,515700
738,000000	40,381900
737,000000	40,211600
736,000000	40,080800
735,000000	39,885000
734,000000	39,746300
733,000000	39,544800
732,000000	39,369300
731,000000	39,226000
730,000000	39,020200
729,000000	38,850000
728,000000	38,636200
727,000000	38,409600
726,000000	38,194300
725,000000	38,009500
724,000000	37,791200
723,000000	37,607300
722,000000	37,393900
721,000000	37,174200
720,000000	36,953700
719,000000	36,723600
718,000000	36,537800
717,000000	36,327500
716,000000	36,099900
715,000000	35,892700
714,000000	35,690400
713,000000	35,424500
712,000000	35,169500
711,000000	34,950300
710,000000	34,708100
709,000000	34,506600
708,000000	34,297100
707,000000	34,033200
706,000000	33,836400
705,000000	33,572400
704,000000	33,360900
703,000000	33,153900
702,000000	32,953400
701,000000	32,722800
700,000000	32,502600
699,000000	32,306300
698,000000	32,065500
697,000000	31,854000
696,000000	31,640000
695,000000	31,434000
694,000000	31,196100
693,000000	30,959400
692,000000	30,779000
691,000000	30,562800
690,000000	30,376500
689,000000	30,199200
688,000000	29,980000
687,000000	29,800300
686,000000	29,631500
685,000000	29,427900
684,000000	29,247800
683,000000	29,069800
682,000000	28,882200
681,000000	28,724900
680,000000	28,554000
679,000000	28,354700
678,000000	28,191200
677,000000	28,023600
676,000000	27,855800
675,000000	27,727700
674,000000	27,560600
673,000000	27,389800
672,000000	27,243500
671,000000	27,109900
670,000000	26,962300
669,000000	26,828000
668,000000	26,691500
667,000000	26,567200
666,000000	26,442500
665,000000	26,324000
664,000000	26,197800
663,000000	26,079600
662,000000	25,978500
661,000000	25,875800
660,000000	25,775500
659,000000	25,659100
658,000000	25,530000
657,000000	25,421900
656,000000	25,348500
655,000000	25,260500
654,000000	25,165700
653,000000	25,064600
652,000000	24,964400
651,000000	24,898600
650,000000	24,843800
649,000000	24,747800
648,000000	24,676900
647,000000	24,631600
646,000000	24,584600
645,000000	24,519900
644,000000	24,440700
643,000000	24,371800
642,000000	24,309100
641,000000	24,271300
640,000000	24,235500
639,000000	24,205500
638,000000	24,169400
637,000000	24,130700
636,000000	24,087700
635,000000	24,052400
634,000000	24,029900
633,000000	24,016800
632,000000	24,011000
631,000000	23,986100
630,000000	23,943000
629,000000	23,930000
628,000000	23,919900
627,000000	23,921300
626,000000	23,929000
625,000000	23,932700
624,000000	23,939000
623,000000	23,939600
622,000000	23,950700
621,000000	23,980400
620,000000	23,991700
619,000000	24,010200
618,000000	24,035800
617,000000	24,042900
616,000000	24,060000
615,000000	24,095200
614,000000	24,131800
613,000000	24,169700
612,000000	24,214600
611,000000	24,258100
610,000000	24,297400
609,000000	24,352700
608,000000	24,386600
607,000000	24,428600
606,000000	24,471100
605,000000	24,530400
604,000000	24,580300
603,000000	24,635300
602,000000	24,710300
601,000000	24,736200
600,000000	24,763100
599,000000	24,841700
598,000000	24,896400
597,000000	24,942900
596,000000	24,973000
595,000000	25,017100
594,000000	25,062500
593,000000	25,107400
592,000000	25,139500
591,000000	25,178200
590,000000	25,211700
589,000000	25,229400
588,000000	25,289200
587,000000	25,316200
586,000000	25,329100
585,000000	25,347600
584,000000	25,373100
583,000000	25,385600
582,000000	25,406100
581,000000	25,396400
580,000000	25,408700
579,000000	25,384700
578,000000	25,376700
577,000000	25,382600
576,000000	25,356200
575,000000	25,329200
574,000000	25,301300
573,000000	25,272200
572,000000	25,223600
571,000000	25,170400
570,000000	25,139000
569,000000	25,095100
568,000000	25,014900
567,000000	24,948800
566,000000	24,878500
565,000000	24,814400
564,000000	24,732200
563,000000	24,650600
562,000000	24,545200
561,000000	24,460900
560,000000	24,359000
559,000000	24,239300
558,000000	24,132000
557,000000	24,029100
556,000000	23,896000
555,000000	23,770600
554,000000	23,629300
553,000000	23,483400
552,000000	23,336200
551,000000	23,198800
550,000000	23,038400
549,000000	22,867200
548,000000	22,714500
547,000000	22,533200
546,000000	22,365000
545,000000	22,203300
544,000000	22,022600
543,000000	21,819100
542,000000	21,613800
541,000000	21,412100
540,000000	21,218600
539,000000	21,002800
538,000000	20,806200
537,000000	20,588500
536,000000	20,377600
535,000000	20,174400
534,000000	19,959200
533,000000	19,722000
532,000000	19,488600
531,000000	19,261300
530,000000	19,030100
529,000000	18,806200
528,000000	18,561700
527,000000	18,333300
526,000000	18,088400
525,000000	17,856500
524,000000	17,612100
523,000000	17,383600
522,000000	17,131800
521,000000	16,895600
520,000000	16,662300
519,000000	16,428300
518,000000	16,200500
517,000000	15,973600
516,000000	15,751200
515,000000	15,516200
514,000000	15,304100
513,000000	15,088200
512,000000	14,877400
511,000000	14,680600
510,000000	14,510900
509,000000	14,316700
508,000000	14,139600
507,000000	13,977000
506,000000	13,785300
505,000000	13,617600
504,000000	13,460900
503,000000	13,318800
502,000000	13,188400
501,000000	13,038600
500,000000	12,888100
499,000000	12,783700
498,000000	12,662800
497,000000	12,553600
496,000000	12,420300
495,000000	12,326900
494,000000	12,213400
493,000000	12,134700
492,000000	12,034900
491,000000	11,930700
490,000000	11,849600
489,000000	11,777300
488,000000	11,722500
487,000000	11,645300
486,000000	11,563700
485,000000	11,509200
484,000000	11,448900
483,000000	11,383700
482,000000	11,307600
481,000000	11,234900
480,000000	11,158900
479,000000	11,078900
478,000000	11,011000
477,000000	10,947900
476,000000	10,884000
475,000000	10,815400
474,000000	10,751900
473,000000	10,699300
472,000000	10,624800
471,000000	10,567200
470,000000	10,493900
469,000000	10,453800
468,000000	10,387000
467,000000	10,337400
466,000000	10,277100
465,000000	10,223400
464,000000	10,171100
463,000000	10,141200
462,000000	10,075300
461,000000	10,049100
460,000000	9,993100
459,000000	9,949700
458,000000	9,919300
457,000000	9,863600
456,000000	9,799400
455,000000	9,778700
454,000000	9,751900
453,000000	9,705500
452,000000	9,659100
451,000000	9,611000
450,000000	9,586500
449,000000	9,521500
448,000000	9,491200
447,000000	9,446000
446,000000	9,418200
445,000000	9,353100
444,000000	9,307800
443,000000	9,273500
442,000000	9,218800
441,000000	9,161500
440,000000	9,119100
439,000000	9,078800
438,000000	9,015100
437,000000	8,970100
436,000000	8,905900
435,000000	8,875300
434,000000	8,819100
433,000000	8,759600
432,000000	8,700900
431,000000	8,643600
430,000000	8,596900
429,000000	8,547400
428,000000	8,519000
427,000000	8,453700
426,000000	8,400500
425,000000	8,339300
424,000000	8,278800
423,000000	8,237500
422,000000	8,183900
421,000000	8,111000
420,000000	8,066300
419,000000	8,013300
418,000000	7,963900
417,000000	7,921200
416,000000	7,850400
415,000000	7,783800
414,000000	7,729200
413,000000	7,675000
412,000000	7,615600
411,000000	7,558800
410,000000	7,464800
409,000000	7,435800
408,000000	7,359500
407,000000	7,297800
406,000000	7,228900
405,000000	7,162700
404,000000	7,107800
403,000000	7,059100
402,000000	6,966300
401,000000	6,894200
400,000000	6,828600
399,000000	6,749800
398,000000	6,680200
397,000000	6,624900
396,000000	6,566300
395,000000	6,497200
394,000000	6,404700
393,000000	6,327300
392,000000	6,268900
391,000000	6,189000
390,000000	6,122200
389,000000	6,057900
388,000000	6,001300
387,000000	5,932700
386,000000	5,864800
385,000000	5,805900
384,000000	5,730300
383,000000	5,662800
382,000000	5,613100
381,000000	5,566800
380,000000	5,495700
379,000000	5,437200
378,000000	5,366000
377,000000	5,310600
376,000000	5,321900
375,000000	5,171100
374,000000	4,815900
373,000000	4,878800
372,000000	4,801800
371,000000	4,849800
370,000000	4,939500
369,000000	4,789500
368,000000	4,763000
367,000000	4,947500
366,000000	4,884100
365,000000	4,715600
364,000000	4,735600
363,000000	4,684600
362,000000	4,634100
361,000000	4,592900
360,000000	4,665600
359,000000	4,654200
358,000000	4,648700
357,000000	4,656600
356,000000	4,675700
355,000000	4,528000
354,000000	4,481300
353,000000	4,561600
352,000000	4,612000
351,000000	4,537900
350,000000	4,486900
349,000000	4,474200
348,000000	4,428200
347,000000	4,377100
346,000000	4,404400
345,000000	4,390400
344,000000	4,402800
343,000000	4,491200
342,000000	4,549700
341,000000	4,513200
340,000000	4,502100
339,000000	4,445800
338,000000	4,535000
337,000000	4,520500
336,000000	4,447700
335,000000	4,437100
334,000000	4,439000
333,000000	4,576600
332,000000	4,742400
331,000000	4,858700
330,000000	4,683400
329,000000	4,821600
328,000000	4,849600
327,000000	4,758700
326,000000	4,731800
325,000000	4,666400
324,000000	4,753700
323,000000	4,672600
322,000000	4,882500
321,000000	4,808900
320,000000	4,907100
319,000000	5,459600
318,000000	5,132400
317,000000	4,679000
316,000000	4,457100
315,000000	4,284200
314,000000	4,221700
313,000000	4,258400
312,000000	4,279300
311,000000	4,252700
310,000000	4,256200
309,000000	4,266900
308,000000	4,272700
307,000000	4,296100
306,000000	4,294400
305,000000	4,278500
304,000000	4,285500
303,000000	4,319400
302,000000	4,316700
301,000000	4,330000
300,000000	4,315100
299,000000	4,323600
298,000000	4,330200
297,000000	4,340900
296,000000	4,355000
295,000000	4,383300
294,000000	4,334200
293,000000	4,342300
292,000000	4,358200
291,000000	4,356000
290,000000	4,360300
289,000000	4,376000
288,000000	4,371900
287,000000	4,368100
286,000000	4,378200
285,000000	4,351600
284,000000	4,379700
283,000000	4,359900
282,000000	4,336200
281,000000	4,440700
280,000000	4,432500
279,000000	4,421800
278,000000	4,432500
277,000000	4,438400
276,000000	4,484500
275,000000	4,498600
274,000000	4,474900
273,000000	4,514900
272,000000	4,483900
271,000000	4,493100
270,000000	4,538500
269,000000	4,574700
268,000000	4,551200
267,000000	4,513300
266,000000	4,527000
265,000000	4,584000
264,000000	4,623600
263,000000	4,611000
262,000000	4,645300
261,000000	4,672900
260,000000	4,688100
259,000000	4,726200
258,000000	4,693100
257,000000	4,723400
256,000000	4,720300
255,000000	4,718900
254,000000	4,764000
253,000000	4,785700
252,000000	4,782000
251,000000	4,768100
250,000000	4,782400
