PE UV       SUBTECH     SPECTRUM    ASCII       PEDS        4.00        
   -1
CICIMAUCR0239-1.ASC
24/06/20
13:13:20.00
24/06/20
13:13:20.00
Vinicio Soto Monge
C. cupreomarginata. Sex M. Ventral 
250,000000
1
Lambda 1050
1050L1511233
PerkinElmer UV WinLab 6.3.2.0749 / 2.02.05 Lambda 900 UV/VIS/NIR, Aug  7 2015 09:38:08

0
0
3350/servo 860,8/2
0
0
UV/VIS
1
1
1
DoubleDePol,CommonBeamDepol,RBeamAtt,SBeamAtt,60mm sphere, WB InGaAs Detector
0
0
0
0
Program
Program
3350/servo 860,8/2
3350/0,2 860,8/0,2
3350/0,2 860,8/0,2
0
15.00
 
 
 
0
 
860,8
319,2
860,8
Front
100
on
S:100 R:100
0
0
0
0
 
0
 
 
 
0
 
 
0
0
0
0
0
 
 
 
 
0
0


0
0
#HDR
-1
-1
#GR
nm
%R
1.0
0.0
2500,000000
-1,000000
2251
8
61,358400
4,106400
#DATA
2500,000000	5,254000
2499,000000	5,465200
2498,000000	5,421400
2497,000000	5,436300
2496,000000	5,435000
2495,000000	5,319300
2494,000000	5,073900
2493,000000	5,344600
2492,000000	5,396200
2491,000000	5,320400
2490,000000	5,286100
2489,000000	5,273700
2488,000000	5,222200
2487,000000	5,285500
2486,000000	5,247900
2485,000000	5,198800
2484,000000	5,277600
2483,000000	5,291600
2482,000000	5,194200
2481,000000	5,171700
2480,000000	5,224200
2479,000000	5,210100
2478,000000	5,147800
2477,000000	5,180900
2476,000000	5,169800
2475,000000	5,195300
2474,000000	5,193900
2473,000000	5,198600
2472,000000	5,177700
2471,000000	5,179000
2470,000000	5,186800
2469,000000	5,168500
2468,000000	5,154100
2467,000000	5,223900
2466,000000	5,190000
2465,000000	5,131900
2464,000000	5,186900
2463,000000	5,169500
2462,000000	5,166200
2461,000000	5,173600
2460,000000	5,215500
2459,000000	5,210700
2458,000000	5,249000
2457,000000	5,211600
2456,000000	5,233200
2455,000000	5,261100
2454,000000	5,277500
2453,000000	5,292200
2452,000000	5,342100
2451,000000	5,340700
2450,000000	5,368100
2449,000000	5,366000
2448,000000	5,372900
2447,000000	5,414000
2446,000000	5,408700
2445,000000	5,438700
2444,000000	5,458100
2443,000000	5,486400
2442,000000	5,493900
2441,000000	5,517100
2440,000000	5,529500
2439,000000	5,583900
2438,000000	5,597700
2437,000000	5,601700
2436,000000	5,645400
2435,000000	5,637400
2434,000000	5,675400
2433,000000	5,688900
2432,000000	5,709000
2431,000000	5,705800
2430,000000	5,715900
2429,000000	5,763800
2428,000000	5,771600
2427,000000	5,788100
2426,000000	5,802900
2425,000000	5,823800
2424,000000	5,829600
2423,000000	5,835000
2422,000000	5,855700
2421,000000	5,874000
2420,000000	5,880500
2419,000000	5,882300
2418,000000	5,892200
2417,000000	5,917200
2416,000000	5,928800
2415,000000	5,947100
2414,000000	5,957200
2413,000000	5,969500
2412,000000	5,980700
2411,000000	5,987700
2410,000000	5,993500
2409,000000	6,009700
2408,000000	6,027300
2407,000000	6,030600
2406,000000	6,040000
2405,000000	6,033500
2404,000000	6,042700
2403,000000	6,065800
2402,000000	6,091100
2401,000000	6,090200
2400,000000	6,091900
2399,000000	6,120600
2398,000000	6,151100
2397,000000	6,172800
2396,000000	6,178000
2395,000000	6,190300
2394,000000	6,191000
2393,000000	6,204900
2392,000000	6,219800
2391,000000	6,227500
2390,000000	6,240600
2389,000000	6,244900
2388,000000	6,249600
2387,000000	6,261100
2386,000000	6,271300
2385,000000	6,276400
2384,000000	6,271700
2383,000000	6,266600
2382,000000	6,278100
2381,000000	6,290900
2380,000000	6,285300
2379,000000	6,282200
2378,000000	6,283800
2377,000000	6,286700
2376,000000	6,277700
2375,000000	6,268200
2374,000000	6,261100
2373,000000	6,249000
2372,000000	6,258300
2371,000000	6,240200
2370,000000	6,219700
2369,000000	6,224400
2368,000000	6,208100
2367,000000	6,186300
2366,000000	6,169900
2365,000000	6,150300
2364,000000	6,133300
2363,000000	6,114800
2362,000000	6,103500
2361,000000	6,087600
2360,000000	6,050000
2359,000000	6,024600
2358,000000	6,012300
2357,000000	5,991100
2356,000000	5,976800
2355,000000	5,963500
2354,000000	5,948500
2353,000000	5,948100
2352,000000	5,950300
2351,000000	5,950200
2350,000000	5,953800
2349,000000	5,947400
2348,000000	5,965100
2347,000000	5,986700
2346,000000	5,993300
2345,000000	5,993700
2344,000000	6,008600
2343,000000	6,034500
2342,000000	6,038900
2341,000000	6,053700
2340,000000	6,075600
2339,000000	6,081300
2338,000000	6,083800
2337,000000	6,087000
2336,000000	6,090100
2335,000000	6,099500
2334,000000	6,086800
2333,000000	6,069400
2332,000000	6,076400
2331,000000	6,065100
2330,000000	6,039200
2329,000000	6,030100
2328,000000	6,020100
2327,000000	5,994900
2326,000000	5,966300
2325,000000	5,943600
2324,000000	5,919100
2323,000000	5,901800
2322,000000	5,867400
2321,000000	5,848200
2320,000000	5,811900
2319,000000	5,766900
2318,000000	5,725100
2317,000000	5,677200
2316,000000	5,643800
2315,000000	5,623700
2314,000000	5,585000
2313,000000	5,558200
2312,000000	5,527800
2311,000000	5,497800
2310,000000	5,479600
2309,000000	5,439100
2308,000000	5,427300
2307,000000	5,408400
2306,000000	5,398900
2305,000000	5,399700
2304,000000	5,412500
2303,000000	5,416700
2302,000000	5,428800
2301,000000	5,446300
2300,000000	5,458800
2299,000000	5,495000
2298,000000	5,501300
2297,000000	5,531900
2296,000000	5,546400
2295,000000	5,573600
2294,000000	5,611400
2293,000000	5,653500
2292,000000	5,646200
2291,000000	5,682300
2290,000000	5,706200
2289,000000	5,702400
2288,000000	5,713200
2287,000000	5,719500
2286,000000	5,708800
2285,000000	5,710600
2284,000000	5,720700
2283,000000	5,702300
2282,000000	5,674700
2281,000000	5,660300
2280,000000	5,657700
2279,000000	5,633500
2278,000000	5,612300
2277,000000	5,609400
2276,000000	5,586400
2275,000000	5,573700
2274,000000	5,563400
2273,000000	5,551000
2272,000000	5,546000
2271,000000	5,542500
2270,000000	5,553200
2269,000000	5,574800
2268,000000	5,589900
2267,000000	5,604000
2266,000000	5,606900
2265,000000	5,650800
2264,000000	5,693400
2263,000000	5,732500
2262,000000	5,793700
2261,000000	5,862000
2260,000000	5,933700
2259,000000	5,998000
2258,000000	6,083800
2257,000000	6,182200
2256,000000	6,268000
2255,000000	6,373100
2254,000000	6,465700
2253,000000	6,595200
2252,000000	6,676800
2251,000000	6,792800
2250,000000	6,886100
2249,000000	6,985900
2248,000000	7,077900
2247,000000	7,168000
2246,000000	7,259000
2245,000000	7,330000
2244,000000	7,427000
2243,000000	7,475600
2242,000000	7,569700
2241,000000	7,615900
2240,000000	7,678000
2239,000000	7,734800
2238,000000	7,809200
2237,000000	7,857500
2236,000000	7,913500
2235,000000	7,927100
2234,000000	7,983800
2233,000000	8,033300
2232,000000	8,070100
2231,000000	8,111200
2230,000000	8,117400
2229,000000	8,139700
2228,000000	8,171700
2227,000000	8,180600
2226,000000	8,198300
2225,000000	8,192200
2224,000000	8,197800
2223,000000	8,224600
2222,000000	8,210900
2221,000000	8,217500
2220,000000	8,199400
2219,000000	8,222200
2218,000000	8,197400
2217,000000	8,201300
2216,000000	8,188200
2215,000000	8,195800
2214,000000	8,155600
2213,000000	8,155300
2212,000000	8,131500
2211,000000	8,137900
2210,000000	8,136300
2209,000000	8,128900
2208,000000	8,094300
2207,000000	8,104500
2206,000000	8,091700
2205,000000	8,091600
2204,000000	8,081300
2203,000000	8,084000
2202,000000	8,056900
2201,000000	8,072200
2200,000000	8,053200
2199,000000	8,053800
2198,000000	8,033000
2197,000000	8,036800
2196,000000	8,021100
2195,000000	8,045600
2194,000000	8,027400
2193,000000	8,017400
2192,000000	7,999900
2191,000000	8,006400
2190,000000	8,010700
2189,000000	8,002200
2188,000000	8,001300
2187,000000	7,992500
2186,000000	7,986900
2185,000000	7,978800
2184,000000	7,961400
2183,000000	7,974500
2182,000000	7,969200
2181,000000	7,950800
2180,000000	7,953600
2179,000000	7,922000
2178,000000	7,922200
2177,000000	7,922500
2176,000000	7,917500
2175,000000	7,916600
2174,000000	7,901200
2173,000000	7,917400
2172,000000	7,895300
2171,000000	7,893800
2170,000000	7,913000
2169,000000	7,919400
2168,000000	7,921100
2167,000000	7,920700
2166,000000	7,930400
2165,000000	7,908900
2164,000000	7,939400
2163,000000	7,948100
2162,000000	7,962600
2161,000000	7,968300
2160,000000	7,971500
2159,000000	7,991600
2158,000000	8,012900
2157,000000	8,017700
2156,000000	8,034800
2155,000000	8,040500
2154,000000	8,067100
2153,000000	8,086800
2152,000000	8,089900
2151,000000	8,109800
2150,000000	8,126400
2149,000000	8,144200
2148,000000	8,155100
2147,000000	8,162500
2146,000000	8,174600
2145,000000	8,212000
2144,000000	8,207600
2143,000000	8,217100
2142,000000	8,230200
2141,000000	8,252700
2140,000000	8,273900
2139,000000	8,263700
2138,000000	8,262900
2137,000000	8,290000
2136,000000	8,289900
2135,000000	8,297600
2134,000000	8,312900
2133,000000	8,324700
2132,000000	8,319800
2131,000000	8,319700
2130,000000	8,321700
2129,000000	8,324900
2128,000000	8,318100
2127,000000	8,308400
2126,000000	8,321400
2125,000000	8,306700
2124,000000	8,292300
2123,000000	8,304500
2122,000000	8,290900
2121,000000	8,288500
2120,000000	8,265700
2119,000000	8,264500
2118,000000	8,241800
2117,000000	8,223200
2116,000000	8,204700
2115,000000	8,198700
2114,000000	8,192600
2113,000000	8,177300
2112,000000	8,156600
2111,000000	8,148100
2110,000000	8,121800
2109,000000	8,101500
2108,000000	8,091800
2107,000000	8,074700
2106,000000	8,053000
2105,000000	8,031100
2104,000000	8,008000
2103,000000	7,995300
2102,000000	7,983100
2101,000000	7,964100
2100,000000	7,954100
2099,000000	7,938400
2098,000000	7,920800
2097,000000	7,896700
2096,000000	7,880200
2095,000000	7,874800
2094,000000	7,858000
2093,000000	7,830600
2092,000000	7,811500
2091,000000	7,807500
2090,000000	7,801300
2089,000000	7,781900
2088,000000	7,762000
2087,000000	7,749500
2086,000000	7,730600
2085,000000	7,711400
2084,000000	7,696900
2083,000000	7,680300
2082,000000	7,662300
2081,000000	7,641100
2080,000000	7,629000
2079,000000	7,616000
2078,000000	7,601000
2077,000000	7,595300
2076,000000	7,573500
2075,000000	7,541800
2074,000000	7,517700
2073,000000	7,495200
2072,000000	7,489300
2071,000000	7,474300
2070,000000	7,458900
2069,000000	7,437600
2068,000000	7,410600
2067,000000	7,392200
2066,000000	7,372800
2065,000000	7,345200
2064,000000	7,330700
2063,000000	7,316500
2062,000000	7,296200
2061,000000	7,290400
2060,000000	7,267400
2059,000000	7,252500
2058,000000	7,257600
2057,000000	7,264300
2056,000000	7,263700
2055,000000	7,260000
2054,000000	7,271400
2053,000000	7,285100
2052,000000	7,294400
2051,000000	7,298000
2050,000000	7,320100
2049,000000	7,358600
2048,000000	7,383800
2047,000000	7,412100
2046,000000	7,440000
2045,000000	7,480200
2044,000000	7,517100
2043,000000	7,539900
2042,000000	7,576000
2041,000000	7,616100
2040,000000	7,657400
2039,000000	7,698200
2038,000000	7,737500
2037,000000	7,762500
2036,000000	7,793300
2035,000000	7,827400
2034,000000	7,845200
2033,000000	7,861300
2032,000000	7,899000
2031,000000	7,928700
2030,000000	7,950000
2029,000000	7,971500
2028,000000	7,970600
2027,000000	7,988300
2026,000000	8,014500
2025,000000	8,024700
2024,000000	8,033100
2023,000000	8,037400
2022,000000	8,036200
2021,000000	8,053500
2020,000000	8,050300
2019,000000	8,062600
2018,000000	8,054800
2017,000000	8,055100
2016,000000	8,060900
2015,000000	8,068800
2014,000000	8,068900
2013,000000	8,039200
2012,000000	8,036400
2011,000000	8,015700
2010,000000	8,019800
2009,000000	8,005700
2008,000000	7,999000
2007,000000	7,990300
2006,000000	7,971200
2005,000000	7,949600
2004,000000	7,919100
2003,000000	7,900200
2002,000000	7,887500
2001,000000	7,863500
2000,000000	7,796900
1999,000000	7,786700
1998,000000	7,774400
1997,000000	7,745900
1996,000000	7,716700
1995,000000	7,689200
1994,000000	7,635700
1993,000000	7,629900
1992,000000	7,595800
1991,000000	7,562300
1990,000000	7,519600
1989,000000	7,473000
1988,000000	7,440500
1987,000000	7,407500
1986,000000	7,375500
1985,000000	7,340500
1984,000000	7,284200
1983,000000	7,259700
1982,000000	7,212700
1981,000000	7,176100
1980,000000	7,147400
1979,000000	7,107800
1978,000000	7,052400
1977,000000	7,012200
1976,000000	6,987900
1975,000000	6,963500
1974,000000	6,938600
1973,000000	6,902500
1972,000000	6,840700
1971,000000	6,829300
1970,000000	6,793800
1969,000000	6,770900
1968,000000	6,718000
1967,000000	6,695200
1966,000000	6,653600
1965,000000	6,651800
1964,000000	6,618400
1963,000000	6,577500
1962,000000	6,575400
1961,000000	6,525500
1960,000000	6,501800
1959,000000	6,464000
1958,000000	6,455800
1957,000000	6,432000
1956,000000	6,397800
1955,000000	6,377200
1954,000000	6,338700
1953,000000	6,344600
1952,000000	6,315100
1951,000000	6,281800
1950,000000	6,262000
1949,000000	6,255600
1948,000000	6,239100
1947,000000	6,196700
1946,000000	6,198800
1945,000000	6,174600
1944,000000	6,167400
1943,000000	6,140500
1942,000000	6,145800
1941,000000	6,137600
1940,000000	6,118000
1939,000000	6,131900
1938,000000	6,100800
1937,000000	6,107400
1936,000000	6,113100
1935,000000	6,091800
1934,000000	6,111500
1933,000000	6,125200
1932,000000	6,123900
1931,000000	6,153500
1930,000000	6,161800
1929,000000	6,195200
1928,000000	6,207500
1927,000000	6,222800
1926,000000	6,238500
1925,000000	6,248500
1924,000000	6,300500
1923,000000	6,356300
1922,000000	6,367600
1921,000000	6,400100
1920,000000	6,449600
1919,000000	6,488700
1918,000000	6,539000
1917,000000	6,588100
1916,000000	6,654200
1915,000000	6,710100
1914,000000	6,758500
1913,000000	6,837600
1912,000000	6,903900
1911,000000	6,993400
1910,000000	7,055800
1909,000000	7,124800
1908,000000	7,198000
1907,000000	7,297000
1906,000000	7,413000
1905,000000	7,507000
1904,000000	7,630900
1903,000000	7,740000
1902,000000	7,850100
1901,000000	7,973300
1900,000000	8,097500
1899,000000	8,252600
1898,000000	8,391900
1897,000000	8,535400
1896,000000	8,716300
1895,000000	8,871400
1894,000000	9,067300
1893,000000	9,243400
1892,000000	9,432200
1891,000000	9,671900
1890,000000	9,903000
1889,000000	10,133800
1888,000000	10,394300
1887,000000	10,690300
1886,000000	11,000400
1885,000000	11,351900
1884,000000	11,719200
1883,000000	12,141300
1882,000000	12,574900
1881,000000	13,041600
1880,000000	13,532200
1879,000000	13,970300
1878,000000	14,450100
1877,000000	14,922600
1876,000000	15,382700
1875,000000	15,842900
1874,000000	16,276300
1873,000000	16,697400
1872,000000	17,121800
1871,000000	17,500800
1870,000000	17,881700
1869,000000	18,234600
1868,000000	18,575400
1867,000000	18,825000
1866,000000	19,074100
1865,000000	19,289400
1864,000000	19,503700
1863,000000	19,682400
1862,000000	19,844300
1861,000000	20,018300
1860,000000	20,193900
1859,000000	20,316600
1858,000000	20,428400
1857,000000	20,532700
1856,000000	20,635200
1855,000000	20,698500
1854,000000	20,744100
1853,000000	20,795300
1852,000000	20,797100
1851,000000	20,803900
1850,000000	20,831300
1849,000000	20,835500
1848,000000	20,837600
1847,000000	20,825000
1846,000000	20,781200
1845,000000	20,731000
1844,000000	20,717600
1843,000000	20,703800
1842,000000	20,712500
1841,000000	20,713000
1840,000000	20,693100
1839,000000	20,673500
1838,000000	20,645100
1837,000000	20,611500
1836,000000	20,571800
1835,000000	20,527800
1834,000000	20,471700
1833,000000	20,413700
1832,000000	20,379700
1831,000000	20,329300
1830,000000	20,261000
1829,000000	20,198900
1828,000000	20,134800
1827,000000	20,067700
1826,000000	19,989600
1825,000000	19,921100
1824,000000	19,871500
1823,000000	19,817700
1822,000000	19,785800
1821,000000	19,774300
1820,000000	19,736900
1819,000000	19,685800
1818,000000	19,643200
1817,000000	19,615300
1816,000000	19,604100
1815,000000	19,604200
1814,000000	19,585600
1813,000000	19,552700
1812,000000	19,538900
1811,000000	19,524800
1810,000000	19,501700
1809,000000	19,455700
1808,000000	19,422300
1807,000000	19,392400
1806,000000	19,337400
1805,000000	19,278700
1804,000000	19,230300
1803,000000	19,185600
1802,000000	19,137100
1801,000000	19,094300
1800,000000	19,037900
1799,000000	18,977800
1798,000000	18,911800
1797,000000	18,868600
1796,000000	18,819900
1795,000000	18,770400
1794,000000	18,722300
1793,000000	18,659900
1792,000000	18,604500
1791,000000	18,547400
1790,000000	18,487600
1789,000000	18,420000
1788,000000	18,366500
1787,000000	18,318000
1786,000000	18,250100
1785,000000	18,171300
1784,000000	18,105300
1783,000000	18,042500
1782,000000	17,968000
1781,000000	17,882100
1780,000000	17,796400
1779,000000	17,722100
1778,000000	17,650100
1777,000000	17,568300
1776,000000	17,479900
1775,000000	17,385300
1774,000000	17,282200
1773,000000	17,169600
1772,000000	17,073800
1771,000000	16,965300
1770,000000	16,843500
1769,000000	16,724600
1768,000000	16,611700
1767,000000	16,506300
1766,000000	16,408200
1765,000000	16,326200
1764,000000	16,259900
1763,000000	16,225000
1762,000000	16,206200
1761,000000	16,217100
1760,000000	16,246800
1759,000000	16,300500
1758,000000	16,368500
1757,000000	16,441200
1756,000000	16,503500
1755,000000	16,565500
1754,000000	16,631700
1753,000000	16,661600
1752,000000	16,675300
1751,000000	16,690200
1750,000000	16,686600
1749,000000	16,667500
1748,000000	16,631100
1747,000000	16,587900
1746,000000	16,535400
1745,000000	16,444100
1744,000000	16,333400
1743,000000	16,228600
1742,000000	16,081800
1741,000000	15,912500
1740,000000	15,727900
1739,000000	15,523100
1738,000000	15,306500
1737,000000	15,129100
1736,000000	14,956800
1735,000000	14,820600
1734,000000	14,716600
1733,000000	14,651100
1732,000000	14,639300
1731,000000	14,678600
1730,000000	14,741700
1729,000000	14,824700
1728,000000	14,916400
1727,000000	15,019900
1726,000000	15,122500
1725,000000	15,235000
1724,000000	15,312400
1723,000000	15,399300
1722,000000	15,453800
1721,000000	15,485500
1720,000000	15,494100
1719,000000	15,504700
1718,000000	15,526300
1717,000000	15,562000
1716,000000	15,610300
1715,000000	15,642500
1714,000000	15,711900
1713,000000	15,793000
1712,000000	15,835000
1711,000000	15,869100
1710,000000	15,918800
1709,000000	15,949100
1708,000000	15,935200
1707,000000	15,919800
1706,000000	15,887800
1705,000000	15,852900
1704,000000	15,793200
1703,000000	15,713100
1702,000000	15,631900
1701,000000	15,542600
1700,000000	15,417800
1699,000000	15,278700
1698,000000	15,128900
1697,000000	14,996600
1696,000000	14,875400
1695,000000	14,787900
1694,000000	14,785100
1693,000000	14,823800
1692,000000	14,878900
1691,000000	15,024900
1690,000000	15,203300
1689,000000	15,363400
1688,000000	15,506500
1687,000000	15,605300
1686,000000	15,668600
1685,000000	15,708100
1684,000000	15,749700
1683,000000	15,840800
1682,000000	15,990500
1681,000000	16,240200
1680,000000	16,636200
1679,000000	17,119500
1678,000000	17,611400
1677,000000	18,115900
1676,000000	18,629700
1675,000000	19,136300
1674,000000	19,557400
1673,000000	19,920600
1672,000000	20,248600
1671,000000	20,523800
1670,000000	20,757300
1669,000000	20,961700
1668,000000	21,160300
1667,000000	21,317700
1666,000000	21,451700
1665,000000	21,576900
1664,000000	21,671200
1663,000000	21,768000
1662,000000	21,818900
1661,000000	21,880700
1660,000000	21,938700
1659,000000	21,985900
1658,000000	22,009000
1657,000000	22,041800
1656,000000	22,062100
1655,000000	22,053300
1654,000000	22,060500
1653,000000	22,057800
1652,000000	22,033500
1651,000000	22,025900
1650,000000	21,973200
1649,000000	21,926200
1648,000000	21,910200
1647,000000	21,859500
1646,000000	21,817700
1645,000000	21,762300
1644,000000	21,682500
1643,000000	21,619100
1642,000000	21,566000
1641,000000	21,525300
1640,000000	21,455400
1639,000000	21,371300
1638,000000	21,310000
1637,000000	21,237100
1636,000000	21,158600
1635,000000	21,098500
1634,000000	21,028800
1633,000000	20,958300
1632,000000	20,863000
1631,000000	20,766800
1630,000000	20,701900
1629,000000	20,610100
1628,000000	20,521000
1627,000000	20,442600
1626,000000	20,341300
1625,000000	20,253900
1624,000000	20,186900
1623,000000	20,107100
1622,000000	19,999400
1621,000000	19,924000
1620,000000	19,832000
1619,000000	19,760900
1618,000000	19,685100
1617,000000	19,603000
1616,000000	19,512100
1615,000000	19,448800
1614,000000	19,363600
1613,000000	19,281600
1612,000000	19,214300
1611,000000	19,144800
1610,000000	19,074600
1609,000000	18,993900
1608,000000	18,925300
1607,000000	18,863300
1606,000000	18,779400
1605,000000	18,726900
1604,000000	18,644800
1603,000000	18,558700
1602,000000	18,478000
1601,000000	18,408500
1600,000000	18,334200
1599,000000	18,278400
1598,000000	18,213900
1597,000000	18,156200
1596,000000	18,067200
1595,000000	17,989600
1594,000000	17,923400
1593,000000	17,865500
1592,000000	17,811000
1591,000000	17,738500
1590,000000	17,688400
1589,000000	17,626900
1588,000000	17,575700
1587,000000	17,537700
1586,000000	17,477600
1585,000000	17,431100
1584,000000	17,371700
1583,000000	17,333900
1582,000000	17,313300
1581,000000	17,249800
1580,000000	17,218100
1579,000000	17,175900
1578,000000	17,152700
1577,000000	17,127000
1576,000000	17,097100
1575,000000	17,073100
1574,000000	17,054200
1573,000000	17,037500
1572,000000	17,024000
1571,000000	17,010800
1570,000000	17,015700
1569,000000	17,004800
1568,000000	16,991800
1567,000000	16,981800
1566,000000	16,976500
1565,000000	16,996900
1564,000000	16,999500
1563,000000	16,978400
1562,000000	16,989000
1561,000000	16,992500
1560,000000	16,987500
1559,000000	16,985200
1558,000000	16,977300
1557,000000	16,969400
1556,000000	16,957800
1555,000000	16,943400
1554,000000	16,917100
1553,000000	16,891000
1552,000000	16,872700
1551,000000	16,870400
1550,000000	16,841500
1549,000000	16,805300
1548,000000	16,792900
1547,000000	16,763200
1546,000000	16,724200
1545,000000	16,718900
1544,000000	16,689500
1543,000000	16,652800
1542,000000	16,634800
1541,000000	16,608400
1540,000000	16,590400
1539,000000	16,575200
1538,000000	16,548100
1537,000000	16,523800
1536,000000	16,506900
1535,000000	16,489200
1534,000000	16,464300
1533,000000	16,425200
1532,000000	16,393400
1531,000000	16,381700
1530,000000	16,355500
1529,000000	16,315900
1528,000000	16,275000
1527,000000	16,233800
1526,000000	16,198700
1525,000000	16,163600
1524,000000	16,118600
1523,000000	16,078100
1522,000000	16,028600
1521,000000	15,973800
1520,000000	15,919900
1519,000000	15,883800
1518,000000	15,843700
1517,000000	15,787400
1516,000000	15,745900
1515,000000	15,705800
1514,000000	15,652500
1513,000000	15,605900
1512,000000	15,549800
1511,000000	15,490900
1510,000000	15,447100
1509,000000	15,395100
1508,000000	15,337600
1507,000000	15,292400
1506,000000	15,249600
1505,000000	15,194600
1504,000000	15,130500
1503,000000	15,074100
1502,000000	15,028200
1501,000000	14,975400
1500,000000	14,921000
1499,000000	14,873400
1498,000000	14,838900
1497,000000	14,790100
1496,000000	14,745900
1495,000000	14,710900
1494,000000	14,661900
1493,000000	14,620100
1492,000000	14,588800
1491,000000	14,563700
1490,000000	14,536800
1489,000000	14,497400
1488,000000	14,463400
1487,000000	14,431600
1486,000000	14,396900
1485,000000	14,368700
1484,000000	14,345200
1483,000000	14,307000
1482,000000	14,275000
1481,000000	14,253300
1480,000000	14,255300
1479,000000	14,249700
1478,000000	14,223400
1477,000000	14,195800
1476,000000	14,174700
1475,000000	14,161600
1474,000000	14,167900
1473,000000	14,167600
1472,000000	14,168700
1471,000000	14,156800
1470,000000	14,143500
1469,000000	14,132900
1468,000000	14,121000
1467,000000	14,109900
1466,000000	14,104900
1465,000000	14,122700
1464,000000	14,132700
1463,000000	14,135000
1462,000000	14,145900
1461,000000	14,166300
1460,000000	14,208300
1459,000000	14,235100
1458,000000	14,250700
1457,000000	14,287100
1456,000000	14,331500
1455,000000	14,383800
1454,000000	14,419700
1453,000000	14,479600
1452,000000	14,550500
1451,000000	14,628100
1450,000000	14,702500
1449,000000	14,754700
1448,000000	14,811900
1447,000000	14,884700
1446,000000	14,965300
1445,000000	15,046000
1444,000000	15,121500
1443,000000	15,195300
1442,000000	15,282500
1441,000000	15,384600
1440,000000	15,472000
1439,000000	15,550200
1438,000000	15,641200
1437,000000	15,761600
1436,000000	15,860100
1435,000000	15,958300
1434,000000	16,058700
1433,000000	16,170900
1432,000000	16,294800
1431,000000	16,401900
1430,000000	16,526200
1429,000000	16,653600
1428,000000	16,781000
1427,000000	16,941600
1426,000000	17,095200
1425,000000	17,285100
1424,000000	17,452700
1423,000000	17,642800
1422,000000	17,821300
1421,000000	18,021000
1420,000000	18,250200
1419,000000	18,490800
1418,000000	18,721900
1417,000000	18,933100
1416,000000	19,171800
1415,000000	19,428100
1414,000000	19,685700
1413,000000	19,957300
1412,000000	20,225300
1411,000000	20,490600
1410,000000	20,809500
1409,000000	21,177400
1408,000000	21,557200
1407,000000	21,948800
1406,000000	22,343600
1405,000000	22,741300
1404,000000	23,181900
1403,000000	23,630800
1402,000000	24,047500
1401,000000	24,484100
1400,000000	24,976900
1399,000000	25,409400
1398,000000	25,786900
1397,000000	26,134300
1396,000000	26,511500
1395,000000	26,926400
1394,000000	27,339600
1393,000000	27,626600
1392,000000	27,948900
1391,000000	28,332000
1390,000000	28,724100
1389,000000	29,101800
1388,000000	29,567400
1387,000000	30,065500
1386,000000	30,609200
1385,000000	31,145200
1384,000000	31,719700
1383,000000	32,395800
1382,000000	33,030800
1381,000000	33,617600
1380,000000	34,136500
1379,000000	34,501600
1378,000000	34,826100
1377,000000	35,057500
1376,000000	35,300100
1375,000000	35,543200
1374,000000	35,831000
1373,000000	36,108400
1372,000000	36,501500
1371,000000	36,870100
1370,000000	37,287400
1369,000000	37,651900
1368,000000	37,988400
1367,000000	38,359200
1366,000000	38,671400
1365,000000	38,892200
1364,000000	39,185500
1363,000000	39,392200
1362,000000	39,618600
1361,000000	39,803600
1360,000000	39,987400
1359,000000	40,087300
1358,000000	40,158200
1357,000000	40,285000
1356,000000	40,470600
1355,000000	40,716100
1354,000000	41,060900
1353,000000	41,528200
1352,000000	41,935000
1351,000000	42,486400
1350,000000	43,016400
1349,000000	43,520600
1348,000000	43,996700
1347,000000	44,404500
1346,000000	44,787700
1345,000000	45,164000
1344,000000	45,546100
1343,000000	45,935500
1342,000000	46,277100
1341,000000	46,635700
1340,000000	46,960300
1339,000000	47,285700
1338,000000	47,623300
1337,000000	47,944100
1336,000000	48,262400
1335,000000	48,581400
1334,000000	48,869800
1333,000000	49,176700
1332,000000	49,459800
1331,000000	49,741400
1330,000000	50,019700
1329,000000	50,270900
1328,000000	50,528500
1327,000000	50,775700
1326,000000	51,000500
1325,000000	51,234900
1324,000000	51,448900
1323,000000	51,640900
1322,000000	51,843700
1321,000000	52,038600
1320,000000	52,233700
1319,000000	52,397300
1318,000000	52,572300
1317,000000	52,745400
1316,000000	52,895200
1315,000000	53,055200
1314,000000	53,207500
1313,000000	53,349200
1312,000000	53,489200
1311,000000	53,600500
1310,000000	53,731300
1309,000000	53,840900
1308,000000	53,951700
1307,000000	54,049200
1306,000000	54,125000
1305,000000	54,222100
1304,000000	54,290600
1303,000000	54,358300
1302,000000	54,417100
1301,000000	54,460500
1300,000000	54,517400
1299,000000	54,558700
1298,000000	54,577400
1297,000000	54,609900
1296,000000	54,626700
1295,000000	54,648100
1294,000000	54,674100
1293,000000	54,679200
1292,000000	54,694000
1291,000000	54,707900
1290,000000	54,697600
1289,000000	54,681100
1288,000000	54,673700
1287,000000	54,635000
1286,000000	54,599000
1285,000000	54,585300
1284,000000	54,540100
1283,000000	54,487300
1282,000000	54,430200
1281,000000	54,380100
1280,000000	54,328200
1279,000000	54,276200
1278,000000	54,223800
1277,000000	54,162200
1276,000000	54,128200
1275,000000	54,085800
1274,000000	54,036400
1273,000000	53,992800
1272,000000	53,947500
1271,000000	53,908600
1270,000000	53,892300
1269,000000	53,854700
1268,000000	53,800100
1267,000000	53,756500
1266,000000	53,713600
1265,000000	53,671000
1264,000000	53,629300
1263,000000	53,568100
1262,000000	53,526000
1261,000000	53,483200
1260,000000	53,428100
1259,000000	53,373500
1258,000000	53,325100
1257,000000	53,269900
1256,000000	53,215400
1255,000000	53,147600
1254,000000	53,080700
1253,000000	52,997900
1252,000000	52,932800
1251,000000	52,853200
1250,000000	52,758800
1249,000000	52,671300
1248,000000	52,587300
1247,000000	52,498000
1246,000000	52,388600
1245,000000	52,273400
1244,000000	52,145300
1243,000000	52,025100
1242,000000	51,898000
1241,000000	51,762600
1240,000000	51,618700
1239,000000	51,470200
1238,000000	51,307200
1237,000000	51,155100
1236,000000	51,016800
1235,000000	50,863300
1234,000000	50,700500
1233,000000	50,523600
1232,000000	50,347800
1231,000000	50,171900
1230,000000	49,995800
1229,000000	49,818600
1228,000000	49,630600
1227,000000	49,434600
1226,000000	49,237300
1225,000000	49,026800
1224,000000	48,822700
1223,000000	48,632700
1222,000000	48,432900
1221,000000	48,229900
1220,000000	48,025400
1219,000000	47,827400
1218,000000	47,625300
1217,000000	47,436100
1216,000000	47,262100
1215,000000	47,095300
1214,000000	46,921400
1213,000000	46,751500
1212,000000	46,603500
1211,000000	46,459300
1210,000000	46,312600
1209,000000	46,157100
1208,000000	46,011300
1207,000000	45,899900
1206,000000	45,809000
1205,000000	45,717000
1204,000000	45,637300
1203,000000	45,567800
1202,000000	45,509400
1201,000000	45,461800
1200,000000	45,410300
1199,000000	45,348700
1198,000000	45,275800
1197,000000	45,175700
1196,000000	45,029400
1195,000000	44,849000
1194,000000	44,617300
1193,000000	44,317600
1192,000000	43,966800
1191,000000	43,541600
1190,000000	43,082900
1189,000000	42,621500
1188,000000	42,203300
1187,000000	41,881800
1186,000000	41,680500
1185,000000	41,585400
1184,000000	41,630500
1183,000000	41,815700
1182,000000	42,115700
1181,000000	42,563800
1180,000000	43,054300
1179,000000	43,582500
1178,000000	44,114200
1177,000000	44,596500
1176,000000	45,032200
1175,000000	45,406700
1174,000000	45,747700
1173,000000	46,073800
1172,000000	46,410600
1171,000000	46,741200
1170,000000	47,093000
1169,000000	47,451500
1168,000000	47,788600
1167,000000	48,144300
1166,000000	48,516700
1165,000000	48,890000
1164,000000	49,276400
1163,000000	49,658200
1162,000000	50,032600
1161,000000	50,434200
1160,000000	50,830800
1159,000000	51,189100
1158,000000	51,557900
1157,000000	51,913300
1156,000000	52,254800
1155,000000	52,562600
1154,000000	52,831800
1153,000000	53,051200
1152,000000	53,223700
1151,000000	53,354500
1150,000000	53,445200
1149,000000	53,541400
1148,000000	53,626900
1147,000000	53,717000
1146,000000	53,845300
1145,000000	54,011700
1144,000000	54,234700
1143,000000	54,502500
1142,000000	54,846000
1141,000000	55,212200
1140,000000	55,607100
1139,000000	55,995500
1138,000000	56,408900
1137,000000	56,834600
1136,000000	57,269200
1135,000000	57,725500
1134,000000	58,188200
1133,000000	58,620200
1132,000000	58,992300
1131,000000	59,363500
1130,000000	59,707600
1129,000000	60,014700
1128,000000	60,291300
1127,000000	60,505100
1126,000000	60,672100
1125,000000	60,811800
1124,000000	60,921300
1123,000000	61,024500
1122,000000	61,125500
1121,000000	61,173000
1120,000000	61,238000
1119,000000	61,275300
1118,000000	61,310200
1117,000000	61,341000
1116,000000	61,349300
1115,000000	61,358400
1114,000000	61,351400
1113,000000	61,344700
1112,000000	61,331700
1111,000000	61,311400
1110,000000	61,328700
1109,000000	61,305900
1108,000000	61,312900
1107,000000	61,300900
1106,000000	61,291500
1105,000000	61,279600
1104,000000	61,265100
1103,000000	61,238400
1102,000000	61,242900
1101,000000	61,231100
1100,000000	61,218400
1099,000000	61,197000
1098,000000	61,177400
1097,000000	61,160900
1096,000000	61,109400
1095,000000	61,093000
1094,000000	61,050700
1093,000000	61,030400
1092,000000	60,975000
1091,000000	60,959800
1090,000000	60,915100
1089,000000	60,885900
1088,000000	60,807800
1087,000000	60,792400
1086,000000	60,724100
1085,000000	60,689000
1084,000000	60,654600
1083,000000	60,574700
1082,000000	60,526800
1081,000000	60,468600
1080,000000	60,427900
1079,000000	60,367600
1078,000000	60,306700
1077,000000	60,272000
1076,000000	60,219800
1075,000000	60,161600
1074,000000	60,095000
1073,000000	60,040200
1072,000000	59,983300
1071,000000	59,936400
1070,000000	59,868700
1069,000000	59,818200
1068,000000	59,758800
1067,000000	59,717000
1066,000000	59,646300
1065,000000	59,578500
1064,000000	59,525000
1063,000000	59,464100
1062,000000	59,410300
1061,000000	59,347600
1060,000000	59,276000
1059,000000	59,211900
1058,000000	59,150900
1057,000000	59,069400
1056,000000	59,006600
1055,000000	58,936700
1054,000000	58,870500
1053,000000	58,804000
1052,000000	58,731000
1051,000000	58,680700
1050,000000	58,598400
1049,000000	58,529200
1048,000000	58,489500
1047,000000	58,449700
1046,000000	58,389300
1045,000000	58,330500
1044,000000	58,289100
1043,000000	58,219500
1042,000000	58,180000
1041,000000	58,112000
1040,000000	58,069400
1039,000000	58,011600
1038,000000	57,962000
1037,000000	57,923300
1036,000000	57,849200
1035,000000	57,801100
1034,000000	57,738900
1033,000000	57,667100
1032,000000	57,612600
1031,000000	57,554400
1030,000000	57,485300
1029,000000	57,409300
1028,000000	57,342100
1027,000000	57,284700
1026,000000	57,203500
1025,000000	57,134500
1024,000000	57,047000
1023,000000	56,963900
1022,000000	56,907000
1021,000000	56,843600
1020,000000	56,760300
1019,000000	56,700600
1018,000000	56,636000
1017,000000	56,551600
1016,000000	56,501600
1015,000000	56,448000
1014,000000	56,403700
1013,000000	56,361300
1012,000000	56,315000
1011,000000	56,277000
1010,000000	56,264000
1009,000000	56,258600
1008,000000	56,254500
1007,000000	56,243800
1006,000000	56,217200
1005,000000	56,222700
1004,000000	56,232100
1003,000000	56,218700
1002,000000	56,210000
1001,000000	56,191700
1000,000000	56,188300
999,000000	56,179900
998,000000	56,178600
997,000000	56,181200
996,000000	56,168000
995,000000	56,168300
994,000000	56,169500
993,000000	56,173000
992,000000	56,172700
991,000000	56,158700
990,000000	56,162300
989,000000	56,176500
988,000000	56,162000
987,000000	56,190300
986,000000	56,206100
985,000000	56,206400
984,000000	56,209100
983,000000	56,232000
982,000000	56,239000
981,000000	56,241700
980,000000	56,246700
979,000000	56,271300
978,000000	56,284800
977,000000	56,281300
976,000000	56,293000
975,000000	56,320400
974,000000	56,334900
973,000000	56,334600
972,000000	56,335200
971,000000	56,346500
970,000000	56,360900
969,000000	56,367700
968,000000	56,360100
967,000000	56,380600
966,000000	56,396000
965,000000	56,385900
964,000000	56,381300
963,000000	56,384000
962,000000	56,406300
961,000000	56,441500
960,000000	56,445100
959,000000	56,437500
958,000000	56,442700
957,000000	56,469600
956,000000	56,482800
955,000000	56,471900
954,000000	56,455400
953,000000	56,439700
952,000000	56,421100
951,000000	56,421700
950,000000	56,434400
949,000000	56,420500
948,000000	56,389600
947,000000	56,364000
946,000000	56,332500
945,000000	56,312600
944,000000	56,287100
943,000000	56,233200
942,000000	56,203400
941,000000	56,174800
940,000000	56,114500
939,000000	56,055600
938,000000	56,017800
937,000000	55,978000
936,000000	55,913800
935,000000	55,839600
934,000000	55,777300
933,000000	55,719100
932,000000	55,680000
931,000000	55,615800
930,000000	55,532700
929,000000	55,458900
928,000000	55,415500
927,000000	55,346200
926,000000	55,248400
925,000000	55,160300
924,000000	55,101600
923,000000	55,018900
922,000000	54,915400
921,000000	54,830300
920,000000	54,737300
919,000000	54,632400
918,000000	54,528900
917,000000	54,424800
916,000000	54,305600
915,000000	54,190800
914,000000	54,057100
913,000000	53,974000
912,000000	53,858500
911,000000	53,709400
910,000000	53,574600
909,000000	53,457800
908,000000	53,345900
907,000000	53,243400
906,000000	53,145700
905,000000	53,044000
904,000000	52,958400
903,000000	52,869500
902,000000	52,786300
901,000000	52,715800
900,000000	52,635100
899,000000	52,546100
898,000000	52,469000
897,000000	52,399900
896,000000	52,331000
895,000000	52,251000
894,000000	52,146400
893,000000	52,053700
892,000000	51,976300
891,000000	51,865000
890,000000	51,738100
889,000000	51,622400
888,000000	51,483800
887,000000	51,383400
886,000000	51,267400
885,000000	51,129100
884,000000	50,980500
883,000000	50,830200
882,000000	50,665300
881,000000	50,515700
880,000000	50,345600
879,000000	50,169300
878,000000	49,959500
877,000000	49,718400
876,000000	49,479300
875,000000	49,269900
874,000000	48,985400
873,000000	48,672800
872,000000	48,321600
871,000000	48,020200
870,000000	47,847600
869,000000	47,761900
868,000000	47,691800
867,000000	47,664500
866,000000	47,593300
865,000000	47,489500
864,000000	47,391300
863,000000	47,308400
862,000000	47,241700
861,000000	47,168600
860,000000	47,073000
859,000000	46,982700
858,000000	46,898600
857,000000	50,344400
856,000000	50,945800
855,000000	50,538100
854,000000	50,562100
853,000000	50,251900
852,000000	50,436200
851,000000	50,160900
850,000000	50,065900
849,000000	49,873300
848,000000	49,772400
847,000000	49,375300
846,000000	49,357200
845,000000	49,431300
844,000000	49,351700
843,000000	49,223600
842,000000	48,763500
841,000000	48,593100
840,000000	48,582000
839,000000	48,582500
838,000000	48,528400
837,000000	48,293300
836,000000	48,147300
835,000000	47,950700
834,000000	47,977900
833,000000	47,919800
832,000000	47,856300
831,000000	47,681200
830,000000	47,603200
829,000000	47,271600
828,000000	47,434400
827,000000	47,361100
826,000000	47,144800
825,000000	47,036700
824,000000	47,137600
823,000000	47,001600
822,000000	46,903800
821,000000	46,857000
820,000000	46,826600
819,000000	46,519900
818,000000	46,588300
817,000000	46,528500
816,000000	46,597800
815,000000	46,553100
814,000000	46,224500
813,000000	46,312000
812,000000	46,198100
811,000000	46,182900
810,000000	46,069700
809,000000	46,143200
808,000000	45,974200
807,000000	46,012000
806,000000	45,946800
805,000000	45,815800
804,000000	45,966200
803,000000	45,923100
802,000000	45,787000
801,000000	45,950700
800,000000	45,854800
799,000000	45,696600
798,000000	45,831500
797,000000	45,774100
796,000000	45,701700
795,000000	45,719100
794,000000	45,549200
793,000000	45,645100
792,000000	45,469200
791,000000	45,442900
790,000000	45,460700
789,000000	45,453300
788,000000	45,370700
787,000000	45,437600
786,000000	45,359600
785,000000	45,182400
784,000000	45,176900
783,000000	45,179700
782,000000	44,999800
781,000000	45,019800
780,000000	44,926100
779,000000	44,917800
778,000000	44,814700
777,000000	44,692300
776,000000	44,791400
775,000000	44,618500
774,000000	44,541100
773,000000	44,518300
772,000000	44,400500
771,000000	44,303800
770,000000	44,211500
769,000000	44,071700
768,000000	43,986700
767,000000	43,877300
766,000000	43,878200
765,000000	43,793500
764,000000	43,630600
763,000000	43,530800
762,000000	43,365500
761,000000	43,283100
760,000000	43,236100
759,000000	43,094600
758,000000	42,948500
757,000000	42,869200
756,000000	42,732100
755,000000	42,601200
754,000000	42,506600
753,000000	42,391100
752,000000	42,236000
751,000000	42,046400
750,000000	41,973300
749,000000	41,866100
748,000000	41,791300
747,000000	41,585300
746,000000	41,423600
745,000000	41,275400
744,000000	41,109100
743,000000	40,984800
742,000000	40,856500
741,000000	40,796000
740,000000	40,604900
739,000000	40,474300
738,000000	40,349700
737,000000	40,225000
736,000000	40,111900
735,000000	39,872000
734,000000	39,774600
733,000000	39,606700
732,000000	39,477400
731,000000	39,238300
730,000000	39,087500
729,000000	38,944300
728,000000	38,760000
727,000000	38,569800
726,000000	38,399100
725,000000	38,204200
724,000000	38,037600
723,000000	37,849000
722,000000	37,608800
721,000000	37,395500
720,000000	37,199100
719,000000	37,006600
718,000000	36,793100
717,000000	36,554200
716,000000	36,294900
715,000000	36,058400
714,000000	35,797100
713,000000	35,589400
712,000000	35,380200
711,000000	35,108100
710,000000	34,873700
709,000000	34,641500
708,000000	34,382600
707,000000	34,105000
706,000000	33,791600
705,000000	33,529800
704,000000	33,257300
703,000000	32,977600
702,000000	32,685800
701,000000	32,401100
700,000000	32,141500
699,000000	31,831600
698,000000	31,554300
697,000000	31,285100
696,000000	30,994100
695,000000	30,722100
694,000000	30,496700
693,000000	30,246700
692,000000	29,947700
691,000000	29,689200
690,000000	29,439400
689,000000	29,188200
688,000000	28,954800
687,000000	28,739200
686,000000	28,495100
685,000000	28,283000
684,000000	28,068800
683,000000	27,867800
682,000000	27,659800
681,000000	27,443700
680,000000	27,233400
679,000000	27,054900
678,000000	26,901000
677,000000	26,724700
676,000000	26,565900
675,000000	26,397200
674,000000	26,240300
673,000000	26,062300
672,000000	25,896200
671,000000	25,711200
670,000000	25,556000
669,000000	25,404900
668,000000	25,248000
667,000000	25,103400
666,000000	24,965400
665,000000	24,795100
664,000000	24,650000
663,000000	24,522100
662,000000	24,387000
661,000000	24,283300
660,000000	24,171700
659,000000	24,058000
658,000000	23,964200
657,000000	23,852000
656,000000	23,745600
655,000000	23,645200
654,000000	23,563400
653,000000	23,499600
652,000000	23,436400
651,000000	23,370200
650,000000	23,292200
649,000000	23,244700
648,000000	23,237800
647,000000	23,202000
646,000000	23,162100
645,000000	23,148100
644,000000	23,150000
643,000000	23,152100
642,000000	23,131600
641,000000	23,141500
640,000000	23,180900
639,000000	23,202300
638,000000	23,220000
637,000000	23,253100
636,000000	23,296800
635,000000	23,351200
634,000000	23,400600
633,000000	23,437900
632,000000	23,490600
631,000000	23,567400
630,000000	23,630400
629,000000	23,687800
628,000000	23,740000
627,000000	23,788800
626,000000	23,852800
625,000000	23,919100
624,000000	23,990500
623,000000	24,055300
622,000000	24,136900
621,000000	24,225100
620,000000	24,305500
619,000000	24,370800
618,000000	24,427200
617,000000	24,503500
616,000000	24,556800
615,000000	24,599300
614,000000	24,655300
613,000000	24,720900
612,000000	24,796100
611,000000	24,864000
610,000000	24,925700
609,000000	24,976400
608,000000	25,030700
607,000000	25,082500
606,000000	25,117600
605,000000	25,152200
604,000000	25,175400
603,000000	25,193800
602,000000	25,216300
601,000000	25,249200
600,000000	25,249200
599,000000	25,236700
598,000000	25,254300
597,000000	25,280400
596,000000	25,269700
595,000000	25,257200
594,000000	25,256700
593,000000	25,255700
592,000000	25,242800
591,000000	25,178700
590,000000	25,146300
589,000000	25,139900
588,000000	25,105400
587,000000	25,081400
586,000000	25,024300
585,000000	24,980300
584,000000	24,939800
583,000000	24,878300
582,000000	24,812200
581,000000	24,750100
580,000000	24,685400
579,000000	24,616000
578,000000	24,537200
577,000000	24,458400
576,000000	24,396800
575,000000	24,329500
574,000000	24,249800
573,000000	24,141900
572,000000	24,047000
571,000000	23,953600
570,000000	23,851200
569,000000	23,743000
568,000000	23,629000
567,000000	23,498600
566,000000	23,377100
565,000000	23,257100
564,000000	23,122100
563,000000	22,977800
562,000000	22,831600
561,000000	22,663100
560,000000	22,501700
559,000000	22,254800
558,000000	21,977500
557,000000	21,801100
556,000000	21,661800
555,000000	21,503100
554,000000	21,321600
553,000000	21,141100
552,000000	20,935700
551,000000	20,752200
550,000000	20,563600
549,000000	20,382200
548,000000	20,214300
547,000000	20,061000
546,000000	19,913300
545,000000	19,731800
544,000000	19,531200
543,000000	19,137500
542,000000	18,824600
541,000000	18,570600
540,000000	18,374600
539,000000	18,172500
538,000000	17,958700
537,000000	17,735500
536,000000	17,537000
535,000000	17,328300
534,000000	17,104300
533,000000	16,887900
532,000000	16,687200
531,000000	16,461700
530,000000	16,239500
529,000000	16,041200
528,000000	15,849300
527,000000	15,642900
526,000000	15,424600
525,000000	15,240300
524,000000	15,043500
523,000000	14,848200
522,000000	14,646900
521,000000	14,461000
520,000000	14,273100
519,000000	14,101300
518,000000	13,938100
517,000000	13,751800
516,000000	13,570200
515,000000	13,416400
514,000000	13,273000
513,000000	13,108300
512,000000	12,956500
511,000000	12,828800
510,000000	12,711000
509,000000	12,588100
508,000000	12,454400
507,000000	12,343700
506,000000	12,222300
505,000000	12,106100
504,000000	12,027000
503,000000	11,943800
502,000000	11,826200
501,000000	11,747100
500,000000	11,653100
499,000000	11,559300
498,000000	11,481800
497,000000	11,400000
496,000000	11,346200
495,000000	11,264300
494,000000	11,193800
493,000000	11,150800
492,000000	11,082500
491,000000	11,030500
490,000000	10,974300
489,000000	10,910700
488,000000	10,850300
487,000000	10,786200
486,000000	10,729400
485,000000	10,688600
484,000000	10,619000
483,000000	10,554100
482,000000	10,481600
481,000000	10,400500
480,000000	10,314200
479,000000	10,233200
478,000000	10,156900
477,000000	10,085500
476,000000	10,025000
475,000000	9,926500
474,000000	9,846600
473,000000	9,786500
472,000000	9,702900
471,000000	9,646000
470,000000	9,557300
469,000000	9,485200
468,000000	9,418200
467,000000	9,346300
466,000000	9,270300
465,000000	9,216500
464,000000	9,127400
463,000000	9,064800
462,000000	9,003900
461,000000	8,917800
460,000000	8,865100
459,000000	8,793900
458,000000	8,725200
457,000000	8,652300
456,000000	8,598300
455,000000	8,537600
454,000000	8,440700
453,000000	8,363000
452,000000	8,296500
451,000000	8,203000
450,000000	8,157200
449,000000	8,051200
448,000000	7,971300
447,000000	7,875000
446,000000	7,788200
445,000000	7,710100
444,000000	7,628200
443,000000	7,531400
442,000000	7,447800
441,000000	7,354300
440,000000	7,266300
439,000000	7,171200
438,000000	7,086600
437,000000	6,994400
436,000000	6,907400
435,000000	6,828200
434,000000	6,757100
433,000000	6,662500
432,000000	6,571600
431,000000	6,494000
430,000000	6,419900
429,000000	6,340700
428,000000	6,259200
427,000000	6,199600
426,000000	6,145000
425,000000	6,064000
424,000000	5,995400
423,000000	5,916300
422,000000	5,862600
421,000000	5,793700
420,000000	5,735000
419,000000	5,678900
418,000000	5,622600
417,000000	5,571400
416,000000	5,502900
415,000000	5,444400
414,000000	5,397300
413,000000	5,353100
412,000000	5,312500
411,000000	5,255400
410,000000	5,212300
409,000000	5,186400
408,000000	5,139100
407,000000	5,105500
406,000000	5,055500
405,000000	5,020300
404,000000	4,972500
403,000000	4,946400
402,000000	4,904600
401,000000	4,882900
400,000000	4,849600
399,000000	4,822900
398,000000	4,803700
397,000000	4,768500
396,000000	4,735900
395,000000	4,709900
394,000000	4,699300
393,000000	4,673400
392,000000	4,644100
391,000000	4,630000
390,000000	4,616900
389,000000	4,610200
388,000000	4,591800
387,000000	4,569800
386,000000	4,566300
385,000000	4,533800
384,000000	4,509900
383,000000	4,489700
382,000000	4,482800
381,000000	4,475200
380,000000	4,468100
379,000000	4,467900
378,000000	4,451000
377,000000	4,454600
376,000000	4,419300
375,000000	4,363600
374,000000	4,355400
373,000000	4,324800
372,000000	4,318500
371,000000	4,328100
370,000000	4,281200
369,000000	4,337600
368,000000	4,326500
367,000000	4,227000
366,000000	4,216500
365,000000	4,265700
364,000000	4,295500
363,000000	4,236200
362,000000	4,238400
361,000000	4,277800
360,000000	4,231200
359,000000	4,220800
358,000000	4,238800
357,000000	4,226100
356,000000	4,233000
355,000000	4,229700
354,000000	4,251500
353,000000	4,286000
352,000000	4,245500
351,000000	4,222500
350,000000	4,149800
349,000000	4,141800
348,000000	4,207300
347,000000	4,202700
346,000000	4,219800
345,000000	4,199000
344,000000	4,154000
343,000000	4,215500
342,000000	4,197200
341,000000	4,159600
340,000000	4,209200
339,000000	4,173400
338,000000	4,162600
337,000000	4,156700
336,000000	4,175500
335,000000	4,269000
334,000000	4,219000
333,000000	4,177000
332,000000	4,184600
331,000000	4,229700
330,000000	4,246700
329,000000	4,155200
328,000000	4,176000
327,000000	4,214700
326,000000	4,220800
325,000000	4,194000
324,000000	4,173500
323,000000	4,210800
322,000000	4,247500
321,000000	4,270000
320,000000	4,135000
319,000000	4,106400
318,000000	4,252300
317,000000	4,306000
316,000000	4,310100
315,000000	4,336600
314,000000	4,337300
313,000000	4,292200
312,000000	4,285000
311,000000	4,323800
310,000000	4,329000
309,000000	4,323800
308,000000	4,330000
307,000000	4,336200
306,000000	4,350800
305,000000	4,363700
304,000000	4,344300
303,000000	4,349700
302,000000	4,356600
301,000000	4,342400
300,000000	4,331200
299,000000	4,330300
298,000000	4,352400
297,000000	4,340800
296,000000	4,361500
295,000000	4,385300
294,000000	4,385400
293,000000	4,350300
292,000000	4,385400
291,000000	4,376100
290,000000	4,386500
289,000000	4,390100
288,000000	4,403700
287,000000	4,402700
286,000000	4,405200
285,000000	4,406600
284,000000	4,400000
283,000000	4,423700
282,000000	4,434200
281,000000	4,443100
280,000000	4,472600
279,000000	4,453600
278,000000	4,461100
277,000000	4,462900
276,000000	4,472600
275,000000	4,474500
274,000000	4,510400
273,000000	4,516700
272,000000	4,526500
271,000000	4,559700
270,000000	4,564000
269,000000	4,595000
268,000000	4,600400
267,000000	4,597400
266,000000	4,611400
265,000000	4,638200
264,000000	4,641700
263,000000	4,683500
262,000000	4,716100
261,000000	4,716600
260,000000	4,746900
259,000000	4,749700
258,000000	4,774300
257,000000	4,778100
256,000000	4,802700
255,000000	4,811900
254,000000	4,808800
253,000000	4,829400
252,000000	4,853600
251,000000	4,914300
250,000000	4,917000
