PE UV       SUBTECH     SPECTRUM    ASCII       PEDS        4.00        
   -1
CICIMAUCR0238-3.ASC
24/06/20
15:10:05.00
24/06/20
15:10:05.00
Vinicio Soto Monge
C. cupreomarginata. Sex M. Ventral 
250,000000
1
Lambda 1050
1050L1511233
PerkinElmer UV WinLab 6.3.2.0749 / 2.02.05 Lambda 900 UV/VIS/NIR, Aug  7 2015 09:38:08

0
0
3350/servo 860,8/2
0
0
UV/VIS
1
1
1
DoubleDePol,CommonBeamDepol,RBeamAtt,SBeamAtt,60mm sphere, WB InGaAs Detector
0
0
0
0
Program
Program
3350/servo 860,8/2
3350/0,2 860,8/0,2
3350/0,2 860,8/0,2
0
15.00
 
 
 
0
 
860,8
319,2
860,8
Front
100
on
S:100 R:100
0
0
0
0
 
0
 
 
 
0
 
 
0
0
0
0
0
 
 
 
 
0
0


0
0
#HDR
-1
-1
#GR
nm
%R
1.0
0.0
2500,000000
-1,000000
2251
8
58,836000
3,946800
#DATA
2500,000000	5,822000
2499,000000	5,660900
2498,000000	5,883500
2497,000000	5,812400
2496,000000	5,805500
2495,000000	5,761700
2494,000000	5,768600
2493,000000	5,789900
2492,000000	5,803700
2491,000000	5,662400
2490,000000	5,661500
2489,000000	5,633900
2488,000000	5,599500
2487,000000	5,679700
2486,000000	5,571800
2485,000000	5,547500
2484,000000	5,630600
2483,000000	5,578800
2482,000000	5,570200
2481,000000	5,640100
2480,000000	5,602100
2479,000000	5,605700
2478,000000	5,554900
2477,000000	5,556300
2476,000000	5,613900
2475,000000	5,571900
2474,000000	5,525600
2473,000000	5,535000
2472,000000	5,547000
2471,000000	5,564100
2470,000000	5,510100
2469,000000	5,503100
2468,000000	5,505400
2467,000000	5,533100
2466,000000	5,508700
2465,000000	5,519600
2464,000000	5,510200
2463,000000	5,543700
2462,000000	5,532500
2461,000000	5,522700
2460,000000	5,501900
2459,000000	5,527100
2458,000000	5,549000
2457,000000	5,544900
2456,000000	5,572500
2455,000000	5,590800
2454,000000	5,562400
2453,000000	5,558300
2452,000000	5,586300
2451,000000	5,636400
2450,000000	5,655400
2449,000000	5,692700
2448,000000	5,669200
2447,000000	5,688300
2446,000000	5,692600
2445,000000	5,707000
2444,000000	5,752200
2443,000000	5,784400
2442,000000	5,788000
2441,000000	5,776300
2440,000000	5,798500
2439,000000	5,803600
2438,000000	5,807900
2437,000000	5,850500
2436,000000	5,864200
2435,000000	5,884600
2434,000000	5,894200
2433,000000	5,886900
2432,000000	5,919500
2431,000000	5,924000
2430,000000	5,919900
2429,000000	5,964900
2428,000000	5,980500
2427,000000	5,987600
2426,000000	5,990600
2425,000000	6,000000
2424,000000	6,005200
2423,000000	6,022100
2422,000000	6,029200
2421,000000	6,028000
2420,000000	6,051600
2419,000000	6,063200
2418,000000	6,058200
2417,000000	6,059600
2416,000000	6,082900
2415,000000	6,080100
2414,000000	6,092700
2413,000000	6,110100
2412,000000	6,103800
2411,000000	6,118600
2410,000000	6,134500
2409,000000	6,147300
2408,000000	6,147800
2407,000000	6,154400
2406,000000	6,172500
2405,000000	6,176500
2404,000000	6,176000
2403,000000	6,185100
2402,000000	6,188600
2401,000000	6,196300
2400,000000	6,206600
2399,000000	6,218400
2398,000000	6,225700
2397,000000	6,243200
2396,000000	6,256700
2395,000000	6,261500
2394,000000	6,267400
2393,000000	6,290200
2392,000000	6,299100
2391,000000	6,305000
2390,000000	6,315200
2389,000000	6,315600
2388,000000	6,330100
2387,000000	6,328500
2386,000000	6,326700
2385,000000	6,338300
2384,000000	6,338000
2383,000000	6,346500
2382,000000	6,353900
2381,000000	6,352400
2380,000000	6,346900
2379,000000	6,347500
2378,000000	6,346200
2377,000000	6,344500
2376,000000	6,339500
2375,000000	6,331800
2374,000000	6,321700
2373,000000	6,315500
2372,000000	6,302600
2371,000000	6,301100
2370,000000	6,297700
2369,000000	6,287200
2368,000000	6,278900
2367,000000	6,263500
2366,000000	6,239300
2365,000000	6,237500
2364,000000	6,233600
2363,000000	6,223600
2362,000000	6,216600
2361,000000	6,187800
2360,000000	6,152000
2359,000000	6,146700
2358,000000	6,147100
2357,000000	6,137800
2356,000000	6,121700
2355,000000	6,106700
2354,000000	6,102800
2353,000000	6,102100
2352,000000	6,094500
2351,000000	6,090800
2350,000000	6,090000
2349,000000	6,101300
2348,000000	6,110500
2347,000000	6,111800
2346,000000	6,132800
2345,000000	6,142100
2344,000000	6,155100
2343,000000	6,160400
2342,000000	6,167100
2341,000000	6,173000
2340,000000	6,177100
2339,000000	6,200400
2338,000000	6,204800
2337,000000	6,196900
2336,000000	6,193900
2335,000000	6,203400
2334,000000	6,207000
2333,000000	6,200900
2332,000000	6,200100
2331,000000	6,189200
2330,000000	6,172700
2329,000000	6,166300
2328,000000	6,153700
2327,000000	6,136900
2326,000000	6,122500
2325,000000	6,108200
2324,000000	6,086400
2323,000000	6,055400
2322,000000	6,033000
2321,000000	6,020600
2320,000000	5,990300
2319,000000	5,974400
2318,000000	5,939800
2317,000000	5,917200
2316,000000	5,895900
2315,000000	5,859800
2314,000000	5,832700
2313,000000	5,793200
2312,000000	5,774400
2311,000000	5,755400
2310,000000	5,739000
2309,000000	5,722900
2308,000000	5,701200
2307,000000	5,700200
2306,000000	5,686900
2305,000000	5,681100
2304,000000	5,681600
2303,000000	5,689000
2302,000000	5,699600
2301,000000	5,730100
2300,000000	5,731500
2299,000000	5,749900
2298,000000	5,755900
2297,000000	5,776800
2296,000000	5,790800
2295,000000	5,807600
2294,000000	5,829600
2293,000000	5,846600
2292,000000	5,870700
2291,000000	5,890400
2290,000000	5,891200
2289,000000	5,898300
2288,000000	5,907500
2287,000000	5,912000
2286,000000	5,908000
2285,000000	5,899800
2284,000000	5,898300
2283,000000	5,888000
2282,000000	5,888300
2281,000000	5,882000
2280,000000	5,859100
2279,000000	5,854400
2278,000000	5,837600
2277,000000	5,828000
2276,000000	5,819100
2275,000000	5,799400
2274,000000	5,800500
2273,000000	5,787300
2272,000000	5,787000
2271,000000	5,794000
2270,000000	5,802800
2269,000000	5,804400
2268,000000	5,828200
2267,000000	5,829100
2266,000000	5,838800
2265,000000	5,859100
2264,000000	5,904500
2263,000000	5,957400
2262,000000	5,990300
2261,000000	6,037800
2260,000000	6,095700
2259,000000	6,150700
2258,000000	6,198300
2257,000000	6,292200
2256,000000	6,348000
2255,000000	6,433700
2254,000000	6,509100
2253,000000	6,576900
2252,000000	6,661700
2251,000000	6,739900
2250,000000	6,819300
2249,000000	6,908300
2248,000000	6,956600
2247,000000	7,026600
2246,000000	7,087000
2245,000000	7,192200
2244,000000	7,222100
2243,000000	7,276800
2242,000000	7,345100
2241,000000	7,391700
2240,000000	7,442100
2239,000000	7,470500
2238,000000	7,522300
2237,000000	7,558300
2236,000000	7,601900
2235,000000	7,608600
2234,000000	7,655400
2233,000000	7,684800
2232,000000	7,726100
2231,000000	7,732600
2230,000000	7,753800
2229,000000	7,766400
2228,000000	7,784300
2227,000000	7,802200
2226,000000	7,809000
2225,000000	7,797300
2224,000000	7,812600
2223,000000	7,808200
2222,000000	7,814500
2221,000000	7,830500
2220,000000	7,813500
2219,000000	7,789300
2218,000000	7,800900
2217,000000	7,766900
2216,000000	7,771600
2215,000000	7,759000
2214,000000	7,754700
2213,000000	7,761300
2212,000000	7,729100
2211,000000	7,751400
2210,000000	7,736100
2209,000000	7,730300
2208,000000	7,720800
2207,000000	7,716300
2206,000000	7,731700
2205,000000	7,705400
2204,000000	7,686700
2203,000000	7,685500
2202,000000	7,687700
2201,000000	7,682000
2200,000000	7,700100
2199,000000	7,671300
2198,000000	7,664500
2197,000000	7,668700
2196,000000	7,654000
2195,000000	7,676900
2194,000000	7,650300
2193,000000	7,680900
2192,000000	7,651000
2191,000000	7,652500
2190,000000	7,635100
2189,000000	7,631600
2188,000000	7,623000
2187,000000	7,632900
2186,000000	7,622300
2185,000000	7,635500
2184,000000	7,634800
2183,000000	7,610300
2182,000000	7,593500
2181,000000	7,594900
2180,000000	7,612500
2179,000000	7,596800
2178,000000	7,580000
2177,000000	7,588800
2176,000000	7,591800
2175,000000	7,590500
2174,000000	7,583900
2173,000000	7,585600
2172,000000	7,587700
2171,000000	7,593400
2170,000000	7,579100
2169,000000	7,586900
2168,000000	7,603400
2167,000000	7,591700
2166,000000	7,606500
2165,000000	7,617500
2164,000000	7,625000
2163,000000	7,620000
2162,000000	7,643600
2161,000000	7,652600
2160,000000	7,665900
2159,000000	7,671400
2158,000000	7,690600
2157,000000	7,697100
2156,000000	7,687000
2155,000000	7,720100
2154,000000	7,744300
2153,000000	7,744500
2152,000000	7,764400
2151,000000	7,776700
2150,000000	7,804400
2149,000000	7,830700
2148,000000	7,840100
2147,000000	7,853800
2146,000000	7,853900
2145,000000	7,865800
2144,000000	7,887500
2143,000000	7,902400
2142,000000	7,915000
2141,000000	7,930500
2140,000000	7,937100
2139,000000	7,945000
2138,000000	7,952600
2137,000000	7,973500
2136,000000	7,990300
2135,000000	7,997500
2134,000000	8,003900
2133,000000	8,005600
2132,000000	8,011200
2131,000000	8,014100
2130,000000	8,011700
2129,000000	8,026000
2128,000000	8,025800
2127,000000	8,028600
2126,000000	8,028900
2125,000000	8,019300
2124,000000	8,033500
2123,000000	8,022000
2122,000000	8,022900
2121,000000	8,013400
2120,000000	7,998800
2119,000000	8,000400
2118,000000	7,994600
2117,000000	7,981700
2116,000000	7,967700
2115,000000	7,954900
2114,000000	7,945400
2113,000000	7,942900
2112,000000	7,928100
2111,000000	7,912400
2110,000000	7,901500
2109,000000	7,884700
2108,000000	7,870200
2107,000000	7,854300
2106,000000	7,850500
2105,000000	7,837300
2104,000000	7,833500
2103,000000	7,824200
2102,000000	7,811600
2101,000000	7,793400
2100,000000	7,784600
2099,000000	7,781000
2098,000000	7,765900
2097,000000	7,756400
2096,000000	7,755500
2095,000000	7,743400
2094,000000	7,725500
2093,000000	7,716400
2092,000000	7,708100
2091,000000	7,708100
2090,000000	7,705900
2089,000000	7,679100
2088,000000	7,669600
2087,000000	7,672100
2086,000000	7,662300
2085,000000	7,645100
2084,000000	7,638400
2083,000000	7,637700
2082,000000	7,622700
2081,000000	7,603600
2080,000000	7,588000
2079,000000	7,588300
2078,000000	7,585800
2077,000000	7,565500
2076,000000	7,552800
2075,000000	7,534200
2074,000000	7,512100
2073,000000	7,506100
2072,000000	7,499500
2071,000000	7,469500
2070,000000	7,446000
2069,000000	7,441200
2068,000000	7,433300
2067,000000	7,407500
2066,000000	7,395100
2065,000000	7,389300
2064,000000	7,375500
2063,000000	7,355200
2062,000000	7,341800
2061,000000	7,331100
2060,000000	7,324000
2059,000000	7,314300
2058,000000	7,304200
2057,000000	7,300900
2056,000000	7,302200
2055,000000	7,305000
2054,000000	7,315100
2053,000000	7,330100
2052,000000	7,349000
2051,000000	7,354100
2050,000000	7,377000
2049,000000	7,407900
2048,000000	7,432100
2047,000000	7,458000
2046,000000	7,478400
2045,000000	7,510200
2044,000000	7,555900
2043,000000	7,601100
2042,000000	7,642900
2041,000000	7,675400
2040,000000	7,711900
2039,000000	7,743400
2038,000000	7,774500
2037,000000	7,801800
2036,000000	7,825600
2035,000000	7,870900
2034,000000	7,909600
2033,000000	7,926200
2032,000000	7,950800
2031,000000	7,995200
2030,000000	8,027400
2029,000000	8,046800
2028,000000	8,070400
2027,000000	8,073700
2026,000000	8,080600
2025,000000	8,102500
2024,000000	8,121200
2023,000000	8,136100
2022,000000	8,130300
2021,000000	8,141500
2020,000000	8,150200
2019,000000	8,181900
2018,000000	8,182000
2017,000000	8,186200
2016,000000	8,193300
2015,000000	8,199700
2014,000000	8,203500
2013,000000	8,198400
2012,000000	8,207800
2011,000000	8,215100
2010,000000	8,203600
2009,000000	8,198200
2008,000000	8,197800
2007,000000	8,162300
2006,000000	8,153300
2005,000000	8,157000
2004,000000	8,147300
2003,000000	8,120900
2002,000000	8,093000
2001,000000	8,065400
2000,000000	8,052100
1999,000000	8,042600
1998,000000	8,025100
1997,000000	8,006200
1996,000000	7,979800
1995,000000	7,955900
1994,000000	7,922100
1993,000000	7,904900
1992,000000	7,875900
1991,000000	7,853500
1990,000000	7,820800
1989,000000	7,797500
1988,000000	7,770100
1987,000000	7,730800
1986,000000	7,709200
1985,000000	7,679000
1984,000000	7,657500
1983,000000	7,607700
1982,000000	7,578600
1981,000000	7,545400
1980,000000	7,516200
1979,000000	7,498400
1978,000000	7,458300
1977,000000	7,412000
1976,000000	7,388300
1975,000000	7,368600
1974,000000	7,332200
1973,000000	7,312400
1972,000000	7,278400
1971,000000	7,260500
1970,000000	7,226800
1969,000000	7,204600
1968,000000	7,165800
1967,000000	7,163800
1966,000000	7,130400
1965,000000	7,095500
1964,000000	7,068300
1963,000000	7,053900
1962,000000	7,035000
1961,000000	6,991300
1960,000000	6,974100
1959,000000	6,945400
1958,000000	6,960400
1957,000000	6,915600
1956,000000	6,881900
1955,000000	6,866100
1954,000000	6,844300
1953,000000	6,822600
1952,000000	6,808400
1951,000000	6,817800
1950,000000	6,777500
1949,000000	6,761800
1948,000000	6,723200
1947,000000	6,712700
1946,000000	6,715200
1945,000000	6,701100
1944,000000	6,700600
1943,000000	6,662600
1942,000000	6,657200
1941,000000	6,632500
1940,000000	6,637300
1939,000000	6,634300
1938,000000	6,622300
1937,000000	6,621800
1936,000000	6,643200
1935,000000	6,622800
1934,000000	6,628200
1933,000000	6,651200
1932,000000	6,649100
1931,000000	6,676600
1930,000000	6,663200
1929,000000	6,688100
1928,000000	6,723800
1927,000000	6,732200
1926,000000	6,746400
1925,000000	6,776000
1924,000000	6,822900
1923,000000	6,844500
1922,000000	6,895600
1921,000000	6,928700
1920,000000	6,949300
1919,000000	6,997700
1918,000000	7,055700
1917,000000	7,108500
1916,000000	7,154600
1915,000000	7,216600
1914,000000	7,268700
1913,000000	7,316400
1912,000000	7,416900
1911,000000	7,498500
1910,000000	7,547500
1909,000000	7,605900
1908,000000	7,694700
1907,000000	7,765100
1906,000000	7,853300
1905,000000	7,937200
1904,000000	8,048500
1903,000000	8,158300
1902,000000	8,263100
1901,000000	8,381100
1900,000000	8,500700
1899,000000	8,626200
1898,000000	8,773200
1897,000000	8,897300
1896,000000	9,051700
1895,000000	9,186900
1894,000000	9,299000
1893,000000	9,442700
1892,000000	9,623300
1891,000000	9,794700
1890,000000	10,019000
1889,000000	10,208600
1888,000000	10,413200
1887,000000	10,631600
1886,000000	10,862100
1885,000000	11,125000
1884,000000	11,425600
1883,000000	11,753600
1882,000000	12,132200
1881,000000	12,484200
1880,000000	12,870200
1879,000000	13,192600
1878,000000	13,552300
1877,000000	13,946500
1876,000000	14,298200
1875,000000	14,653400
1874,000000	14,992500
1873,000000	15,344200
1872,000000	15,705500
1871,000000	16,024100
1870,000000	16,331700
1869,000000	16,632000
1868,000000	16,932500
1867,000000	17,159500
1866,000000	17,332400
1865,000000	17,497200
1864,000000	17,646100
1863,000000	17,775600
1862,000000	17,870500
1861,000000	17,997500
1860,000000	18,108500
1859,000000	18,229100
1858,000000	18,324500
1857,000000	18,407400
1856,000000	18,458700
1855,000000	18,507100
1854,000000	18,514300
1853,000000	18,541400
1852,000000	18,542900
1851,000000	18,546800
1850,000000	18,533200
1849,000000	18,530600
1848,000000	18,513600
1847,000000	18,496100
1846,000000	18,502200
1845,000000	18,468500
1844,000000	18,407700
1843,000000	18,381300
1842,000000	18,354700
1841,000000	18,342600
1840,000000	18,337400
1839,000000	18,323300
1838,000000	18,291900
1837,000000	18,275300
1836,000000	18,227500
1835,000000	18,195800
1834,000000	18,152300
1833,000000	18,084600
1832,000000	18,012800
1831,000000	17,970800
1830,000000	17,919800
1829,000000	17,848100
1828,000000	17,793700
1827,000000	17,739900
1826,000000	17,674300
1825,000000	17,612000
1824,000000	17,556900
1823,000000	17,502400
1822,000000	17,447900
1821,000000	17,425800
1820,000000	17,424800
1819,000000	17,415300
1818,000000	17,380400
1817,000000	17,348700
1816,000000	17,318900
1815,000000	17,297300
1814,000000	17,300100
1813,000000	17,283300
1812,000000	17,276200
1811,000000	17,260900
1810,000000	17,230900
1809,000000	17,207700
1808,000000	17,168500
1807,000000	17,124600
1806,000000	17,081300
1805,000000	17,042800
1804,000000	17,000100
1803,000000	16,959000
1802,000000	16,911400
1801,000000	16,861100
1800,000000	16,829000
1799,000000	16,787900
1798,000000	16,732900
1797,000000	16,695800
1796,000000	16,639500
1795,000000	16,594400
1794,000000	16,556600
1793,000000	16,508300
1792,000000	16,466100
1791,000000	16,424400
1790,000000	16,380700
1789,000000	16,310200
1788,000000	16,261000
1787,000000	16,214800
1786,000000	16,151800
1785,000000	16,091800
1784,000000	16,028800
1783,000000	15,957300
1782,000000	15,897600
1781,000000	15,835600
1780,000000	15,764300
1779,000000	15,701200
1778,000000	15,626500
1777,000000	15,557900
1776,000000	15,485200
1775,000000	15,398700
1774,000000	15,317800
1773,000000	15,226100
1772,000000	15,131800
1771,000000	15,033900
1770,000000	14,933400
1769,000000	14,836400
1768,000000	14,738900
1767,000000	14,641700
1766,000000	14,560200
1765,000000	14,489600
1764,000000	14,439700
1763,000000	14,402500
1762,000000	14,380500
1761,000000	14,373900
1760,000000	14,409100
1759,000000	14,449900
1758,000000	14,498900
1757,000000	14,565400
1756,000000	14,616900
1755,000000	14,660100
1754,000000	14,708600
1753,000000	14,740800
1752,000000	14,753000
1751,000000	14,753800
1750,000000	14,744900
1749,000000	14,717600
1748,000000	14,697400
1747,000000	14,639900
1746,000000	14,583700
1745,000000	14,511900
1744,000000	14,424000
1743,000000	14,322900
1742,000000	14,192400
1741,000000	14,042700
1740,000000	13,884300
1739,000000	13,714300
1738,000000	13,553200
1737,000000	13,406800
1736,000000	13,258700
1735,000000	13,135000
1734,000000	13,072100
1733,000000	13,024500
1732,000000	13,018000
1731,000000	13,032600
1730,000000	13,066300
1729,000000	13,136000
1728,000000	13,235200
1727,000000	13,301400
1726,000000	13,389000
1725,000000	13,481900
1724,000000	13,526700
1723,000000	13,590400
1722,000000	13,622300
1721,000000	13,642500
1720,000000	13,680900
1719,000000	13,696100
1718,000000	13,694200
1717,000000	13,714900
1716,000000	13,756400
1715,000000	13,816000
1714,000000	13,879700
1713,000000	13,928000
1712,000000	13,972100
1711,000000	14,014700
1710,000000	14,044400
1709,000000	14,062600
1708,000000	14,083100
1707,000000	14,054800
1706,000000	14,030400
1705,000000	14,005600
1704,000000	13,963500
1703,000000	13,918200
1702,000000	13,867200
1701,000000	13,778700
1700,000000	13,683700
1699,000000	13,553600
1698,000000	13,447400
1697,000000	13,349400
1696,000000	13,252300
1695,000000	13,179300
1694,000000	13,176000
1693,000000	13,193700
1692,000000	13,263200
1691,000000	13,386600
1690,000000	13,516200
1689,000000	13,643900
1688,000000	13,736500
1687,000000	13,803000
1686,000000	13,860000
1685,000000	13,894400
1684,000000	13,918000
1683,000000	13,985900
1682,000000	14,132800
1681,000000	14,339800
1680,000000	14,690100
1679,000000	15,088200
1678,000000	15,491600
1677,000000	15,962800
1676,000000	16,397400
1675,000000	16,822100
1674,000000	17,192300
1673,000000	17,516600
1672,000000	17,776100
1671,000000	18,035500
1670,000000	18,264000
1669,000000	18,446200
1668,000000	18,597500
1667,000000	18,745000
1666,000000	18,862900
1665,000000	18,964400
1664,000000	19,052100
1663,000000	19,129400
1662,000000	19,200200
1661,000000	19,256600
1660,000000	19,300100
1659,000000	19,353100
1658,000000	19,390700
1657,000000	19,428900
1656,000000	19,427800
1655,000000	19,435100
1654,000000	19,431200
1653,000000	19,420100
1652,000000	19,421300
1651,000000	19,409800
1650,000000	19,364800
1649,000000	19,333700
1648,000000	19,323300
1647,000000	19,272000
1646,000000	19,237700
1645,000000	19,158700
1644,000000	19,121900
1643,000000	19,089200
1642,000000	19,029200
1641,000000	18,974100
1640,000000	18,919200
1639,000000	18,848700
1638,000000	18,797400
1637,000000	18,740200
1636,000000	18,675100
1635,000000	18,619500
1634,000000	18,546700
1633,000000	18,464800
1632,000000	18,408300
1631,000000	18,333700
1630,000000	18,272100
1629,000000	18,206500
1628,000000	18,135400
1627,000000	18,047900
1626,000000	17,963800
1625,000000	17,893800
1624,000000	17,825500
1623,000000	17,751700
1622,000000	17,683200
1621,000000	17,603800
1620,000000	17,535900
1619,000000	17,469500
1618,000000	17,404400
1617,000000	17,329000
1616,000000	17,265500
1615,000000	17,190400
1614,000000	17,156900
1613,000000	17,087300
1612,000000	17,015100
1611,000000	16,939700
1610,000000	16,890000
1609,000000	16,841300
1608,000000	16,779500
1607,000000	16,713000
1606,000000	16,645200
1605,000000	16,605600
1604,000000	16,532400
1603,000000	16,471600
1602,000000	16,405300
1601,000000	16,361400
1600,000000	16,281800
1599,000000	16,209900
1598,000000	16,166100
1597,000000	16,118400
1596,000000	16,044800
1595,000000	15,996300
1594,000000	15,950800
1593,000000	15,895400
1592,000000	15,850700
1591,000000	15,793500
1590,000000	15,760400
1589,000000	15,720600
1588,000000	15,674200
1587,000000	15,631900
1586,000000	15,586300
1585,000000	15,549700
1584,000000	15,515400
1583,000000	15,485400
1582,000000	15,457700
1581,000000	15,417300
1580,000000	15,401400
1579,000000	15,361400
1578,000000	15,347500
1577,000000	15,333000
1576,000000	15,320300
1575,000000	15,303200
1574,000000	15,286700
1573,000000	15,284900
1572,000000	15,285600
1571,000000	15,276000
1570,000000	15,265000
1569,000000	15,269600
1568,000000	15,262200
1567,000000	15,277200
1566,000000	15,273900
1565,000000	15,277400
1564,000000	15,287600
1563,000000	15,301000
1562,000000	15,308400
1561,000000	15,318600
1560,000000	15,309700
1559,000000	15,309200
1558,000000	15,325400
1557,000000	15,324600
1556,000000	15,310200
1555,000000	15,301700
1554,000000	15,301200
1553,000000	15,280100
1552,000000	15,254900
1551,000000	15,252700
1550,000000	15,244100
1549,000000	15,208300
1548,000000	15,193200
1547,000000	15,171500
1546,000000	15,148800
1545,000000	15,136300
1544,000000	15,129100
1543,000000	15,108800
1542,000000	15,099400
1541,000000	15,093400
1540,000000	15,071900
1539,000000	15,066100
1538,000000	15,059300
1537,000000	15,044100
1536,000000	15,027700
1535,000000	15,014100
1534,000000	14,992900
1533,000000	14,972000
1532,000000	14,966500
1531,000000	14,932000
1530,000000	14,903600
1529,000000	14,888200
1528,000000	14,860800
1527,000000	14,828100
1526,000000	14,801700
1525,000000	14,773100
1524,000000	14,744100
1523,000000	14,719900
1522,000000	14,681500
1521,000000	14,646400
1520,000000	14,618200
1519,000000	14,598500
1518,000000	14,556400
1517,000000	14,511600
1516,000000	14,478900
1515,000000	14,437900
1514,000000	14,408600
1513,000000	14,371700
1512,000000	14,329600
1511,000000	14,302100
1510,000000	14,269400
1509,000000	14,220000
1508,000000	14,178100
1507,000000	14,147400
1506,000000	14,102800
1505,000000	14,061800
1504,000000	14,026000
1503,000000	13,985500
1502,000000	13,948700
1501,000000	13,917800
1500,000000	13,881100
1499,000000	13,835600
1498,000000	13,802300
1497,000000	13,775700
1496,000000	13,749100
1495,000000	13,717000
1494,000000	13,695900
1493,000000	13,680500
1492,000000	13,652900
1491,000000	13,624200
1490,000000	13,598400
1489,000000	13,583900
1488,000000	13,560900
1487,000000	13,536300
1486,000000	13,532500
1485,000000	13,536700
1484,000000	13,514500
1483,000000	13,487300
1482,000000	13,487800
1481,000000	13,473500
1480,000000	13,456900
1479,000000	13,450000
1478,000000	13,437200
1477,000000	13,437700
1476,000000	13,442100
1475,000000	13,443300
1474,000000	13,443500
1473,000000	13,443900
1472,000000	13,451400
1471,000000	13,461900
1470,000000	13,465400
1469,000000	13,464600
1468,000000	13,457900
1467,000000	13,470000
1466,000000	13,496600
1465,000000	13,486400
1464,000000	13,488800
1463,000000	13,500900
1462,000000	13,530400
1461,000000	13,555700
1460,000000	13,573700
1459,000000	13,603500
1458,000000	13,637700
1457,000000	13,681100
1456,000000	13,714700
1455,000000	13,758000
1454,000000	13,820100
1453,000000	13,863900
1452,000000	13,914600
1451,000000	13,967900
1450,000000	14,036200
1449,000000	14,096800
1448,000000	14,147900
1447,000000	14,212600
1446,000000	14,305800
1445,000000	14,371600
1444,000000	14,438700
1443,000000	14,496600
1442,000000	14,600000
1441,000000	14,685200
1440,000000	14,764600
1439,000000	14,830400
1438,000000	14,901100
1437,000000	14,999700
1436,000000	15,095600
1435,000000	15,173700
1434,000000	15,264100
1433,000000	15,361100
1432,000000	15,462800
1431,000000	15,559800
1430,000000	15,670200
1429,000000	15,780800
1428,000000	15,901600
1427,000000	16,041200
1426,000000	16,186800
1425,000000	16,331200
1424,000000	16,488000
1423,000000	16,651900
1422,000000	16,817500
1421,000000	17,001500
1420,000000	17,172400
1419,000000	17,380900
1418,000000	17,588200
1417,000000	17,808900
1416,000000	17,978500
1415,000000	18,195500
1414,000000	18,414800
1413,000000	18,668600
1412,000000	18,922300
1411,000000	19,114600
1410,000000	19,368100
1409,000000	19,692600
1408,000000	20,017900
1407,000000	20,380500
1406,000000	20,733400
1405,000000	21,091200
1404,000000	21,495800
1403,000000	21,881400
1402,000000	22,265800
1401,000000	22,617300
1400,000000	23,040000
1399,000000	23,502100
1398,000000	23,830000
1397,000000	24,079600
1396,000000	24,389100
1395,000000	24,751100
1394,000000	25,098300
1393,000000	25,353700
1392,000000	25,612200
1391,000000	25,918200
1390,000000	26,267200
1389,000000	26,546100
1388,000000	26,927100
1387,000000	27,350200
1386,000000	27,823700
1385,000000	28,304800
1384,000000	28,818200
1383,000000	29,410100
1382,000000	30,016800
1381,000000	30,590800
1380,000000	31,079700
1379,000000	31,432500
1378,000000	31,706100
1377,000000	31,916200
1376,000000	32,112800
1375,000000	32,335900
1374,000000	32,573000
1373,000000	32,846000
1372,000000	33,198200
1371,000000	33,610900
1370,000000	34,035600
1369,000000	34,396100
1368,000000	34,756200
1367,000000	35,105700
1366,000000	35,430700
1365,000000	35,696600
1364,000000	35,938600
1363,000000	36,156800
1362,000000	36,365800
1361,000000	36,579700
1360,000000	36,788100
1359,000000	36,899300
1358,000000	36,974000
1357,000000	37,085700
1356,000000	37,261200
1355,000000	37,489300
1354,000000	37,900900
1353,000000	38,379700
1352,000000	38,922700
1351,000000	39,452300
1350,000000	40,028900
1349,000000	40,556800
1348,000000	41,032800
1347,000000	41,502700
1346,000000	41,947500
1345,000000	42,332800
1344,000000	42,723400
1343,000000	43,138300
1342,000000	43,511600
1341,000000	43,861900
1340,000000	44,242300
1339,000000	44,576400
1338,000000	44,918500
1337,000000	45,266200
1336,000000	45,619300
1335,000000	45,944800
1334,000000	46,254700
1333,000000	46,566400
1332,000000	46,880600
1331,000000	47,179300
1330,000000	47,470400
1329,000000	47,748800
1328,000000	47,995500
1327,000000	48,276000
1326,000000	48,526300
1325,000000	48,750900
1324,000000	48,964800
1323,000000	49,182000
1322,000000	49,406100
1321,000000	49,610000
1320,000000	49,802100
1319,000000	49,980300
1318,000000	50,151400
1317,000000	50,350900
1316,000000	50,494200
1315,000000	50,652800
1314,000000	50,820700
1313,000000	50,957000
1312,000000	51,096600
1311,000000	51,233400
1310,000000	51,352800
1309,000000	51,466600
1308,000000	51,580500
1307,000000	51,676900
1306,000000	51,758600
1305,000000	51,845400
1304,000000	51,917400
1303,000000	51,975500
1302,000000	52,035000
1301,000000	52,092300
1300,000000	52,131400
1299,000000	52,162300
1298,000000	52,183900
1297,000000	52,209600
1296,000000	52,241700
1295,000000	52,262800
1294,000000	52,279100
1293,000000	52,281300
1292,000000	52,289700
1291,000000	52,279900
1290,000000	52,277200
1289,000000	52,256900
1288,000000	52,240500
1287,000000	52,201900
1286,000000	52,150000
1285,000000	52,101900
1284,000000	52,048200
1283,000000	51,992700
1282,000000	51,919400
1281,000000	51,862200
1280,000000	51,811500
1279,000000	51,738700
1278,000000	51,666100
1277,000000	51,603400
1276,000000	51,546500
1275,000000	51,488200
1274,000000	51,429900
1273,000000	51,382600
1272,000000	51,323700
1271,000000	51,278500
1270,000000	51,237600
1269,000000	51,189800
1268,000000	51,133300
1267,000000	51,081400
1266,000000	51,023800
1265,000000	50,969400
1264,000000	50,916800
1263,000000	50,859500
1262,000000	50,792700
1261,000000	50,727200
1260,000000	50,668200
1259,000000	50,611000
1258,000000	50,549800
1257,000000	50,475400
1256,000000	50,424500
1255,000000	50,356000
1254,000000	50,270100
1253,000000	50,174300
1252,000000	50,066900
1251,000000	49,985300
1250,000000	49,907900
1249,000000	49,810600
1248,000000	49,699600
1247,000000	49,573200
1246,000000	49,446200
1245,000000	49,324300
1244,000000	49,194500
1243,000000	49,053500
1242,000000	48,897500
1241,000000	48,729300
1240,000000	48,567300
1239,000000	48,406000
1238,000000	48,245300
1237,000000	48,077300
1236,000000	47,889400
1235,000000	47,699200
1234,000000	47,509000
1233,000000	47,318100
1232,000000	47,121700
1231,000000	46,923800
1230,000000	46,719900
1229,000000	46,495100
1228,000000	46,276100
1227,000000	46,063500
1226,000000	45,836600
1225,000000	45,602200
1224,000000	45,373700
1223,000000	45,153700
1222,000000	44,923100
1221,000000	44,698200
1220,000000	44,472800
1219,000000	44,248900
1218,000000	44,038000
1217,000000	43,841100
1216,000000	43,648100
1215,000000	43,449300
1214,000000	43,272300
1213,000000	43,111300
1212,000000	42,933900
1211,000000	42,768700
1210,000000	42,616400
1209,000000	42,464400
1208,000000	42,329000
1207,000000	42,198000
1206,000000	42,089600
1205,000000	42,004900
1204,000000	41,926200
1203,000000	41,856200
1202,000000	41,817900
1201,000000	41,772700
1200,000000	41,724100
1199,000000	41,666100
1198,000000	41,579700
1197,000000	41,477200
1196,000000	41,336300
1195,000000	41,137600
1194,000000	40,876400
1193,000000	40,552700
1192,000000	40,164600
1191,000000	39,708200
1190,000000	39,206400
1189,000000	38,718800
1188,000000	38,274000
1187,000000	37,926700
1186,000000	37,711200
1185,000000	37,603000
1184,000000	37,625500
1183,000000	37,835900
1182,000000	38,162300
1181,000000	38,618300
1180,000000	39,159800
1179,000000	39,732700
1178,000000	40,275700
1177,000000	40,790300
1176,000000	41,277100
1175,000000	41,674400
1174,000000	42,035700
1173,000000	42,393600
1172,000000	42,742800
1171,000000	43,103900
1170,000000	43,463400
1169,000000	43,841100
1168,000000	44,231500
1167,000000	44,639400
1166,000000	45,020600
1165,000000	45,426700
1164,000000	45,832200
1163,000000	46,245500
1162,000000	46,678700
1161,000000	47,094600
1160,000000	47,513700
1159,000000	47,936900
1158,000000	48,326300
1157,000000	48,712100
1156,000000	49,079100
1155,000000	49,410600
1154,000000	49,694700
1153,000000	49,930300
1152,000000	50,099400
1151,000000	50,218800
1150,000000	50,311100
1149,000000	50,372300
1148,000000	50,426700
1147,000000	50,495700
1146,000000	50,614500
1145,000000	50,789600
1144,000000	51,012400
1143,000000	51,332900
1142,000000	51,689200
1141,000000	52,095900
1140,000000	52,522400
1139,000000	52,964200
1138,000000	53,392100
1137,000000	53,839900
1136,000000	54,320700
1135,000000	54,841300
1134,000000	55,349800
1133,000000	55,855300
1132,000000	56,279900
1131,000000	56,705700
1130,000000	57,051600
1129,000000	57,397100
1128,000000	57,697200
1127,000000	57,937900
1126,000000	58,113800
1125,000000	58,282500
1124,000000	58,396200
1123,000000	58,512300
1122,000000	58,591900
1121,000000	58,662300
1120,000000	58,707200
1119,000000	58,763200
1118,000000	58,793500
1117,000000	58,809600
1116,000000	58,836000
1115,000000	58,810900
1114,000000	58,795300
1113,000000	58,764500
1112,000000	58,740700
1111,000000	58,732200
1110,000000	58,720000
1109,000000	58,682000
1108,000000	58,668400
1107,000000	58,649600
1106,000000	58,613300
1105,000000	58,595700
1104,000000	58,572600
1103,000000	58,540500
1102,000000	58,522000
1101,000000	58,489300
1100,000000	58,445200
1099,000000	58,416700
1098,000000	58,398500
1097,000000	58,356700
1096,000000	58,304600
1095,000000	58,255500
1094,000000	58,215600
1093,000000	58,168200
1092,000000	58,094600
1091,000000	58,029300
1090,000000	57,960000
1089,000000	57,922500
1088,000000	57,848800
1087,000000	57,777800
1086,000000	57,697600
1085,000000	57,631700
1084,000000	57,558500
1083,000000	57,476900
1082,000000	57,398000
1081,000000	57,311700
1080,000000	57,244000
1079,000000	57,168700
1078,000000	57,084600
1077,000000	56,996200
1076,000000	56,949600
1075,000000	56,873800
1074,000000	56,793600
1073,000000	56,704800
1072,000000	56,625600
1071,000000	56,552400
1070,000000	56,455900
1069,000000	56,388500
1068,000000	56,319400
1067,000000	56,229200
1066,000000	56,151300
1065,000000	56,054000
1064,000000	55,965300
1063,000000	55,871000
1062,000000	55,799000
1061,000000	55,722800
1060,000000	55,618200
1059,000000	55,507000
1058,000000	55,405100
1057,000000	55,328200
1056,000000	55,230300
1055,000000	55,123200
1054,000000	55,024300
1053,000000	54,933600
1052,000000	54,846400
1051,000000	54,739400
1050,000000	54,657800
1049,000000	54,557400
1048,000000	54,459300
1047,000000	54,381900
1046,000000	54,305200
1045,000000	54,222900
1044,000000	54,124700
1043,000000	54,053800
1042,000000	53,970100
1041,000000	53,890800
1040,000000	53,787300
1039,000000	53,704700
1038,000000	53,633400
1037,000000	53,532800
1036,000000	53,429100
1035,000000	53,325100
1034,000000	53,240700
1033,000000	53,155200
1032,000000	53,045700
1031,000000	52,938000
1030,000000	52,837300
1029,000000	52,727700
1028,000000	52,608900
1027,000000	52,518300
1026,000000	52,405600
1025,000000	52,277200
1024,000000	52,172000
1023,000000	52,049500
1022,000000	51,915900
1021,000000	51,807700
1020,000000	51,692900
1019,000000	51,575400
1018,000000	51,459800
1017,000000	51,352700
1016,000000	51,250800
1015,000000	51,145700
1014,000000	51,049200
1013,000000	50,950300
1012,000000	50,881200
1011,000000	50,831300
1010,000000	50,752600
1009,000000	50,688600
1008,000000	50,620500
1007,000000	50,577500
1006,000000	50,532900
1005,000000	50,496500
1004,000000	50,443500
1003,000000	50,390600
1002,000000	50,345400
1001,000000	50,303300
1000,000000	50,243200
999,000000	50,194200
998,000000	50,149300
997,000000	50,090000
996,000000	50,045000
995,000000	49,984000
994,000000	49,934900
993,000000	49,892300
992,000000	49,854100
991,000000	49,818600
990,000000	49,766400
989,000000	49,723300
988,000000	49,696500
987,000000	49,664700
986,000000	49,623900
985,000000	49,603800
984,000000	49,569400
983,000000	49,528700
982,000000	49,500900
981,000000	49,469900
980,000000	49,440700
979,000000	49,412100
978,000000	49,384100
977,000000	49,345700
976,000000	49,331100
975,000000	49,304200
974,000000	49,266000
973,000000	49,223700
972,000000	49,201000
971,000000	49,185800
970,000000	49,153000
969,000000	49,118900
968,000000	49,099300
967,000000	49,064700
966,000000	49,024500
965,000000	48,993900
964,000000	48,987800
963,000000	48,966900
962,000000	48,931200
961,000000	48,915200
960,000000	48,928800
959,000000	48,918700
958,000000	48,890900
957,000000	48,894900
956,000000	48,880900
955,000000	48,873900
954,000000	48,854800
953,000000	48,807900
952,000000	48,786600
951,000000	48,770200
950,000000	48,733800
949,000000	48,715000
948,000000	48,695700
947,000000	48,657400
946,000000	48,637600
945,000000	48,603200
944,000000	48,565900
943,000000	48,528300
942,000000	48,504500
941,000000	48,469200
940,000000	48,416500
939,000000	48,369500
938,000000	48,338900
937,000000	48,309300
936,000000	48,257400
935,000000	48,224200
934,000000	48,196800
933,000000	48,166100
932,000000	48,139400
931,000000	48,114000
930,000000	48,070500
929,000000	48,040100
928,000000	48,019500
927,000000	47,985700
926,000000	47,945500
925,000000	47,899200
924,000000	47,877000
923,000000	47,846600
922,000000	47,806300
921,000000	47,765700
920,000000	47,734600
919,000000	47,692300
918,000000	47,642800
917,000000	47,611100
916,000000	47,560600
915,000000	47,500900
914,000000	47,484800
913,000000	47,446800
912,000000	47,390500
911,000000	47,324700
910,000000	47,280000
909,000000	47,233600
908,000000	47,218300
907,000000	47,192500
906,000000	47,181400
905,000000	47,187700
904,000000	47,192700
903,000000	47,194300
902,000000	47,210600
901,000000	47,233600
900,000000	47,258700
899,000000	47,297400
898,000000	47,306300
897,000000	47,309600
896,000000	47,340900
895,000000	47,372100
894,000000	47,396500
893,000000	47,370700
892,000000	47,371000
891,000000	47,386500
890,000000	47,398900
889,000000	47,378700
888,000000	47,368900
887,000000	47,349300
886,000000	47,322900
885,000000	47,279100
884,000000	47,244100
883,000000	47,207400
882,000000	47,152700
881,000000	47,106100
880,000000	47,042600
879,000000	46,993900
878,000000	46,933000
877,000000	46,835600
876,000000	46,743700
875,000000	46,619000
874,000000	46,475300
873,000000	46,306700
872,000000	46,151800
871,000000	46,028600
870,000000	46,011700
869,000000	46,050600
868,000000	46,103900
867,000000	46,139600
866,000000	46,170900
865,000000	46,176300
864,000000	46,209300
863,000000	46,240400
862,000000	46,266500
861,000000	46,284400
860,000000	46,303100
859,000000	46,334100
858,000000	46,350000
857,000000	50,843800
856,000000	51,972200
855,000000	52,479300
854,000000	52,129700
853,000000	51,983600
852,000000	52,051100
851,000000	52,020200
850,000000	52,032300
849,000000	52,230100
848,000000	52,326100
847,000000	52,515900
846,000000	52,212300
845,000000	52,337600
844,000000	52,076400
843,000000	52,093300
842,000000	52,293900
841,000000	52,340300
840,000000	52,378900
839,000000	52,295900
838,000000	52,202300
837,000000	52,447600
836,000000	52,304300
835,000000	52,283500
834,000000	52,438600
833,000000	52,223800
832,000000	52,118200
831,000000	52,143900
830,000000	51,998400
829,000000	52,115200
828,000000	52,028000
827,000000	51,806400
826,000000	51,920400
825,000000	51,791000
824,000000	52,012200
823,000000	51,848100
822,000000	51,752800
821,000000	51,578600
820,000000	51,695200
819,000000	51,496000
818,000000	51,328800
817,000000	51,462400
816,000000	51,280200
815,000000	51,315700
814,000000	51,194400
813,000000	51,226500
812,000000	51,033100
811,000000	51,058200
810,000000	51,088100
809,000000	50,749400
808,000000	50,735700
807,000000	50,618500
806,000000	50,617200
805,000000	50,523800
804,000000	50,334100
803,000000	50,221500
802,000000	50,149300
801,000000	49,989500
800,000000	50,120700
799,000000	49,846800
798,000000	49,806900
797,000000	49,657100
796,000000	49,545600
795,000000	49,612200
794,000000	49,404800
793,000000	49,308500
792,000000	49,158300
791,000000	49,152200
790,000000	48,854300
789,000000	48,778300
788,000000	48,618600
787,000000	48,587400
786,000000	48,614600
785,000000	48,511900
784,000000	48,273700
783,000000	48,238000
782,000000	48,148200
781,000000	47,886300
780,000000	47,888400
779,000000	47,769300
778,000000	47,598800
777,000000	47,363800
776,000000	47,301400
775,000000	47,224100
774,000000	47,293100
773,000000	47,024200
772,000000	46,827300
771,000000	46,805200
770,000000	46,709500
769,000000	46,538500
768,000000	46,407700
767,000000	46,404800
766,000000	46,248500
765,000000	46,122600
764,000000	45,920100
763,000000	45,868200
762,000000	45,721400
761,000000	45,565500
760,000000	45,480500
759,000000	45,380300
758,000000	45,247100
757,000000	45,102600
756,000000	44,971700
755,000000	44,859900
754,000000	44,740700
753,000000	44,587100
752,000000	44,458000
751,000000	44,335000
750,000000	44,255800
749,000000	44,099800
748,000000	43,973500
747,000000	43,821700
746,000000	43,721800
745,000000	43,483000
744,000000	43,360400
743,000000	43,232300
742,000000	43,047100
741,000000	42,920600
740,000000	42,796000
739,000000	42,623000
738,000000	42,488100
737,000000	42,352600
736,000000	42,148100
735,000000	42,012100
734,000000	41,855500
733,000000	41,645000
732,000000	41,552300
731,000000	41,427400
730,000000	41,214800
729,000000	41,061400
728,000000	40,875300
727,000000	40,771500
726,000000	40,548400
725,000000	40,428000
724,000000	40,306700
723,000000	40,100400
722,000000	39,910800
721,000000	39,779400
720,000000	39,553800
719,000000	39,362200
718,000000	39,188100
717,000000	39,010400
716,000000	38,836700
715,000000	38,694700
714,000000	38,514600
713,000000	38,300700
712,000000	38,111000
711,000000	37,910400
710,000000	37,767900
709,000000	37,511100
708,000000	37,352400
707,000000	37,179900
706,000000	36,937100
705,000000	36,767700
704,000000	36,555700
703,000000	36,366100
702,000000	36,199600
701,000000	35,984700
700,000000	35,766900
699,000000	35,566700
698,000000	35,367000
697,000000	35,126000
696,000000	34,939200
695,000000	34,747900
694,000000	34,538900
693,000000	34,330600
692,000000	34,150100
691,000000	33,936000
690,000000	33,706700
689,000000	33,464100
688,000000	33,245800
687,000000	33,014700
686,000000	32,801700
685,000000	32,570000
684,000000	32,338100
683,000000	32,072500
682,000000	31,878000
681,000000	31,677500
680,000000	31,399800
679,000000	31,199100
678,000000	31,024600
677,000000	30,800000
676,000000	30,600200
675,000000	30,395800
674,000000	30,184500
673,000000	29,967100
672,000000	29,740300
671,000000	29,523600
670,000000	29,343100
669,000000	29,150700
668,000000	28,937600
667,000000	28,741700
666,000000	28,522000
665,000000	28,310000
664,000000	28,140500
663,000000	27,979600
662,000000	27,794500
661,000000	27,585800
660,000000	27,414100
659,000000	27,250500
658,000000	27,057400
657,000000	26,864000
656,000000	26,675900
655,000000	26,515000
654,000000	26,333200
653,000000	26,135700
652,000000	25,972400
651,000000	25,813300
650,000000	25,655100
649,000000	25,505100
648,000000	25,357900
647,000000	25,216200
646,000000	25,090300
645,000000	24,955700
644,000000	24,831900
643,000000	24,723300
642,000000	24,610100
641,000000	24,508900
640,000000	24,417700
639,000000	24,362900
638,000000	24,310800
637,000000	24,242200
636,000000	24,204200
635,000000	24,165800
634,000000	24,150800
633,000000	24,139300
632,000000	24,092800
631,000000	24,057500
630,000000	24,074400
629,000000	24,103400
628,000000	24,111200
627,000000	24,121800
626,000000	24,144200
625,000000	24,184600
624,000000	24,225900
623,000000	24,267500
622,000000	24,327400
621,000000	24,410700
620,000000	24,491000
619,000000	24,570600
618,000000	24,656500
617,000000	24,770200
616,000000	24,897400
615,000000	25,018400
614,000000	25,165700
613,000000	25,326100
612,000000	25,484100
611,000000	25,654700
610,000000	25,823100
609,000000	25,985500
608,000000	26,139200
607,000000	26,307200
606,000000	26,483900
605,000000	26,662000
604,000000	26,816700
603,000000	26,976900
602,000000	27,129400
601,000000	27,264100
600,000000	27,448700
599,000000	27,593000
598,000000	27,723400
597,000000	27,888900
596,000000	28,032700
595,000000	28,143700
594,000000	28,276500
593,000000	28,419700
592,000000	28,555100
591,000000	28,679500
590,000000	28,821000
589,000000	28,946200
588,000000	29,062700
587,000000	29,184000
586,000000	29,290000
585,000000	29,408800
584,000000	29,508200
583,000000	29,593900
582,000000	29,684200
581,000000	29,772400
580,000000	29,853900
579,000000	29,907600
578,000000	29,969000
577,000000	30,016800
576,000000	30,069300
575,000000	30,105300
574,000000	30,171000
573,000000	30,199100
572,000000	30,215200
571,000000	30,236300
570,000000	30,218900
569,000000	30,223900
568,000000	30,201300
567,000000	30,170500
566,000000	30,178500
565,000000	30,171400
564,000000	30,120300
563,000000	30,061100
562,000000	30,015300
561,000000	29,963300
560,000000	29,887800
559,000000	29,775600
558,000000	29,681100
557,000000	29,598200
556,000000	29,490700
555,000000	29,381000
554,000000	29,250000
553,000000	29,142300
552,000000	28,987800
551,000000	28,840400
550,000000	28,682300
549,000000	28,503400
548,000000	28,320300
547,000000	28,153400
546,000000	27,962700
545,000000	27,751600
544,000000	27,547100
543,000000	27,317200
542,000000	27,065200
541,000000	26,822700
540,000000	26,565700
539,000000	26,298400
538,000000	26,047800
537,000000	25,777900
536,000000	25,487300
535,000000	25,165800
534,000000	24,833500
533,000000	24,502600
532,000000	24,175000
531,000000	23,851800
530,000000	23,480800
529,000000	23,118900
528,000000	22,765700
527,000000	22,391900
526,000000	21,992500
525,000000	21,600200
524,000000	21,203500
523,000000	20,763300
522,000000	20,376200
521,000000	19,968500
520,000000	19,548900
519,000000	19,125800
518,000000	18,700800
517,000000	18,260200
516,000000	17,835900
515,000000	17,421600
514,000000	17,003400
513,000000	16,581500
512,000000	16,210300
511,000000	15,809400
510,000000	15,409800
509,000000	15,027000
508,000000	14,666900
507,000000	14,322600
506,000000	13,982200
505,000000	13,677400
504,000000	13,356200
503,000000	13,046700
502,000000	12,739600
501,000000	12,467400
500,000000	12,207900
499,000000	11,958000
498,000000	11,727800
497,000000	11,504600
496,000000	11,303600
495,000000	11,110200
494,000000	10,896200
493,000000	10,715200
492,000000	10,556000
491,000000	10,407800
490,000000	10,244900
489,000000	10,096100
488,000000	9,979100
487,000000	9,845500
486,000000	9,714600
485,000000	9,624900
484,000000	9,501000
483,000000	9,409200
482,000000	9,280500
481,000000	9,171700
480,000000	9,077400
479,000000	8,955500
478,000000	8,862900
477,000000	8,762900
476,000000	8,684900
475,000000	8,599000
474,000000	8,503600
473,000000	8,436600
472,000000	8,355000
471,000000	8,261800
470,000000	8,192000
469,000000	8,118300
468,000000	8,048800
467,000000	7,985500
466,000000	7,920500
465,000000	7,872700
464,000000	7,800300
463,000000	7,730500
462,000000	7,681600
461,000000	7,630200
460,000000	7,566900
459,000000	7,519600
458,000000	7,463600
457,000000	7,429400
456,000000	7,369300
455,000000	7,316700
454,000000	7,280600
453,000000	7,234400
452,000000	7,178200
451,000000	7,127100
450,000000	7,072100
449,000000	7,021600
448,000000	6,965600
447,000000	6,915500
446,000000	6,866600
445,000000	6,793500
444,000000	6,734600
443,000000	6,693900
442,000000	6,638900
441,000000	6,582500
440,000000	6,547000
439,000000	6,473800
438,000000	6,403800
437,000000	6,373700
436,000000	6,306600
435,000000	6,250100
434,000000	6,186300
433,000000	6,140400
432,000000	6,105500
431,000000	6,041500
430,000000	5,982500
429,000000	5,927800
428,000000	5,883200
427,000000	5,854900
426,000000	5,812200
425,000000	5,775300
424,000000	5,724900
423,000000	5,665600
422,000000	5,628300
421,000000	5,587300
420,000000	5,541800
419,000000	5,508900
418,000000	5,474100
417,000000	5,422500
416,000000	5,389700
415,000000	5,358900
414,000000	5,313500
413,000000	5,267600
412,000000	5,231700
411,000000	5,203400
410,000000	5,173600
409,000000	5,133300
408,000000	5,088100
407,000000	5,069400
406,000000	5,036900
405,000000	5,005500
404,000000	4,965700
403,000000	4,928800
402,000000	4,914900
401,000000	4,889200
400,000000	4,864600
399,000000	4,830400
398,000000	4,804600
397,000000	4,772500
396,000000	4,740400
395,000000	4,745500
394,000000	4,720800
393,000000	4,686300
392,000000	4,644700
391,000000	4,618200
390,000000	4,616100
389,000000	4,609900
388,000000	4,585000
387,000000	4,572200
386,000000	4,544400
385,000000	4,524700
384,000000	4,522300
383,000000	4,492200
382,000000	4,490400
381,000000	4,484400
380,000000	4,465700
379,000000	4,442200
378,000000	4,446100
377,000000	4,432100
376,000000	4,428300
375,000000	4,328900
374,000000	4,078500
373,000000	3,946800
372,000000	4,082000
371,000000	4,188800
370,000000	4,073400
369,000000	4,104600
368,000000	4,201900
367,000000	4,254000
366,000000	4,270800
365,000000	4,224900
364,000000	4,240600
363,000000	4,361300
362,000000	4,346600
361,000000	4,319600
360,000000	4,232600
359,000000	4,079000
358,000000	4,157800
357,000000	4,219300
356,000000	4,195300
355,000000	4,241600
354,000000	4,259200
353,000000	4,459900
352,000000	4,672600
351,000000	4,602700
350,000000	4,342100
349,000000	4,285400
348,000000	4,389200
347,000000	4,359700
346,000000	4,433700
345,000000	4,468400
344,000000	4,359300
343,000000	4,405200
342,000000	4,191500
341,000000	4,124300
340,000000	4,461200
339,000000	4,518600
338,000000	4,411600
337,000000	4,431400
336,000000	4,562400
335,000000	4,739600
334,000000	4,651400
333,000000	4,525200
332,000000	4,724000
331,000000	4,650600
330,000000	4,538900
329,000000	4,634100
328,000000	4,883300
327,000000	4,689000
326,000000	4,618300
325,000000	5,049800
324,000000	5,203700
323,000000	4,928200
322,000000	4,997100
321,000000	4,846900
320,000000	4,691300
319,000000	5,286300
318,000000	5,689800
317,000000	5,318800
316,000000	4,586900
315,000000	4,243400
314,000000	4,291100
313,000000	4,284900
312,000000	4,232000
311,000000	4,234000
310,000000	4,239600
309,000000	4,258700
308,000000	4,251900
307,000000	4,223900
306,000000	4,207500
305,000000	4,267000
304,000000	4,313300
303,000000	4,286200
302,000000	4,219200
301,000000	4,238200
300,000000	4,293200
299,000000	4,273000
298,000000	4,273100
297,000000	4,267800
296,000000	4,206200
295,000000	4,222700
294,000000	4,256600
293,000000	4,293400
292,000000	4,268900
291,000000	4,273400
290,000000	4,279600
289,000000	4,319000
288,000000	4,324000
287,000000	4,296000
286,000000	4,320500
285,000000	4,317300
284,000000	4,341100
283,000000	4,369600
282,000000	4,372400
281,000000	4,325300
280,000000	4,307600
279,000000	4,346900
278,000000	4,385300
277,000000	4,362700
276,000000	4,377700
275,000000	4,389500
274,000000	4,435500
273,000000	4,417300
272,000000	4,411900
271,000000	4,441800
270,000000	4,504400
269,000000	4,483100
268,000000	4,502800
267,000000	4,489800
266,000000	4,506400
265,000000	4,529000
264,000000	4,542400
263,000000	4,563400
262,000000	4,618300
261,000000	4,613600
260,000000	4,640000
259,000000	4,624600
258,000000	4,640300
257,000000	4,653400
256,000000	4,649100
255,000000	4,655000
254,000000	4,665500
253,000000	4,713700
252,000000	4,746600
251,000000	4,730500
250,000000	4,709300
