PE UV       SUBTECH     SPECTRUM    ASCII       PEDS        4.00        
   -1
CICIMAUCR0244-3.Sample.ASC
24/06/21
15:30:51.00
24/06/21
15:30:51.00
Vinicio Soto Monge
C. cupreomarginata. Ventral. Sex M
250,000000
1
Lambda 1050
1050L1511233
PerkinElmer UV WinLab 6.3.2.0749 / 2.02.05 Lambda 900 UV/VIS/NIR, Aug  7 2015 09:38:08

0
0
3350/servo 860,8/2
0
0
UV/VIS
1
1
1
DoubleDePol,CommonBeamDepol,RBeamAtt,SBeamAtt,60mm sphere, WB InGaAs Detector
0
0
0
0
Program
Program
3350/servo 860,8/2
3350/0,2 860,8/0,2
3350/0,2 860,8/0,2
0
15.00
 
 
 
0
 
860,8
319,2
860,8
Front
100
on
S:100 R:100
0
0
0
0
 
0
 
 
 
0
 
 
0
0
0
0
0
 
 
 
 
0
0


0
0
#HDR
-1
-1
#GR
nm
%R
1.0
0.0
2500,000000
-1,000000
2251
8
57,107000
3,834700
#DATA
2500,000000	4,755200
2499,000000	4,645800
2498,000000	4,655700
2497,000000	4,660300
2496,000000	4,650900
2495,000000	4,640800
2494,000000	4,772200
2493,000000	4,667900
2492,000000	4,637100
2491,000000	4,743200
2490,000000	4,711100
2489,000000	4,660900
2488,000000	4,586600
2487,000000	4,598600
2486,000000	4,554100
2485,000000	4,606700
2484,000000	4,581500
2483,000000	4,609700
2482,000000	4,532300
2481,000000	4,473800
2480,000000	4,540800
2479,000000	4,515300
2478,000000	4,547100
2477,000000	4,512900
2476,000000	4,560000
2475,000000	4,501000
2474,000000	4,520000
2473,000000	4,479200
2472,000000	4,497300
2471,000000	4,475800
2470,000000	4,481700
2469,000000	4,472600
2468,000000	4,465600
2467,000000	4,499200
2466,000000	4,485900
2465,000000	4,483000
2464,000000	4,482900
2463,000000	4,492400
2462,000000	4,478000
2461,000000	4,503000
2460,000000	4,499800
2459,000000	4,529600
2458,000000	4,535100
2457,000000	4,515600
2456,000000	4,531100
2455,000000	4,554100
2454,000000	4,524400
2453,000000	4,555800
2452,000000	4,568000
2451,000000	4,538300
2450,000000	4,581600
2449,000000	4,596900
2448,000000	4,612700
2447,000000	4,617000
2446,000000	4,635500
2445,000000	4,636200
2444,000000	4,651600
2443,000000	4,691300
2442,000000	4,699500
2441,000000	4,684500
2440,000000	4,701300
2439,000000	4,732800
2438,000000	4,760800
2437,000000	4,761600
2436,000000	4,785000
2435,000000	4,778200
2434,000000	4,781100
2433,000000	4,803500
2432,000000	4,827700
2431,000000	4,838400
2430,000000	4,828900
2429,000000	4,839400
2428,000000	4,853500
2427,000000	4,860400
2426,000000	4,872000
2425,000000	4,882100
2424,000000	4,886100
2423,000000	4,900500
2422,000000	4,906200
2421,000000	4,914100
2420,000000	4,928000
2419,000000	4,942900
2418,000000	4,940300
2417,000000	4,935300
2416,000000	4,952500
2415,000000	4,963400
2414,000000	4,973400
2413,000000	4,976400
2412,000000	4,988700
2411,000000	4,998800
2410,000000	4,994100
2409,000000	4,994800
2408,000000	5,009000
2407,000000	5,011400
2406,000000	5,015100
2405,000000	5,017400
2404,000000	5,026100
2403,000000	5,028900
2402,000000	5,033700
2401,000000	5,034100
2400,000000	5,035000
2399,000000	5,044500
2398,000000	5,067900
2397,000000	5,076500
2396,000000	5,090100
2395,000000	5,103400
2394,000000	5,114600
2393,000000	5,115800
2392,000000	5,117600
2391,000000	5,115100
2390,000000	5,132000
2389,000000	5,146200
2388,000000	5,138400
2387,000000	5,135200
2386,000000	5,148000
2385,000000	5,156200
2384,000000	5,159300
2383,000000	5,151400
2382,000000	5,153000
2381,000000	5,176800
2380,000000	5,176200
2379,000000	5,162500
2378,000000	5,157700
2377,000000	5,167700
2376,000000	5,164700
2375,000000	5,161600
2374,000000	5,167200
2373,000000	5,168900
2372,000000	5,149700
2371,000000	5,140900
2370,000000	5,138600
2369,000000	5,137800
2368,000000	5,133300
2367,000000	5,136500
2366,000000	5,129500
2365,000000	5,128000
2364,000000	5,120000
2363,000000	5,104600
2362,000000	5,090100
2361,000000	5,085400
2360,000000	5,092300
2359,000000	5,081800
2358,000000	5,068000
2357,000000	5,051700
2356,000000	5,043000
2355,000000	5,042200
2354,000000	5,032600
2353,000000	5,027700
2352,000000	5,024800
2351,000000	5,029600
2350,000000	5,033200
2349,000000	5,045300
2348,000000	5,051400
2347,000000	5,047800
2346,000000	5,051300
2345,000000	5,065100
2344,000000	5,088200
2343,000000	5,090800
2342,000000	5,092800
2341,000000	5,105300
2340,000000	5,112000
2339,000000	5,118300
2338,000000	5,125700
2337,000000	5,115400
2336,000000	5,120700
2335,000000	5,138600
2334,000000	5,148900
2333,000000	5,144200
2332,000000	5,141000
2331,000000	5,136900
2330,000000	5,128800
2329,000000	5,146800
2328,000000	5,126700
2327,000000	5,116800
2326,000000	5,112000
2325,000000	5,111400
2324,000000	5,105800
2323,000000	5,084100
2322,000000	5,061600
2321,000000	5,053800
2320,000000	5,058800
2319,000000	5,030500
2318,000000	5,008500
2317,000000	4,990700
2316,000000	4,979000
2315,000000	4,966500
2314,000000	4,930200
2313,000000	4,924400
2312,000000	4,913700
2311,000000	4,882000
2310,000000	4,881300
2309,000000	4,862500
2308,000000	4,844100
2307,000000	4,864700
2306,000000	4,855300
2305,000000	4,859900
2304,000000	4,855000
2303,000000	4,838800
2302,000000	4,854300
2301,000000	4,879100
2300,000000	4,887800
2299,000000	4,893200
2298,000000	4,911500
2297,000000	4,927500
2296,000000	4,929900
2295,000000	4,947600
2294,000000	4,976600
2293,000000	4,993300
2292,000000	4,992000
2291,000000	5,001100
2290,000000	5,033200
2289,000000	5,042800
2288,000000	5,038300
2287,000000	5,047100
2286,000000	5,050200
2285,000000	5,050800
2284,000000	5,060100
2283,000000	5,038100
2282,000000	5,046600
2281,000000	5,049500
2280,000000	5,032800
2279,000000	5,034600
2278,000000	5,037000
2277,000000	5,022100
2276,000000	5,008800
2275,000000	5,002900
2274,000000	5,000600
2273,000000	5,004200
2272,000000	5,008300
2271,000000	5,014400
2270,000000	5,016800
2269,000000	5,016400
2268,000000	5,027700
2267,000000	5,066000
2266,000000	5,072700
2265,000000	5,083100
2264,000000	5,117800
2263,000000	5,173200
2262,000000	5,187300
2261,000000	5,227100
2260,000000	5,272100
2259,000000	5,315300
2258,000000	5,355500
2257,000000	5,423400
2256,000000	5,482200
2255,000000	5,529600
2254,000000	5,600300
2253,000000	5,687400
2252,000000	5,728900
2251,000000	5,776500
2250,000000	5,815400
2249,000000	5,878600
2248,000000	5,952400
2247,000000	5,994300
2246,000000	6,062300
2245,000000	6,111800
2244,000000	6,147800
2243,000000	6,209300
2242,000000	6,236200
2241,000000	6,260200
2240,000000	6,331000
2239,000000	6,338700
2238,000000	6,379000
2237,000000	6,396700
2236,000000	6,430400
2235,000000	6,447900
2234,000000	6,477700
2233,000000	6,510900
2232,000000	6,512000
2231,000000	6,523800
2230,000000	6,534700
2229,000000	6,546300
2228,000000	6,567600
2227,000000	6,553100
2226,000000	6,566900
2225,000000	6,562200
2224,000000	6,564100
2223,000000	6,589900
2222,000000	6,563200
2221,000000	6,539100
2220,000000	6,553800
2219,000000	6,532500
2218,000000	6,504600
2217,000000	6,526700
2216,000000	6,499700
2215,000000	6,482900
2214,000000	6,478700
2213,000000	6,481000
2212,000000	6,445600
2211,000000	6,454300
2210,000000	6,437600
2209,000000	6,422400
2208,000000	6,427800
2207,000000	6,408000
2206,000000	6,413100
2205,000000	6,395600
2204,000000	6,396600
2203,000000	6,400200
2202,000000	6,388200
2201,000000	6,378400
2200,000000	6,386600
2199,000000	6,385000
2198,000000	6,372400
2197,000000	6,346400
2196,000000	6,387600
2195,000000	6,365600
2194,000000	6,355200
2193,000000	6,357600
2192,000000	6,340600
2191,000000	6,366300
2190,000000	6,342500
2189,000000	6,330900
2188,000000	6,335800
2187,000000	6,322400
2186,000000	6,329800
2185,000000	6,326300
2184,000000	6,327500
2183,000000	6,295900
2182,000000	6,310500
2181,000000	6,297500
2180,000000	6,281600
2179,000000	6,306400
2178,000000	6,291800
2177,000000	6,289800
2176,000000	6,290400
2175,000000	6,286600
2174,000000	6,289500
2173,000000	6,278500
2172,000000	6,282200
2171,000000	6,282100
2170,000000	6,285400
2169,000000	6,276700
2168,000000	6,291900
2167,000000	6,293500
2166,000000	6,296700
2165,000000	6,313600
2164,000000	6,309900
2163,000000	6,305800
2162,000000	6,304300
2161,000000	6,324400
2160,000000	6,334300
2159,000000	6,349300
2158,000000	6,357500
2157,000000	6,359100
2156,000000	6,369200
2155,000000	6,386300
2154,000000	6,423500
2153,000000	6,451500
2152,000000	6,442400
2151,000000	6,454500
2150,000000	6,485200
2149,000000	6,487100
2148,000000	6,513500
2147,000000	6,517200
2146,000000	6,540800
2145,000000	6,557100
2144,000000	6,558700
2143,000000	6,587100
2142,000000	6,616900
2141,000000	6,635900
2140,000000	6,630700
2139,000000	6,643100
2138,000000	6,652100
2137,000000	6,678300
2136,000000	6,680700
2135,000000	6,698400
2134,000000	6,724200
2133,000000	6,737000
2132,000000	6,748100
2131,000000	6,761000
2130,000000	6,766900
2129,000000	6,764100
2128,000000	6,780100
2127,000000	6,789300
2126,000000	6,789900
2125,000000	6,794900
2124,000000	6,808900
2123,000000	6,814700
2122,000000	6,793900
2121,000000	6,811200
2120,000000	6,820300
2119,000000	6,807300
2118,000000	6,797700
2117,000000	6,802600
2116,000000	6,794800
2115,000000	6,795000
2114,000000	6,795300
2113,000000	6,801200
2112,000000	6,794400
2111,000000	6,784000
2110,000000	6,803000
2109,000000	6,801200
2108,000000	6,787400
2107,000000	6,772800
2106,000000	6,776000
2105,000000	6,763400
2104,000000	6,764200
2103,000000	6,761200
2102,000000	6,740700
2101,000000	6,726800
2100,000000	6,748300
2099,000000	6,746500
2098,000000	6,719500
2097,000000	6,714900
2096,000000	6,707500
2095,000000	6,710800
2094,000000	6,714200
2093,000000	6,702000
2092,000000	6,695500
2091,000000	6,698300
2090,000000	6,696100
2089,000000	6,677400
2088,000000	6,676400
2087,000000	6,680600
2086,000000	6,679800
2085,000000	6,676800
2084,000000	6,668300
2083,000000	6,654900
2082,000000	6,639900
2081,000000	6,639000
2080,000000	6,627100
2079,000000	6,604700
2078,000000	6,597700
2077,000000	6,589200
2076,000000	6,578500
2075,000000	6,571200
2074,000000	6,558300
2073,000000	6,538600
2072,000000	6,517400
2071,000000	6,500900
2070,000000	6,493300
2069,000000	6,488500
2068,000000	6,462500
2067,000000	6,427800
2066,000000	6,416300
2065,000000	6,409100
2064,000000	6,392400
2063,000000	6,369600
2062,000000	6,360900
2061,000000	6,351300
2060,000000	6,322200
2059,000000	6,325600
2058,000000	6,310700
2057,000000	6,298800
2056,000000	6,297700
2055,000000	6,298200
2054,000000	6,295100
2053,000000	6,293100
2052,000000	6,315500
2051,000000	6,340800
2050,000000	6,341000
2049,000000	6,362300
2048,000000	6,396200
2047,000000	6,424500
2046,000000	6,439700
2045,000000	6,469500
2044,000000	6,501000
2043,000000	6,527600
2042,000000	6,559200
2041,000000	6,602200
2040,000000	6,632400
2039,000000	6,654200
2038,000000	6,675900
2037,000000	6,707600
2036,000000	6,745600
2035,000000	6,770300
2034,000000	6,798400
2033,000000	6,826900
2032,000000	6,853600
2031,000000	6,874100
2030,000000	6,894200
2029,000000	6,918000
2028,000000	6,937000
2027,000000	6,950100
2026,000000	6,975200
2025,000000	6,979600
2024,000000	6,976000
2023,000000	7,003200
2022,000000	7,005600
2021,000000	7,012200
2020,000000	7,033800
2019,000000	7,039700
2018,000000	7,055000
2017,000000	7,067600
2016,000000	7,063700
2015,000000	7,067600
2014,000000	7,054000
2013,000000	7,043200
2012,000000	7,055700
2011,000000	7,058300
2010,000000	7,037700
2009,000000	7,040700
2008,000000	7,040300
2007,000000	7,040700
2006,000000	7,023500
2005,000000	7,001400
2004,000000	7,013500
2003,000000	7,003800
2002,000000	6,962000
2001,000000	6,947000
2000,000000	6,944700
1999,000000	6,926500
1998,000000	6,920900
1997,000000	6,891300
1996,000000	6,867300
1995,000000	6,857400
1994,000000	6,853800
1993,000000	6,799500
1992,000000	6,773200
1991,000000	6,756200
1990,000000	6,729700
1989,000000	6,706600
1988,000000	6,674800
1987,000000	6,660400
1986,000000	6,638800
1985,000000	6,610200
1984,000000	6,595300
1983,000000	6,560500
1982,000000	6,534600
1981,000000	6,492600
1980,000000	6,488600
1979,000000	6,452200
1978,000000	6,406100
1977,000000	6,404200
1976,000000	6,388300
1975,000000	6,352700
1974,000000	6,334700
1973,000000	6,323600
1972,000000	6,285200
1971,000000	6,261000
1970,000000	6,228900
1969,000000	6,206700
1968,000000	6,189400
1967,000000	6,187000
1966,000000	6,146200
1965,000000	6,130800
1964,000000	6,123100
1963,000000	6,101000
1962,000000	6,073500
1961,000000	6,068900
1960,000000	6,026700
1959,000000	6,012400
1958,000000	6,010700
1957,000000	5,996600
1956,000000	5,970400
1955,000000	5,969100
1954,000000	5,923900
1953,000000	5,899900
1952,000000	5,910100
1951,000000	5,891700
1950,000000	5,870900
1949,000000	5,849900
1948,000000	5,829400
1947,000000	5,818000
1946,000000	5,809100
1945,000000	5,782400
1944,000000	5,790100
1943,000000	5,776600
1942,000000	5,766000
1941,000000	5,734000
1940,000000	5,767900
1939,000000	5,730100
1938,000000	5,762600
1937,000000	5,754400
1936,000000	5,756800
1935,000000	5,739900
1934,000000	5,733300
1933,000000	5,748500
1932,000000	5,746000
1931,000000	5,756300
1930,000000	5,790600
1929,000000	5,802900
1928,000000	5,815300
1927,000000	5,815600
1926,000000	5,863200
1925,000000	5,881400
1924,000000	5,910500
1923,000000	5,907000
1922,000000	5,957100
1921,000000	6,000800
1920,000000	6,029700
1919,000000	6,059300
1918,000000	6,118800
1917,000000	6,152400
1916,000000	6,197000
1915,000000	6,219900
1914,000000	6,278200
1913,000000	6,338100
1912,000000	6,408600
1911,000000	6,457100
1910,000000	6,499100
1909,000000	6,552800
1908,000000	6,644000
1907,000000	6,703000
1906,000000	6,774500
1905,000000	6,877100
1904,000000	6,959400
1903,000000	7,063000
1902,000000	7,138000
1901,000000	7,241900
1900,000000	7,344500
1899,000000	7,456700
1898,000000	7,597200
1897,000000	7,707700
1896,000000	7,835200
1895,000000	7,938300
1894,000000	8,047900
1893,000000	8,194100
1892,000000	8,331100
1891,000000	8,523800
1890,000000	8,675000
1889,000000	8,837800
1888,000000	9,008400
1887,000000	9,196200
1886,000000	9,383600
1885,000000	9,595900
1884,000000	9,844800
1883,000000	10,091000
1882,000000	10,352400
1881,000000	10,611100
1880,000000	10,887300
1879,000000	11,149500
1878,000000	11,391500
1877,000000	11,662400
1876,000000	11,923900
1875,000000	12,186000
1874,000000	12,461600
1873,000000	12,728300
1872,000000	13,007800
1871,000000	13,271500
1870,000000	13,520900
1869,000000	13,772500
1868,000000	14,015400
1867,000000	14,172500
1866,000000	14,332300
1865,000000	14,452600
1864,000000	14,557000
1863,000000	14,624600
1862,000000	14,717100
1861,000000	14,814500
1860,000000	14,931800
1859,000000	15,043700
1858,000000	15,152700
1857,000000	15,194200
1856,000000	15,241300
1855,000000	15,294700
1854,000000	15,329500
1853,000000	15,365900
1852,000000	15,377100
1851,000000	15,389100
1850,000000	15,361300
1849,000000	15,345400
1848,000000	15,359500
1847,000000	15,399700
1846,000000	15,421100
1845,000000	15,393900
1844,000000	15,336800
1843,000000	15,278700
1842,000000	15,251300
1841,000000	15,276300
1840,000000	15,286600
1839,000000	15,269100
1838,000000	15,234300
1837,000000	15,211200
1836,000000	15,210500
1835,000000	15,194900
1834,000000	15,141000
1833,000000	15,076700
1832,000000	15,023000
1831,000000	14,968200
1830,000000	14,930000
1829,000000	14,912600
1828,000000	14,872000
1827,000000	14,817100
1826,000000	14,774400
1825,000000	14,754100
1824,000000	14,698400
1823,000000	14,623700
1822,000000	14,591500
1821,000000	14,575600
1820,000000	14,565300
1819,000000	14,575000
1818,000000	14,545400
1817,000000	14,509800
1816,000000	14,490500
1815,000000	14,473300
1814,000000	14,455200
1813,000000	14,443100
1812,000000	14,431400
1811,000000	14,415000
1810,000000	14,409100
1809,000000	14,375500
1808,000000	14,336500
1807,000000	14,304100
1806,000000	14,283500
1805,000000	14,255300
1804,000000	14,213100
1803,000000	14,182100
1802,000000	14,148300
1801,000000	14,109500
1800,000000	14,070400
1799,000000	14,041900
1798,000000	14,010700
1797,000000	13,972800
1796,000000	13,930400
1795,000000	13,891400
1794,000000	13,860600
1793,000000	13,840500
1792,000000	13,809200
1791,000000	13,772600
1790,000000	13,732200
1789,000000	13,691900
1788,000000	13,664700
1787,000000	13,628300
1786,000000	13,564700
1785,000000	13,532900
1784,000000	13,502200
1783,000000	13,454500
1782,000000	13,410100
1781,000000	13,351100
1780,000000	13,302800
1779,000000	13,265700
1778,000000	13,225000
1777,000000	13,162300
1776,000000	13,107600
1775,000000	13,056400
1774,000000	12,989200
1773,000000	12,934200
1772,000000	12,863900
1771,000000	12,775900
1770,000000	12,703300
1769,000000	12,637300
1768,000000	12,562000
1767,000000	12,498300
1766,000000	12,439500
1765,000000	12,382200
1764,000000	12,342800
1763,000000	12,309500
1762,000000	12,277200
1761,000000	12,295500
1760,000000	12,322500
1759,000000	12,339500
1758,000000	12,371000
1757,000000	12,405700
1756,000000	12,432600
1755,000000	12,471700
1754,000000	12,512700
1753,000000	12,530200
1752,000000	12,540500
1751,000000	12,541400
1750,000000	12,542300
1749,000000	12,521900
1748,000000	12,501400
1747,000000	12,467200
1746,000000	12,436600
1745,000000	12,401200
1744,000000	12,332800
1743,000000	12,258600
1742,000000	12,169700
1741,000000	12,071700
1740,000000	11,957800
1739,000000	11,853300
1738,000000	11,727500
1737,000000	11,607000
1736,000000	11,503700
1735,000000	11,430400
1734,000000	11,357000
1733,000000	11,306200
1732,000000	11,290000
1731,000000	11,289800
1730,000000	11,318300
1729,000000	11,351500
1728,000000	11,396400
1727,000000	11,439000
1726,000000	11,492500
1725,000000	11,532900
1724,000000	11,585700
1723,000000	11,622800
1722,000000	11,653700
1721,000000	11,686100
1720,000000	11,710500
1719,000000	11,740200
1718,000000	11,769200
1717,000000	11,794600
1716,000000	11,835500
1715,000000	11,894800
1714,000000	11,940100
1713,000000	11,996800
1712,000000	12,028600
1711,000000	12,087800
1710,000000	12,120900
1709,000000	12,140700
1708,000000	12,166800
1707,000000	12,177200
1706,000000	12,163000
1705,000000	12,133300
1704,000000	12,112700
1703,000000	12,082800
1702,000000	12,044000
1701,000000	12,012700
1700,000000	11,947200
1699,000000	11,881600
1698,000000	11,794600
1697,000000	11,731500
1696,000000	11,683400
1695,000000	11,654200
1694,000000	11,636600
1693,000000	11,647000
1692,000000	11,660300
1691,000000	11,747500
1690,000000	11,841900
1689,000000	11,919600
1688,000000	11,994000
1687,000000	12,072000
1686,000000	12,106700
1685,000000	12,149300
1684,000000	12,191000
1683,000000	12,258200
1682,000000	12,381800
1681,000000	12,543800
1680,000000	12,776100
1679,000000	13,075100
1678,000000	13,368800
1677,000000	13,714900
1676,000000	14,037300
1675,000000	14,349500
1674,000000	14,647400
1673,000000	14,892100
1672,000000	15,095200
1671,000000	15,301400
1670,000000	15,476000
1669,000000	15,650000
1668,000000	15,778200
1667,000000	15,907000
1666,000000	16,007100
1665,000000	16,094100
1664,000000	16,167300
1663,000000	16,244700
1662,000000	16,302200
1661,000000	16,378200
1660,000000	16,429400
1659,000000	16,471000
1658,000000	16,492100
1657,000000	16,546900
1656,000000	16,539700
1655,000000	16,548300
1654,000000	16,582800
1653,000000	16,568100
1652,000000	16,572100
1651,000000	16,552100
1650,000000	16,544300
1649,000000	16,521800
1648,000000	16,501100
1647,000000	16,448300
1646,000000	16,415100
1645,000000	16,377800
1644,000000	16,360700
1643,000000	16,329400
1642,000000	16,282200
1641,000000	16,222300
1640,000000	16,208200
1639,000000	16,149700
1638,000000	16,130300
1637,000000	16,064900
1636,000000	16,015300
1635,000000	15,954900
1634,000000	15,916100
1633,000000	15,859500
1632,000000	15,809000
1631,000000	15,743100
1630,000000	15,692500
1629,000000	15,633400
1628,000000	15,573100
1627,000000	15,523500
1626,000000	15,455900
1625,000000	15,401100
1624,000000	15,323100
1623,000000	15,267100
1622,000000	15,202200
1621,000000	15,169100
1620,000000	15,102900
1619,000000	15,061500
1618,000000	14,996400
1617,000000	14,952100
1616,000000	14,908300
1615,000000	14,838800
1614,000000	14,783500
1613,000000	14,729400
1612,000000	14,681500
1611,000000	14,628100
1610,000000	14,579300
1609,000000	14,529700
1608,000000	14,482500
1607,000000	14,447800
1606,000000	14,381100
1605,000000	14,343200
1604,000000	14,283100
1603,000000	14,222400
1602,000000	14,169100
1601,000000	14,132200
1600,000000	14,086400
1599,000000	14,022400
1598,000000	13,972400
1597,000000	13,928200
1596,000000	13,871800
1595,000000	13,828300
1594,000000	13,792900
1593,000000	13,729800
1592,000000	13,676700
1591,000000	13,668800
1590,000000	13,620300
1589,000000	13,585900
1588,000000	13,549700
1587,000000	13,512000
1586,000000	13,477700
1585,000000	13,432600
1584,000000	13,409300
1583,000000	13,367700
1582,000000	13,327800
1581,000000	13,306800
1580,000000	13,271600
1579,000000	13,254900
1578,000000	13,237400
1577,000000	13,216900
1576,000000	13,191800
1575,000000	13,171200
1574,000000	13,165400
1573,000000	13,150000
1572,000000	13,141800
1571,000000	13,145800
1570,000000	13,141500
1569,000000	13,145200
1568,000000	13,143400
1567,000000	13,131700
1566,000000	13,137800
1565,000000	13,134600
1564,000000	13,138400
1563,000000	13,130300
1562,000000	13,122100
1561,000000	13,123400
1560,000000	13,122400
1559,000000	13,132300
1558,000000	13,127500
1557,000000	13,104300
1556,000000	13,091700
1555,000000	13,083200
1554,000000	13,067800
1553,000000	13,052900
1552,000000	13,043900
1551,000000	13,020800
1550,000000	12,994800
1549,000000	12,963100
1548,000000	12,934000
1547,000000	12,918800
1546,000000	12,884800
1545,000000	12,871900
1544,000000	12,857000
1543,000000	12,832000
1542,000000	12,807200
1541,000000	12,792400
1540,000000	12,774000
1539,000000	12,760700
1538,000000	12,744900
1537,000000	12,736400
1536,000000	12,730600
1535,000000	12,707600
1534,000000	12,679500
1533,000000	12,658900
1532,000000	12,645600
1531,000000	12,624500
1530,000000	12,597600
1529,000000	12,563000
1528,000000	12,533000
1527,000000	12,506800
1526,000000	12,490100
1525,000000	12,469500
1524,000000	12,436400
1523,000000	12,404700
1522,000000	12,371400
1521,000000	12,348700
1520,000000	12,321400
1519,000000	12,285500
1518,000000	12,247200
1517,000000	12,212300
1516,000000	12,179300
1515,000000	12,148000
1514,000000	12,116900
1513,000000	12,084600
1512,000000	12,043200
1511,000000	12,015300
1510,000000	11,982100
1509,000000	11,933900
1508,000000	11,909100
1507,000000	11,885500
1506,000000	11,839900
1505,000000	11,797100
1504,000000	11,781200
1503,000000	11,756000
1502,000000	11,722200
1501,000000	11,683200
1500,000000	11,643300
1499,000000	11,612700
1498,000000	11,586200
1497,000000	11,565000
1496,000000	11,528400
1495,000000	11,505600
1494,000000	11,487800
1493,000000	11,470300
1492,000000	11,458400
1491,000000	11,441700
1490,000000	11,414900
1489,000000	11,388400
1488,000000	11,378800
1487,000000	11,371200
1486,000000	11,360100
1485,000000	11,347400
1484,000000	11,329600
1483,000000	11,314500
1482,000000	11,316600
1481,000000	11,302100
1480,000000	11,293300
1479,000000	11,296100
1478,000000	11,288800
1477,000000	11,292500
1476,000000	11,290100
1475,000000	11,283900
1474,000000	11,282400
1473,000000	11,274500
1472,000000	11,275800
1471,000000	11,291300
1470,000000	11,291300
1469,000000	11,284000
1468,000000	11,300400
1467,000000	11,302800
1466,000000	11,315700
1465,000000	11,323000
1464,000000	11,337100
1463,000000	11,349800
1462,000000	11,358400
1461,000000	11,377500
1460,000000	11,395500
1459,000000	11,431200
1458,000000	11,452300
1457,000000	11,487400
1456,000000	11,529000
1455,000000	11,542600
1454,000000	11,571200
1453,000000	11,617900
1452,000000	11,658100
1451,000000	11,715900
1450,000000	11,753200
1449,000000	11,813200
1448,000000	11,855500
1447,000000	11,885200
1446,000000	11,942300
1445,000000	12,011500
1444,000000	12,090000
1443,000000	12,115200
1442,000000	12,173700
1441,000000	12,223500
1440,000000	12,292000
1439,000000	12,357000
1438,000000	12,413600
1437,000000	12,483400
1436,000000	12,559600
1435,000000	12,637700
1434,000000	12,720000
1433,000000	12,787500
1432,000000	12,849700
1431,000000	12,952500
1430,000000	13,033900
1429,000000	13,120300
1428,000000	13,215200
1427,000000	13,322300
1426,000000	13,415600
1425,000000	13,529400
1424,000000	13,667100
1423,000000	13,796900
1422,000000	13,948600
1421,000000	14,077800
1420,000000	14,221700
1419,000000	14,389800
1418,000000	14,580200
1417,000000	14,751400
1416,000000	14,911800
1415,000000	15,068600
1414,000000	15,262000
1413,000000	15,492500
1412,000000	15,682000
1411,000000	15,867600
1410,000000	16,095800
1409,000000	16,382800
1408,000000	16,657100
1407,000000	16,962700
1406,000000	17,266600
1405,000000	17,566500
1404,000000	17,902900
1403,000000	18,249700
1402,000000	18,587400
1401,000000	18,864100
1400,000000	19,272100
1399,000000	19,667800
1398,000000	19,984200
1397,000000	20,207600
1396,000000	20,475400
1395,000000	20,847000
1394,000000	21,204600
1393,000000	21,457100
1392,000000	21,700700
1391,000000	22,055500
1390,000000	22,368400
1389,000000	22,660200
1388,000000	23,026900
1387,000000	23,500700
1386,000000	23,947200
1385,000000	24,417300
1384,000000	24,898700
1383,000000	25,453000
1382,000000	26,001200
1381,000000	26,582500
1380,000000	27,071600
1379,000000	27,419000
1378,000000	27,683000
1377,000000	27,902100
1376,000000	28,118000
1375,000000	28,304500
1374,000000	28,571800
1373,000000	28,845300
1372,000000	29,170100
1371,000000	29,527000
1370,000000	29,926500
1369,000000	30,311300
1368,000000	30,619700
1367,000000	30,970900
1366,000000	31,275600
1365,000000	31,522600
1364,000000	31,769700
1363,000000	31,972300
1362,000000	32,191200
1361,000000	32,398500
1360,000000	32,602900
1359,000000	32,753100
1358,000000	32,840500
1357,000000	32,943400
1356,000000	33,097000
1355,000000	33,356400
1354,000000	33,709700
1353,000000	34,176700
1352,000000	34,616700
1351,000000	35,120000
1350,000000	35,673400
1349,000000	36,175300
1348,000000	36,620100
1347,000000	37,095200
1346,000000	37,520700
1345,000000	37,946600
1344,000000	38,320200
1343,000000	38,690700
1342,000000	39,064900
1341,000000	39,426700
1340,000000	39,801200
1339,000000	40,173900
1338,000000	40,528300
1337,000000	40,895600
1336,000000	41,217000
1335,000000	41,555100
1334,000000	41,901700
1333,000000	42,225800
1332,000000	42,556700
1331,000000	42,860800
1330,000000	43,181200
1329,000000	43,483400
1328,000000	43,769500
1327,000000	44,047700
1326,000000	44,324900
1325,000000	44,597100
1324,000000	44,833100
1323,000000	45,060000
1322,000000	45,301100
1321,000000	45,527600
1320,000000	45,740800
1319,000000	45,949600
1318,000000	46,153300
1317,000000	46,362100
1316,000000	46,533000
1315,000000	46,706000
1314,000000	46,888100
1313,000000	47,066000
1312,000000	47,207900
1311,000000	47,348100
1310,000000	47,501400
1309,000000	47,625300
1308,000000	47,753200
1307,000000	47,872700
1306,000000	47,983600
1305,000000	48,084700
1304,000000	48,168700
1303,000000	48,239900
1302,000000	48,305500
1301,000000	48,358200
1300,000000	48,419700
1299,000000	48,460400
1298,000000	48,510800
1297,000000	48,548900
1296,000000	48,576600
1295,000000	48,600100
1294,000000	48,631900
1293,000000	48,648600
1292,000000	48,645100
1291,000000	48,645800
1290,000000	48,656500
1289,000000	48,651700
1288,000000	48,615700
1287,000000	48,585600
1286,000000	48,545300
1285,000000	48,504200
1284,000000	48,446900
1283,000000	48,378600
1282,000000	48,335400
1281,000000	48,270700
1280,000000	48,204400
1279,000000	48,151200
1278,000000	48,091300
1277,000000	48,014700
1276,000000	47,964000
1275,000000	47,908200
1274,000000	47,859700
1273,000000	47,822700
1272,000000	47,772900
1271,000000	47,735600
1270,000000	47,713500
1269,000000	47,668000
1268,000000	47,609000
1267,000000	47,577400
1266,000000	47,551500
1265,000000	47,486200
1264,000000	47,422300
1263,000000	47,364600
1262,000000	47,306500
1261,000000	47,252400
1260,000000	47,193100
1259,000000	47,130100
1258,000000	47,072800
1257,000000	46,996000
1256,000000	46,911900
1255,000000	46,838900
1254,000000	46,731400
1253,000000	46,648500
1252,000000	46,571100
1251,000000	46,468700
1250,000000	46,361400
1249,000000	46,251900
1248,000000	46,122300
1247,000000	45,988000
1246,000000	45,866900
1245,000000	45,731100
1244,000000	45,577900
1243,000000	45,421100
1242,000000	45,270300
1241,000000	45,101100
1240,000000	44,925700
1239,000000	44,754600
1238,000000	44,589300
1237,000000	44,424600
1236,000000	44,243000
1235,000000	44,047800
1234,000000	43,844500
1233,000000	43,638000
1232,000000	43,430700
1231,000000	43,218000
1230,000000	42,988700
1229,000000	42,752100
1228,000000	42,533500
1227,000000	42,300000
1226,000000	42,048900
1225,000000	41,797400
1224,000000	41,541900
1223,000000	41,289400
1222,000000	41,031700
1221,000000	40,778100
1220,000000	40,514800
1219,000000	40,258700
1218,000000	40,009300
1217,000000	39,773200
1216,000000	39,545400
1215,000000	39,324300
1214,000000	39,131500
1213,000000	38,939600
1212,000000	38,751700
1211,000000	38,595200
1210,000000	38,423900
1209,000000	38,265800
1208,000000	38,146100
1207,000000	38,034600
1206,000000	37,934300
1205,000000	37,840600
1204,000000	37,757900
1203,000000	37,704400
1202,000000	37,665600
1201,000000	37,625900
1200,000000	37,583900
1199,000000	37,530400
1198,000000	37,456600
1197,000000	37,360200
1196,000000	37,249800
1195,000000	37,067900
1194,000000	36,848200
1193,000000	36,582800
1192,000000	36,261900
1191,000000	35,881600
1190,000000	35,464300
1189,000000	35,060000
1188,000000	34,679600
1187,000000	34,386900
1186,000000	34,203100
1185,000000	34,124900
1184,000000	34,170300
1183,000000	34,347900
1182,000000	34,670000
1181,000000	35,094100
1180,000000	35,578800
1179,000000	36,121100
1178,000000	36,650900
1177,000000	37,130500
1176,000000	37,566600
1175,000000	37,971300
1174,000000	38,329500
1173,000000	38,662100
1172,000000	38,985800
1171,000000	39,358100
1170,000000	39,705000
1169,000000	40,054500
1168,000000	40,424000
1167,000000	40,800100
1166,000000	41,188400
1165,000000	41,585100
1164,000000	41,978000
1163,000000	42,402900
1162,000000	42,841400
1161,000000	43,311300
1160,000000	43,748400
1159,000000	44,191100
1158,000000	44,626200
1157,000000	45,054700
1156,000000	45,471400
1155,000000	45,828400
1154,000000	46,150400
1153,000000	46,435700
1152,000000	46,673500
1151,000000	46,844200
1150,000000	47,011500
1149,000000	47,134000
1148,000000	47,258800
1147,000000	47,412600
1146,000000	47,591800
1145,000000	47,819300
1144,000000	48,111600
1143,000000	48,456200
1142,000000	48,859000
1141,000000	49,307500
1140,000000	49,785300
1139,000000	50,270400
1138,000000	50,785300
1137,000000	51,293400
1136,000000	51,819500
1135,000000	52,399900
1134,000000	52,985300
1133,000000	53,535300
1132,000000	54,049500
1131,000000	54,520500
1130,000000	54,945000
1129,000000	55,357500
1128,000000	55,700100
1127,000000	55,990700
1126,000000	56,228200
1125,000000	56,404000
1124,000000	56,544700
1123,000000	56,684600
1122,000000	56,778400
1121,000000	56,880500
1120,000000	56,953200
1119,000000	57,021300
1118,000000	57,047600
1117,000000	57,082200
1116,000000	57,094200
1115,000000	57,107000
1114,000000	57,102700
1113,000000	57,103700
1112,000000	57,093600
1111,000000	57,064800
1110,000000	57,062000
1109,000000	57,072800
1108,000000	57,037800
1107,000000	57,034800
1106,000000	56,999500
1105,000000	57,001000
1104,000000	56,984000
1103,000000	56,962500
1102,000000	56,937700
1101,000000	56,917600
1100,000000	56,899300
1099,000000	56,865300
1098,000000	56,853700
1097,000000	56,807600
1096,000000	56,773900
1095,000000	56,732000
1094,000000	56,682100
1093,000000	56,647500
1092,000000	56,587100
1091,000000	56,529700
1090,000000	56,465000
1089,000000	56,411700
1088,000000	56,351500
1087,000000	56,279100
1086,000000	56,217200
1085,000000	56,158700
1084,000000	56,078000
1083,000000	55,996300
1082,000000	55,904100
1081,000000	55,837500
1080,000000	55,764400
1079,000000	55,676700
1078,000000	55,599700
1077,000000	55,530800
1076,000000	55,450800
1075,000000	55,356200
1074,000000	55,290600
1073,000000	55,223000
1072,000000	55,122800
1071,000000	55,049200
1070,000000	54,964500
1069,000000	54,860500
1068,000000	54,788900
1067,000000	54,701900
1066,000000	54,619700
1065,000000	54,536000
1064,000000	54,444900
1063,000000	54,349900
1062,000000	54,255100
1061,000000	54,159300
1060,000000	54,055500
1059,000000	53,963100
1058,000000	53,867500
1057,000000	53,768500
1056,000000	53,670300
1055,000000	53,582800
1054,000000	53,469600
1053,000000	53,352300
1052,000000	53,239300
1051,000000	53,157000
1050,000000	53,050200
1049,000000	52,965100
1048,000000	52,868800
1047,000000	52,815700
1046,000000	52,725300
1045,000000	52,620400
1044,000000	52,527300
1043,000000	52,440600
1042,000000	52,357800
1041,000000	52,281900
1040,000000	52,194600
1039,000000	52,107300
1038,000000	52,030800
1037,000000	51,946000
1036,000000	51,858500
1035,000000	51,779600
1034,000000	51,668900
1033,000000	51,587400
1032,000000	51,473600
1031,000000	51,386700
1030,000000	51,270000
1029,000000	51,173300
1028,000000	51,071900
1027,000000	50,957600
1026,000000	50,861200
1025,000000	50,753900
1024,000000	50,631100
1023,000000	50,522700
1022,000000	50,398300
1021,000000	50,291200
1020,000000	50,193500
1019,000000	50,084300
1018,000000	49,985100
1017,000000	49,854200
1016,000000	49,770500
1015,000000	49,676000
1014,000000	49,581500
1013,000000	49,520100
1012,000000	49,451000
1011,000000	49,391000
1010,000000	49,329800
1009,000000	49,283700
1008,000000	49,261300
1007,000000	49,222400
1006,000000	49,165800
1005,000000	49,136400
1004,000000	49,105000
1003,000000	49,062600
1002,000000	49,034600
1001,000000	48,985300
1000,000000	48,958300
999,000000	48,921700
998,000000	48,876200
997,000000	48,836300
996,000000	48,805400
995,000000	48,770100
994,000000	48,752000
993,000000	48,725600
992,000000	48,692100
991,000000	48,661000
990,000000	48,636000
989,000000	48,615900
988,000000	48,586200
987,000000	48,558000
986,000000	48,562100
985,000000	48,558100
984,000000	48,537200
983,000000	48,511100
982,000000	48,511100
981,000000	48,516700
980,000000	48,508800
979,000000	48,494500
978,000000	48,485200
977,000000	48,482400
976,000000	48,475800
975,000000	48,471200
974,000000	48,458500
973,000000	48,464200
972,000000	48,457100
971,000000	48,453500
970,000000	48,453000
969,000000	48,474500
968,000000	48,459900
967,000000	48,450600
966,000000	48,465400
965,000000	48,474100
964,000000	48,474300
963,000000	48,476600
962,000000	48,492900
961,000000	48,512700
960,000000	48,543800
959,000000	48,580000
958,000000	48,580400
957,000000	48,594500
956,000000	48,611900
955,000000	48,627100
954,000000	48,636400
953,000000	48,635900
952,000000	48,641400
951,000000	48,662700
950,000000	48,669400
949,000000	48,673100
948,000000	48,676600
947,000000	48,665600
946,000000	48,673900
945,000000	48,688500
944,000000	48,671900
943,000000	48,645900
942,000000	48,621000
941,000000	48,603500
940,000000	48,597000
939,000000	48,570200
938,000000	48,543900
937,000000	48,552500
936,000000	48,529600
935,000000	48,489900
934,000000	48,476300
933,000000	48,462300
932,000000	48,460400
931,000000	48,439000
930,000000	48,402500
929,000000	48,360100
928,000000	48,347700
927,000000	48,341100
926,000000	48,309400
925,000000	48,274100
924,000000	48,249700
923,000000	48,246100
922,000000	48,214100
921,000000	48,173800
920,000000	48,131100
919,000000	48,099700
918,000000	48,066700
917,000000	48,018900
916,000000	47,959300
915,000000	47,908000
914,000000	47,863100
913,000000	47,813100
912,000000	47,762300
911,000000	47,708700
910,000000	47,652600
909,000000	47,608100
908,000000	47,571300
907,000000	47,533300
906,000000	47,504600
905,000000	47,476400
904,000000	47,461800
903,000000	47,466900
902,000000	47,451600
901,000000	47,444200
900,000000	47,430600
899,000000	47,421300
898,000000	47,426900
897,000000	47,420000
896,000000	47,411700
895,000000	47,393800
894,000000	47,378400
893,000000	47,365200
892,000000	47,348000
891,000000	47,300600
890,000000	47,282500
889,000000	47,253800
888,000000	47,223700
887,000000	47,164800
886,000000	47,114600
885,000000	47,056200
884,000000	47,001300
883,000000	46,927800
882,000000	46,861300
881,000000	46,790100
880,000000	46,734600
879,000000	46,653500
878,000000	46,565600
877,000000	46,461200
876,000000	46,339600
875,000000	46,191900
874,000000	46,035800
873,000000	45,902700
872,000000	45,764400
871,000000	45,706300
870,000000	45,700000
869,000000	45,745800
868,000000	45,785100
867,000000	45,817100
866,000000	45,837000
865,000000	45,869700
864,000000	45,902100
863,000000	45,876200
862,000000	45,892300
861,000000	45,925800
860,000000	45,941300
859,000000	45,960700
858,000000	46,009100
857,000000	50,313900
856,000000	51,400900
855,000000	51,666700
854,000000	51,697700
853,000000	51,264500
852,000000	51,244000
851,000000	51,388800
850,000000	51,204600
849,000000	51,479500
848,000000	51,428100
847,000000	51,312100
846,000000	51,458700
845,000000	51,739100
844,000000	51,384400
843,000000	51,443500
842,000000	51,321800
841,000000	51,446800
840,000000	51,393900
839,000000	51,339000
838,000000	51,383800
837,000000	51,405600
836,000000	51,340000
835,000000	51,444300
834,000000	51,357900
833,000000	51,093000
832,000000	51,192100
831,000000	50,954600
830,000000	51,170100
829,000000	51,018500
828,000000	50,977000
827,000000	50,932900
826,000000	50,765800
825,000000	51,046100
824,000000	50,905300
823,000000	50,841000
822,000000	50,724100
821,000000	50,717000
820,000000	50,762500
819,000000	50,680700
818,000000	50,482400
817,000000	50,548000
816,000000	50,508000
815,000000	50,420900
814,000000	50,324300
813,000000	50,218500
812,000000	50,482100
811,000000	50,204900
810,000000	50,031900
809,000000	49,963000
808,000000	49,756800
807,000000	49,846400
806,000000	49,721100
805,000000	49,605300
804,000000	49,453400
803,000000	49,511400
802,000000	49,463700
801,000000	49,239900
800,000000	49,322800
799,000000	49,158700
798,000000	49,118800
797,000000	48,956200
796,000000	48,983300
795,000000	48,838400
794,000000	48,718500
793,000000	48,570200
792,000000	48,404500
791,000000	48,459600
790,000000	48,203500
789,000000	48,307200
788,000000	48,247400
787,000000	48,071200
786,000000	47,954700
785,000000	47,764100
784,000000	47,798700
783,000000	47,654800
782,000000	47,548000
781,000000	47,486500
780,000000	47,397800
779,000000	47,250100
778,000000	47,038600
777,000000	47,028500
776,000000	46,866400
775,000000	46,779500
774,000000	46,585500
773,000000	46,576500
772,000000	46,435900
771,000000	46,297500
770,000000	46,173400
769,000000	46,062700
768,000000	45,944600
767,000000	45,797600
766,000000	45,622600
765,000000	45,516900
764,000000	45,376500
763,000000	45,253500
762,000000	45,059000
761,000000	45,080900
760,000000	44,892900
759,000000	44,776500
758,000000	44,636600
757,000000	44,366100
756,000000	44,222900
755,000000	44,062600
754,000000	43,947000
753,000000	43,752200
752,000000	43,596200
751,000000	43,531000
750,000000	43,354300
749,000000	43,198600
748,000000	43,015700
747,000000	42,909900
746,000000	42,673700
745,000000	42,539500
744,000000	42,409300
743,000000	42,212500
742,000000	42,031200
741,000000	41,840700
740,000000	41,594300
739,000000	41,431000
738,000000	41,190600
737,000000	40,949500
736,000000	40,769700
735,000000	40,618300
734,000000	40,421300
733,000000	40,206400
732,000000	39,970000
731,000000	39,813400
730,000000	39,546200
729,000000	39,338300
728,000000	39,124700
727,000000	38,973000
726,000000	38,677000
725,000000	38,415700
724,000000	38,170800
723,000000	37,946900
722,000000	37,694700
721,000000	37,385600
720,000000	37,130500
719,000000	36,938600
718,000000	36,674000
717,000000	36,401400
716,000000	36,134400
715,000000	35,866800
714,000000	35,607900
713,000000	35,331100
712,000000	35,063400
711,000000	34,738300
710,000000	34,440000
709,000000	34,218500
708,000000	33,915200
707,000000	33,602700
706,000000	33,330100
705,000000	33,067000
704,000000	32,782400
703,000000	32,473200
702,000000	32,160600
701,000000	31,863300
700,000000	31,585100
699,000000	31,325700
698,000000	31,057300
697,000000	30,830500
696,000000	30,572100
695,000000	30,275000
694,000000	30,002500
693,000000	29,780000
692,000000	29,502000
691,000000	29,236000
690,000000	28,988100
689,000000	28,704200
688,000000	28,429800
687,000000	28,186800
686,000000	27,938400
685,000000	27,688300
684,000000	27,459700
683,000000	27,191800
682,000000	26,963000
681,000000	26,732200
680,000000	26,509300
679,000000	26,277300
678,000000	26,067300
677,000000	25,843100
676,000000	25,651100
675,000000	25,461100
674,000000	25,245800
673,000000	25,052200
672,000000	24,886300
671,000000	24,706900
670,000000	24,552500
669,000000	24,390900
668,000000	24,220100
667,000000	24,049100
666,000000	23,919000
665,000000	23,801200
664,000000	23,639000
663,000000	23,501200
662,000000	23,372400
661,000000	23,267400
660,000000	23,174100
659,000000	23,035600
658,000000	22,915600
657,000000	22,809500
656,000000	22,707800
655,000000	22,619800
654,000000	22,531300
653,000000	22,449100
652,000000	22,378300
651,000000	22,309900
650,000000	22,261000
649,000000	22,251200
648,000000	22,240400
647,000000	22,236900
646,000000	22,218100
645,000000	22,210800
644,000000	22,249500
643,000000	22,262200
642,000000	22,289500
641,000000	22,328700
640,000000	22,364100
639,000000	22,414900
638,000000	22,473400
637,000000	22,561100
636,000000	22,656800
635,000000	22,737200
634,000000	22,818000
633,000000	22,911300
632,000000	23,006900
631,000000	23,112400
630,000000	23,218200
629,000000	23,310000
628,000000	23,398700
627,000000	23,485800
626,000000	23,561600
625,000000	23,640800
624,000000	23,730900
623,000000	23,829000
622,000000	23,937800
621,000000	24,024200
620,000000	24,097900
619,000000	24,197600
618,000000	24,290100
617,000000	24,378600
616,000000	24,474800
615,000000	24,571500
614,000000	24,675600
613,000000	24,800000
612,000000	24,913300
611,000000	24,995700
610,000000	25,106200
609,000000	25,210500
608,000000	25,304600
607,000000	25,406400
606,000000	25,501000
605,000000	25,582800
604,000000	25,651200
603,000000	25,704700
602,000000	25,765900
601,000000	25,840600
600,000000	25,899400
599,000000	25,961500
598,000000	26,014900
597,000000	26,085900
596,000000	26,152900
595,000000	26,189300
594,000000	26,234300
593,000000	26,306600
592,000000	26,355800
591,000000	26,401500
590,000000	26,456800
589,000000	26,501100
588,000000	26,550300
587,000000	26,604800
586,000000	26,642000
585,000000	26,684000
584,000000	26,728100
583,000000	26,737400
582,000000	26,728300
581,000000	26,743600
580,000000	26,784000
579,000000	26,764400
578,000000	26,758300
577,000000	26,764100
576,000000	26,738000
575,000000	26,707500
574,000000	26,665600
573,000000	26,644600
572,000000	26,602100
571,000000	26,562600
570,000000	26,499100
569,000000	26,440400
568,000000	26,396600
567,000000	26,345200
566,000000	26,275300
565,000000	26,200200
564,000000	26,132200
563,000000	26,062400
562,000000	25,977100
561,000000	25,891800
560,000000	25,801200
559,000000	25,666500
558,000000	25,561300
557,000000	25,464000
556,000000	25,354400
555,000000	25,256900
554,000000	25,152300
553,000000	25,042800
552,000000	24,905500
551,000000	24,768600
550,000000	24,633200
549,000000	24,474500
548,000000	24,356100
547,000000	24,220800
546,000000	24,071300
545,000000	23,923700
544,000000	23,751900
543,000000	23,586700
542,000000	23,399400
541,000000	23,216400
540,000000	23,030900
539,000000	22,839700
538,000000	22,651400
537,000000	22,457800
536,000000	22,236700
535,000000	22,045100
534,000000	21,788500
533,000000	21,565600
532,000000	21,308900
531,000000	21,056400
530,000000	20,781900
529,000000	20,505900
528,000000	20,223300
527,000000	19,936200
526,000000	19,640900
525,000000	19,324300
524,000000	19,002600
523,000000	18,689400
522,000000	18,350500
521,000000	18,009700
520,000000	17,675100
519,000000	17,350500
518,000000	17,000300
517,000000	16,646900
516,000000	16,321000
515,000000	15,980100
514,000000	15,649100
513,000000	15,331500
512,000000	15,013500
511,000000	14,693600
510,000000	14,387400
509,000000	14,083500
508,000000	13,806900
507,000000	13,546000
506,000000	13,285800
505,000000	13,037100
504,000000	12,810800
503,000000	12,585600
502,000000	12,401800
501,000000	12,180800
500,000000	12,014000
499,000000	11,839000
498,000000	11,662500
497,000000	11,500000
496,000000	11,369300
495,000000	11,235900
494,000000	11,115300
493,000000	11,016400
492,000000	10,883500
491,000000	10,784500
490,000000	10,702300
489,000000	10,620900
488,000000	10,523800
487,000000	10,460600
486,000000	10,388900
485,000000	10,324200
484,000000	10,263300
483,000000	10,215100
482,000000	10,162800
481,000000	10,114000
480,000000	10,067600
479,000000	10,010100
478,000000	9,952200
477,000000	9,909800
476,000000	9,850600
475,000000	9,790700
474,000000	9,747200
473,000000	9,716100
472,000000	9,667800
471,000000	9,612900
470,000000	9,583300
469,000000	9,540900
468,000000	9,490800
467,000000	9,427500
466,000000	9,415400
465,000000	9,363900
464,000000	9,316400
463,000000	9,279600
462,000000	9,216700
461,000000	9,166200
460,000000	9,135300
459,000000	9,097500
458,000000	9,031800
457,000000	8,984400
456,000000	8,943000
455,000000	8,884500
454,000000	8,830200
453,000000	8,760600
452,000000	8,707300
451,000000	8,662000
450,000000	8,594200
449,000000	8,531500
448,000000	8,445800
447,000000	8,365300
446,000000	8,297200
445,000000	8,204800
444,000000	8,113000
443,000000	8,060300
442,000000	7,972900
441,000000	7,886500
440,000000	7,789900
439,000000	7,712500
438,000000	7,623700
437,000000	7,545200
436,000000	7,453800
435,000000	7,352900
434,000000	7,286700
433,000000	7,211000
432,000000	7,114500
431,000000	7,042200
430,000000	6,949100
429,000000	6,863500
428,000000	6,797700
427,000000	6,709000
426,000000	6,641900
425,000000	6,566000
424,000000	6,481900
423,000000	6,405600
422,000000	6,347800
421,000000	6,276500
420,000000	6,206700
419,000000	6,111200
418,000000	6,055600
417,000000	5,975600
416,000000	5,907800
415,000000	5,840300
414,000000	5,763700
413,000000	5,711900
412,000000	5,633500
411,000000	5,551700
410,000000	5,486400
409,000000	5,440400
408,000000	5,386400
407,000000	5,321600
406,000000	5,268600
405,000000	5,220600
404,000000	5,138400
403,000000	5,073300
402,000000	5,038900
401,000000	4,991700
400,000000	4,928400
399,000000	4,860800
398,000000	4,825700
397,000000	4,783800
396,000000	4,738800
395,000000	4,694500
394,000000	4,655400
393,000000	4,603800
392,000000	4,565700
391,000000	4,555900
390,000000	4,504200
389,000000	4,467300
388,000000	4,440600
387,000000	4,392000
386,000000	4,379200
385,000000	4,354500
384,000000	4,324000
383,000000	4,322600
382,000000	4,303500
381,000000	4,262600
380,000000	4,248800
379,000000	4,246900
378,000000	4,237900
377,000000	4,235100
376,000000	4,147000
375,000000	3,982800
374,000000	3,915500
373,000000	3,964300
372,000000	4,114600
371,000000	4,092800
370,000000	4,001700
369,000000	4,085900
368,000000	4,016400
367,000000	3,976800
366,000000	4,039600
365,000000	4,064500
364,000000	4,089400
363,000000	4,134800
362,000000	4,077900
361,000000	4,057800
360,000000	4,103000
359,000000	4,090300
358,000000	4,039800
357,000000	4,043700
356,000000	4,088100
355,000000	4,083500
354,000000	4,040800
353,000000	4,081200
352,000000	4,134200
351,000000	4,088300
350,000000	4,012200
349,000000	3,991600
348,000000	4,108800
347,000000	4,133100
346,000000	4,086300
345,000000	4,119100
344,000000	4,124400
343,000000	3,963400
342,000000	3,834700
341,000000	4,004300
340,000000	3,969900
339,000000	3,956200
338,000000	4,064400
337,000000	4,156600
336,000000	4,043200
335,000000	3,860900
334,000000	4,063400
333,000000	4,142100
332,000000	4,125600
331,000000	4,129000
330,000000	4,167600
329,000000	4,219000
328,000000	4,191000
327,000000	4,306000
326,000000	4,256400
325,000000	4,108200
324,000000	4,048700
323,000000	4,229200
322,000000	4,413700
321,000000	4,189800
320,000000	4,207000
319,000000	4,488000
318,000000	4,625700
317,000000	4,417900
316,000000	4,198500
315,000000	4,157500
314,000000	4,140000
313,000000	4,125200
312,000000	4,151800
311,000000	4,158300
310,000000	4,153000
309,000000	4,158800
308,000000	4,164600
307,000000	4,188600
306,000000	4,214800
305,000000	4,207700
304,000000	4,200000
303,000000	4,206700
302,000000	4,216600
301,000000	4,213200
300,000000	4,213600
299,000000	4,219200
298,000000	4,222000
297,000000	4,219600
296,000000	4,235000
295,000000	4,244400
294,000000	4,252200
293,000000	4,277300
292,000000	4,259500
291,000000	4,233300
290,000000	4,251200
289,000000	4,266000
288,000000	4,259400
287,000000	4,246000
286,000000	4,294600
285,000000	4,313700
284,000000	4,287100
283,000000	4,276200
282,000000	4,320400
281,000000	4,346100
280,000000	4,331400
279,000000	4,350500
278,000000	4,360300
277,000000	4,319200
276,000000	4,336300
275,000000	4,350200
274,000000	4,370200
273,000000	4,368800
272,000000	4,397900
271,000000	4,445000
270,000000	4,441200
269,000000	4,440100
268,000000	4,453400
267,000000	4,479900
266,000000	4,487800
265,000000	4,518600
264,000000	4,535000
263,000000	4,557200
262,000000	4,583100
261,000000	4,580800
260,000000	4,604100
259,000000	4,617300
258,000000	4,642600
257,000000	4,658700
256,000000	4,637700
255,000000	4,634900
254,000000	4,671100
253,000000	4,665400
252,000000	4,686100
251,000000	4,691700
250,000000	4,704800
