PE UV       SUBTECH     SPECTRUM    ASCII       PEDS        4.00        
   -1
CICIMAUCR0257-3.ASC
24/06/27
11:37:05.00
24/06/27
11:37:05.00
Vinicio Soto Monge
C. resplendens. Sex F. Ventral
250,000000
1
Lambda 1050
1050L1511233
PerkinElmer UV WinLab 6.3.2.0749 / 2.02.05 Lambda 900 UV/VIS/NIR, Aug  7 2015 09:38:08

0
0
3350/servo 860,8/2
0
0
UV/VIS
1
1
1
DoubleDePol,CommonBeamDepol,RBeamAtt,SBeamAtt,60mm sphere, WB InGaAs Detector
0
0
0
0
Program
Program
3350/servo 860,8/2
3350/0,2 860,8/0,2
3350/0,2 860,8/0,2
0
15.00
 
 
 
0
 
860,8
319,2
860,8
Front
100
on
S:100 R:100
0
0
0
0
 
0
 
 
 
0
 
 
0
0
0
0
0
 
 
 
 
0
0


0
0
#HDR
-1
-1
#GR
nm
%R
1.0
0.0
2500,000000
-1,000000
2251
8
58,099400
4,428400
#DATA
2500,000000	5,187100
2499,000000	5,077200
2498,000000	5,179300
2497,000000	5,192100
2496,000000	5,166800
2495,000000	5,153400
2494,000000	5,086400
2493,000000	5,169300
2492,000000	5,079900
2491,000000	5,101600
2490,000000	4,979300
2489,000000	5,062000
2488,000000	5,062400
2487,000000	4,992600
2486,000000	5,012600
2485,000000	4,956500
2484,000000	4,960100
2483,000000	4,907400
2482,000000	4,952400
2481,000000	4,886800
2480,000000	4,933600
2479,000000	4,969400
2478,000000	4,934900
2477,000000	4,880900
2476,000000	4,943800
2475,000000	4,894800
2474,000000	4,918200
2473,000000	4,973200
2472,000000	4,931500
2471,000000	4,936900
2470,000000	4,887600
2469,000000	4,914400
2468,000000	4,875500
2467,000000	4,917100
2466,000000	4,894500
2465,000000	4,916000
2464,000000	4,927800
2463,000000	4,922000
2462,000000	4,896500
2461,000000	4,933800
2460,000000	4,954600
2459,000000	4,944200
2458,000000	4,947700
2457,000000	4,978700
2456,000000	4,954100
2455,000000	4,988300
2454,000000	5,026600
2453,000000	5,005100
2452,000000	5,032200
2451,000000	5,050300
2450,000000	5,088200
2449,000000	5,099600
2448,000000	5,114400
2447,000000	5,130200
2446,000000	5,132200
2445,000000	5,146400
2444,000000	5,188000
2443,000000	5,231100
2442,000000	5,233800
2441,000000	5,243800
2440,000000	5,264900
2439,000000	5,315000
2438,000000	5,323400
2437,000000	5,316000
2436,000000	5,328900
2435,000000	5,360800
2434,000000	5,384500
2433,000000	5,391000
2432,000000	5,405900
2431,000000	5,414500
2430,000000	5,433900
2429,000000	5,448100
2428,000000	5,464800
2427,000000	5,486400
2426,000000	5,496700
2425,000000	5,510700
2424,000000	5,516800
2423,000000	5,506300
2422,000000	5,529300
2421,000000	5,529700
2420,000000	5,538700
2419,000000	5,551100
2418,000000	5,567100
2417,000000	5,586000
2416,000000	5,582500
2415,000000	5,576800
2414,000000	5,591400
2413,000000	5,611200
2412,000000	5,634000
2411,000000	5,622400
2410,000000	5,626000
2409,000000	5,644200
2408,000000	5,654500
2407,000000	5,666500
2406,000000	5,674100
2405,000000	5,670600
2404,000000	5,675700
2403,000000	5,692100
2402,000000	5,704900
2401,000000	5,710900
2400,000000	5,714100
2399,000000	5,728500
2398,000000	5,765000
2397,000000	5,778200
2396,000000	5,790200
2395,000000	5,791300
2394,000000	5,797800
2393,000000	5,812300
2392,000000	5,823500
2391,000000	5,834900
2390,000000	5,849400
2389,000000	5,854500
2388,000000	5,847700
2387,000000	5,849900
2386,000000	5,862500
2385,000000	5,869800
2384,000000	5,867400
2383,000000	5,868000
2382,000000	5,863200
2381,000000	5,852000
2380,000000	5,849700
2379,000000	5,848700
2378,000000	5,844800
2377,000000	5,854300
2376,000000	5,841300
2375,000000	5,824100
2374,000000	5,825100
2373,000000	5,827400
2372,000000	5,827700
2371,000000	5,812600
2370,000000	5,794900
2369,000000	5,771300
2368,000000	5,760800
2367,000000	5,760400
2366,000000	5,741800
2365,000000	5,712700
2364,000000	5,691700
2363,000000	5,684200
2362,000000	5,669900
2361,000000	5,635600
2360,000000	5,615200
2359,000000	5,614500
2358,000000	5,602700
2357,000000	5,581300
2356,000000	5,560400
2355,000000	5,539500
2354,000000	5,526200
2353,000000	5,536600
2352,000000	5,531600
2351,000000	5,524200
2350,000000	5,550900
2349,000000	5,568800
2348,000000	5,573200
2347,000000	5,573000
2346,000000	5,580300
2345,000000	5,589300
2344,000000	5,598500
2343,000000	5,629800
2342,000000	5,647100
2341,000000	5,660200
2340,000000	5,669800
2339,000000	5,681900
2338,000000	5,698000
2337,000000	5,693500
2336,000000	5,688400
2335,000000	5,678700
2334,000000	5,669300
2333,000000	5,670400
2332,000000	5,662700
2331,000000	5,646300
2330,000000	5,640200
2329,000000	5,627700
2328,000000	5,603100
2327,000000	5,580700
2326,000000	5,563300
2325,000000	5,535500
2324,000000	5,514500
2323,000000	5,489200
2322,000000	5,464800
2321,000000	5,434100
2320,000000	5,391200
2319,000000	5,362700
2318,000000	5,338100
2317,000000	5,318000
2316,000000	5,279500
2315,000000	5,253800
2314,000000	5,228500
2313,000000	5,212200
2312,000000	5,178500
2311,000000	5,151100
2310,000000	5,119200
2309,000000	5,110400
2308,000000	5,096200
2307,000000	5,067600
2306,000000	5,080500
2305,000000	5,078000
2304,000000	5,091000
2303,000000	5,113700
2302,000000	5,098300
2301,000000	5,127600
2300,000000	5,130900
2299,000000	5,156100
2298,000000	5,179800
2297,000000	5,193900
2296,000000	5,212800
2295,000000	5,248900
2294,000000	5,266100
2293,000000	5,277900
2292,000000	5,278900
2291,000000	5,296800
2290,000000	5,305700
2289,000000	5,322600
2288,000000	5,307000
2287,000000	5,312300
2286,000000	5,296400
2285,000000	5,298300
2284,000000	5,302400
2283,000000	5,276100
2282,000000	5,274200
2281,000000	5,260300
2280,000000	5,245200
2279,000000	5,231000
2278,000000	5,217400
2277,000000	5,209600
2276,000000	5,209500
2275,000000	5,203100
2274,000000	5,189900
2273,000000	5,177500
2272,000000	5,198000
2271,000000	5,183400
2270,000000	5,199000
2269,000000	5,226100
2268,000000	5,219700
2267,000000	5,227500
2266,000000	5,253600
2265,000000	5,295400
2264,000000	5,320700
2263,000000	5,373900
2262,000000	5,432300
2261,000000	5,479100
2260,000000	5,535000
2259,000000	5,618500
2258,000000	5,672600
2257,000000	5,759300
2256,000000	5,841400
2255,000000	5,920800
2254,000000	6,018100
2253,000000	6,085900
2252,000000	6,170700
2251,000000	6,280800
2250,000000	6,371800
2249,000000	6,428900
2248,000000	6,512500
2247,000000	6,581800
2246,000000	6,645300
2245,000000	6,725600
2244,000000	6,774700
2243,000000	6,871000
2242,000000	6,915000
2241,000000	6,995800
2240,000000	7,047500
2239,000000	7,076100
2238,000000	7,145400
2237,000000	7,178200
2236,000000	7,231100
2235,000000	7,257300
2234,000000	7,275300
2233,000000	7,324700
2232,000000	7,359400
2231,000000	7,391500
2230,000000	7,411000
2229,000000	7,426800
2228,000000	7,439700
2227,000000	7,458000
2226,000000	7,468000
2225,000000	7,485600
2224,000000	7,487200
2223,000000	7,484900
2222,000000	7,508000
2221,000000	7,516800
2220,000000	7,489500
2219,000000	7,486600
2218,000000	7,483600
2217,000000	7,490300
2216,000000	7,461500
2215,000000	7,456900
2214,000000	7,473000
2213,000000	7,465700
2212,000000	7,459700
2211,000000	7,441300
2210,000000	7,453800
2209,000000	7,422700
2208,000000	7,430700
2207,000000	7,444400
2206,000000	7,424300
2205,000000	7,402700
2204,000000	7,427400
2203,000000	7,416700
2202,000000	7,403500
2201,000000	7,402800
2200,000000	7,402500
2199,000000	7,412100
2198,000000	7,426200
2197,000000	7,398900
2196,000000	7,404300
2195,000000	7,404200
2194,000000	7,397700
2193,000000	7,398000
2192,000000	7,409600
2191,000000	7,401300
2190,000000	7,380800
2189,000000	7,381400
2188,000000	7,382100
2187,000000	7,363500
2186,000000	7,364600
2185,000000	7,359000
2184,000000	7,356000
2183,000000	7,356300
2182,000000	7,346100
2181,000000	7,351400
2180,000000	7,344400
2179,000000	7,343900
2178,000000	7,324000
2177,000000	7,337700
2176,000000	7,341900
2175,000000	7,353200
2174,000000	7,321300
2173,000000	7,313900
2172,000000	7,332600
2171,000000	7,330800
2170,000000	7,331800
2169,000000	7,329700
2168,000000	7,339600
2167,000000	7,368300
2166,000000	7,375500
2165,000000	7,377600
2164,000000	7,379100
2163,000000	7,380300
2162,000000	7,398900
2161,000000	7,395500
2160,000000	7,419200
2159,000000	7,430100
2158,000000	7,425600
2157,000000	7,452500
2156,000000	7,453000
2155,000000	7,492100
2154,000000	7,508900
2153,000000	7,511400
2152,000000	7,539100
2151,000000	7,539700
2150,000000	7,555700
2149,000000	7,567700
2148,000000	7,582700
2147,000000	7,606400
2146,000000	7,609100
2145,000000	7,623300
2144,000000	7,632700
2143,000000	7,644000
2142,000000	7,666200
2141,000000	7,671800
2140,000000	7,676200
2139,000000	7,693100
2138,000000	7,696800
2137,000000	7,708100
2136,000000	7,706500
2135,000000	7,710800
2134,000000	7,721200
2133,000000	7,711500
2132,000000	7,713800
2131,000000	7,732100
2130,000000	7,724100
2129,000000	7,732200
2128,000000	7,737100
2127,000000	7,713900
2126,000000	7,719100
2125,000000	7,720600
2124,000000	7,708400
2123,000000	7,704300
2122,000000	7,682300
2121,000000	7,670900
2120,000000	7,668100
2119,000000	7,650400
2118,000000	7,645100
2117,000000	7,638700
2116,000000	7,615200
2115,000000	7,614500
2114,000000	7,601400
2113,000000	7,573600
2112,000000	7,562500
2111,000000	7,545000
2110,000000	7,530000
2109,000000	7,516700
2108,000000	7,508900
2107,000000	7,486100
2106,000000	7,478100
2105,000000	7,470700
2104,000000	7,455600
2103,000000	7,426600
2102,000000	7,407300
2101,000000	7,401300
2100,000000	7,396000
2099,000000	7,376500
2098,000000	7,363500
2097,000000	7,339000
2096,000000	7,314200
2095,000000	7,320200
2094,000000	7,317200
2093,000000	7,293400
2092,000000	7,282100
2091,000000	7,279900
2090,000000	7,274600
2089,000000	7,262100
2088,000000	7,252900
2087,000000	7,248400
2086,000000	7,241400
2085,000000	7,229700
2084,000000	7,212700
2083,000000	7,203900
2082,000000	7,201000
2081,000000	7,180600
2080,000000	7,160500
2079,000000	7,157500
2078,000000	7,158200
2077,000000	7,154100
2076,000000	7,136300
2075,000000	7,119200
2074,000000	7,108000
2073,000000	7,096900
2072,000000	7,090900
2071,000000	7,075600
2070,000000	7,051400
2069,000000	7,039500
2068,000000	7,037000
2067,000000	7,040700
2066,000000	7,029800
2065,000000	7,024100
2064,000000	7,022700
2063,000000	7,021300
2062,000000	7,013000
2061,000000	6,994200
2060,000000	6,990000
2059,000000	6,992700
2058,000000	7,004700
2057,000000	7,016500
2056,000000	7,013100
2055,000000	7,031500
2054,000000	7,063400
2053,000000	7,073000
2052,000000	7,101500
2051,000000	7,132100
2050,000000	7,156700
2049,000000	7,196000
2048,000000	7,238600
2047,000000	7,280100
2046,000000	7,327500
2045,000000	7,386500
2044,000000	7,442000
2043,000000	7,484400
2042,000000	7,532600
2041,000000	7,591700
2040,000000	7,658900
2039,000000	7,713800
2038,000000	7,753700
2037,000000	7,803500
2036,000000	7,851100
2035,000000	7,906400
2034,000000	7,950500
2033,000000	7,988500
2032,000000	8,036300
2031,000000	8,092200
2030,000000	8,109600
2029,000000	8,126400
2028,000000	8,201100
2027,000000	8,236100
2026,000000	8,254300
2025,000000	8,288500
2024,000000	8,305800
2023,000000	8,331400
2022,000000	8,360900
2021,000000	8,387500
2020,000000	8,408500
2019,000000	8,429600
2018,000000	8,442600
2017,000000	8,468300
2016,000000	8,483300
2015,000000	8,490600
2014,000000	8,502900
2013,000000	8,528100
2012,000000	8,534600
2011,000000	8,542000
2010,000000	8,568700
2009,000000	8,545900
2008,000000	8,545300
2007,000000	8,524000
2006,000000	8,503000
2005,000000	8,522500
2004,000000	8,521900
2003,000000	8,518700
2002,000000	8,486400
2001,000000	8,465900
2000,000000	8,456300
1999,000000	8,436400
1998,000000	8,413300
1997,000000	8,400600
1996,000000	8,367000
1995,000000	8,341800
1994,000000	8,321200
1993,000000	8,285400
1992,000000	8,238400
1991,000000	8,220800
1990,000000	8,183700
1989,000000	8,145700
1988,000000	8,121200
1987,000000	8,088100
1986,000000	8,022500
1985,000000	8,004800
1984,000000	7,954400
1983,000000	7,908300
1982,000000	7,889300
1981,000000	7,830600
1980,000000	7,804500
1979,000000	7,767300
1978,000000	7,737200
1977,000000	7,688800
1976,000000	7,659100
1975,000000	7,634400
1974,000000	7,586000
1973,000000	7,552500
1972,000000	7,521100
1971,000000	7,494100
1970,000000	7,435100
1969,000000	7,417900
1968,000000	7,370300
1967,000000	7,347800
1966,000000	7,326700
1965,000000	7,272500
1964,000000	7,275700
1963,000000	7,239200
1962,000000	7,204200
1961,000000	7,167600
1960,000000	7,139200
1959,000000	7,108600
1958,000000	7,090300
1957,000000	7,060000
1956,000000	7,017300
1955,000000	7,016200
1954,000000	6,955400
1953,000000	6,933600
1952,000000	6,925500
1951,000000	6,886300
1950,000000	6,874100
1949,000000	6,836600
1948,000000	6,818300
1947,000000	6,799700
1946,000000	6,789400
1945,000000	6,770200
1944,000000	6,766300
1943,000000	6,744000
1942,000000	6,736700
1941,000000	6,732500
1940,000000	6,721900
1939,000000	6,701600
1938,000000	6,724200
1937,000000	6,703800
1936,000000	6,731600
1935,000000	6,739900
1934,000000	6,773900
1933,000000	6,769300
1932,000000	6,781900
1931,000000	6,802100
1930,000000	6,849100
1929,000000	6,829000
1928,000000	6,907400
1927,000000	6,944500
1926,000000	6,990600
1925,000000	7,035500
1924,000000	7,041000
1923,000000	7,110500
1922,000000	7,173500
1921,000000	7,231300
1920,000000	7,299000
1919,000000	7,380600
1918,000000	7,429400
1917,000000	7,526700
1916,000000	7,599300
1915,000000	7,660300
1914,000000	7,716200
1913,000000	7,841100
1912,000000	7,955800
1911,000000	8,065000
1910,000000	8,164100
1909,000000	8,237600
1908,000000	8,345900
1907,000000	8,452000
1906,000000	8,560700
1905,000000	8,731200
1904,000000	8,886500
1903,000000	9,023000
1902,000000	9,163100
1901,000000	9,317200
1900,000000	9,447900
1899,000000	9,644900
1898,000000	9,831200
1897,000000	9,977200
1896,000000	10,144800
1895,000000	10,287700
1894,000000	10,434500
1893,000000	10,604800
1892,000000	10,787000
1891,000000	11,032200
1890,000000	11,256000
1889,000000	11,465600
1888,000000	11,678300
1887,000000	11,907300
1886,000000	12,184700
1885,000000	12,495900
1884,000000	12,827600
1883,000000	13,210800
1882,000000	13,656900
1881,000000	14,061200
1880,000000	14,511900
1879,000000	14,919700
1878,000000	15,317700
1877,000000	15,756100
1876,000000	16,178700
1875,000000	16,566200
1874,000000	16,927400
1873,000000	17,284300
1872,000000	17,632100
1871,000000	17,953500
1870,000000	18,244700
1869,000000	18,535800
1868,000000	18,794800
1867,000000	18,987800
1866,000000	19,132400
1865,000000	19,253100
1864,000000	19,346100
1863,000000	19,420000
1862,000000	19,467100
1861,000000	19,548800
1860,000000	19,635000
1859,000000	19,694300
1858,000000	19,739600
1857,000000	19,787900
1856,000000	19,779300
1855,000000	19,756500
1854,000000	19,744300
1853,000000	19,735900
1852,000000	19,676700
1851,000000	19,623900
1850,000000	19,571800
1849,000000	19,507900
1848,000000	19,461300
1847,000000	19,432700
1846,000000	19,398500
1845,000000	19,312900
1844,000000	19,246400
1843,000000	19,168700
1842,000000	19,125400
1841,000000	19,122000
1840,000000	19,106300
1839,000000	19,075900
1838,000000	19,018100
1837,000000	18,964300
1836,000000	18,924400
1835,000000	18,883200
1834,000000	18,821700
1833,000000	18,732300
1832,000000	18,630000
1831,000000	18,547700
1830,000000	18,485000
1829,000000	18,399500
1828,000000	18,330200
1827,000000	18,249600
1826,000000	18,169500
1825,000000	18,112000
1824,000000	18,036800
1823,000000	17,967500
1822,000000	17,928500
1821,000000	17,910400
1820,000000	17,895000
1819,000000	17,881200
1818,000000	17,850800
1817,000000	17,805700
1816,000000	17,784500
1815,000000	17,777300
1814,000000	17,779200
1813,000000	17,768300
1812,000000	17,759900
1811,000000	17,739000
1810,000000	17,703100
1809,000000	17,673100
1808,000000	17,625200
1807,000000	17,565300
1806,000000	17,528400
1805,000000	17,483800
1804,000000	17,425000
1803,000000	17,383700
1802,000000	17,336500
1801,000000	17,290200
1800,000000	17,244100
1799,000000	17,183500
1798,000000	17,117800
1797,000000	17,071000
1796,000000	17,023700
1795,000000	16,978300
1794,000000	16,936500
1793,000000	16,883400
1792,000000	16,834300
1791,000000	16,761200
1790,000000	16,700100
1789,000000	16,639800
1788,000000	16,565800
1787,000000	16,500600
1786,000000	16,425200
1785,000000	16,347100
1784,000000	16,273300
1783,000000	16,177700
1782,000000	16,092500
1781,000000	16,008200
1780,000000	15,917400
1779,000000	15,851400
1778,000000	15,781100
1777,000000	15,678700
1776,000000	15,573500
1775,000000	15,461200
1774,000000	15,332000
1773,000000	15,210100
1772,000000	15,092200
1771,000000	14,968600
1770,000000	14,820600
1769,000000	14,678200
1768,000000	14,555600
1767,000000	14,448300
1766,000000	14,352800
1765,000000	14,266300
1764,000000	14,193000
1763,000000	14,143700
1762,000000	14,143300
1761,000000	14,161600
1760,000000	14,213600
1759,000000	14,260700
1758,000000	14,306100
1757,000000	14,367200
1756,000000	14,432300
1755,000000	14,487700
1754,000000	14,511900
1753,000000	14,522900
1752,000000	14,515700
1751,000000	14,508300
1750,000000	14,486400
1749,000000	14,426700
1748,000000	14,374700
1747,000000	14,312500
1746,000000	14,226700
1745,000000	14,105800
1744,000000	13,976000
1743,000000	13,842500
1742,000000	13,662000
1741,000000	13,462100
1740,000000	13,256900
1739,000000	13,028800
1738,000000	12,827600
1737,000000	12,646600
1736,000000	12,484100
1735,000000	12,368500
1734,000000	12,308200
1733,000000	12,259800
1732,000000	12,277800
1731,000000	12,348000
1730,000000	12,402400
1729,000000	12,500700
1728,000000	12,586500
1727,000000	12,695200
1726,000000	12,806100
1725,000000	12,896500
1724,000000	12,961600
1723,000000	13,010600
1722,000000	13,034300
1721,000000	13,039500
1720,000000	13,058000
1719,000000	13,059700
1718,000000	13,074700
1717,000000	13,095500
1716,000000	13,103300
1715,000000	13,148500
1714,000000	13,214100
1713,000000	13,265500
1712,000000	13,315400
1711,000000	13,349200
1710,000000	13,362900
1709,000000	13,376200
1708,000000	13,367000
1707,000000	13,329300
1706,000000	13,309400
1705,000000	13,277500
1704,000000	13,234900
1703,000000	13,177900
1702,000000	13,089900
1701,000000	13,004700
1700,000000	12,874700
1699,000000	12,730800
1698,000000	12,591300
1697,000000	12,482800
1696,000000	12,386100
1695,000000	12,328800
1694,000000	12,340000
1693,000000	12,405000
1692,000000	12,519600
1691,000000	12,652800
1690,000000	12,795000
1689,000000	12,944300
1688,000000	13,057300
1687,000000	13,142300
1686,000000	13,144000
1685,000000	13,159200
1684,000000	13,188200
1683,000000	13,263900
1682,000000	13,473900
1681,000000	13,775200
1680,000000	14,183100
1679,000000	14,709500
1678,000000	15,234100
1677,000000	15,768800
1676,000000	16,279600
1675,000000	16,775400
1674,000000	17,175300
1673,000000	17,536400
1672,000000	17,875200
1671,000000	18,122100
1670,000000	18,351700
1669,000000	18,547500
1668,000000	18,715500
1667,000000	18,862100
1666,000000	19,010600
1665,000000	19,122200
1664,000000	19,213700
1663,000000	19,295000
1662,000000	19,377700
1661,000000	19,430500
1660,000000	19,489200
1659,000000	19,535400
1658,000000	19,565200
1657,000000	19,589600
1656,000000	19,599900
1655,000000	19,616200
1654,000000	19,597800
1653,000000	19,592400
1652,000000	19,558100
1651,000000	19,562300
1650,000000	19,513500
1649,000000	19,498300
1648,000000	19,424900
1647,000000	19,396800
1646,000000	19,343300
1645,000000	19,292500
1644,000000	19,210300
1643,000000	19,188100
1642,000000	19,130000
1641,000000	19,050100
1640,000000	18,988000
1639,000000	18,899600
1638,000000	18,839900
1637,000000	18,781200
1636,000000	18,691500
1635,000000	18,628000
1634,000000	18,557400
1633,000000	18,488300
1632,000000	18,391600
1631,000000	18,301400
1630,000000	18,230800
1629,000000	18,137400
1628,000000	18,059600
1627,000000	17,982500
1626,000000	17,902700
1625,000000	17,816100
1624,000000	17,725000
1623,000000	17,625600
1622,000000	17,548200
1621,000000	17,469400
1620,000000	17,361100
1619,000000	17,295200
1618,000000	17,228600
1617,000000	17,152100
1616,000000	17,063800
1615,000000	17,004800
1614,000000	16,923500
1613,000000	16,855200
1612,000000	16,781700
1611,000000	16,706500
1610,000000	16,664100
1609,000000	16,586200
1608,000000	16,519200
1607,000000	16,432000
1606,000000	16,381300
1605,000000	16,317100
1604,000000	16,229200
1603,000000	16,174000
1602,000000	16,101400
1601,000000	16,042400
1600,000000	15,970100
1599,000000	15,906600
1598,000000	15,854500
1597,000000	15,781800
1596,000000	15,724800
1595,000000	15,686700
1594,000000	15,631800
1593,000000	15,566400
1592,000000	15,518800
1591,000000	15,474400
1590,000000	15,426500
1589,000000	15,378300
1588,000000	15,343900
1587,000000	15,302800
1586,000000	15,258400
1585,000000	15,221600
1584,000000	15,200000
1583,000000	15,179800
1582,000000	15,138300
1581,000000	15,112200
1580,000000	15,105300
1579,000000	15,095500
1578,000000	15,071500
1577,000000	15,068400
1576,000000	15,072700
1575,000000	15,070900
1574,000000	15,073300
1573,000000	15,071900
1572,000000	15,062100
1571,000000	15,084000
1570,000000	15,102900
1569,000000	15,112000
1568,000000	15,132000
1567,000000	15,140100
1566,000000	15,165700
1565,000000	15,187600
1564,000000	15,211500
1563,000000	15,234900
1562,000000	15,261800
1561,000000	15,284100
1560,000000	15,275500
1559,000000	15,291400
1558,000000	15,311500
1557,000000	15,323000
1556,000000	15,340900
1555,000000	15,334200
1554,000000	15,334200
1553,000000	15,334500
1552,000000	15,330200
1551,000000	15,327500
1550,000000	15,325400
1549,000000	15,313900
1548,000000	15,298800
1547,000000	15,295000
1546,000000	15,301700
1545,000000	15,291200
1544,000000	15,280300
1543,000000	15,276800
1542,000000	15,278400
1541,000000	15,294200
1540,000000	15,293700
1539,000000	15,289600
1538,000000	15,278000
1537,000000	15,276900
1536,000000	15,273000
1535,000000	15,269400
1534,000000	15,251300
1533,000000	15,246600
1532,000000	15,250000
1531,000000	15,225700
1530,000000	15,219900
1529,000000	15,216100
1528,000000	15,189700
1527,000000	15,168500
1526,000000	15,153000
1525,000000	15,130000
1524,000000	15,101700
1523,000000	15,074400
1522,000000	15,067000
1521,000000	15,052200
1520,000000	15,026900
1519,000000	14,993000
1518,000000	14,961800
1517,000000	14,944500
1516,000000	14,920400
1515,000000	14,884600
1514,000000	14,868200
1513,000000	14,846100
1512,000000	14,816100
1511,000000	14,793800
1510,000000	14,758700
1509,000000	14,725000
1508,000000	14,678400
1507,000000	14,641400
1506,000000	14,628800
1505,000000	14,615600
1504,000000	14,592000
1503,000000	14,557700
1502,000000	14,527800
1501,000000	14,509600
1500,000000	14,492100
1499,000000	14,460200
1498,000000	14,433200
1497,000000	14,421400
1496,000000	14,413300
1495,000000	14,397600
1494,000000	14,381900
1493,000000	14,370900
1492,000000	14,361600
1491,000000	14,347800
1490,000000	14,352000
1489,000000	14,355600
1488,000000	14,346800
1487,000000	14,340700
1486,000000	14,331800
1485,000000	14,333000
1484,000000	14,340000
1483,000000	14,340500
1482,000000	14,342000
1481,000000	14,358000
1480,000000	14,378100
1479,000000	14,393500
1478,000000	14,412700
1477,000000	14,420200
1476,000000	14,418000
1475,000000	14,437300
1474,000000	14,466200
1473,000000	14,479200
1472,000000	14,502600
1471,000000	14,529400
1470,000000	14,552700
1469,000000	14,572700
1468,000000	14,590500
1467,000000	14,597200
1466,000000	14,630200
1465,000000	14,664500
1464,000000	14,688100
1463,000000	14,728000
1462,000000	14,768400
1461,000000	14,807000
1460,000000	14,871500
1459,000000	14,927200
1458,000000	14,977000
1457,000000	15,026800
1456,000000	15,105100
1455,000000	15,189900
1454,000000	15,275600
1453,000000	15,350900
1452,000000	15,431100
1451,000000	15,529800
1450,000000	15,633700
1449,000000	15,733700
1448,000000	15,810400
1447,000000	15,894400
1446,000000	16,015500
1445,000000	16,134300
1444,000000	16,226400
1443,000000	16,340800
1442,000000	16,446600
1441,000000	16,567900
1440,000000	16,678600
1439,000000	16,795900
1438,000000	16,912000
1437,000000	17,041800
1436,000000	17,144300
1435,000000	17,254700
1434,000000	17,361100
1433,000000	17,489400
1432,000000	17,619900
1431,000000	17,765700
1430,000000	17,902000
1429,000000	18,029600
1428,000000	18,179100
1427,000000	18,359900
1426,000000	18,520400
1425,000000	18,719100
1424,000000	18,913500
1423,000000	19,131900
1422,000000	19,350800
1421,000000	19,563500
1420,000000	19,763800
1419,000000	20,018100
1418,000000	20,287300
1417,000000	20,504100
1416,000000	20,690200
1415,000000	20,922300
1414,000000	21,182300
1413,000000	21,443900
1412,000000	21,696400
1411,000000	21,901000
1410,000000	22,182600
1409,000000	22,521700
1408,000000	22,878700
1407,000000	23,301700
1406,000000	23,697600
1405,000000	24,092900
1404,000000	24,541600
1403,000000	24,980600
1402,000000	25,406400
1401,000000	25,793000
1400,000000	26,283000
1399,000000	26,737500
1398,000000	27,044000
1397,000000	27,268100
1396,000000	27,560700
1395,000000	27,903500
1394,000000	28,158500
1393,000000	28,362100
1392,000000	28,536400
1391,000000	28,782800
1390,000000	29,041600
1389,000000	29,231800
1388,000000	29,552100
1387,000000	29,932700
1386,000000	30,325400
1385,000000	30,777400
1384,000000	31,276000
1383,000000	31,812100
1382,000000	32,387400
1381,000000	32,929600
1380,000000	33,313400
1379,000000	33,550000
1378,000000	33,744300
1377,000000	33,848600
1376,000000	34,032300
1375,000000	34,223700
1374,000000	34,481300
1373,000000	34,799300
1372,000000	35,198200
1371,000000	35,652500
1370,000000	36,150200
1369,000000	36,563000
1368,000000	36,966100
1367,000000	37,351400
1366,000000	37,669800
1365,000000	37,925300
1364,000000	38,217600
1363,000000	38,432400
1362,000000	38,659200
1361,000000	38,849100
1360,000000	39,055700
1359,000000	39,087200
1358,000000	39,193400
1357,000000	39,319700
1356,000000	39,544100
1355,000000	39,898800
1354,000000	40,445100
1353,000000	41,069800
1352,000000	41,693900
1351,000000	42,445500
1350,000000	43,124000
1349,000000	43,767900
1348,000000	44,351100
1347,000000	44,881000
1346,000000	45,400600
1345,000000	45,822500
1344,000000	46,274500
1343,000000	46,712100
1342,000000	47,108700
1341,000000	47,494100
1340,000000	47,895500
1339,000000	48,253200
1338,000000	48,613000
1337,000000	48,953000
1336,000000	49,275700
1335,000000	49,600500
1334,000000	49,908600
1333,000000	50,199600
1332,000000	50,491000
1331,000000	50,757800
1330,000000	50,999200
1329,000000	51,246000
1328,000000	51,485200
1327,000000	51,710200
1326,000000	51,923900
1325,000000	52,123800
1324,000000	52,336900
1323,000000	52,491300
1322,000000	52,663100
1321,000000	52,816600
1320,000000	52,976100
1319,000000	53,114000
1318,000000	53,264700
1317,000000	53,397400
1316,000000	53,520400
1315,000000	53,654000
1314,000000	53,773100
1313,000000	53,893800
1312,000000	53,969200
1311,000000	54,068000
1310,000000	54,164100
1309,000000	54,242500
1308,000000	54,322800
1307,000000	54,374000
1306,000000	54,443200
1305,000000	54,470600
1304,000000	54,509900
1303,000000	54,540500
1302,000000	54,544300
1301,000000	54,566800
1300,000000	54,577700
1299,000000	54,591500
1298,000000	54,598100
1297,000000	54,593400
1296,000000	54,580200
1295,000000	54,569200
1294,000000	54,558200
1293,000000	54,533500
1292,000000	54,521600
1291,000000	54,469800
1290,000000	54,431700
1289,000000	54,400700
1288,000000	54,334600
1287,000000	54,262500
1286,000000	54,178400
1285,000000	54,103800
1284,000000	54,008300
1283,000000	53,926500
1282,000000	53,833900
1281,000000	53,746600
1280,000000	53,655900
1279,000000	53,566900
1278,000000	53,477200
1277,000000	53,370600
1276,000000	53,298000
1275,000000	53,218200
1274,000000	53,140100
1273,000000	53,070600
1272,000000	52,992800
1271,000000	52,932500
1270,000000	52,886900
1269,000000	52,818200
1268,000000	52,746500
1267,000000	52,673500
1266,000000	52,608100
1265,000000	52,527500
1264,000000	52,446500
1263,000000	52,385700
1262,000000	52,321800
1261,000000	52,234800
1260,000000	52,164600
1259,000000	52,093000
1258,000000	52,009700
1257,000000	51,939400
1256,000000	51,856800
1255,000000	51,755900
1254,000000	51,650100
1253,000000	51,563600
1252,000000	51,455100
1251,000000	51,334600
1250,000000	51,223100
1249,000000	51,103100
1248,000000	50,973300
1247,000000	50,853000
1246,000000	50,705800
1245,000000	50,524400
1244,000000	50,354100
1243,000000	50,185700
1242,000000	49,992600
1241,000000	49,798400
1240,000000	49,614400
1239,000000	49,409800
1238,000000	49,192800
1237,000000	48,977200
1236,000000	48,755700
1235,000000	48,531600
1234,000000	48,300000
1233,000000	48,063100
1232,000000	47,837000
1231,000000	47,595700
1230,000000	47,332300
1229,000000	47,087300
1228,000000	46,843400
1227,000000	46,582900
1226,000000	46,326000
1225,000000	46,066300
1224,000000	45,811600
1223,000000	45,547700
1222,000000	45,293900
1221,000000	45,046100
1220,000000	44,798600
1219,000000	44,562400
1218,000000	44,334200
1217,000000	44,120300
1216,000000	43,908200
1215,000000	43,712100
1214,000000	43,526300
1213,000000	43,333300
1212,000000	43,148300
1211,000000	42,984100
1210,000000	42,832100
1209,000000	42,668100
1208,000000	42,519900
1207,000000	42,397400
1206,000000	42,290200
1205,000000	42,213800
1204,000000	42,153600
1203,000000	42,093700
1202,000000	42,052000
1201,000000	42,002700
1200,000000	41,952600
1199,000000	41,886100
1198,000000	41,764000
1197,000000	41,602800
1196,000000	41,416100
1195,000000	41,162300
1194,000000	40,819300
1193,000000	40,411200
1192,000000	39,927100
1191,000000	39,353900
1190,000000	38,745700
1189,000000	38,177000
1188,000000	37,694400
1187,000000	37,313300
1186,000000	37,098300
1185,000000	37,032800
1184,000000	37,135200
1183,000000	37,407300
1182,000000	37,833800
1181,000000	38,389000
1180,000000	39,012300
1179,000000	39,676400
1178,000000	40,270900
1177,000000	40,820500
1176,000000	41,302600
1175,000000	41,707800
1174,000000	42,093000
1173,000000	42,484300
1172,000000	42,889400
1171,000000	43,290900
1170,000000	43,705000
1169,000000	44,134000
1168,000000	44,552600
1167,000000	44,992100
1166,000000	45,441800
1165,000000	45,864500
1164,000000	46,323600
1163,000000	46,786100
1162,000000	47,252200
1161,000000	47,717600
1160,000000	48,154800
1159,000000	48,592000
1158,000000	49,007100
1157,000000	49,403700
1156,000000	49,759100
1155,000000	50,080200
1154,000000	50,316400
1153,000000	50,491400
1152,000000	50,597900
1151,000000	50,643500
1150,000000	50,654900
1149,000000	50,655100
1148,000000	50,629800
1147,000000	50,642000
1146,000000	50,714800
1145,000000	50,874000
1144,000000	51,106900
1143,000000	51,409400
1142,000000	51,757900
1141,000000	52,153900
1140,000000	52,558000
1139,000000	52,978700
1138,000000	53,405500
1137,000000	53,855400
1136,000000	54,312300
1135,000000	54,785600
1134,000000	55,280700
1133,000000	55,717300
1132,000000	56,071400
1131,000000	56,448400
1130,000000	56,758700
1129,000000	57,045900
1128,000000	57,285200
1127,000000	57,490200
1126,000000	57,636300
1125,000000	57,761000
1124,000000	57,859600
1123,000000	57,928500
1122,000000	57,994000
1121,000000	58,034800
1120,000000	58,055400
1119,000000	58,085600
1118,000000	58,099400
1117,000000	58,074800
1116,000000	58,071300
1115,000000	58,032800
1114,000000	57,995800
1113,000000	57,959900
1112,000000	57,910300
1111,000000	57,875900
1110,000000	57,848000
1109,000000	57,795300
1108,000000	57,752200
1107,000000	57,701800
1106,000000	57,662600
1105,000000	57,620300
1104,000000	57,582200
1103,000000	57,523200
1102,000000	57,471500
1101,000000	57,414600
1100,000000	57,386300
1099,000000	57,314800
1098,000000	57,258700
1097,000000	57,186300
1096,000000	57,115100
1095,000000	57,047100
1094,000000	56,967200
1093,000000	56,893300
1092,000000	56,819900
1091,000000	56,730100
1090,000000	56,653100
1089,000000	56,562500
1088,000000	56,476700
1087,000000	56,365300
1086,000000	56,275300
1085,000000	56,196500
1084,000000	56,079000
1083,000000	55,991400
1082,000000	55,859500
1081,000000	55,780800
1080,000000	55,699400
1079,000000	55,604000
1078,000000	55,478600
1077,000000	55,410700
1076,000000	55,308800
1075,000000	55,219400
1074,000000	55,135400
1073,000000	55,001800
1072,000000	54,935300
1071,000000	54,821500
1070,000000	54,729300
1069,000000	54,623300
1068,000000	54,533600
1067,000000	54,433500
1066,000000	54,350700
1065,000000	54,258100
1064,000000	54,148000
1063,000000	54,055800
1062,000000	53,938600
1061,000000	53,849400
1060,000000	53,720700
1059,000000	53,611600
1058,000000	53,509500
1057,000000	53,393500
1056,000000	53,261600
1055,000000	53,160700
1054,000000	53,054000
1053,000000	52,950500
1052,000000	52,831900
1051,000000	52,731000
1050,000000	52,617900
1049,000000	52,539300
1048,000000	52,415300
1047,000000	52,348100
1046,000000	52,241100
1045,000000	52,133700
1044,000000	52,063900
1043,000000	51,963800
1042,000000	51,850800
1041,000000	51,776800
1040,000000	51,678000
1039,000000	51,587400
1038,000000	51,500000
1037,000000	51,396400
1036,000000	51,295600
1035,000000	51,209000
1034,000000	51,093600
1033,000000	50,991600
1032,000000	50,870900
1031,000000	50,770000
1030,000000	50,636100
1029,000000	50,536100
1028,000000	50,424300
1027,000000	50,308900
1026,000000	50,173700
1025,000000	50,049200
1024,000000	49,909900
1023,000000	49,762600
1022,000000	49,658700
1021,000000	49,532500
1020,000000	49,398400
1019,000000	49,287000
1018,000000	49,138800
1017,000000	49,026100
1016,000000	48,928000
1015,000000	48,817100
1014,000000	48,714400
1013,000000	48,623000
1012,000000	48,515900
1011,000000	48,433100
1010,000000	48,370200
1009,000000	48,297700
1008,000000	48,260600
1007,000000	48,179400
1006,000000	48,131300
1005,000000	48,076600
1004,000000	48,016700
1003,000000	47,967400
1002,000000	47,897300
1001,000000	47,838900
1000,000000	47,779700
999,000000	47,712900
998,000000	47,655200
997,000000	47,575500
996,000000	47,521300
995,000000	47,467400
994,000000	47,397500
993,000000	47,339100
992,000000	47,284400
991,000000	47,217400
990,000000	47,149300
989,000000	47,098100
988,000000	47,024500
987,000000	46,976200
986,000000	46,921600
985,000000	46,850900
984,000000	46,794700
983,000000	46,759600
982,000000	46,696600
981,000000	46,622600
980,000000	46,575700
979,000000	46,523800
978,000000	46,458400
977,000000	46,404900
976,000000	46,334000
975,000000	46,264100
974,000000	46,203300
973,000000	46,140400
972,000000	46,048800
971,000000	45,989500
970,000000	45,940200
969,000000	45,867200
968,000000	45,779300
967,000000	45,712600
966,000000	45,646500
965,000000	45,566800
964,000000	45,511600
963,000000	45,462900
962,000000	45,395700
961,000000	45,329100
960,000000	45,264900
959,000000	45,211600
958,000000	45,178500
957,000000	45,109100
956,000000	45,023200
955,000000	44,953700
954,000000	44,876900
953,000000	44,815000
952,000000	44,749400
951,000000	44,661800
950,000000	44,568800
949,000000	44,475200
948,000000	44,380500
947,000000	44,295000
946,000000	44,210400
945,000000	44,109600
944,000000	44,032200
943,000000	43,953800
942,000000	43,849600
941,000000	43,741600
940,000000	43,657700
939,000000	43,571000
938,000000	43,482500
937,000000	43,398100
936,000000	43,302100
935,000000	43,238400
934,000000	43,175200
933,000000	43,089900
932,000000	43,003600
931,000000	42,926700
930,000000	42,864000
929,000000	42,779700
928,000000	42,696500
927,000000	42,616000
926,000000	42,559400
925,000000	42,486900
924,000000	42,389100
923,000000	42,296500
922,000000	42,220200
921,000000	42,158900
920,000000	42,083100
919,000000	42,014600
918,000000	41,934000
917,000000	41,839800
916,000000	41,739800
915,000000	41,653700
914,000000	41,563400
913,000000	41,501100
912,000000	41,429900
911,000000	41,325300
910,000000	41,233500
909,000000	41,165900
908,000000	41,106200
907,000000	41,061700
906,000000	41,020300
905,000000	40,983100
904,000000	40,956300
903,000000	40,930600
902,000000	40,935700
901,000000	40,929500
900,000000	40,912900
899,000000	40,908300
898,000000	40,915500
897,000000	40,911500
896,000000	40,912500
895,000000	40,873300
894,000000	40,874100
893,000000	40,871300
892,000000	40,844200
891,000000	40,820100
890,000000	40,783000
889,000000	40,739600
888,000000	40,703800
887,000000	40,680000
886,000000	40,652600
885,000000	40,588500
884,000000	40,547400
883,000000	40,497400
882,000000	40,432700
881,000000	40,344500
880,000000	40,240100
879,000000	40,154100
878,000000	40,085900
877,000000	39,987500
876,000000	39,857500
875,000000	39,715400
874,000000	39,547800
873,000000	39,398900
872,000000	39,351000
871,000000	39,369200
870,000000	39,413200
869,000000	39,455400
868,000000	39,508300
867,000000	39,575600
866,000000	39,630100
865,000000	39,678500
864,000000	39,729600
863,000000	39,791900
862,000000	39,855800
861,000000	39,903100
860,000000	39,979200
859,000000	40,035200
858,000000	40,081000
857,000000	45,743900
856,000000	46,810200
855,000000	46,473700
854,000000	46,880200
853,000000	47,018600
852,000000	47,289000
851,000000	47,150600
850,000000	47,396300
849,000000	47,584000
848,000000	47,907700
847,000000	48,165000
846,000000	48,218500
845,000000	48,090200
844,000000	48,216900
843,000000	48,639500
842,000000	48,561500
841,000000	48,806100
840,000000	49,220000
839,000000	49,074800
838,000000	49,147100
837,000000	49,450800
836,000000	49,431000
835,000000	49,397400
834,000000	49,619900
833,000000	49,925400
832,000000	49,980300
831,000000	50,042900
830,000000	50,073100
829,000000	50,259300
828,000000	50,272500
827,000000	50,308900
826,000000	50,616200
825,000000	50,488400
824,000000	50,641400
823,000000	51,004300
822,000000	50,973400
821,000000	50,847600
820,000000	50,885500
819,000000	51,018100
818,000000	51,101300
817,000000	51,209300
816,000000	51,143900
815,000000	51,201700
814,000000	51,142400
813,000000	51,346300
812,000000	51,228700
811,000000	51,165500
810,000000	51,310900
809,000000	51,407300
808,000000	51,293700
807,000000	51,329900
806,000000	51,417500
805,000000	51,362800
804,000000	51,416100
803,000000	51,410700
802,000000	51,407500
801,000000	51,287000
800,000000	51,261100
799,000000	51,344000
798,000000	51,376600
797,000000	51,379600
796,000000	51,255300
795,000000	51,421600
794,000000	51,382800
793,000000	51,288800
792,000000	51,419400
791,000000	51,311800
790,000000	51,363100
789,000000	51,281800
788,000000	51,198200
787,000000	51,197900
786,000000	51,121000
785,000000	51,223100
784,000000	51,083100
783,000000	51,102200
782,000000	50,982900
781,000000	50,830700
780,000000	50,749400
779,000000	50,826400
778,000000	50,731100
777,000000	50,753400
776,000000	50,716500
775,000000	50,556400
774,000000	50,478500
773,000000	50,395300
772,000000	50,486000
771,000000	50,416800
770,000000	50,419200
769,000000	50,123500
768,000000	50,050800
767,000000	50,123600
766,000000	49,971400
765,000000	49,862100
764,000000	49,706500
763,000000	49,722200
762,000000	49,540100
761,000000	49,404600
760,000000	49,429400
759,000000	49,260700
758,000000	49,178500
757,000000	49,035700
756,000000	48,921400
755,000000	48,774800
754,000000	48,725800
753,000000	48,676600
752,000000	48,524100
751,000000	48,446400
750,000000	48,308200
749,000000	48,106400
748,000000	48,011100
747,000000	47,925100
746,000000	47,756300
745,000000	47,658000
744,000000	47,523800
743,000000	47,305300
742,000000	47,172500
741,000000	47,062600
740,000000	46,952100
739,000000	46,735100
738,000000	46,508500
737,000000	46,382600
736,000000	46,299600
735,000000	46,099000
734,000000	45,973600
733,000000	45,734200
732,000000	45,589500
731,000000	45,386600
730,000000	45,193500
729,000000	44,924500
728,000000	44,716900
727,000000	44,662800
726,000000	44,426600
725,000000	44,184600
724,000000	43,991600
723,000000	43,706900
722,000000	43,457700
721,000000	43,246000
720,000000	42,997400
719,000000	42,779700
718,000000	42,521300
717,000000	42,200500
716,000000	41,942000
715,000000	41,704800
714,000000	41,447900
713,000000	41,192000
712,000000	40,896700
711,000000	40,619800
710,000000	40,304200
709,000000	39,988900
708,000000	39,744400
707,000000	39,474700
706,000000	39,170400
705,000000	38,857300
704,000000	38,562800
703,000000	38,227600
702,000000	37,921400
701,000000	37,649800
700,000000	37,393900
699,000000	37,107800
698,000000	36,787600
697,000000	36,506200
696,000000	36,239700
695,000000	35,935900
694,000000	35,642400
693,000000	35,366600
692,000000	35,089700
691,000000	34,836700
690,000000	34,595900
689,000000	34,323500
688,000000	34,046300
687,000000	33,806200
686,000000	33,538400
685,000000	33,284600
684,000000	33,023700
683,000000	32,808400
682,000000	32,596200
681,000000	32,380300
680,000000	32,119300
679,000000	31,878700
678,000000	31,673400
677,000000	31,471000
676,000000	31,280800
675,000000	31,115800
674,000000	30,900300
673,000000	30,682600
672,000000	30,519700
671,000000	30,315100
670,000000	30,112000
669,000000	29,937400
668,000000	29,767200
667,000000	29,596800
666,000000	29,443400
665,000000	29,296400
664,000000	29,169100
663,000000	29,028900
662,000000	28,887800
661,000000	28,752900
660,000000	28,616600
659,000000	28,503900
658,000000	28,373000
657,000000	28,278700
656,000000	28,186000
655,000000	28,071200
654,000000	27,969900
653,000000	27,873200
652,000000	27,795400
651,000000	27,712700
650,000000	27,608400
649,000000	27,565400
648,000000	27,506400
647,000000	27,438000
646,000000	27,408000
645,000000	27,348300
644,000000	27,297800
643,000000	27,251300
642,000000	27,225200
641,000000	27,192500
640,000000	27,137900
639,000000	27,110600
638,000000	27,081800
637,000000	27,053700
636,000000	27,020000
635,000000	26,996000
634,000000	26,992500
633,000000	26,987300
632,000000	26,996000
631,000000	27,000700
630,000000	26,985500
629,000000	26,994100
628,000000	27,030500
627,000000	27,047400
626,000000	27,090600
625,000000	27,139200
624,000000	27,160900
623,000000	27,206100
622,000000	27,263900
621,000000	27,331700
620,000000	27,401500
619,000000	27,466200
618,000000	27,558400
617,000000	27,653000
616,000000	27,753000
615,000000	27,842700
614,000000	27,954600
613,000000	28,075800
612,000000	28,188700
611,000000	28,322800
610,000000	28,450900
609,000000	28,545000
608,000000	28,664800
607,000000	28,793800
606,000000	28,913800
605,000000	29,049800
604,000000	29,191900
603,000000	29,324500
602,000000	29,445700
601,000000	29,567100
600,000000	29,686400
599,000000	29,792600
598,000000	29,905400
597,000000	30,008400
596,000000	30,092600
595,000000	30,180600
594,000000	30,269500
593,000000	30,373700
592,000000	30,463400
591,000000	30,536100
590,000000	30,593100
589,000000	30,655700
588,000000	30,731000
587,000000	30,773300
586,000000	30,836400
585,000000	30,907500
584,000000	30,940200
583,000000	30,986900
582,000000	31,011100
581,000000	30,993900
580,000000	31,031000
579,000000	31,044300
578,000000	31,047600
577,000000	31,016600
576,000000	31,007300
575,000000	30,988100
574,000000	30,947600
573,000000	30,911900
572,000000	30,888900
571,000000	30,825700
570,000000	30,753900
569,000000	30,663700
568,000000	30,591700
567,000000	30,501500
566,000000	30,402500
565,000000	30,280400
564,000000	30,182700
563,000000	30,062900
562,000000	29,916600
561,000000	29,748000
560,000000	29,599600
559,000000	29,416000
558,000000	29,235900
557,000000	29,082300
556,000000	28,900500
555,000000	28,667200
554,000000	28,473300
553,000000	28,245200
552,000000	28,018100
551,000000	27,771700
550,000000	27,538600
549,000000	27,270500
548,000000	27,022300
547,000000	26,770200
546,000000	26,490800
545,000000	26,194200
544,000000	25,911800
543,000000	25,610900
542,000000	25,304100
541,000000	24,979200
540,000000	24,669700
539,000000	24,361600
538,000000	24,031900
537,000000	23,709800
536,000000	23,361700
535,000000	23,032900
534,000000	22,682500
533,000000	22,351300
532,000000	21,987900
531,000000	21,647000
530,000000	21,310600
529,000000	20,954800
528,000000	20,610700
527,000000	20,276900
526,000000	19,938700
525,000000	19,606700
524,000000	19,246500
523,000000	18,922700
522,000000	18,589500
521,000000	18,270300
520,000000	17,969600
519,000000	17,679700
518,000000	17,355400
517,000000	17,068500
516,000000	16,790800
515,000000	16,500200
514,000000	16,218600
513,000000	15,971300
512,000000	15,723100
511,000000	15,479600
510,000000	15,228800
509,000000	15,000200
508,000000	14,785600
507,000000	14,557800
506,000000	14,374400
505,000000	14,184000
504,000000	14,006900
503,000000	13,838300
502,000000	13,645900
501,000000	13,483400
500,000000	13,323600
499,000000	13,161900
498,000000	13,037900
497,000000	12,894400
496,000000	12,760900
495,000000	12,663300
494,000000	12,538200
493,000000	12,419200
492,000000	12,294500
491,000000	12,189700
490,000000	12,074000
489,000000	11,981200
488,000000	11,869500
487,000000	11,789500
486,000000	11,669700
485,000000	11,583700
484,000000	11,508700
483,000000	11,402400
482,000000	11,307700
481,000000	11,213500
480,000000	11,114600
479,000000	10,993100
478,000000	10,893700
477,000000	10,801200
476,000000	10,707600
475,000000	10,615900
474,000000	10,512700
473,000000	10,419800
472,000000	10,334700
471,000000	10,223600
470,000000	10,118400
469,000000	10,061600
468,000000	9,973300
467,000000	9,876200
466,000000	9,798300
465,000000	9,724800
464,000000	9,603300
463,000000	9,533200
462,000000	9,449300
461,000000	9,369400
460,000000	9,277200
459,000000	9,198500
458,000000	9,142800
457,000000	9,052800
456,000000	8,964800
455,000000	8,878100
454,000000	8,818400
453,000000	8,729500
452,000000	8,637000
451,000000	8,549100
450,000000	8,502200
449,000000	8,423300
448,000000	8,343800
447,000000	8,249800
446,000000	8,191200
445,000000	8,119300
444,000000	8,025600
443,000000	7,952400
442,000000	7,873300
441,000000	7,807300
440,000000	7,747100
439,000000	7,642200
438,000000	7,575800
437,000000	7,512800
436,000000	7,423700
435,000000	7,362000
434,000000	7,296900
433,000000	7,210800
432,000000	7,154900
431,000000	7,090400
430,000000	7,012900
429,000000	6,953800
428,000000	6,895200
427,000000	6,833200
426,000000	6,760800
425,000000	6,732900
424,000000	6,670100
423,000000	6,603000
422,000000	6,537400
421,000000	6,477300
420,000000	6,419400
419,000000	6,357100
418,000000	6,317900
417,000000	6,264000
416,000000	6,204300
415,000000	6,167100
414,000000	6,108800
413,000000	6,073000
412,000000	6,035400
411,000000	5,997200
410,000000	5,956000
409,000000	5,900300
408,000000	5,839800
407,000000	5,812600
406,000000	5,765400
405,000000	5,731000
404,000000	5,694500
403,000000	5,648700
402,000000	5,618200
401,000000	5,588200
400,000000	5,555600
399,000000	5,535300
398,000000	5,494300
397,000000	5,447000
396,000000	5,428500
395,000000	5,423100
394,000000	5,385600
393,000000	5,356300
392,000000	5,333500
391,000000	5,316600
390,000000	5,281500
389,000000	5,269400
388,000000	5,254800
387,000000	5,223300
386,000000	5,215000
385,000000	5,187800
384,000000	5,148200
383,000000	5,137800
382,000000	5,138700
381,000000	5,124800
380,000000	5,107900
379,000000	5,078600
378,000000	5,068200
377,000000	5,059800
376,000000	4,944300
375,000000	4,664300
374,000000	4,428400
373,000000	4,531600
372,000000	4,803300
371,000000	4,714300
370,000000	4,722600
369,000000	4,580800
368,000000	4,707000
367,000000	4,919000
366,000000	4,796300
365,000000	4,711000
364,000000	4,885700
363,000000	4,864700
362,000000	4,751800
361,000000	4,642400
360,000000	4,694300
359,000000	4,762700
358,000000	4,815200
357,000000	4,785400
356,000000	4,756000
355,000000	4,801400
354,000000	4,853300
353,000000	5,035000
352,000000	5,138600
351,000000	5,103500
350,000000	5,117400
349,000000	4,976800
348,000000	4,844700
347,000000	4,854100
346,000000	4,813600
345,000000	4,790100
344,000000	5,103100
343,000000	5,147900
342,000000	5,042100
341,000000	5,071000
340,000000	5,041700
339,000000	5,099000
338,000000	5,199000
337,000000	5,276400
336,000000	5,020100
335,000000	4,698100
334,000000	4,904100
333,000000	5,132400
332,000000	5,095000
331,000000	5,403800
330,000000	5,368400
329,000000	5,119300
328,000000	5,148300
327,000000	5,177500
326,000000	4,958000
325,000000	5,087200
324,000000	5,503700
323,000000	5,471000
322,000000	5,848800
321,000000	5,924700
320,000000	6,541900
319,000000	6,911600
318,000000	6,640000
317,000000	6,871800
316,000000	5,862100
315,000000	4,902000
314,000000	4,918400
313,000000	4,945800
312,000000	4,913300
311,000000	4,928300
310,000000	4,907200
309,000000	4,883100
308,000000	4,895700
307,000000	4,902900
306,000000	4,920500
305,000000	4,943900
304,000000	4,972500
303,000000	4,951400
302,000000	4,937400
301,000000	4,919500
300,000000	4,956400
299,000000	4,958700
298,000000	4,952800
297,000000	4,916800
296,000000	4,917500
295,000000	4,927700
294,000000	4,941000
293,000000	5,016300
292,000000	4,987200
291,000000	4,917400
290,000000	4,938800
289,000000	4,932600
288,000000	4,956800
287,000000	4,949900
286,000000	4,959200
285,000000	4,951600
284,000000	5,000700
283,000000	5,031400
282,000000	5,006600
281,000000	5,000300
280,000000	4,989000
279,000000	4,978900
278,000000	4,970400
277,000000	5,001300
276,000000	5,030100
275,000000	5,041200
274,000000	5,050600
273,000000	5,070900
272,000000	5,038200
271,000000	5,062600
270,000000	5,097200
269,000000	5,113100
268,000000	5,149500
267,000000	5,145000
266,000000	5,143400
265,000000	5,153000
264,000000	5,193800
263,000000	5,225000
262,000000	5,249200
261,000000	5,223200
260,000000	5,236300
259,000000	5,223600
258,000000	5,258300
257,000000	5,270800
256,000000	5,281600
255,000000	5,306800
254,000000	5,368100
253,000000	5,392900
252,000000	5,351500
251,000000	5,345300
250,000000	5,373400
