PE UV       SUBTECH     SPECTRUM    ASCII       PEDS        4.00        
   -1
CICIMAUCR0209-3.Sample.ASC
24/06/12
13:21:01.00
24/06/12
13:21:01.00
Vinicio Soto Monge
C. cupreomarginata. Sex F. Ventral
250,000000
1
Lambda 1050
1050L1511233
PerkinElmer UV WinLab 6.3.2.0749 / 2.02.05 Lambda 900 UV/VIS/NIR, Aug  7 2015 09:38:08

0
0
3350/servo 860,8/2
0
0
UV/VIS
1
1
1
DoubleDePol,CommonBeamDepol,RBeamAtt,SBeamAtt,60mm sphere, WB InGaAs Detector
0
0
0
0
Program
Program
3350/servo 860,8/2
3350/0,2 860,8/0,2
3350/0,2 860,8/0,2
0
15.00
 
 
 
0
 
860,8
319,2
860,8
Front
100
on
S:100 R:100
0
0
0
0
 
0
 
 
 
0
 
 
0
0
0
0
0
 
 
 
 
0
0


0
0
#HDR
-1
-1
#GR
nm
%R
1.0
0.0
2500,000000
-1,000000
2251
8
60,858100
3,838200
#DATA
2500,000000	6,981300
2499,000000	6,876400
2498,000000	7,098600
2497,000000	6,968500
2496,000000	7,039400
2495,000000	6,801000
2494,000000	6,743100
2493,000000	6,724900
2492,000000	7,077200
2491,000000	6,864400
2490,000000	6,796200
2489,000000	6,735800
2488,000000	6,737000
2487,000000	6,797700
2486,000000	6,879000
2485,000000	6,662900
2484,000000	6,797800
2483,000000	6,646300
2482,000000	6,703400
2481,000000	6,764200
2480,000000	6,613200
2479,000000	6,736600
2478,000000	6,758800
2477,000000	6,678200
2476,000000	6,668600
2475,000000	6,578300
2474,000000	6,742800
2473,000000	6,666700
2472,000000	6,780400
2471,000000	6,702700
2470,000000	6,681800
2469,000000	6,716700
2468,000000	6,759300
2467,000000	6,773700
2466,000000	6,725900
2465,000000	6,780600
2464,000000	6,764900
2463,000000	6,788500
2462,000000	6,860000
2461,000000	6,877300
2460,000000	6,850300
2459,000000	6,962200
2458,000000	6,936800
2457,000000	6,925200
2456,000000	6,993500
2455,000000	7,015000
2454,000000	6,991900
2453,000000	7,004700
2452,000000	7,089600
2451,000000	7,062200
2450,000000	7,138100
2449,000000	7,209900
2448,000000	7,235500
2447,000000	7,272300
2446,000000	7,331400
2445,000000	7,382800
2444,000000	7,426800
2443,000000	7,458100
2442,000000	7,494000
2441,000000	7,544200
2440,000000	7,563300
2439,000000	7,592900
2438,000000	7,656300
2437,000000	7,692200
2436,000000	7,722300
2435,000000	7,776700
2434,000000	7,832500
2433,000000	7,871100
2432,000000	7,914500
2431,000000	7,980700
2430,000000	7,987000
2429,000000	8,042400
2428,000000	8,078300
2427,000000	8,110200
2426,000000	8,145200
2425,000000	8,147500
2424,000000	8,189200
2423,000000	8,240500
2422,000000	8,284400
2421,000000	8,291500
2420,000000	8,326400
2419,000000	8,382200
2418,000000	8,417700
2417,000000	8,451400
2416,000000	8,477600
2415,000000	8,514100
2414,000000	8,571600
2413,000000	8,594400
2412,000000	8,590000
2411,000000	8,617500
2410,000000	8,655700
2409,000000	8,683100
2408,000000	8,711800
2407,000000	8,731000
2406,000000	8,745300
2405,000000	8,761000
2404,000000	8,779200
2403,000000	8,818900
2402,000000	8,821400
2401,000000	8,842600
2400,000000	8,894200
2399,000000	8,897900
2398,000000	8,898300
2397,000000	8,918100
2396,000000	8,943000
2395,000000	8,942500
2394,000000	8,963000
2393,000000	8,966900
2392,000000	8,967300
2391,000000	8,984900
2390,000000	9,021600
2389,000000	9,044100
2388,000000	9,072100
2387,000000	9,082200
2386,000000	9,080700
2385,000000	9,097700
2384,000000	9,121500
2383,000000	9,119000
2382,000000	9,122700
2381,000000	9,130000
2380,000000	9,133900
2379,000000	9,127400
2378,000000	9,141100
2377,000000	9,182400
2376,000000	9,163800
2375,000000	9,143600
2374,000000	9,137800
2373,000000	9,143200
2372,000000	9,148100
2371,000000	9,161200
2370,000000	9,182400
2369,000000	9,183400
2368,000000	9,181600
2367,000000	9,171400
2366,000000	9,173300
2365,000000	9,166800
2364,000000	9,168400
2363,000000	9,186900
2362,000000	9,182800
2361,000000	9,180800
2360,000000	9,184600
2359,000000	9,186900
2358,000000	9,175500
2357,000000	9,165700
2356,000000	9,169400
2355,000000	9,182400
2354,000000	9,180600
2353,000000	9,173900
2352,000000	9,155700
2351,000000	9,150900
2350,000000	9,176100
2349,000000	9,165600
2348,000000	9,164800
2347,000000	9,177600
2346,000000	9,177000
2345,000000	9,190000
2344,000000	9,209400
2343,000000	9,209800
2342,000000	9,221100
2341,000000	9,229900
2340,000000	9,242600
2339,000000	9,257600
2338,000000	9,272200
2337,000000	9,269700
2336,000000	9,273200
2335,000000	9,281700
2334,000000	9,296400
2333,000000	9,305900
2332,000000	9,319800
2331,000000	9,332000
2330,000000	9,323800
2329,000000	9,332800
2328,000000	9,357800
2327,000000	9,363700
2326,000000	9,360500
2325,000000	9,376700
2324,000000	9,371400
2323,000000	9,356000
2322,000000	9,366600
2321,000000	9,383400
2320,000000	9,372600
2319,000000	9,346900
2318,000000	9,334100
2317,000000	9,329900
2316,000000	9,315900
2315,000000	9,287100
2314,000000	9,257900
2313,000000	9,237200
2312,000000	9,224700
2311,000000	9,201600
2310,000000	9,190300
2309,000000	9,161000
2308,000000	9,140400
2307,000000	9,111200
2306,000000	9,108000
2305,000000	9,110900
2304,000000	9,102300
2303,000000	9,084500
2302,000000	9,087200
2301,000000	9,099000
2300,000000	9,098300
2299,000000	9,124600
2298,000000	9,136500
2297,000000	9,160400
2296,000000	9,160500
2295,000000	9,193600
2294,000000	9,222000
2293,000000	9,241000
2292,000000	9,255500
2291,000000	9,283000
2290,000000	9,305200
2289,000000	9,343200
2288,000000	9,364400
2287,000000	9,388700
2286,000000	9,410800
2285,000000	9,423600
2284,000000	9,450200
2283,000000	9,454100
2282,000000	9,469000
2281,000000	9,489100
2280,000000	9,488800
2279,000000	9,505000
2278,000000	9,508600
2277,000000	9,516100
2276,000000	9,510900
2275,000000	9,523800
2274,000000	9,541200
2273,000000	9,540500
2272,000000	9,544600
2271,000000	9,519600
2270,000000	9,543500
2269,000000	9,563100
2268,000000	9,589900
2267,000000	9,633200
2266,000000	9,662300
2265,000000	9,690000
2264,000000	9,739500
2263,000000	9,782200
2262,000000	9,840800
2261,000000	9,915600
2260,000000	9,990800
2259,000000	10,081000
2258,000000	10,155000
2257,000000	10,254200
2256,000000	10,339300
2255,000000	10,444700
2254,000000	10,552800
2253,000000	10,647600
2252,000000	10,747400
2251,000000	10,849100
2250,000000	10,946300
2249,000000	11,042800
2248,000000	11,127100
2247,000000	11,222800
2246,000000	11,302800
2245,000000	11,387100
2244,000000	11,448500
2243,000000	11,514100
2242,000000	11,589300
2241,000000	11,635300
2240,000000	11,693600
2239,000000	11,744900
2238,000000	11,782800
2237,000000	11,806000
2236,000000	11,840100
2235,000000	11,859400
2234,000000	11,875600
2233,000000	11,890900
2232,000000	11,922200
2231,000000	11,913600
2230,000000	11,909400
2229,000000	11,915700
2228,000000	11,912300
2227,000000	11,892800
2226,000000	11,894600
2225,000000	11,843600
2224,000000	11,818000
2223,000000	11,809500
2222,000000	11,761200
2221,000000	11,770800
2220,000000	11,705000
2219,000000	11,680400
2218,000000	11,636600
2217,000000	11,602700
2216,000000	11,563500
2215,000000	11,518900
2214,000000	11,493300
2213,000000	11,454400
2212,000000	11,432100
2211,000000	11,418900
2210,000000	11,373600
2209,000000	11,336200
2208,000000	11,296100
2207,000000	11,281400
2206,000000	11,275200
2205,000000	11,254300
2204,000000	11,215900
2203,000000	11,207100
2202,000000	11,171300
2201,000000	11,176300
2200,000000	11,151300
2199,000000	11,145600
2198,000000	11,117800
2197,000000	11,124500
2196,000000	11,122200
2195,000000	11,073600
2194,000000	11,086400
2193,000000	11,070800
2192,000000	11,061600
2191,000000	11,044000
2190,000000	11,025200
2189,000000	11,008300
2188,000000	10,996900
2187,000000	11,011200
2186,000000	10,980700
2185,000000	11,001300
2184,000000	10,980400
2183,000000	10,971500
2182,000000	10,943200
2181,000000	10,932200
2180,000000	10,918800
2179,000000	10,908200
2178,000000	10,911400
2177,000000	10,898700
2176,000000	10,908500
2175,000000	10,881000
2174,000000	10,883800
2173,000000	10,893600
2172,000000	10,885200
2171,000000	10,894600
2170,000000	10,901200
2169,000000	10,886500
2168,000000	10,891800
2167,000000	10,909700
2166,000000	10,918200
2165,000000	10,937500
2164,000000	10,936700
2163,000000	10,960400
2162,000000	10,973000
2161,000000	10,992400
2160,000000	11,035800
2159,000000	11,045100
2158,000000	11,063000
2157,000000	11,117800
2156,000000	11,127300
2155,000000	11,186000
2154,000000	11,231700
2153,000000	11,253400
2152,000000	11,283200
2151,000000	11,325000
2150,000000	11,388100
2149,000000	11,415400
2148,000000	11,449000
2147,000000	11,493800
2146,000000	11,527300
2145,000000	11,563400
2144,000000	11,614000
2143,000000	11,661700
2142,000000	11,696500
2141,000000	11,724600
2140,000000	11,754600
2139,000000	11,797700
2138,000000	11,832300
2137,000000	11,886500
2136,000000	11,919700
2135,000000	11,926900
2134,000000	11,950900
2133,000000	11,975100
2132,000000	12,011500
2131,000000	12,036900
2130,000000	12,048100
2129,000000	12,077000
2128,000000	12,090800
2127,000000	12,092000
2126,000000	12,115600
2125,000000	12,127200
2124,000000	12,140700
2123,000000	12,147800
2122,000000	12,145900
2121,000000	12,157500
2120,000000	12,171300
2119,000000	12,162400
2118,000000	12,145500
2117,000000	12,147800
2116,000000	12,132000
2115,000000	12,127800
2114,000000	12,132000
2113,000000	12,122200
2112,000000	12,114100
2111,000000	12,096300
2110,000000	12,078600
2109,000000	12,066200
2108,000000	12,046500
2107,000000	12,030700
2106,000000	12,016800
2105,000000	11,995000
2104,000000	11,965400
2103,000000	11,951800
2102,000000	11,935800
2101,000000	11,912700
2100,000000	11,889100
2099,000000	11,878300
2098,000000	11,867500
2097,000000	11,845600
2096,000000	11,827100
2095,000000	11,808100
2094,000000	11,799800
2093,000000	11,801300
2092,000000	11,786900
2091,000000	11,753900
2090,000000	11,744100
2089,000000	11,738800
2088,000000	11,719800
2087,000000	11,707500
2086,000000	11,682700
2085,000000	11,653400
2084,000000	11,630500
2083,000000	11,611200
2082,000000	11,579500
2081,000000	11,544700
2080,000000	11,508300
2079,000000	11,479300
2078,000000	11,449000
2077,000000	11,410800
2076,000000	11,371900
2075,000000	11,314700
2074,000000	11,263100
2073,000000	11,223800
2072,000000	11,172600
2071,000000	11,114400
2070,000000	11,046200
2069,000000	10,987200
2068,000000	10,931100
2067,000000	10,880600
2066,000000	10,830800
2065,000000	10,768300
2064,000000	10,710000
2063,000000	10,656600
2062,000000	10,602700
2061,000000	10,551100
2060,000000	10,485600
2059,000000	10,435500
2058,000000	10,398700
2057,000000	10,363000
2056,000000	10,333400
2055,000000	10,311900
2054,000000	10,291900
2053,000000	10,289600
2052,000000	10,280700
2051,000000	10,275300
2050,000000	10,290500
2049,000000	10,301100
2048,000000	10,320600
2047,000000	10,347000
2046,000000	10,381600
2045,000000	10,416900
2044,000000	10,430800
2043,000000	10,479400
2042,000000	10,535700
2041,000000	10,562600
2040,000000	10,596700
2039,000000	10,625000
2038,000000	10,658100
2037,000000	10,675100
2036,000000	10,701600
2035,000000	10,724800
2034,000000	10,751400
2033,000000	10,776900
2032,000000	10,801500
2031,000000	10,805200
2030,000000	10,812700
2029,000000	10,817900
2028,000000	10,820300
2027,000000	10,832300
2026,000000	10,845400
2025,000000	10,850200
2024,000000	10,855300
2023,000000	10,853000
2022,000000	10,834700
2021,000000	10,820000
2020,000000	10,812100
2019,000000	10,806700
2018,000000	10,789500
2017,000000	10,791900
2016,000000	10,791700
2015,000000	10,761600
2014,000000	10,745000
2013,000000	10,717200
2012,000000	10,705600
2011,000000	10,685300
2010,000000	10,652200
2009,000000	10,617500
2008,000000	10,583000
2007,000000	10,561400
2006,000000	10,524200
2005,000000	10,498900
2004,000000	10,461200
2003,000000	10,417400
2002,000000	10,370800
2001,000000	10,352200
2000,000000	10,297200
1999,000000	10,258300
1998,000000	10,216200
1997,000000	10,174900
1996,000000	10,123900
1995,000000	10,076900
1994,000000	10,020500
1993,000000	9,987400
1992,000000	9,947800
1991,000000	9,890700
1990,000000	9,836000
1989,000000	9,779800
1988,000000	9,727200
1987,000000	9,670600
1986,000000	9,624400
1985,000000	9,581000
1984,000000	9,532000
1983,000000	9,457400
1982,000000	9,391600
1981,000000	9,362300
1980,000000	9,316100
1979,000000	9,253900
1978,000000	9,219100
1977,000000	9,169300
1976,000000	9,099600
1975,000000	9,058200
1974,000000	9,012000
1973,000000	8,959700
1972,000000	8,925000
1971,000000	8,876900
1970,000000	8,811400
1969,000000	8,788200
1968,000000	8,720600
1967,000000	8,689100
1966,000000	8,633700
1965,000000	8,610600
1964,000000	8,557600
1963,000000	8,530300
1962,000000	8,464800
1961,000000	8,435300
1960,000000	8,401000
1959,000000	8,347200
1958,000000	8,301200
1957,000000	8,268700
1956,000000	8,243400
1955,000000	8,190700
1954,000000	8,162200
1953,000000	8,113300
1952,000000	8,087300
1951,000000	8,034700
1950,000000	8,030800
1949,000000	8,000400
1948,000000	7,939200
1947,000000	7,910900
1946,000000	7,905600
1945,000000	7,862000
1944,000000	7,849400
1943,000000	7,845700
1942,000000	7,813600
1941,000000	7,788300
1940,000000	7,777100
1939,000000	7,767500
1938,000000	7,763200
1937,000000	7,756600
1936,000000	7,765700
1935,000000	7,758100
1934,000000	7,757600
1933,000000	7,784600
1932,000000	7,777600
1931,000000	7,790400
1930,000000	7,801800
1929,000000	7,840500
1928,000000	7,857600
1927,000000	7,892600
1926,000000	7,907400
1925,000000	7,980400
1924,000000	8,002400
1923,000000	8,044400
1922,000000	8,097400
1921,000000	8,159000
1920,000000	8,228300
1919,000000	8,297800
1918,000000	8,358200
1917,000000	8,424600
1916,000000	8,490600
1915,000000	8,580500
1914,000000	8,646600
1913,000000	8,748700
1912,000000	8,884300
1911,000000	9,003900
1910,000000	9,099200
1909,000000	9,203000
1908,000000	9,319600
1907,000000	9,461300
1906,000000	9,602300
1905,000000	9,786200
1904,000000	9,981100
1903,000000	10,166200
1902,000000	10,325400
1901,000000	10,541500
1900,000000	10,753200
1899,000000	11,031200
1898,000000	11,309600
1897,000000	11,586500
1896,000000	11,848100
1895,000000	12,090800
1894,000000	12,349200
1893,000000	12,641200
1892,000000	12,981400
1891,000000	13,395700
1890,000000	13,804000
1889,000000	14,170100
1888,000000	14,553800
1887,000000	14,950900
1886,000000	15,314000
1885,000000	15,730800
1884,000000	16,139200
1883,000000	16,590600
1882,000000	17,012600
1881,000000	17,407500
1880,000000	17,798300
1879,000000	18,150600
1878,000000	18,514500
1877,000000	18,894100
1876,000000	19,257300
1875,000000	19,645100
1874,000000	20,028800
1873,000000	20,398400
1872,000000	20,778300
1871,000000	21,153500
1870,000000	21,539600
1869,000000	21,888800
1868,000000	22,234700
1867,000000	22,498300
1866,000000	22,741400
1865,000000	22,938000
1864,000000	23,120300
1863,000000	23,290700
1862,000000	23,441000
1861,000000	23,643800
1860,000000	23,858400
1859,000000	24,073100
1858,000000	24,275100
1857,000000	24,430200
1856,000000	24,554700
1855,000000	24,663300
1854,000000	24,794100
1853,000000	24,927700
1852,000000	25,017800
1851,000000	25,080100
1850,000000	25,126200
1849,000000	25,168900
1848,000000	25,275400
1847,000000	25,411500
1846,000000	25,490700
1845,000000	25,493500
1844,000000	25,467200
1843,000000	25,431500
1842,000000	25,463400
1841,000000	25,543300
1840,000000	25,574600
1839,000000	25,586300
1838,000000	25,577500
1837,000000	25,572700
1836,000000	25,590600
1835,000000	25,613600
1834,000000	25,595000
1833,000000	25,546300
1832,000000	25,494700
1831,000000	25,465000
1830,000000	25,455000
1829,000000	25,457100
1828,000000	25,435500
1827,000000	25,407700
1826,000000	25,414100
1825,000000	25,414800
1824,000000	25,374800
1823,000000	25,326000
1822,000000	25,296400
1821,000000	25,323200
1820,000000	25,351600
1819,000000	25,367200
1818,000000	25,338200
1817,000000	25,287600
1816,000000	25,255700
1815,000000	25,245900
1814,000000	25,235500
1813,000000	25,211200
1812,000000	25,197000
1811,000000	25,176300
1810,000000	25,147500
1809,000000	25,113000
1808,000000	25,082300
1807,000000	25,057200
1806,000000	25,040300
1805,000000	25,006300
1804,000000	24,972300
1803,000000	24,939900
1802,000000	24,913100
1801,000000	24,896800
1800,000000	24,872700
1799,000000	24,839700
1798,000000	24,805000
1797,000000	24,770200
1796,000000	24,733700
1795,000000	24,709500
1794,000000	24,692000
1793,000000	24,674800
1792,000000	24,649700
1791,000000	24,631600
1790,000000	24,610400
1789,000000	24,585100
1788,000000	24,579000
1787,000000	24,574100
1786,000000	24,558400
1785,000000	24,542700
1784,000000	24,533600
1783,000000	24,527100
1782,000000	24,526400
1781,000000	24,505300
1780,000000	24,484900
1779,000000	24,482100
1778,000000	24,468700
1777,000000	24,434500
1776,000000	24,408800
1775,000000	24,383700
1774,000000	24,359900
1773,000000	24,333900
1772,000000	24,308100
1771,000000	24,283800
1770,000000	24,255700
1769,000000	24,237200
1768,000000	24,215000
1767,000000	24,178600
1766,000000	24,163400
1765,000000	24,142400
1764,000000	24,114800
1763,000000	24,092400
1762,000000	24,099100
1761,000000	24,116300
1760,000000	24,129100
1759,000000	24,163800
1758,000000	24,189500
1757,000000	24,217000
1756,000000	24,252800
1755,000000	24,275800
1754,000000	24,311900
1753,000000	24,340100
1752,000000	24,366600
1751,000000	24,383300
1750,000000	24,397400
1749,000000	24,414700
1748,000000	24,412000
1747,000000	24,415400
1746,000000	24,403300
1745,000000	24,371100
1744,000000	24,336800
1743,000000	24,300200
1742,000000	24,256000
1741,000000	24,203300
1740,000000	24,147000
1739,000000	24,103100
1738,000000	24,052900
1737,000000	24,000800
1736,000000	23,949700
1735,000000	23,899300
1734,000000	23,860300
1733,000000	23,819600
1732,000000	23,758700
1731,000000	23,746300
1730,000000	23,735300
1729,000000	23,707400
1728,000000	23,699800
1727,000000	23,697100
1726,000000	23,709000
1725,000000	23,717100
1724,000000	23,730600
1723,000000	23,777700
1722,000000	23,830700
1721,000000	23,894700
1720,000000	23,976600
1719,000000	24,089100
1718,000000	24,217300
1717,000000	24,340300
1716,000000	24,468200
1715,000000	24,610300
1714,000000	24,751900
1713,000000	24,892500
1712,000000	25,011400
1711,000000	25,111800
1710,000000	25,203000
1709,000000	25,296600
1708,000000	25,394200
1707,000000	25,456800
1706,000000	25,510300
1705,000000	25,553000
1704,000000	25,592400
1703,000000	25,587000
1702,000000	25,587200
1701,000000	25,602800
1700,000000	25,597100
1699,000000	25,587300
1698,000000	25,582100
1697,000000	25,557600
1696,000000	25,544000
1695,000000	25,512500
1694,000000	25,489900
1693,000000	25,465000
1692,000000	25,429100
1691,000000	25,407500
1690,000000	25,416400
1689,000000	25,436500
1688,000000	25,445800
1687,000000	25,488200
1686,000000	25,561100
1685,000000	25,664100
1684,000000	25,793600
1683,000000	25,903900
1682,000000	26,088800
1681,000000	26,247000
1680,000000	26,425500
1679,000000	26,589600
1678,000000	26,796200
1677,000000	26,987500
1676,000000	27,156600
1675,000000	27,330700
1674,000000	27,478200
1673,000000	27,658600
1672,000000	27,814000
1671,000000	27,966100
1670,000000	28,089100
1669,000000	28,225200
1668,000000	28,366000
1667,000000	28,496900
1666,000000	28,595900
1665,000000	28,714500
1664,000000	28,814200
1663,000000	28,887600
1662,000000	28,963300
1661,000000	29,057600
1660,000000	29,113800
1659,000000	29,174400
1658,000000	29,257600
1657,000000	29,281900
1656,000000	29,333600
1655,000000	29,364200
1654,000000	29,355100
1653,000000	29,380300
1652,000000	29,388100
1651,000000	29,377600
1650,000000	29,385700
1649,000000	29,340000
1648,000000	29,327900
1647,000000	29,314200
1646,000000	29,267700
1645,000000	29,249000
1644,000000	29,222300
1643,000000	29,187100
1642,000000	29,165200
1641,000000	29,114000
1640,000000	29,074100
1639,000000	29,069100
1638,000000	29,022200
1637,000000	28,976800
1636,000000	28,952200
1635,000000	28,910500
1634,000000	28,861900
1633,000000	28,804200
1632,000000	28,739800
1631,000000	28,719000
1630,000000	28,652100
1629,000000	28,583700
1628,000000	28,551100
1627,000000	28,480000
1626,000000	28,443700
1625,000000	28,361100
1624,000000	28,293700
1623,000000	28,229400
1622,000000	28,185200
1621,000000	28,109200
1620,000000	28,064800
1619,000000	28,000100
1618,000000	27,936300
1617,000000	27,900900
1616,000000	27,839100
1615,000000	27,776500
1614,000000	27,708300
1613,000000	27,642200
1612,000000	27,589400
1611,000000	27,523500
1610,000000	27,454500
1609,000000	27,391600
1608,000000	27,326200
1607,000000	27,236300
1606,000000	27,158500
1605,000000	27,088400
1604,000000	26,996500
1603,000000	26,910500
1602,000000	26,848900
1601,000000	26,781400
1600,000000	26,694600
1599,000000	26,616900
1598,000000	26,537000
1597,000000	26,462200
1596,000000	26,364100
1595,000000	26,296200
1594,000000	26,211200
1593,000000	26,143400
1592,000000	26,050600
1591,000000	25,989700
1590,000000	25,929300
1589,000000	25,843300
1588,000000	25,777200
1587,000000	25,728500
1586,000000	25,654400
1585,000000	25,585000
1584,000000	25,527500
1583,000000	25,448900
1582,000000	25,385000
1581,000000	25,318800
1580,000000	25,262000
1579,000000	25,195800
1578,000000	25,124300
1577,000000	25,073000
1576,000000	25,031400
1575,000000	24,986800
1574,000000	24,936700
1573,000000	24,871300
1572,000000	24,823400
1571,000000	24,787100
1570,000000	24,754100
1569,000000	24,717900
1568,000000	24,670200
1567,000000	24,638700
1566,000000	24,598300
1565,000000	24,547800
1564,000000	24,521500
1563,000000	24,490400
1562,000000	24,437900
1561,000000	24,392300
1560,000000	24,332500
1559,000000	24,282700
1558,000000	24,227800
1557,000000	24,165000
1556,000000	24,099600
1555,000000	24,026400
1554,000000	23,955300
1553,000000	23,877700
1552,000000	23,788000
1551,000000	23,712400
1550,000000	23,631200
1549,000000	23,525300
1548,000000	23,446700
1547,000000	23,371100
1546,000000	23,295400
1545,000000	23,212300
1544,000000	23,132700
1543,000000	23,058300
1542,000000	23,002200
1541,000000	22,939300
1540,000000	22,860200
1539,000000	22,790100
1538,000000	22,723700
1537,000000	22,655600
1536,000000	22,600200
1535,000000	22,529500
1534,000000	22,459700
1533,000000	22,399700
1532,000000	22,326500
1531,000000	22,250900
1530,000000	22,174300
1529,000000	22,091900
1528,000000	22,029300
1527,000000	21,953900
1526,000000	21,864600
1525,000000	21,793000
1524,000000	21,725300
1523,000000	21,650400
1522,000000	21,574100
1521,000000	21,501800
1520,000000	21,423600
1519,000000	21,332400
1518,000000	21,268400
1517,000000	21,193600
1516,000000	21,100900
1515,000000	21,017600
1514,000000	20,933900
1513,000000	20,851200
1512,000000	20,770100
1511,000000	20,684000
1510,000000	20,609200
1509,000000	20,536400
1508,000000	20,454200
1507,000000	20,369000
1506,000000	20,283000
1505,000000	20,212100
1504,000000	20,148200
1503,000000	20,078100
1502,000000	19,993700
1501,000000	19,908100
1500,000000	19,841900
1499,000000	19,763200
1498,000000	19,698400
1497,000000	19,632800
1496,000000	19,562800
1495,000000	19,505400
1494,000000	19,447400
1493,000000	19,384800
1492,000000	19,328400
1491,000000	19,281900
1490,000000	19,239400
1489,000000	19,189900
1488,000000	19,146000
1487,000000	19,096000
1486,000000	19,060300
1485,000000	19,011900
1484,000000	18,960100
1483,000000	18,915900
1482,000000	18,881800
1481,000000	18,854100
1480,000000	18,818400
1479,000000	18,789000
1478,000000	18,754500
1477,000000	18,734900
1476,000000	18,707600
1475,000000	18,692500
1474,000000	18,665100
1473,000000	18,639900
1472,000000	18,636600
1471,000000	18,629700
1470,000000	18,638700
1469,000000	18,624000
1468,000000	18,603200
1467,000000	18,608500
1466,000000	18,633400
1465,000000	18,630900
1464,000000	18,621700
1463,000000	18,648200
1462,000000	18,671500
1461,000000	18,669500
1460,000000	18,672600
1459,000000	18,706400
1458,000000	18,739700
1457,000000	18,766100
1456,000000	18,818600
1455,000000	18,847500
1454,000000	18,883400
1453,000000	18,925000
1452,000000	18,958200
1451,000000	19,020700
1450,000000	19,075000
1449,000000	19,125100
1448,000000	19,158400
1447,000000	19,198400
1446,000000	19,273500
1445,000000	19,343700
1444,000000	19,395200
1443,000000	19,412400
1442,000000	19,480100
1441,000000	19,557500
1440,000000	19,639400
1439,000000	19,720000
1438,000000	19,779800
1437,000000	19,861200
1436,000000	19,932400
1435,000000	20,021200
1434,000000	20,130100
1433,000000	20,231800
1432,000000	20,327100
1431,000000	20,424100
1430,000000	20,538100
1429,000000	20,643700
1428,000000	20,781400
1427,000000	20,913000
1426,000000	21,046700
1425,000000	21,170000
1424,000000	21,328600
1423,000000	21,499700
1422,000000	21,667400
1421,000000	21,842200
1420,000000	22,034300
1419,000000	22,241600
1418,000000	22,453500
1417,000000	22,680500
1416,000000	22,869700
1415,000000	23,092400
1414,000000	23,374900
1413,000000	23,663100
1412,000000	23,936200
1411,000000	24,180000
1410,000000	24,463700
1409,000000	24,825700
1408,000000	25,183600
1407,000000	25,569900
1406,000000	25,929500
1405,000000	26,285200
1404,000000	26,747100
1403,000000	27,149200
1402,000000	27,506100
1401,000000	27,903600
1400,000000	28,467000
1399,000000	29,031800
1398,000000	29,428800
1397,000000	29,805600
1396,000000	30,293000
1395,000000	30,954700
1394,000000	31,555900
1393,000000	32,040900
1392,000000	32,552400
1391,000000	33,157000
1390,000000	33,744200
1389,000000	34,227100
1388,000000	34,836800
1387,000000	35,516000
1386,000000	36,086100
1385,000000	36,614100
1384,000000	37,132500
1383,000000	37,707600
1382,000000	38,275500
1381,000000	38,848700
1380,000000	39,316700
1379,000000	39,668100
1378,000000	40,014200
1377,000000	40,276500
1376,000000	40,616400
1375,000000	40,918200
1374,000000	41,180000
1373,000000	41,445500
1372,000000	41,716500
1371,000000	42,012100
1370,000000	42,296600
1369,000000	42,512800
1368,000000	42,734700
1367,000000	43,006000
1366,000000	43,203000
1365,000000	43,357500
1364,000000	43,574200
1363,000000	43,708000
1362,000000	43,868800
1361,000000	44,078200
1360,000000	44,266200
1359,000000	44,303800
1358,000000	44,459000
1357,000000	44,570900
1356,000000	44,694000
1355,000000	44,862000
1354,000000	45,087200
1353,000000	45,249300
1352,000000	45,392400
1351,000000	45,632900
1350,000000	45,878300
1349,000000	46,092600
1348,000000	46,335300
1347,000000	46,597600
1346,000000	46,846100
1345,000000	47,073400
1344,000000	47,309600
1343,000000	47,573200
1342,000000	47,804700
1341,000000	48,054000
1340,000000	48,298300
1339,000000	48,540800
1338,000000	48,776100
1337,000000	49,006400
1336,000000	49,261100
1335,000000	49,478300
1334,000000	49,725000
1333,000000	49,936400
1332,000000	50,171000
1331,000000	50,412000
1330,000000	50,612100
1329,000000	50,827100
1328,000000	51,047700
1327,000000	51,239800
1326,000000	51,442400
1325,000000	51,627500
1324,000000	51,810400
1323,000000	52,013600
1322,000000	52,174100
1321,000000	52,354000
1320,000000	52,533100
1319,000000	52,710800
1318,000000	52,841600
1317,000000	53,007300
1316,000000	53,180700
1315,000000	53,306000
1314,000000	53,459100
1313,000000	53,610600
1312,000000	53,738400
1311,000000	53,862200
1310,000000	53,980000
1309,000000	54,107900
1308,000000	54,209200
1307,000000	54,321200
1306,000000	54,432700
1305,000000	54,525600
1304,000000	54,601600
1303,000000	54,680800
1302,000000	54,766400
1301,000000	54,823700
1300,000000	54,889800
1299,000000	54,963200
1298,000000	55,025000
1297,000000	55,076400
1296,000000	55,129600
1295,000000	55,180300
1294,000000	55,229700
1293,000000	55,247600
1292,000000	55,291300
1291,000000	55,326200
1290,000000	55,362500
1289,000000	55,373600
1288,000000	55,385100
1287,000000	55,400300
1286,000000	55,392500
1285,000000	55,391600
1284,000000	55,409300
1283,000000	55,398800
1282,000000	55,387200
1281,000000	55,388800
1280,000000	55,369500
1279,000000	55,363400
1278,000000	55,357100
1277,000000	55,353700
1276,000000	55,358000
1275,000000	55,346000
1274,000000	55,333200
1273,000000	55,331500
1272,000000	55,335300
1271,000000	55,341900
1270,000000	55,344000
1269,000000	55,330200
1268,000000	55,340600
1267,000000	55,348700
1266,000000	55,336700
1265,000000	55,327600
1264,000000	55,325400
1263,000000	55,317700
1262,000000	55,300000
1261,000000	55,264100
1260,000000	55,247800
1259,000000	55,232900
1258,000000	55,219000
1257,000000	55,201500
1256,000000	55,168100
1255,000000	55,143100
1254,000000	55,121400
1253,000000	55,080400
1252,000000	55,037100
1251,000000	55,002500
1250,000000	54,934500
1249,000000	54,879700
1248,000000	54,826600
1247,000000	54,769900
1246,000000	54,713700
1245,000000	54,639300
1244,000000	54,564500
1243,000000	54,479300
1242,000000	54,413300
1241,000000	54,345200
1240,000000	54,276700
1239,000000	54,208700
1238,000000	54,142000
1237,000000	54,086000
1236,000000	54,017700
1235,000000	53,957100
1234,000000	53,903500
1233,000000	53,845400
1232,000000	53,775600
1231,000000	53,708000
1230,000000	53,643600
1229,000000	53,577900
1228,000000	53,493800
1227,000000	53,409300
1226,000000	53,332400
1225,000000	53,239000
1224,000000	53,152400
1223,000000	53,074800
1222,000000	52,998700
1221,000000	52,914200
1220,000000	52,831700
1219,000000	52,744400
1218,000000	52,646400
1217,000000	52,549300
1216,000000	52,466200
1215,000000	52,391900
1214,000000	52,304200
1213,000000	52,218300
1212,000000	52,140800
1211,000000	52,062500
1210,000000	51,973500
1209,000000	51,890700
1208,000000	51,814100
1207,000000	51,743100
1206,000000	51,663000
1205,000000	51,585200
1204,000000	51,524900
1203,000000	51,449700
1202,000000	51,374800
1201,000000	51,321300
1200,000000	51,264100
1199,000000	51,205000
1198,000000	51,149100
1197,000000	51,079000
1196,000000	50,995000
1195,000000	50,923300
1194,000000	50,840700
1193,000000	50,748600
1192,000000	50,678600
1191,000000	50,583700
1190,000000	50,485100
1189,000000	50,400900
1188,000000	50,325600
1187,000000	50,282700
1186,000000	50,249100
1185,000000	50,235800
1184,000000	50,250300
1183,000000	50,293600
1182,000000	50,376100
1181,000000	50,470500
1180,000000	50,569800
1179,000000	50,678600
1178,000000	50,809000
1177,000000	50,931800
1176,000000	51,066900
1175,000000	51,178300
1174,000000	51,288200
1173,000000	51,410800
1172,000000	51,520800
1171,000000	51,633200
1170,000000	51,756700
1169,000000	51,880500
1168,000000	52,025700
1167,000000	52,164500
1166,000000	52,320700
1165,000000	52,485300
1164,000000	52,668300
1163,000000	52,854700
1162,000000	53,043400
1161,000000	53,222100
1160,000000	53,416100
1159,000000	53,602900
1158,000000	53,789800
1157,000000	53,968300
1156,000000	54,166100
1155,000000	54,360600
1154,000000	54,544400
1153,000000	54,724600
1152,000000	54,913500
1151,000000	55,093300
1150,000000	55,275200
1149,000000	55,457800
1148,000000	55,637800
1147,000000	55,837000
1146,000000	56,063400
1145,000000	56,273800
1144,000000	56,484000
1143,000000	56,693100
1142,000000	56,943400
1141,000000	57,190400
1140,000000	57,452100
1139,000000	57,711300
1138,000000	57,975200
1137,000000	58,255700
1136,000000	58,536000
1135,000000	58,820500
1134,000000	59,112000
1133,000000	59,347800
1132,000000	59,560300
1131,000000	59,751100
1130,000000	59,911900
1129,000000	60,073200
1128,000000	60,226800
1127,000000	60,356500
1126,000000	60,452200
1125,000000	60,550400
1124,000000	60,610300
1123,000000	60,690900
1122,000000	60,729800
1121,000000	60,791100
1120,000000	60,806200
1119,000000	60,826100
1118,000000	60,819800
1117,000000	60,835900
1116,000000	60,858100
1115,000000	60,833200
1114,000000	60,832100
1113,000000	60,830300
1112,000000	60,823700
1111,000000	60,811500
1110,000000	60,793400
1109,000000	60,792700
1108,000000	60,789300
1107,000000	60,788000
1106,000000	60,764300
1105,000000	60,761600
1104,000000	60,738800
1103,000000	60,732300
1102,000000	60,729200
1101,000000	60,708700
1100,000000	60,692100
1099,000000	60,681800
1098,000000	60,666300
1097,000000	60,633900
1096,000000	60,624200
1095,000000	60,603100
1094,000000	60,573500
1093,000000	60,548000
1092,000000	60,509600
1091,000000	60,490800
1090,000000	60,448800
1089,000000	60,442600
1088,000000	60,425000
1087,000000	60,362000
1086,000000	60,341700
1085,000000	60,281200
1084,000000	60,259900
1083,000000	60,215800
1082,000000	60,178300
1081,000000	60,121100
1080,000000	60,086500
1079,000000	60,045100
1078,000000	59,995300
1077,000000	59,944400
1076,000000	59,892500
1075,000000	59,849200
1074,000000	59,804000
1073,000000	59,749800
1072,000000	59,684300
1071,000000	59,642200
1070,000000	59,589100
1069,000000	59,531500
1068,000000	59,465600
1067,000000	59,409200
1066,000000	59,351000
1065,000000	59,293100
1064,000000	59,216400
1063,000000	59,175000
1062,000000	59,118700
1061,000000	59,058800
1060,000000	58,983200
1059,000000	58,931400
1058,000000	58,838100
1057,000000	58,786200
1056,000000	58,721600
1055,000000	58,643300
1054,000000	58,596800
1053,000000	58,531600
1052,000000	58,450400
1051,000000	58,378900
1050,000000	58,327000
1049,000000	58,278900
1048,000000	58,200000
1047,000000	58,139000
1046,000000	58,080800
1045,000000	58,004400
1044,000000	57,943500
1043,000000	57,885400
1042,000000	57,839500
1041,000000	57,770900
1040,000000	57,694400
1039,000000	57,631600
1038,000000	57,582400
1037,000000	57,510900
1036,000000	57,447800
1035,000000	57,371800
1034,000000	57,305300
1033,000000	57,231400
1032,000000	57,156100
1031,000000	57,078200
1030,000000	57,018300
1029,000000	56,938600
1028,000000	56,861200
1027,000000	56,791100
1026,000000	56,724600
1025,000000	56,654000
1024,000000	56,581000
1023,000000	56,508300
1022,000000	56,427100
1021,000000	56,368600
1020,000000	56,286100
1019,000000	56,198500
1018,000000	56,135500
1017,000000	56,059700
1016,000000	55,999100
1015,000000	55,954000
1014,000000	55,883000
1013,000000	55,816200
1012,000000	55,759800
1011,000000	55,710400
1010,000000	55,651400
1009,000000	55,587200
1008,000000	55,526300
1007,000000	55,477400
1006,000000	55,423200
1005,000000	55,389800
1004,000000	55,327300
1003,000000	55,264700
1002,000000	55,213300
1001,000000	55,179700
1000,000000	55,127500
999,000000	55,065100
998,000000	54,995500
997,000000	54,957500
996,000000	54,914700
995,000000	54,861100
994,000000	54,806100
993,000000	54,731700
992,000000	54,683000
991,000000	54,647700
990,000000	54,585000
989,000000	54,522900
988,000000	54,470700
987,000000	54,433700
986,000000	54,383600
985,000000	54,323500
984,000000	54,281900
983,000000	54,235300
982,000000	54,183800
981,000000	54,128000
980,000000	54,099500
979,000000	54,067400
978,000000	54,027000
977,000000	53,973100
976,000000	53,928900
975,000000	53,908900
974,000000	53,873000
973,000000	53,816200
972,000000	53,784200
971,000000	53,756800
970,000000	53,709400
969,000000	53,655200
968,000000	53,623300
967,000000	53,589000
966,000000	53,538500
965,000000	53,513000
964,000000	53,489300
963,000000	53,434300
962,000000	53,386800
961,000000	53,358800
960,000000	53,341500
959,000000	53,319100
958,000000	53,289000
957,000000	53,273400
956,000000	53,245700
955,000000	53,222000
954,000000	53,212500
953,000000	53,193000
952,000000	53,190400
951,000000	53,175400
950,000000	53,141800
949,000000	53,124600
948,000000	53,108100
947,000000	53,066700
946,000000	53,019300
945,000000	52,996100
944,000000	52,952100
943,000000	52,880600
942,000000	52,826600
941,000000	52,785000
940,000000	52,727300
939,000000	52,649700
938,000000	52,591600
937,000000	52,530600
936,000000	52,451400
935,000000	52,373800
934,000000	52,297900
933,000000	52,230300
932,000000	52,165100
931,000000	52,073500
930,000000	51,977400
929,000000	51,889600
928,000000	51,818300
927,000000	51,719100
926,000000	51,606300
925,000000	51,507800
924,000000	51,437300
923,000000	51,344200
922,000000	51,237400
921,000000	51,139500
920,000000	51,039100
919,000000	50,919300
918,000000	50,797900
917,000000	50,691700
916,000000	50,579900
915,000000	50,457400
914,000000	50,348900
913,000000	50,229100
912,000000	50,113400
911,000000	50,005400
910,000000	49,881800
909,000000	49,774400
908,000000	49,661300
907,000000	49,552500
906,000000	49,452100
905,000000	49,331500
904,000000	49,215900
903,000000	49,103000
902,000000	48,994500
901,000000	48,873500
900,000000	48,768800
899,000000	48,658400
898,000000	48,541500
897,000000	48,440900
896,000000	48,329100
895,000000	48,261300
894,000000	48,188400
893,000000	48,104500
892,000000	48,020600
891,000000	47,936500
890,000000	47,864800
889,000000	47,782500
888,000000	47,696300
887,000000	47,610300
886,000000	47,510700
885,000000	47,421700
884,000000	47,351800
883,000000	47,275000
882,000000	47,167600
881,000000	47,097700
880,000000	47,021900
879,000000	46,937800
878,000000	46,848100
877,000000	46,758100
876,000000	46,651400
875,000000	46,604600
874,000000	46,516500
873,000000	46,436900
872,000000	46,339000
871,000000	46,265100
870,000000	46,195700
869,000000	46,095700
868,000000	46,025000
867,000000	45,927500
866,000000	45,843300
865,000000	45,790900
864,000000	45,711700
863,000000	45,624800
862,000000	45,572100
861,000000	45,493300
860,000000	45,419400
859,000000	45,342000
858,000000	45,241700
857,000000	46,234900
856,000000	46,395000
855,000000	45,048100
854,000000	45,822900
853,000000	46,896300
852,000000	46,815500
851,000000	46,419900
850,000000	46,046100
849,000000	45,177100
848,000000	45,495200
847,000000	45,777200
846,000000	46,289200
845,000000	46,267100
844,000000	45,725000
843,000000	46,211800
842,000000	45,446700
841,000000	45,489600
840,000000	45,876100
839,000000	45,487000
838,000000	45,727400
837,000000	45,208400
836,000000	45,245600
835,000000	45,708800
834,000000	45,431400
833,000000	45,486900
832,000000	45,696000
831,000000	45,413600
830,000000	45,525500
829,000000	45,654300
828,000000	45,461900
827,000000	45,222200
826,000000	44,781600
825,000000	45,250900
824,000000	44,924600
823,000000	44,911500
822,000000	45,146600
821,000000	44,983500
820,000000	44,914600
819,000000	44,522800
818,000000	45,085800
817,000000	44,599800
816,000000	44,534400
815,000000	44,438700
814,000000	44,468100
813,000000	44,111700
812,000000	44,507200
811,000000	44,427500
810,000000	44,247000
809,000000	44,105300
808,000000	44,128500
807,000000	44,298000
806,000000	44,045300
805,000000	43,982700
804,000000	43,848000
803,000000	43,650000
802,000000	43,823000
801,000000	43,593100
800,000000	43,406500
799,000000	43,424300
798,000000	43,380100
797,000000	43,193700
796,000000	43,173800
795,000000	43,039400
794,000000	43,048300
793,000000	42,692500
792,000000	42,838800
791,000000	42,612400
790,000000	42,508000
789,000000	42,469600
788,000000	42,269500
787,000000	42,337400
786,000000	42,333600
785,000000	42,198800
784,000000	42,014200
783,000000	41,959500
782,000000	41,753500
781,000000	41,565200
780,000000	41,624100
779,000000	41,316200
778,000000	41,180400
777,000000	41,186300
776,000000	40,970100
775,000000	40,709700
774,000000	40,638600
773,000000	40,597200
772,000000	40,351900
771,000000	40,305000
770,000000	40,226000
769,000000	40,095200
768,000000	40,050300
767,000000	39,780900
766,000000	39,680400
765,000000	39,467200
764,000000	39,340900
763,000000	39,125500
762,000000	38,934100
761,000000	38,647000
760,000000	38,627400
759,000000	38,341600
758,000000	38,190000
757,000000	37,971800
756,000000	37,813300
755,000000	37,654800
754,000000	37,484700
753,000000	37,308300
752,000000	37,089700
751,000000	36,977200
750,000000	36,734100
749,000000	36,683700
748,000000	36,451600
747,000000	36,222200
746,000000	36,124100
745,000000	35,842800
744,000000	35,591500
743,000000	35,511400
742,000000	35,260300
741,000000	35,083800
740,000000	34,777800
739,000000	34,668700
738,000000	34,486600
737,000000	34,196800
736,000000	34,005900
735,000000	33,809800
734,000000	33,634000
733,000000	33,344300
732,000000	33,101700
731,000000	32,991300
730,000000	32,753600
729,000000	32,578200
728,000000	32,268500
727,000000	32,128600
726,000000	31,912100
725,000000	31,620000
724,000000	31,431400
723,000000	31,192600
722,000000	31,010600
721,000000	30,742300
720,000000	30,424200
719,000000	30,225300
718,000000	30,083900
717,000000	29,958900
716,000000	29,689100
715,000000	29,584900
714,000000	29,293900
713,000000	29,077400
712,000000	28,899000
711,000000	28,634300
710,000000	28,437200
709,000000	28,215500
708,000000	28,008200
707,000000	27,801900
706,000000	27,606800
705,000000	27,334500
704,000000	27,154400
703,000000	26,971300
702,000000	26,758100
701,000000	26,572200
700,000000	26,433700
699,000000	26,214200
698,000000	25,962500
697,000000	25,775000
696,000000	25,641800
695,000000	25,419600
694,000000	25,157700
693,000000	25,001200
692,000000	24,932200
691,000000	24,657800
690,000000	24,432700
689,000000	24,280500
688,000000	24,078800
687,000000	23,913500
686,000000	23,768200
685,000000	23,627800
684,000000	23,478100
683,000000	23,338300
682,000000	23,174400
681,000000	23,017500
680,000000	22,852000
679,000000	22,732200
678,000000	22,606800
677,000000	22,479700
676,000000	22,350800
675,000000	22,209700
674,000000	22,073300
673,000000	21,926700
672,000000	21,807700
671,000000	21,706800
670,000000	21,594000
669,000000	21,463300
668,000000	21,354800
667,000000	21,287700
666,000000	21,232700
665,000000	21,139400
664,000000	21,070700
663,000000	21,022100
662,000000	20,909200
661,000000	20,821000
660,000000	20,811300
659,000000	20,825000
658,000000	20,826800
657,000000	20,861500
656,000000	20,908100
655,000000	20,947200
654,000000	20,990900
653,000000	21,045800
652,000000	21,130700
651,000000	21,232700
650,000000	21,310500
649,000000	21,431600
648,000000	21,573700
647,000000	21,666900
646,000000	21,779500
645,000000	21,946200
644,000000	22,099600
643,000000	22,209500
642,000000	22,332500
641,000000	22,492200
640,000000	22,628400
639,000000	22,769600
638,000000	22,929900
637,000000	23,070400
636,000000	23,237600
635,000000	23,405900
634,000000	23,550700
633,000000	23,691000
632,000000	23,855300
631,000000	24,020300
630,000000	24,190200
629,000000	24,332400
628,000000	24,472100
627,000000	24,661100
626,000000	24,828700
625,000000	25,013500
624,000000	25,197900
623,000000	25,388100
622,000000	25,569000
621,000000	25,736500
620,000000	25,925000
619,000000	26,121000
618,000000	26,288900
617,000000	26,450600
616,000000	26,627900
615,000000	26,806000
614,000000	26,988400
613,000000	27,161500
612,000000	27,302700
611,000000	27,437200
610,000000	27,584900
609,000000	27,695300
608,000000	27,815700
607,000000	27,947400
606,000000	28,096900
605,000000	28,210300
604,000000	28,315200
603,000000	28,450600
602,000000	28,583500
601,000000	28,738300
600,000000	28,865200
599,000000	28,952100
598,000000	29,046500
597,000000	29,217000
596,000000	29,385400
595,000000	29,492500
594,000000	29,620200
593,000000	29,780400
592,000000	29,892300
591,000000	29,981600
590,000000	30,088000
589,000000	30,208100
588,000000	30,309700
587,000000	30,399700
586,000000	30,492900
585,000000	30,597000
584,000000	30,682800
583,000000	30,731300
582,000000	30,824100
581,000000	30,889700
580,000000	30,961800
579,000000	30,980400
578,000000	30,991000
577,000000	31,020100
576,000000	31,061100
575,000000	31,067700
574,000000	31,109500
573,000000	31,110500
572,000000	31,111100
571,000000	31,121400
570,000000	31,095900
569,000000	31,050400
568,000000	31,054000
567,000000	30,996300
566,000000	30,940500
565,000000	30,878600
564,000000	30,789000
563,000000	30,740200
562,000000	30,684100
561,000000	30,618300
560,000000	30,496600
559,000000	30,363500
558,000000	30,248500
557,000000	30,126400
556,000000	29,984100
555,000000	29,868500
554,000000	29,693000
553,000000	29,527700
552,000000	29,394000
551,000000	29,215300
550,000000	29,044900
549,000000	28,838000
548,000000	28,614700
547,000000	28,396600
546,000000	28,249400
545,000000	28,007400
544,000000	27,747800
543,000000	27,509100
542,000000	27,274400
541,000000	27,008200
540,000000	26,690000
539,000000	26,410100
538,000000	26,119600
537,000000	25,788900
536,000000	25,461600
535,000000	25,106300
534,000000	24,757700
533,000000	24,395800
532,000000	24,000800
531,000000	23,601700
530,000000	23,196900
529,000000	22,786400
528,000000	22,385000
527,000000	21,954900
526,000000	21,509100
525,000000	21,073900
524,000000	20,672000
523,000000	20,228200
522,000000	19,794600
521,000000	19,366400
520,000000	18,928900
519,000000	18,515600
518,000000	18,115700
517,000000	17,716300
516,000000	17,323500
515,000000	16,977700
514,000000	16,613700
513,000000	16,263000
512,000000	15,943300
511,000000	15,605800
510,000000	15,274400
509,000000	15,005000
508,000000	14,685100
507,000000	14,462500
506,000000	14,192800
505,000000	14,005000
504,000000	13,696300
503,000000	13,507100
502,000000	13,295200
501,000000	13,084600
500,000000	12,882000
499,000000	12,681900
498,000000	12,520200
497,000000	12,334500
496,000000	12,201900
495,000000	12,062200
494,000000	11,893900
493,000000	11,747700
492,000000	11,642200
491,000000	11,541100
490,000000	11,403000
489,000000	11,270200
488,000000	11,144100
487,000000	11,063500
486,000000	10,952000
485,000000	10,857900
484,000000	10,742100
483,000000	10,658000
482,000000	10,564900
481,000000	10,424900
480,000000	10,336900
479,000000	10,237700
478,000000	10,147600
477,000000	10,029400
476,000000	9,907000
475,000000	9,832400
474,000000	9,731500
473,000000	9,669000
472,000000	9,583200
471,000000	9,457600
470,000000	9,361000
469,000000	9,273000
468,000000	9,236100
467,000000	9,135700
466,000000	9,051100
465,000000	8,987300
464,000000	8,912900
463,000000	8,847100
462,000000	8,751900
461,000000	8,673300
460,000000	8,628300
459,000000	8,536700
458,000000	8,455500
457,000000	8,380500
456,000000	8,291100
455,000000	8,268500
454,000000	8,171400
453,000000	8,106000
452,000000	8,014500
451,000000	7,961000
450,000000	7,906700
449,000000	7,809100
448,000000	7,732300
447,000000	7,647600
446,000000	7,528800
445,000000	7,472100
444,000000	7,395700
443,000000	7,324500
442,000000	7,262100
441,000000	7,159800
440,000000	7,049600
439,000000	6,991800
438,000000	6,937800
437,000000	6,862700
436,000000	6,781300
435,000000	6,686800
434,000000	6,664900
433,000000	6,595100
432,000000	6,514900
431,000000	6,443000
430,000000	6,406100
429,000000	6,347400
428,000000	6,272700
427,000000	6,188400
426,000000	6,154000
425,000000	6,130500
424,000000	6,059300
423,000000	6,015300
422,000000	5,974500
421,000000	5,904400
420,000000	5,853800
419,000000	5,802000
418,000000	5,790000
417,000000	5,721600
416,000000	5,693400
415,000000	5,651700
414,000000	5,609900
413,000000	5,540300
412,000000	5,493500
411,000000	5,461800
410,000000	5,453800
409,000000	5,424900
408,000000	5,368500
407,000000	5,357700
406,000000	5,314500
405,000000	5,294000
404,000000	5,266000
403,000000	5,207400
402,000000	5,182700
401,000000	5,172500
400,000000	5,169600
399,000000	5,085900
398,000000	5,109700
397,000000	5,043500
396,000000	5,041200
395,000000	5,011700
394,000000	5,001000
393,000000	4,985200
392,000000	4,966100
391,000000	4,931800
390,000000	4,923000
389,000000	4,934100
388,000000	4,929800
387,000000	4,902100
386,000000	4,864700
385,000000	4,828300
384,000000	4,828200
383,000000	4,835800
382,000000	4,817000
381,000000	4,792500
380,000000	4,787100
379,000000	4,756000
378,000000	4,772000
377,000000	4,769400
376,000000	5,003600
375,000000	4,772100
374,000000	3,838200
373,000000	4,251200
372,000000	4,465100
371,000000	4,548500
370,000000	4,370800
369,000000	4,391900
368,000000	4,655300
367,000000	4,551100
366,000000	4,452100
365,000000	4,601200
364,000000	4,566600
363,000000	4,460800
362,000000	4,285900
361,000000	4,231000
360,000000	4,580000
359,000000	4,634200
358,000000	4,549400
357,000000	4,599900
356,000000	4,780700
355,000000	4,870300
354,000000	4,734100
353,000000	4,596700
352,000000	4,658300
351,000000	4,671500
350,000000	4,834700
349,000000	5,053300
348,000000	4,848600
347,000000	4,815500
346,000000	5,015600
345,000000	4,892100
344,000000	4,889300
343,000000	4,756900
342,000000	5,080900
341,000000	5,260400
340,000000	4,932200
339,000000	4,624300
338,000000	4,806700
337,000000	5,324700
336,000000	5,138300
335,000000	4,895100
334,000000	5,218900
333,000000	5,533400
332,000000	5,647000
331,000000	5,430200
330,000000	5,641900
329,000000	5,743100
328,000000	5,973800
327,000000	6,381300
326,000000	6,413500
325,000000	5,474100
324,000000	4,687300
323,000000	5,606600
322,000000	7,074700
321,000000	7,563800
320,000000	7,355400
319,000000	7,097300
318,000000	6,279200
317,000000	7,506400
316,000000	6,549500
315,000000	4,632600
314,000000	4,593500
313,000000	4,599600
312,000000	4,559700
311,000000	4,644200
310,000000	4,700100
309,000000	4,720700
308,000000	4,731700
307,000000	4,683600
306,000000	4,742200
305,000000	4,752000
304,000000	4,753700
303,000000	4,724400
302,000000	4,647800
301,000000	4,633800
300,000000	4,679200
299,000000	4,695000
298,000000	4,659600
297,000000	4,632700
296,000000	4,714400
295,000000	4,803500
294,000000	4,753000
293,000000	4,687200
292,000000	4,709500
291,000000	4,722400
290,000000	4,742800
289,000000	4,721500
288,000000	4,688100
287,000000	4,699300
286,000000	4,684200
285,000000	4,729000
284,000000	4,769700
283,000000	4,736800
282,000000	4,758100
281,000000	4,762600
280,000000	4,688600
279,000000	4,702000
278,000000	4,749000
277,000000	4,870100
276,000000	4,820600
275,000000	4,760000
274,000000	4,787600
273,000000	4,894000
272,000000	4,907800
271,000000	4,861000
270,000000	4,835800
269,000000	4,882600
268,000000	4,854900
267,000000	4,887500
266,000000	4,956300
265,000000	5,032100
264,000000	5,008200
263,000000	5,111300
262,000000	5,144200
261,000000	5,145000
260,000000	5,144300
259,000000	5,188600
258,000000	5,155800
257,000000	5,146000
256,000000	5,173900
255,000000	5,253200
254,000000	5,184800
253,000000	5,208800
252,000000	5,251300
251,000000	5,252700
250,000000	5,298000
