PE UV       SUBTECH     SPECTRUM    ASCII       PEDS        4.00        
   -1
CICIMAUCR0254-1.Sample.ASC
24/06/26
16:33:48.00
24/06/26
16:33:48.00
Vinicio Soto Monge
C. resplendens. Sex F. Ventral
250,000000
1
Lambda 1050
1050L1511233
PerkinElmer UV WinLab 6.3.2.0749 / 2.02.05 Lambda 900 UV/VIS/NIR, Aug  7 2015 09:38:08

0
0
3350/servo 860,8/2
0
0
UV/VIS
1
1
1
DoubleDePol,CommonBeamDepol,RBeamAtt,SBeamAtt,60mm sphere, WB InGaAs Detector
0
0
0
0
Program
Program
3350/servo 860,8/2
3350/0,2 860,8/0,2
3350/0,2 860,8/0,2
0
15.00
 
 
 
0
 
860,8
319,2
860,8
Front
100
on
S:100 R:100
0
0
0
0
 
0
 
 
 
0
 
 
0
0
0
0
0
 
 
 
 
0
0


0
0
#HDR
-1
-1
#GR
nm
%R
1.0
0.0
2500,000000
-1,000000
2251
8
57,930800
4,246000
#DATA
2500,000000	4,854300
2499,000000	5,100000
2498,000000	5,074200
2497,000000	5,169500
2496,000000	4,871800
2495,000000	5,001000
2494,000000	4,923500
2493,000000	4,935700
2492,000000	4,901500
2491,000000	4,880500
2490,000000	4,884100
2489,000000	4,901900
2488,000000	4,824500
2487,000000	4,839900
2486,000000	4,853600
2485,000000	4,856300
2484,000000	4,825200
2483,000000	4,825300
2482,000000	4,808500
2481,000000	4,817900
2480,000000	4,832900
2479,000000	4,801900
2478,000000	4,777400
2477,000000	4,811600
2476,000000	4,777400
2475,000000	4,762800
2474,000000	4,781000
2473,000000	4,761400
2472,000000	4,817400
2471,000000	4,777600
2470,000000	4,802400
2469,000000	4,801800
2468,000000	4,768200
2467,000000	4,784600
2466,000000	4,795900
2465,000000	4,762200
2464,000000	4,759900
2463,000000	4,826900
2462,000000	4,798500
2461,000000	4,804300
2460,000000	4,779600
2459,000000	4,793500
2458,000000	4,809900
2457,000000	4,781000
2456,000000	4,788600
2455,000000	4,836000
2454,000000	4,842300
2453,000000	4,822500
2452,000000	4,839400
2451,000000	4,850200
2450,000000	4,866400
2449,000000	4,904300
2448,000000	4,911400
2447,000000	4,902900
2446,000000	4,941800
2445,000000	4,950200
2444,000000	4,952000
2443,000000	4,966100
2442,000000	4,986900
2441,000000	5,022200
2440,000000	5,018200
2439,000000	5,027800
2438,000000	5,067700
2437,000000	5,067700
2436,000000	5,092200
2435,000000	5,109300
2434,000000	5,108600
2433,000000	5,122000
2432,000000	5,136000
2431,000000	5,153100
2430,000000	5,177800
2429,000000	5,183500
2428,000000	5,184900
2427,000000	5,213900
2426,000000	5,224700
2425,000000	5,246500
2424,000000	5,251500
2423,000000	5,274400
2422,000000	5,271000
2421,000000	5,283700
2420,000000	5,291500
2419,000000	5,296300
2418,000000	5,307800
2417,000000	5,314900
2416,000000	5,319100
2415,000000	5,334500
2414,000000	5,353900
2413,000000	5,356400
2412,000000	5,374600
2411,000000	5,370700
2410,000000	5,379800
2409,000000	5,396400
2408,000000	5,396500
2407,000000	5,412100
2406,000000	5,421200
2405,000000	5,439200
2404,000000	5,438800
2403,000000	5,443600
2402,000000	5,446900
2401,000000	5,451800
2400,000000	5,462600
2399,000000	5,470800
2398,000000	5,476200
2397,000000	5,490200
2396,000000	5,493000
2395,000000	5,494200
2394,000000	5,496800
2393,000000	5,510300
2392,000000	5,512300
2391,000000	5,529200
2390,000000	5,545700
2389,000000	5,551700
2388,000000	5,555800
2387,000000	5,551700
2386,000000	5,557500
2385,000000	5,564400
2384,000000	5,557000
2383,000000	5,573300
2382,000000	5,569200
2381,000000	5,563000
2380,000000	5,575000
2379,000000	5,573800
2378,000000	5,575700
2377,000000	5,580700
2376,000000	5,582400
2375,000000	5,574400
2374,000000	5,580800
2373,000000	5,573300
2372,000000	5,565200
2371,000000	5,567200
2370,000000	5,550900
2369,000000	5,541400
2368,000000	5,552200
2367,000000	5,553100
2366,000000	5,553400
2365,000000	5,547100
2364,000000	5,533900
2363,000000	5,526400
2362,000000	5,518300
2361,000000	5,519800
2360,000000	5,523600
2359,000000	5,509600
2358,000000	5,503100
2357,000000	5,481100
2356,000000	5,472200
2355,000000	5,483300
2354,000000	5,475300
2353,000000	5,475300
2352,000000	5,471100
2351,000000	5,465500
2350,000000	5,472300
2349,000000	5,488100
2348,000000	5,482900
2347,000000	5,450200
2346,000000	5,471100
2345,000000	5,491700
2344,000000	5,479700
2343,000000	5,482100
2342,000000	5,492800
2341,000000	5,497700
2340,000000	5,507400
2339,000000	5,511600
2338,000000	5,522800
2337,000000	5,531700
2336,000000	5,539600
2335,000000	5,529000
2334,000000	5,522200
2333,000000	5,527400
2332,000000	5,532700
2331,000000	5,526600
2330,000000	5,516300
2329,000000	5,516000
2328,000000	5,505200
2327,000000	5,498000
2326,000000	5,492800
2325,000000	5,481200
2324,000000	5,463700
2323,000000	5,464800
2322,000000	5,465500
2321,000000	5,448900
2320,000000	5,439900
2319,000000	5,421800
2318,000000	5,404700
2317,000000	5,400600
2316,000000	5,380700
2315,000000	5,352000
2314,000000	5,341800
2313,000000	5,313500
2312,000000	5,285400
2311,000000	5,271600
2310,000000	5,263100
2309,000000	5,239700
2308,000000	5,230700
2307,000000	5,221500
2306,000000	5,213300
2305,000000	5,212400
2304,000000	5,209200
2303,000000	5,215600
2302,000000	5,226800
2301,000000	5,231300
2300,000000	5,242800
2299,000000	5,233200
2298,000000	5,244800
2297,000000	5,265300
2296,000000	5,282800
2295,000000	5,291500
2294,000000	5,322900
2293,000000	5,343700
2292,000000	5,344400
2291,000000	5,346600
2290,000000	5,359500
2289,000000	5,370900
2288,000000	5,390100
2287,000000	5,391100
2286,000000	5,402500
2285,000000	5,384300
2284,000000	5,386200
2283,000000	5,392800
2282,000000	5,390700
2281,000000	5,394300
2280,000000	5,391400
2279,000000	5,366900
2278,000000	5,341100
2277,000000	5,368400
2276,000000	5,351300
2275,000000	5,346500
2274,000000	5,341200
2273,000000	5,345200
2272,000000	5,331400
2271,000000	5,326900
2270,000000	5,332500
2269,000000	5,336600
2268,000000	5,340300
2267,000000	5,351900
2266,000000	5,350800
2265,000000	5,398100
2264,000000	5,409900
2263,000000	5,441700
2262,000000	5,473100
2261,000000	5,504400
2260,000000	5,557100
2259,000000	5,600400
2258,000000	5,658800
2257,000000	5,702300
2256,000000	5,775200
2255,000000	5,825400
2254,000000	5,870000
2253,000000	5,946800
2252,000000	5,999400
2251,000000	6,071000
2250,000000	6,136300
2249,000000	6,169400
2248,000000	6,248400
2247,000000	6,298700
2246,000000	6,358600
2245,000000	6,377600
2244,000000	6,428100
2243,000000	6,498000
2242,000000	6,536600
2241,000000	6,551700
2240,000000	6,580100
2239,000000	6,606200
2238,000000	6,629500
2237,000000	6,701400
2236,000000	6,716900
2235,000000	6,724300
2234,000000	6,747800
2233,000000	6,752300
2232,000000	6,788200
2231,000000	6,801300
2230,000000	6,818400
2229,000000	6,812100
2228,000000	6,808000
2227,000000	6,817000
2226,000000	6,810500
2225,000000	6,807700
2224,000000	6,822500
2223,000000	6,817300
2222,000000	6,825000
2221,000000	6,798100
2220,000000	6,810500
2219,000000	6,777900
2218,000000	6,744200
2217,000000	6,747300
2216,000000	6,732200
2215,000000	6,741400
2214,000000	6,714100
2213,000000	6,710300
2212,000000	6,672700
2211,000000	6,676400
2210,000000	6,679000
2209,000000	6,671000
2208,000000	6,644400
2207,000000	6,648500
2206,000000	6,647200
2205,000000	6,621700
2204,000000	6,635600
2203,000000	6,627800
2202,000000	6,616800
2201,000000	6,602200
2200,000000	6,597500
2199,000000	6,608200
2198,000000	6,577600
2197,000000	6,585900
2196,000000	6,573500
2195,000000	6,573600
2194,000000	6,565100
2193,000000	6,565500
2192,000000	6,552800
2191,000000	6,551000
2190,000000	6,562000
2189,000000	6,567600
2188,000000	6,569600
2187,000000	6,545600
2186,000000	6,534400
2185,000000	6,510300
2184,000000	6,549900
2183,000000	6,537700
2182,000000	6,524700
2181,000000	6,517300
2180,000000	6,508000
2179,000000	6,511300
2178,000000	6,498800
2177,000000	6,486800
2176,000000	6,495500
2175,000000	6,507400
2174,000000	6,512200
2173,000000	6,503300
2172,000000	6,498300
2171,000000	6,476500
2170,000000	6,501100
2169,000000	6,500500
2168,000000	6,496000
2167,000000	6,496100
2166,000000	6,499600
2165,000000	6,497800
2164,000000	6,510600
2163,000000	6,525900
2162,000000	6,553400
2161,000000	6,537600
2160,000000	6,542400
2159,000000	6,556600
2158,000000	6,567000
2157,000000	6,596400
2156,000000	6,606300
2155,000000	6,625200
2154,000000	6,638600
2153,000000	6,648300
2152,000000	6,653200
2151,000000	6,668300
2150,000000	6,680000
2149,000000	6,706100
2148,000000	6,724300
2147,000000	6,738000
2146,000000	6,765100
2145,000000	6,782800
2144,000000	6,777500
2143,000000	6,816700
2142,000000	6,845300
2141,000000	6,865700
2140,000000	6,880300
2139,000000	6,879400
2138,000000	6,899000
2137,000000	6,906900
2136,000000	6,919800
2135,000000	6,942000
2134,000000	6,945500
2133,000000	6,961400
2132,000000	6,968400
2131,000000	6,976800
2130,000000	6,977600
2129,000000	6,993300
2128,000000	7,000100
2127,000000	6,984900
2126,000000	6,995000
2125,000000	7,030800
2124,000000	7,027900
2123,000000	7,011500
2122,000000	7,014600
2121,000000	7,015300
2120,000000	7,025400
2119,000000	7,023800
2118,000000	7,001600
2117,000000	7,019100
2116,000000	7,015400
2115,000000	7,002900
2114,000000	7,010600
2113,000000	7,002600
2112,000000	6,995200
2111,000000	6,975800
2110,000000	6,967900
2109,000000	6,975400
2108,000000	6,962700
2107,000000	6,954700
2106,000000	6,957800
2105,000000	6,944300
2104,000000	6,934800
2103,000000	6,923000
2102,000000	6,914200
2101,000000	6,912400
2100,000000	6,910000
2099,000000	6,894100
2098,000000	6,891500
2097,000000	6,899000
2096,000000	6,884200
2095,000000	6,873600
2094,000000	6,876100
2093,000000	6,869100
2092,000000	6,860900
2091,000000	6,857900
2090,000000	6,849000
2089,000000	6,836000
2088,000000	6,827000
2087,000000	6,825700
2086,000000	6,834700
2085,000000	6,839600
2084,000000	6,831800
2083,000000	6,821100
2082,000000	6,811800
2081,000000	6,796100
2080,000000	6,781700
2079,000000	6,783300
2078,000000	6,772500
2077,000000	6,747500
2076,000000	6,750100
2075,000000	6,731400
2074,000000	6,702000
2073,000000	6,682700
2072,000000	6,676200
2071,000000	6,671700
2070,000000	6,647800
2069,000000	6,629900
2068,000000	6,603700
2067,000000	6,581800
2066,000000	6,572200
2065,000000	6,551300
2064,000000	6,517700
2063,000000	6,508100
2062,000000	6,487400
2061,000000	6,472500
2060,000000	6,451600
2059,000000	6,439900
2058,000000	6,434800
2057,000000	6,424300
2056,000000	6,417500
2055,000000	6,406300
2054,000000	6,397900
2053,000000	6,405800
2052,000000	6,415900
2051,000000	6,423300
2050,000000	6,428900
2049,000000	6,444500
2048,000000	6,460100
2047,000000	6,480800
2046,000000	6,500100
2045,000000	6,520900
2044,000000	6,554100
2043,000000	6,581000
2042,000000	6,602000
2041,000000	6,635400
2040,000000	6,662500
2039,000000	6,692200
2038,000000	6,714300
2037,000000	6,725700
2036,000000	6,744800
2035,000000	6,766000
2034,000000	6,785700
2033,000000	6,815400
2032,000000	6,837300
2031,000000	6,854100
2030,000000	6,859400
2029,000000	6,871200
2028,000000	6,892700
2027,000000	6,903800
2026,000000	6,890800
2025,000000	6,918600
2024,000000	6,925500
2023,000000	6,928700
2022,000000	6,938000
2021,000000	6,957400
2020,000000	6,953600
2019,000000	6,943100
2018,000000	6,953200
2017,000000	6,968200
2016,000000	6,961100
2015,000000	6,967700
2014,000000	6,966200
2013,000000	6,955000
2012,000000	6,947900
2011,000000	6,958900
2010,000000	6,946400
2009,000000	6,926500
2008,000000	6,912300
2007,000000	6,915800
2006,000000	6,904400
2005,000000	6,887400
2004,000000	6,888700
2003,000000	6,874300
2002,000000	6,857900
2001,000000	6,838400
2000,000000	6,822700
1999,000000	6,824900
1998,000000	6,771200
1997,000000	6,740600
1996,000000	6,742500
1995,000000	6,728200
1994,000000	6,712500
1993,000000	6,682100
1992,000000	6,641500
1991,000000	6,639400
1990,000000	6,635800
1989,000000	6,615800
1988,000000	6,577100
1987,000000	6,531700
1986,000000	6,528200
1985,000000	6,532000
1984,000000	6,494500
1983,000000	6,463200
1982,000000	6,428300
1981,000000	6,419500
1980,000000	6,392200
1979,000000	6,364800
1978,000000	6,332200
1977,000000	6,309700
1976,000000	6,277400
1975,000000	6,268200
1974,000000	6,248500
1973,000000	6,217800
1972,000000	6,203700
1971,000000	6,200500
1970,000000	6,170700
1969,000000	6,141100
1968,000000	6,131000
1967,000000	6,103400
1966,000000	6,080100
1965,000000	6,066600
1964,000000	6,054900
1963,000000	6,030800
1962,000000	5,999700
1961,000000	5,975200
1960,000000	5,954200
1959,000000	5,946000
1958,000000	5,924300
1957,000000	5,916600
1956,000000	5,900600
1955,000000	5,872600
1954,000000	5,869100
1953,000000	5,843300
1952,000000	5,830000
1951,000000	5,816900
1950,000000	5,789300
1949,000000	5,789100
1948,000000	5,784700
1947,000000	5,767300
1946,000000	5,745000
1945,000000	5,744200
1944,000000	5,716500
1943,000000	5,706500
1942,000000	5,704800
1941,000000	5,674400
1940,000000	5,683600
1939,000000	5,691200
1938,000000	5,693900
1937,000000	5,662600
1936,000000	5,684600
1935,000000	5,681300
1934,000000	5,665900
1933,000000	5,675800
1932,000000	5,686500
1931,000000	5,688700
1930,000000	5,704000
1929,000000	5,703600
1928,000000	5,712600
1927,000000	5,732700
1926,000000	5,746200
1925,000000	5,782200
1924,000000	5,798000
1923,000000	5,825300
1922,000000	5,810100
1921,000000	5,853000
1920,000000	5,869700
1919,000000	5,918600
1918,000000	5,966900
1917,000000	5,977400
1916,000000	6,027100
1915,000000	6,081000
1914,000000	6,096300
1913,000000	6,139800
1912,000000	6,176700
1911,000000	6,241100
1910,000000	6,304100
1909,000000	6,358300
1908,000000	6,417400
1907,000000	6,489400
1906,000000	6,556400
1905,000000	6,632400
1904,000000	6,709000
1903,000000	6,791200
1902,000000	6,872300
1901,000000	6,947300
1900,000000	7,047300
1899,000000	7,165100
1898,000000	7,265600
1897,000000	7,373200
1896,000000	7,512300
1895,000000	7,644200
1894,000000	7,768600
1893,000000	7,898800
1892,000000	8,044100
1891,000000	8,204100
1890,000000	8,369600
1889,000000	8,543900
1888,000000	8,737000
1887,000000	8,916500
1886,000000	9,134200
1885,000000	9,342700
1884,000000	9,564400
1883,000000	9,808400
1882,000000	10,056000
1881,000000	10,311800
1880,000000	10,546200
1879,000000	10,818600
1878,000000	11,046400
1877,000000	11,293900
1876,000000	11,559700
1875,000000	11,807600
1874,000000	12,036700
1873,000000	12,282500
1872,000000	12,514200
1871,000000	12,755900
1870,000000	12,988300
1869,000000	13,217000
1868,000000	13,430400
1867,000000	13,627100
1866,000000	13,796200
1865,000000	13,929300
1864,000000	14,081100
1863,000000	14,203700
1862,000000	14,329700
1861,000000	14,453500
1860,000000	14,548700
1859,000000	14,676600
1858,000000	14,792600
1857,000000	14,875600
1856,000000	14,955000
1855,000000	15,011400
1854,000000	15,052200
1853,000000	15,121900
1852,000000	15,151100
1851,000000	15,187600
1850,000000	15,227200
1849,000000	15,236800
1848,000000	15,252500
1847,000000	15,285000
1846,000000	15,296400
1845,000000	15,290800
1844,000000	15,300700
1843,000000	15,275700
1842,000000	15,270400
1841,000000	15,276400
1840,000000	15,290200
1839,000000	15,287600
1838,000000	15,268400
1837,000000	15,242600
1836,000000	15,236000
1835,000000	15,237300
1834,000000	15,204600
1833,000000	15,177600
1832,000000	15,155400
1831,000000	15,128000
1830,000000	15,098000
1829,000000	15,067900
1828,000000	15,039500
1827,000000	14,990800
1826,000000	14,960500
1825,000000	14,946300
1824,000000	14,923500
1823,000000	14,901300
1822,000000	14,867800
1821,000000	14,860600
1820,000000	14,858600
1819,000000	14,842700
1818,000000	14,815300
1817,000000	14,796000
1816,000000	14,779100
1815,000000	14,761400
1814,000000	14,758500
1813,000000	14,747700
1812,000000	14,722000
1811,000000	14,703100
1810,000000	14,698700
1809,000000	14,679700
1808,000000	14,651200
1807,000000	14,627900
1806,000000	14,609900
1805,000000	14,584500
1804,000000	14,557400
1803,000000	14,525200
1802,000000	14,500200
1801,000000	14,478600
1800,000000	14,444900
1799,000000	14,417800
1798,000000	14,373700
1797,000000	14,329800
1796,000000	14,313100
1795,000000	14,293600
1794,000000	14,264200
1793,000000	14,233700
1792,000000	14,205800
1791,000000	14,177300
1790,000000	14,147800
1789,000000	14,121800
1788,000000	14,097400
1787,000000	14,069700
1786,000000	14,037400
1785,000000	14,000900
1784,000000	13,972400
1783,000000	13,941100
1782,000000	13,916000
1781,000000	13,882300
1780,000000	13,843100
1779,000000	13,818600
1778,000000	13,781600
1777,000000	13,733900
1776,000000	13,670100
1775,000000	13,630100
1774,000000	13,583300
1773,000000	13,539300
1772,000000	13,512100
1771,000000	13,472400
1770,000000	13,408100
1769,000000	13,343300
1768,000000	13,287400
1767,000000	13,232100
1766,000000	13,184200
1765,000000	13,151400
1764,000000	13,112400
1763,000000	13,090200
1762,000000	13,075000
1761,000000	13,077800
1760,000000	13,089800
1759,000000	13,113100
1758,000000	13,143500
1757,000000	13,170600
1756,000000	13,206500
1755,000000	13,241300
1754,000000	13,276600
1753,000000	13,312100
1752,000000	13,325400
1751,000000	13,329200
1750,000000	13,343000
1749,000000	13,337700
1748,000000	13,309700
1747,000000	13,306000
1746,000000	13,276900
1745,000000	13,254100
1744,000000	13,213200
1743,000000	13,146800
1742,000000	13,089600
1741,000000	13,008600
1740,000000	12,939500
1739,000000	12,838700
1738,000000	12,742500
1737,000000	12,659800
1736,000000	12,562600
1735,000000	12,475000
1734,000000	12,435700
1733,000000	12,392600
1732,000000	12,360000
1731,000000	12,352400
1730,000000	12,356000
1729,000000	12,360100
1728,000000	12,373500
1727,000000	12,416500
1726,000000	12,432600
1725,000000	12,467700
1724,000000	12,515400
1723,000000	12,542500
1722,000000	12,576300
1721,000000	12,613500
1720,000000	12,661300
1719,000000	12,706700
1718,000000	12,750100
1717,000000	12,801800
1716,000000	12,857200
1715,000000	12,925100
1714,000000	12,989600
1713,000000	13,059700
1712,000000	13,130200
1711,000000	13,182400
1710,000000	13,223500
1709,000000	13,287800
1708,000000	13,291800
1707,000000	13,303800
1706,000000	13,310300
1705,000000	13,302900
1704,000000	13,288700
1703,000000	13,281300
1702,000000	13,255900
1701,000000	13,223100
1700,000000	13,147500
1699,000000	13,102200
1698,000000	13,043800
1697,000000	12,985100
1696,000000	12,914800
1695,000000	12,908400
1694,000000	12,836700
1693,000000	12,845100
1692,000000	12,868000
1691,000000	12,904100
1690,000000	12,952500
1689,000000	13,012800
1688,000000	13,069900
1687,000000	13,132700
1686,000000	13,170900
1685,000000	13,221200
1684,000000	13,301900
1683,000000	13,384900
1682,000000	13,488300
1681,000000	13,638400
1680,000000	13,812000
1679,000000	14,062500
1678,000000	14,294300
1677,000000	14,550200
1676,000000	14,828300
1675,000000	15,078700
1674,000000	15,291700
1673,000000	15,495600
1672,000000	15,688200
1671,000000	15,865600
1670,000000	16,019600
1669,000000	16,172500
1668,000000	16,297000
1667,000000	16,435100
1666,000000	16,511100
1665,000000	16,602100
1664,000000	16,688900
1663,000000	16,737700
1662,000000	16,825300
1661,000000	16,874000
1660,000000	16,948300
1659,000000	16,995800
1658,000000	17,039300
1657,000000	17,069700
1656,000000	17,096000
1655,000000	17,097700
1654,000000	17,110900
1653,000000	17,117100
1652,000000	17,129200
1651,000000	17,120300
1650,000000	17,121800
1649,000000	17,107500
1648,000000	17,074200
1647,000000	17,072600
1646,000000	17,023600
1645,000000	16,997000
1644,000000	16,980600
1643,000000	16,935500
1642,000000	16,921500
1641,000000	16,892000
1640,000000	16,842400
1639,000000	16,834800
1638,000000	16,781200
1637,000000	16,731200
1636,000000	16,698100
1635,000000	16,646600
1634,000000	16,608700
1633,000000	16,561100
1632,000000	16,501500
1631,000000	16,467200
1630,000000	16,425700
1629,000000	16,376100
1628,000000	16,301100
1627,000000	16,254400
1626,000000	16,213000
1625,000000	16,150000
1624,000000	16,094400
1623,000000	16,048400
1622,000000	15,988500
1621,000000	15,928700
1620,000000	15,885500
1619,000000	15,847000
1618,000000	15,798400
1617,000000	15,756800
1616,000000	15,703500
1615,000000	15,643100
1614,000000	15,605900
1613,000000	15,556100
1612,000000	15,508400
1611,000000	15,434000
1610,000000	15,408000
1609,000000	15,365900
1608,000000	15,310500
1607,000000	15,250700
1606,000000	15,223200
1605,000000	15,159900
1604,000000	15,107100
1603,000000	15,053700
1602,000000	14,999800
1601,000000	14,958600
1600,000000	14,918000
1599,000000	14,856400
1598,000000	14,782800
1597,000000	14,748900
1596,000000	14,693700
1595,000000	14,642400
1594,000000	14,593100
1593,000000	14,547900
1592,000000	14,491400
1591,000000	14,464200
1590,000000	14,418600
1589,000000	14,370100
1588,000000	14,334900
1587,000000	14,281100
1586,000000	14,233200
1585,000000	14,203400
1584,000000	14,168800
1583,000000	14,122200
1582,000000	14,101000
1581,000000	14,056500
1580,000000	14,029800
1579,000000	14,009500
1578,000000	13,974000
1577,000000	13,946100
1576,000000	13,927400
1575,000000	13,902100
1574,000000	13,869400
1573,000000	13,856000
1572,000000	13,851500
1571,000000	13,836500
1570,000000	13,816600
1569,000000	13,794500
1568,000000	13,798000
1567,000000	13,771100
1566,000000	13,759600
1565,000000	13,754600
1564,000000	13,757400
1563,000000	13,749400
1562,000000	13,741700
1561,000000	13,729500
1560,000000	13,721000
1559,000000	13,712000
1558,000000	13,671400
1557,000000	13,653100
1556,000000	13,642100
1555,000000	13,617200
1554,000000	13,587600
1553,000000	13,561000
1552,000000	13,539300
1551,000000	13,503700
1550,000000	13,456000
1549,000000	13,430000
1548,000000	13,410200
1547,000000	13,378900
1546,000000	13,335500
1545,000000	13,310300
1544,000000	13,277100
1543,000000	13,243400
1542,000000	13,223000
1541,000000	13,198500
1540,000000	13,167300
1539,000000	13,147500
1538,000000	13,128000
1537,000000	13,113800
1536,000000	13,081200
1535,000000	13,040000
1534,000000	13,016300
1533,000000	13,001600
1532,000000	12,980400
1531,000000	12,940700
1530,000000	12,921900
1529,000000	12,886900
1528,000000	12,849900
1527,000000	12,813700
1526,000000	12,772600
1525,000000	12,748300
1524,000000	12,722400
1523,000000	12,674300
1522,000000	12,632400
1521,000000	12,605700
1520,000000	12,569200
1519,000000	12,535300
1518,000000	12,488800
1517,000000	12,440400
1516,000000	12,400900
1515,000000	12,348800
1514,000000	12,319000
1513,000000	12,286300
1512,000000	12,237900
1511,000000	12,208500
1510,000000	12,170200
1509,000000	12,121700
1508,000000	12,085900
1507,000000	12,044900
1506,000000	11,991900
1505,000000	11,943100
1504,000000	11,899000
1503,000000	11,854800
1502,000000	11,817600
1501,000000	11,781500
1500,000000	11,742500
1499,000000	11,707800
1498,000000	11,668500
1497,000000	11,639400
1496,000000	11,600200
1495,000000	11,573300
1494,000000	11,549300
1493,000000	11,511300
1492,000000	11,494600
1491,000000	11,463700
1490,000000	11,446100
1489,000000	11,438800
1488,000000	11,405700
1487,000000	11,387600
1486,000000	11,371800
1485,000000	11,336800
1484,000000	11,326200
1483,000000	11,295100
1482,000000	11,285700
1481,000000	11,270600
1480,000000	11,246700
1479,000000	11,223500
1478,000000	11,216600
1477,000000	11,221000
1476,000000	11,205800
1475,000000	11,201300
1474,000000	11,205400
1473,000000	11,193900
1472,000000	11,211600
1471,000000	11,206700
1470,000000	11,200100
1469,000000	11,202900
1468,000000	11,189000
1467,000000	11,192500
1466,000000	11,208700
1465,000000	11,206700
1464,000000	11,216500
1463,000000	11,223500
1462,000000	11,242200
1461,000000	11,261900
1460,000000	11,279700
1459,000000	11,287500
1458,000000	11,306900
1457,000000	11,334000
1456,000000	11,366400
1455,000000	11,398200
1454,000000	11,424900
1453,000000	11,465900
1452,000000	11,493300
1451,000000	11,534500
1450,000000	11,566000
1449,000000	11,587000
1448,000000	11,613100
1447,000000	11,663400
1446,000000	11,718400
1445,000000	11,778500
1444,000000	11,808900
1443,000000	11,850700
1442,000000	11,885900
1441,000000	11,931900
1440,000000	11,986400
1439,000000	12,039100
1438,000000	12,110700
1437,000000	12,178700
1436,000000	12,224500
1435,000000	12,287600
1434,000000	12,349200
1433,000000	12,412700
1432,000000	12,494400
1431,000000	12,573100
1430,000000	12,667000
1429,000000	12,733300
1428,000000	12,810800
1427,000000	12,917400
1426,000000	13,007900
1425,000000	13,126300
1424,000000	13,246100
1423,000000	13,373500
1422,000000	13,472100
1421,000000	13,600000
1420,000000	13,752800
1419,000000	13,893100
1418,000000	14,028600
1417,000000	14,192000
1416,000000	14,342000
1415,000000	14,525400
1414,000000	14,712800
1413,000000	14,915900
1412,000000	15,118100
1411,000000	15,304900
1410,000000	15,522500
1409,000000	15,777700
1408,000000	16,037600
1407,000000	16,317800
1406,000000	16,599400
1405,000000	16,866800
1404,000000	17,203700
1403,000000	17,494600
1402,000000	17,829300
1401,000000	18,122300
1400,000000	18,494000
1399,000000	18,865700
1398,000000	19,197700
1397,000000	19,463700
1396,000000	19,758500
1395,000000	20,181100
1394,000000	20,567700
1393,000000	20,894700
1392,000000	21,201800
1391,000000	21,609300
1390,000000	22,032800
1389,000000	22,404200
1388,000000	22,828200
1387,000000	23,373400
1386,000000	23,847800
1385,000000	24,362200
1384,000000	24,831600
1383,000000	25,390200
1382,000000	25,949600
1381,000000	26,486000
1380,000000	26,964300
1379,000000	27,336300
1378,000000	27,644900
1377,000000	27,939200
1376,000000	28,201500
1375,000000	28,448100
1374,000000	28,691900
1373,000000	28,928600
1372,000000	29,233700
1371,000000	29,536200
1370,000000	29,897000
1369,000000	30,183900
1368,000000	30,488600
1367,000000	30,762000
1366,000000	31,046700
1365,000000	31,274500
1364,000000	31,494200
1363,000000	31,683600
1362,000000	31,886200
1361,000000	32,069200
1360,000000	32,266100
1359,000000	32,383000
1358,000000	32,532400
1357,000000	32,644000
1356,000000	32,810200
1355,000000	32,999900
1354,000000	33,272200
1353,000000	33,608900
1352,000000	33,904400
1351,000000	34,323800
1350,000000	34,739200
1349,000000	35,153900
1348,000000	35,542800
1347,000000	35,922700
1346,000000	36,310400
1345,000000	36,648200
1344,000000	36,974700
1343,000000	37,363800
1342,000000	37,703900
1341,000000	38,011000
1340,000000	38,355200
1339,000000	38,707000
1338,000000	39,033400
1337,000000	39,359100
1336,000000	39,674500
1335,000000	40,006400
1334,000000	40,311600
1333,000000	40,641900
1332,000000	40,970600
1331,000000	41,257700
1330,000000	41,564600
1329,000000	41,860100
1328,000000	42,159200
1327,000000	42,456400
1326,000000	42,732200
1325,000000	42,990500
1324,000000	43,240600
1323,000000	43,513500
1322,000000	43,748200
1321,000000	43,974700
1320,000000	44,199600
1319,000000	44,438800
1318,000000	44,645100
1317,000000	44,855700
1316,000000	45,090700
1315,000000	45,280600
1314,000000	45,464300
1313,000000	45,657200
1312,000000	45,836300
1311,000000	45,993100
1310,000000	46,164600
1309,000000	46,320900
1308,000000	46,453900
1307,000000	46,600600
1306,000000	46,711600
1305,000000	46,831300
1304,000000	46,947600
1303,000000	47,050000
1302,000000	47,143800
1301,000000	47,233000
1300,000000	47,309100
1299,000000	47,381300
1298,000000	47,430700
1297,000000	47,484800
1296,000000	47,535400
1295,000000	47,589500
1294,000000	47,633200
1293,000000	47,683600
1292,000000	47,714400
1291,000000	47,742400
1290,000000	47,753300
1289,000000	47,756800
1288,000000	47,768200
1287,000000	47,763900
1286,000000	47,756600
1285,000000	47,734900
1284,000000	47,701600
1283,000000	47,674500
1282,000000	47,641100
1281,000000	47,601100
1280,000000	47,570100
1279,000000	47,535600
1278,000000	47,488400
1277,000000	47,446700
1276,000000	47,417500
1275,000000	47,386000
1274,000000	47,352100
1273,000000	47,325100
1272,000000	47,303200
1271,000000	47,290900
1270,000000	47,289800
1269,000000	47,265600
1268,000000	47,237600
1267,000000	47,202000
1266,000000	47,177100
1265,000000	47,154600
1264,000000	47,113200
1263,000000	47,081100
1262,000000	47,044600
1261,000000	47,004600
1260,000000	46,951000
1259,000000	46,904000
1258,000000	46,861500
1257,000000	46,813800
1256,000000	46,760000
1255,000000	46,693600
1254,000000	46,626700
1253,000000	46,563400
1252,000000	46,488200
1251,000000	46,407100
1250,000000	46,326000
1249,000000	46,225300
1248,000000	46,116100
1247,000000	46,016200
1246,000000	45,921000
1245,000000	45,808400
1244,000000	45,670600
1243,000000	45,553900
1242,000000	45,437300
1241,000000	45,305000
1240,000000	45,173800
1239,000000	45,040000
1238,000000	44,902000
1237,000000	44,777500
1236,000000	44,640300
1235,000000	44,498800
1234,000000	44,363500
1233,000000	44,211700
1232,000000	44,054600
1231,000000	43,901000
1230,000000	43,733900
1229,000000	43,561100
1228,000000	43,378900
1227,000000	43,188200
1226,000000	43,007900
1225,000000	42,809200
1224,000000	42,603100
1223,000000	42,409100
1222,000000	42,213400
1221,000000	42,006200
1220,000000	41,798200
1219,000000	41,596700
1218,000000	41,391600
1217,000000	41,204600
1216,000000	41,024400
1215,000000	40,842000
1214,000000	40,661000
1213,000000	40,495000
1212,000000	40,340500
1211,000000	40,189800
1210,000000	40,065600
1209,000000	39,927200
1208,000000	39,805400
1207,000000	39,693400
1206,000000	39,563600
1205,000000	39,463500
1204,000000	39,376400
1203,000000	39,318600
1202,000000	39,254300
1201,000000	39,190200
1200,000000	39,133300
1199,000000	39,075700
1198,000000	39,010800
1197,000000	38,926700
1196,000000	38,836700
1195,000000	38,708600
1194,000000	38,527200
1193,000000	38,323000
1192,000000	38,097700
1191,000000	37,837700
1190,000000	37,538600
1189,000000	37,240100
1188,000000	36,964900
1187,000000	36,727700
1186,000000	36,577400
1185,000000	36,512200
1184,000000	36,526300
1183,000000	36,634300
1182,000000	36,858000
1181,000000	37,165700
1180,000000	37,537900
1179,000000	37,950300
1178,000000	38,347200
1177,000000	38,730800
1176,000000	39,111300
1175,000000	39,452500
1174,000000	39,747900
1173,000000	40,029000
1172,000000	40,296700
1171,000000	40,576700
1170,000000	40,864800
1169,000000	41,167300
1168,000000	41,477300
1167,000000	41,786100
1166,000000	42,093900
1165,000000	42,436500
1164,000000	42,789700
1163,000000	43,145600
1162,000000	43,523200
1161,000000	43,908700
1160,000000	44,289600
1159,000000	44,686100
1158,000000	45,092800
1157,000000	45,475100
1156,000000	45,826300
1155,000000	46,178800
1154,000000	46,492400
1153,000000	46,798100
1152,000000	47,068900
1151,000000	47,299300
1150,000000	47,507900
1149,000000	47,717400
1148,000000	47,919900
1147,000000	48,114200
1146,000000	48,352900
1145,000000	48,625300
1144,000000	48,930000
1143,000000	49,265800
1142,000000	49,649000
1141,000000	50,089500
1140,000000	50,546700
1139,000000	51,020300
1138,000000	51,510500
1137,000000	52,014500
1136,000000	52,538800
1135,000000	53,092800
1134,000000	53,678300
1133,000000	54,241500
1132,000000	54,706100
1131,000000	55,190600
1130,000000	55,586900
1129,000000	55,957500
1128,000000	56,299500
1127,000000	56,589600
1126,000000	56,823600
1125,000000	57,034000
1124,000000	57,192800
1123,000000	57,347800
1122,000000	57,454000
1121,000000	57,555500
1120,000000	57,639900
1119,000000	57,714900
1118,000000	57,786000
1117,000000	57,832300
1116,000000	57,865900
1115,000000	57,880200
1114,000000	57,890100
1113,000000	57,888700
1112,000000	57,908400
1111,000000	57,909700
1110,000000	57,899400
1109,000000	57,930800
1108,000000	57,912800
1107,000000	57,923800
1106,000000	57,918500
1105,000000	57,913100
1104,000000	57,915200
1103,000000	57,930800
1102,000000	57,918000
1101,000000	57,898500
1100,000000	57,903000
1099,000000	57,905800
1098,000000	57,888900
1097,000000	57,861900
1096,000000	57,878100
1095,000000	57,846000
1094,000000	57,811800
1093,000000	57,794000
1092,000000	57,756000
1091,000000	57,725200
1090,000000	57,690000
1089,000000	57,653300
1088,000000	57,589200
1087,000000	57,555900
1086,000000	57,492200
1085,000000	57,451400
1084,000000	57,404400
1083,000000	57,321500
1082,000000	57,277200
1081,000000	57,209200
1080,000000	57,167700
1079,000000	57,071300
1078,000000	57,052100
1077,000000	56,966300
1076,000000	56,898800
1075,000000	56,826300
1074,000000	56,765000
1073,000000	56,696300
1072,000000	56,640900
1071,000000	56,555500
1070,000000	56,459200
1069,000000	56,389100
1068,000000	56,319400
1067,000000	56,250000
1066,000000	56,156600
1065,000000	56,063600
1064,000000	56,006900
1063,000000	55,924200
1062,000000	55,831400
1061,000000	55,757300
1060,000000	55,660400
1059,000000	55,586300
1058,000000	55,501200
1057,000000	55,388500
1056,000000	55,292500
1055,000000	55,208500
1054,000000	55,108900
1053,000000	54,989700
1052,000000	54,909000
1051,000000	54,834000
1050,000000	54,738700
1049,000000	54,661300
1048,000000	54,560200
1047,000000	54,462700
1046,000000	54,378400
1045,000000	54,308200
1044,000000	54,226800
1043,000000	54,145500
1042,000000	54,051100
1041,000000	53,966900
1040,000000	53,885300
1039,000000	53,794100
1038,000000	53,714800
1037,000000	53,638100
1036,000000	53,537700
1035,000000	53,445500
1034,000000	53,335600
1033,000000	53,250000
1032,000000	53,151400
1031,000000	53,053500
1030,000000	52,966500
1029,000000	52,859600
1028,000000	52,739000
1027,000000	52,632800
1026,000000	52,543400
1025,000000	52,426500
1024,000000	52,306200
1023,000000	52,208300
1022,000000	52,101200
1021,000000	51,991000
1020,000000	51,894300
1019,000000	51,777800
1018,000000	51,660700
1017,000000	51,570300
1016,000000	51,471300
1015,000000	51,379600
1014,000000	51,296000
1013,000000	51,202900
1012,000000	51,138100
1011,000000	51,067600
1010,000000	50,997200
1009,000000	50,947700
1008,000000	50,886900
1007,000000	50,827600
1006,000000	50,787000
1005,000000	50,740200
1004,000000	50,704200
1003,000000	50,655500
1002,000000	50,591800
1001,000000	50,555500
1000,000000	50,525900
999,000000	50,470000
998,000000	50,420000
997,000000	50,364900
996,000000	50,324200
995,000000	50,290900
994,000000	50,255600
993,000000	50,207500
992,000000	50,169300
991,000000	50,143100
990,000000	50,115800
989,000000	50,072000
988,000000	50,027700
987,000000	50,001500
986,000000	49,992200
985,000000	49,964700
984,000000	49,920000
983,000000	49,896600
982,000000	49,898100
981,000000	49,884000
980,000000	49,871100
979,000000	49,877100
978,000000	49,855700
977,000000	49,837200
976,000000	49,822900
975,000000	49,826800
974,000000	49,826100
973,000000	49,821000
972,000000	49,821100
971,000000	49,821200
970,000000	49,822400
969,000000	49,823700
968,000000	49,823300
967,000000	49,816100
966,000000	49,816800
965,000000	49,835600
964,000000	49,848500
963,000000	49,860400
962,000000	49,867800
961,000000	49,895700
960,000000	49,923900
959,000000	49,943700
958,000000	49,968200
957,000000	49,982300
956,000000	50,008000
955,000000	50,039500
954,000000	50,057400
953,000000	50,087600
952,000000	50,117600
951,000000	50,148200
950,000000	50,189500
949,000000	50,212700
948,000000	50,222200
947,000000	50,252100
946,000000	50,273500
945,000000	50,278400
944,000000	50,286700
943,000000	50,297700
942,000000	50,300100
941,000000	50,286100
940,000000	50,279600
939,000000	50,280800
938,000000	50,264500
937,000000	50,244500
936,000000	50,225800
935,000000	50,207300
934,000000	50,208700
933,000000	50,196800
932,000000	50,181200
931,000000	50,159500
930,000000	50,140700
929,000000	50,123700
928,000000	50,096700
927,000000	50,064500
926,000000	50,049800
925,000000	50,028200
924,000000	50,003900
923,000000	49,980500
922,000000	49,935900
921,000000	49,909600
920,000000	49,884100
919,000000	49,846800
918,000000	49,826900
917,000000	49,787000
916,000000	49,735400
915,000000	49,690400
914,000000	49,640400
913,000000	49,593700
912,000000	49,556400
911,000000	49,514100
910,000000	49,489700
909,000000	49,454200
908,000000	49,422000
907,000000	49,380500
906,000000	49,349800
905,000000	49,343500
904,000000	49,337200
903,000000	49,338800
902,000000	49,334400
901,000000	49,333300
900,000000	49,336300
899,000000	49,351200
898,000000	49,362900
897,000000	49,343800
896,000000	49,341300
895,000000	49,341900
894,000000	49,352600
893,000000	49,333600
892,000000	49,318900
891,000000	49,316000
890,000000	49,309900
889,000000	49,303200
888,000000	49,279900
887,000000	49,272800
886,000000	49,257200
885,000000	49,230700
884,000000	49,212500
883,000000	49,208400
882,000000	49,162500
881,000000	49,129600
880,000000	49,108700
879,000000	49,067200
878,000000	49,017900
877,000000	48,948500
876,000000	48,893200
875,000000	48,846100
874,000000	48,755400
873,000000	48,659100
872,000000	48,572300
871,000000	48,537000
870,000000	48,545300
869,000000	48,586000
868,000000	48,626000
867,000000	48,634300
866,000000	48,675800
865,000000	48,689900
864,000000	48,699100
863,000000	48,728500
862,000000	48,762800
861,000000	48,794700
860,000000	48,802100
859,000000	48,818400
858,000000	48,830300
857,000000	52,580800
856,000000	53,702000
855,000000	53,806700
854,000000	53,700400
853,000000	53,498300
852,000000	54,130700
851,000000	54,052500
850,000000	53,403100
849,000000	53,785800
848,000000	53,889300
847,000000	53,912400
846,000000	53,758300
845,000000	53,572800
844,000000	53,788200
843,000000	53,509700
842,000000	53,707900
841,000000	53,642300
840,000000	53,646000
839,000000	53,729000
838,000000	53,661800
837,000000	53,619800
836,000000	53,398200
835,000000	53,335700
834,000000	53,544500
833,000000	53,394300
832,000000	53,362900
831,000000	53,396900
830,000000	53,198000
829,000000	53,129300
828,000000	53,181400
827,000000	53,051500
826,000000	53,072300
825,000000	53,065700
824,000000	53,046700
823,000000	52,800700
822,000000	52,690600
821,000000	52,667000
820,000000	52,668700
819,000000	52,500300
818,000000	52,639200
817,000000	52,457100
816,000000	52,305400
815,000000	52,204900
814,000000	52,203800
813,000000	51,988100
812,000000	51,994300
811,000000	51,956800
810,000000	51,868700
809,000000	51,608700
808,000000	51,577200
807,000000	51,535600
806,000000	51,440000
805,000000	51,391700
804,000000	51,280100
803,000000	51,141900
802,000000	51,100700
801,000000	50,960100
800,000000	50,752300
799,000000	50,652600
798,000000	50,486000
797,000000	50,355100
796,000000	50,136700
795,000000	50,068600
794,000000	49,904500
793,000000	49,974000
792,000000	49,712400
791,000000	49,489200
790,000000	49,419600
789,000000	49,418000
788,000000	49,154600
787,000000	49,123200
786,000000	49,055900
785,000000	48,700000
784,000000	48,652900
783,000000	48,466200
782,000000	48,273700
781,000000	48,216000
780,000000	48,118300
779,000000	47,899400
778,000000	47,639300
777,000000	47,576600
776,000000	47,319100
775,000000	47,277100
774,000000	47,137400
773,000000	46,928400
772,000000	46,750300
771,000000	46,669000
770,000000	46,416400
769,000000	46,358800
768,000000	46,129600
767,000000	45,927800
766,000000	45,763100
765,000000	45,565800
764,000000	45,498500
763,000000	45,242300
762,000000	45,044400
761,000000	44,895400
760,000000	44,686800
759,000000	44,445800
758,000000	44,239300
757,000000	44,088500
756,000000	43,856100
755,000000	43,588800
754,000000	43,430600
753,000000	43,181700
752,000000	43,031900
751,000000	42,876900
750,000000	42,669300
749,000000	42,418400
748,000000	42,285000
747,000000	41,980600
746,000000	41,729800
745,000000	41,587000
744,000000	41,282200
743,000000	41,083000
742,000000	40,867000
741,000000	40,532700
740,000000	40,335700
739,000000	40,102200
738,000000	39,833300
737,000000	39,676600
736,000000	39,358600
735,000000	39,082400
734,000000	38,915600
733,000000	38,693300
732,000000	38,529100
731,000000	38,226300
730,000000	37,964100
729,000000	37,727700
728,000000	37,504600
727,000000	37,253900
726,000000	37,018300
725,000000	36,831700
724,000000	36,593600
723,000000	36,313700
722,000000	36,065100
721,000000	35,813300
720,000000	35,561600
719,000000	35,332200
718,000000	35,070700
717,000000	34,916000
716,000000	34,699800
715,000000	34,436500
714,000000	34,180700
713,000000	33,926000
712,000000	33,701400
711,000000	33,485500
710,000000	33,256700
709,000000	32,991000
708,000000	32,821400
707,000000	32,617800
706,000000	32,379500
705,000000	32,173200
704,000000	31,965600
703,000000	31,765200
702,000000	31,517900
701,000000	31,308200
700,000000	31,145500
699,000000	30,973000
698,000000	30,775000
697,000000	30,553600
696,000000	30,369100
695,000000	30,198400
694,000000	30,022300
693,000000	29,844300
692,000000	29,684200
691,000000	29,509100
690,000000	29,379900
689,000000	29,207200
688,000000	29,017100
687,000000	28,838300
686,000000	28,721900
685,000000	28,563200
684,000000	28,422000
683,000000	28,281500
682,000000	28,122400
681,000000	27,976000
680,000000	27,862200
679,000000	27,742100
678,000000	27,600000
677,000000	27,476800
676,000000	27,353500
675,000000	27,213300
674,000000	27,079400
673,000000	26,981000
672,000000	26,866200
671,000000	26,727700
670,000000	26,612600
669,000000	26,487000
668,000000	26,388600
667,000000	26,282500
666,000000	26,182100
665,000000	26,084900
664,000000	25,999100
663,000000	25,897000
662,000000	25,817200
661,000000	25,742800
660,000000	25,641300
659,000000	25,548200
658,000000	25,445400
657,000000	25,362500
656,000000	25,285800
655,000000	25,197600
654,000000	25,128400
653,000000	25,062500
652,000000	24,991900
651,000000	24,916700
650,000000	24,833100
649,000000	24,768300
648,000000	24,707100
647,000000	24,650000
646,000000	24,587400
645,000000	24,527200
644,000000	24,461300
643,000000	24,386300
642,000000	24,315900
641,000000	24,252800
640,000000	24,201200
639,000000	24,152800
638,000000	24,112600
637,000000	24,069100
636,000000	24,026800
635,000000	23,983800
634,000000	23,953300
633,000000	23,927800
632,000000	23,895200
631,000000	23,861100
630,000000	23,839200
629,000000	23,825300
628,000000	23,814700
627,000000	23,802700
626,000000	23,803000
625,000000	23,806200
624,000000	23,802100
623,000000	23,815300
622,000000	23,824400
621,000000	23,831200
620,000000	23,858900
619,000000	23,881200
618,000000	23,882500
617,000000	23,926500
616,000000	23,962100
615,000000	23,994100
614,000000	24,043600
613,000000	24,084000
612,000000	24,119400
611,000000	24,174600
610,000000	24,230800
609,000000	24,261800
608,000000	24,292900
607,000000	24,344000
606,000000	24,398200
605,000000	24,446300
604,000000	24,485900
603,000000	24,538900
602,000000	24,578100
601,000000	24,623400
600,000000	24,683700
599,000000	24,718400
598,000000	24,755000
597,000000	24,789300
596,000000	24,831300
595,000000	24,871000
594,000000	24,888100
593,000000	24,902000
592,000000	24,911300
591,000000	24,946400
590,000000	24,971400
589,000000	24,974600
588,000000	24,974900
587,000000	24,981200
586,000000	24,981500
585,000000	24,950800
584,000000	24,960300
583,000000	24,934300
582,000000	24,903700
581,000000	24,893300
580,000000	24,869400
579,000000	24,828200
578,000000	24,797500
577,000000	24,773500
576,000000	24,711500
575,000000	24,667100
574,000000	24,615400
573,000000	24,542100
572,000000	24,463100
571,000000	24,393300
570,000000	24,331700
569,000000	24,251400
568,000000	24,163300
567,000000	24,080200
566,000000	23,977700
565,000000	23,871800
564,000000	23,765300
563,000000	23,656600
562,000000	23,510000
561,000000	23,386900
560,000000	23,269400
559,000000	23,123800
558,000000	22,980000
557,000000	22,842600
556,000000	22,685800
555,000000	22,545800
554,000000	22,387300
553,000000	22,184400
552,000000	22,007900
551,000000	21,826800
550,000000	21,631900
549,000000	21,447400
548,000000	21,257500
547,000000	21,059200
546,000000	20,864100
545,000000	20,653400
544,000000	20,434100
543,000000	20,212100
542,000000	19,998700
541,000000	19,792900
540,000000	19,577100
539,000000	19,350200
538,000000	19,127500
537,000000	18,901500
536,000000	18,679500
535,000000	18,445000
534,000000	18,215000
533,000000	17,972000
532,000000	17,737200
531,000000	17,507500
530,000000	17,265900
529,000000	17,039400
528,000000	16,803600
527,000000	16,578400
526,000000	16,348700
525,000000	16,120100
524,000000	15,895200
523,000000	15,664300
522,000000	15,458900
521,000000	15,227100
520,000000	15,032100
519,000000	14,843700
518,000000	14,634700
517,000000	14,449300
516,000000	14,255300
515,000000	14,053500
514,000000	13,895700
513,000000	13,723100
512,000000	13,557500
511,000000	13,395900
510,000000	13,251900
509,000000	13,087500
508,000000	12,956100
507,000000	12,803300
506,000000	12,677700
505,000000	12,537100
504,000000	12,440700
503,000000	12,311400
502,000000	12,190000
501,000000	12,089000
500,000000	11,949700
499,000000	11,866600
498,000000	11,764400
497,000000	11,689600
496,000000	11,602100
495,000000	11,515300
494,000000	11,415200
493,000000	11,362800
492,000000	11,282800
491,000000	11,213600
490,000000	11,144500
489,000000	11,087200
488,000000	11,036000
487,000000	10,953500
486,000000	10,894500
485,000000	10,834900
484,000000	10,795000
483,000000	10,737300
482,000000	10,669200
481,000000	10,611800
480,000000	10,552800
479,000000	10,486000
478,000000	10,430900
477,000000	10,361400
476,000000	10,279800
475,000000	10,242700
474,000000	10,187600
473,000000	10,124700
472,000000	10,071800
471,000000	10,010900
470,000000	9,960200
469,000000	9,896600
468,000000	9,859500
467,000000	9,830400
466,000000	9,763700
465,000000	9,715700
464,000000	9,679000
463,000000	9,642300
462,000000	9,605200
461,000000	9,553500
460,000000	9,517600
459,000000	9,452200
458,000000	9,418700
457,000000	9,393700
456,000000	9,321600
455,000000	9,299900
454,000000	9,255200
453,000000	9,202000
452,000000	9,160700
451,000000	9,094300
450,000000	9,068000
449,000000	9,005700
448,000000	8,949700
447,000000	8,896000
446,000000	8,862700
445,000000	8,801300
444,000000	8,730000
443,000000	8,675200
442,000000	8,612000
441,000000	8,534500
440,000000	8,473300
439,000000	8,415400
438,000000	8,347300
437,000000	8,305200
436,000000	8,218600
435,000000	8,142100
434,000000	8,085600
433,000000	7,998000
432,000000	7,906400
431,000000	7,846000
430,000000	7,757600
429,000000	7,698000
428,000000	7,639700
427,000000	7,562400
426,000000	7,478200
425,000000	7,417100
424,000000	7,341000
423,000000	7,272300
422,000000	7,192000
421,000000	7,117200
420,000000	7,065200
419,000000	6,999600
418,000000	6,926800
417,000000	6,845800
416,000000	6,767800
415,000000	6,705700
414,000000	6,634700
413,000000	6,579100
412,000000	6,499300
411,000000	6,435400
410,000000	6,385200
409,000000	6,319100
408,000000	6,245800
407,000000	6,191700
406,000000	6,139400
405,000000	6,063700
404,000000	6,006100
403,000000	5,949400
402,000000	5,910200
401,000000	5,857000
400,000000	5,782400
399,000000	5,748700
398,000000	5,686400
397,000000	5,623200
396,000000	5,577700
395,000000	5,525100
394,000000	5,483200
393,000000	5,434200
392,000000	5,390900
391,000000	5,347200
390,000000	5,291900
389,000000	5,252000
388,000000	5,225100
387,000000	5,181700
386,000000	5,133300
385,000000	5,098900
384,000000	5,060500
383,000000	5,053600
382,000000	5,040500
381,000000	4,996300
380,000000	4,938600
379,000000	4,910800
378,000000	4,885000
377,000000	4,869400
376,000000	4,839400
375,000000	4,657800
374,000000	4,328300
373,000000	4,246000
372,000000	4,340800
371,000000	4,506700
370,000000	4,621400
369,000000	4,682300
368,000000	4,576500
367,000000	4,674200
366,000000	4,639300
365,000000	4,502900
364,000000	4,511700
363,000000	4,463300
362,000000	4,555800
361,000000	4,618300
360,000000	4,636500
359,000000	4,454100
358,000000	4,454100
357,000000	4,602600
356,000000	4,576800
355,000000	4,637300
354,000000	4,639700
353,000000	4,543500
352,000000	4,541300
351,000000	4,594700
350,000000	4,708700
349,000000	4,703600
348,000000	4,488800
347,000000	4,423100
346,000000	4,491100
345,000000	4,547000
344,000000	4,646500
343,000000	4,513000
342,000000	4,453500
341,000000	4,641200
340,000000	4,692800
339,000000	4,785400
338,000000	4,839900
337,000000	4,619600
336,000000	4,461900
335,000000	4,461000
334,000000	4,498000
333,000000	4,727600
332,000000	5,083500
331,000000	4,792600
330,000000	4,549000
329,000000	4,819800
328,000000	4,840100
327,000000	4,994000
326,000000	5,248400
325,000000	5,146000
324,000000	4,831000
323,000000	4,931800
322,000000	5,585300
321,000000	5,723300
320,000000	5,552300
319,000000	5,038900
318,000000	5,069200
317,000000	5,727200
316,000000	5,116100
315,000000	4,457600
314,000000	4,468000
313,000000	4,466900
312,000000	4,436200
311,000000	4,452000
310,000000	4,433500
309,000000	4,479100
308,000000	4,537000
307,000000	4,520000
306,000000	4,495400
305,000000	4,462800
304,000000	4,469700
303,000000	4,500700
302,000000	4,463000
301,000000	4,500000
300,000000	4,516100
299,000000	4,480200
298,000000	4,486600
297,000000	4,483000
296,000000	4,468100
295,000000	4,490600
294,000000	4,532600
293,000000	4,540200
292,000000	4,532000
291,000000	4,538000
290,000000	4,544500
289,000000	4,531300
288,000000	4,507700
287,000000	4,515700
286,000000	4,526300
285,000000	4,560800
284,000000	4,554600
283,000000	4,545400
282,000000	4,543800
281,000000	4,574900
280,000000	4,599600
279,000000	4,636500
278,000000	4,614200
277,000000	4,614000
276,000000	4,634300
275,000000	4,663400
274,000000	4,629700
273,000000	4,671100
272,000000	4,705300
271,000000	4,659900
270,000000	4,693600
269,000000	4,709600
268,000000	4,713100
267,000000	4,739200
266,000000	4,780000
265,000000	4,764600
264,000000	4,785400
263,000000	4,843300
262,000000	4,867100
261,000000	4,835900
260,000000	4,841700
259,000000	4,899900
258,000000	4,874200
257,000000	4,947200
256,000000	4,976900
255,000000	4,957600
254,000000	4,985800
253,000000	4,981000
252,000000	4,975200
251,000000	5,020900
250,000000	5,031600
