PE UV       SUBTECH     SPECTRUM    ASCII       PEDS        4.00        
   -1
CICIMAUCR0261-2.ASC
24/07/01
15:47:14.00
24/07/01
15:47:14.00
Vinicio Soto Monge
C. resplendens. Sex M. Ventral
250,000000
1
Lambda 1050
1050L1511233
PerkinElmer UV WinLab 6.3.2.0749 / 2.02.05 Lambda 900 UV/VIS/NIR, Aug  7 2015 09:38:08

0
0
3350/servo 860,8/2
0
0
UV/VIS
1
1
1
DoubleDePol,CommonBeamDepol,RBeamAtt,SBeamAtt,60mm sphere, WB InGaAs Detector
0
0
0
0
Program
Program
3350/servo 860,8/2
3350/0,2 860,8/0,2
3350/0,2 860,8/0,2
0
15.00
 
 
 
0
 
860,8
319,2
860,8
Front
100
on
S:100 R:100
0
0
0
0
 
0
 
 
 
0
 
 
0
0
0
0
0
 
 
 
 
0
0


0
0
#HDR
-1
-1
#GR
nm
%R
1.0
0.0
2500,000000
-1,000000
2251
8
48,614900
4,728300
#DATA
2500,000000	6,135000
2499,000000	6,109000
2498,000000	6,062100
2497,000000	6,117000
2496,000000	6,023600
2495,000000	6,001700
2494,000000	6,048600
2493,000000	5,993000
2492,000000	6,101500
2491,000000	5,980900
2490,000000	6,007700
2489,000000	5,982000
2488,000000	5,903300
2487,000000	5,902000
2486,000000	5,926300
2485,000000	5,969800
2484,000000	5,980800
2483,000000	5,933000
2482,000000	5,887000
2481,000000	5,871500
2480,000000	5,895000
2479,000000	5,943800
2478,000000	5,885400
2477,000000	5,894900
2476,000000	5,923400
2475,000000	5,868600
2474,000000	5,826200
2473,000000	5,858300
2472,000000	5,859200
2471,000000	5,865000
2470,000000	5,867400
2469,000000	5,870000
2468,000000	5,853400
2467,000000	5,856500
2466,000000	5,880300
2465,000000	5,906600
2464,000000	5,900800
2463,000000	5,875200
2462,000000	5,883300
2461,000000	5,870800
2460,000000	5,866100
2459,000000	5,870400
2458,000000	5,886600
2457,000000	5,903200
2456,000000	5,942000
2455,000000	5,923100
2454,000000	5,939100
2453,000000	5,926300
2452,000000	5,955900
2451,000000	5,964600
2450,000000	6,009100
2449,000000	6,006100
2448,000000	6,028900
2447,000000	6,039300
2446,000000	6,033000
2445,000000	6,067100
2444,000000	6,055800
2443,000000	6,113200
2442,000000	6,105300
2441,000000	6,142000
2440,000000	6,171300
2439,000000	6,188000
2438,000000	6,185500
2437,000000	6,215100
2436,000000	6,223200
2435,000000	6,230400
2434,000000	6,246700
2433,000000	6,268400
2432,000000	6,272800
2431,000000	6,294600
2430,000000	6,309900
2429,000000	6,333000
2428,000000	6,332900
2427,000000	6,345800
2426,000000	6,365900
2425,000000	6,369600
2424,000000	6,396400
2423,000000	6,417000
2422,000000	6,421200
2421,000000	6,445800
2420,000000	6,449200
2419,000000	6,460900
2418,000000	6,456300
2417,000000	6,473200
2416,000000	6,493000
2415,000000	6,511200
2414,000000	6,512500
2413,000000	6,517600
2412,000000	6,522600
2411,000000	6,553000
2410,000000	6,565700
2409,000000	6,554000
2408,000000	6,574700
2407,000000	6,592000
2406,000000	6,593900
2405,000000	6,610600
2404,000000	6,619000
2403,000000	6,617400
2402,000000	6,627200
2401,000000	6,637400
2400,000000	6,655400
2399,000000	6,680900
2398,000000	6,680200
2397,000000	6,683700
2396,000000	6,711100
2395,000000	6,713700
2394,000000	6,709700
2393,000000	6,723200
2392,000000	6,730800
2391,000000	6,744500
2390,000000	6,747400
2389,000000	6,759900
2388,000000	6,764100
2387,000000	6,775600
2386,000000	6,778900
2385,000000	6,759300
2384,000000	6,765000
2383,000000	6,787000
2382,000000	6,796800
2381,000000	6,795500
2380,000000	6,798500
2379,000000	6,791900
2378,000000	6,792200
2377,000000	6,792300
2376,000000	6,794800
2375,000000	6,795800
2374,000000	6,784900
2373,000000	6,777900
2372,000000	6,781200
2371,000000	6,785700
2370,000000	6,780000
2369,000000	6,763900
2368,000000	6,745800
2367,000000	6,747400
2366,000000	6,752200
2365,000000	6,745600
2364,000000	6,730400
2363,000000	6,716700
2362,000000	6,710500
2361,000000	6,700500
2360,000000	6,689400
2359,000000	6,673500
2358,000000	6,662000
2357,000000	6,663800
2356,000000	6,655900
2355,000000	6,640300
2354,000000	6,629800
2353,000000	6,621700
2352,000000	6,620400
2351,000000	6,611200
2350,000000	6,610700
2349,000000	6,622000
2348,000000	6,623000
2347,000000	6,627200
2346,000000	6,658500
2345,000000	6,673300
2344,000000	6,671500
2343,000000	6,684900
2342,000000	6,683700
2341,000000	6,683200
2340,000000	6,702100
2339,000000	6,719700
2338,000000	6,724800
2337,000000	6,736900
2336,000000	6,746900
2335,000000	6,729700
2334,000000	6,723300
2333,000000	6,734700
2332,000000	6,728300
2331,000000	6,710300
2330,000000	6,712700
2329,000000	6,710500
2328,000000	6,692900
2327,000000	6,678300
2326,000000	6,672600
2325,000000	6,649800
2324,000000	6,644700
2323,000000	6,630700
2322,000000	6,604100
2321,000000	6,583800
2320,000000	6,564200
2319,000000	6,534800
2318,000000	6,506200
2317,000000	6,472200
2316,000000	6,462600
2315,000000	6,430400
2314,000000	6,396000
2313,000000	6,355300
2312,000000	6,347700
2311,000000	6,330800
2310,000000	6,305600
2309,000000	6,284200
2308,000000	6,257900
2307,000000	6,230000
2306,000000	6,230800
2305,000000	6,239100
2304,000000	6,229000
2303,000000	6,230100
2302,000000	6,241000
2301,000000	6,247100
2300,000000	6,257400
2299,000000	6,266000
2298,000000	6,291700
2297,000000	6,309100
2296,000000	6,322100
2295,000000	6,358200
2294,000000	6,391500
2293,000000	6,398700
2292,000000	6,407800
2291,000000	6,422700
2290,000000	6,436200
2289,000000	6,449000
2288,000000	6,461700
2287,000000	6,471800
2286,000000	6,468000
2285,000000	6,456800
2284,000000	6,454900
2283,000000	6,464000
2282,000000	6,444500
2281,000000	6,432500
2280,000000	6,408900
2279,000000	6,404200
2278,000000	6,395200
2277,000000	6,379900
2276,000000	6,367500
2275,000000	6,370800
2274,000000	6,354900
2273,000000	6,340300
2272,000000	6,346500
2271,000000	6,350200
2270,000000	6,338300
2269,000000	6,341000
2268,000000	6,353200
2267,000000	6,383700
2266,000000	6,384100
2265,000000	6,392400
2264,000000	6,432700
2263,000000	6,462800
2262,000000	6,509100
2261,000000	6,550700
2260,000000	6,589800
2259,000000	6,657100
2258,000000	6,720700
2257,000000	6,789900
2256,000000	6,854800
2255,000000	6,908500
2254,000000	6,977700
2253,000000	7,061000
2252,000000	7,112700
2251,000000	7,209400
2250,000000	7,275600
2249,000000	7,327600
2248,000000	7,401000
2247,000000	7,449900
2246,000000	7,530100
2245,000000	7,580900
2244,000000	7,622100
2243,000000	7,664800
2242,000000	7,712700
2241,000000	7,752200
2240,000000	7,779500
2239,000000	7,823500
2238,000000	7,855000
2237,000000	7,878500
2236,000000	7,931200
2235,000000	7,948600
2234,000000	7,980600
2233,000000	7,979500
2232,000000	8,001300
2231,000000	7,997400
2230,000000	8,033700
2229,000000	8,032700
2228,000000	8,041900
2227,000000	8,042800
2226,000000	8,052600
2225,000000	8,054700
2224,000000	8,039600
2223,000000	8,046000
2222,000000	8,039800
2221,000000	8,018600
2220,000000	8,013800
2219,000000	8,016600
2218,000000	8,002800
2217,000000	8,011800
2216,000000	7,977800
2215,000000	7,961600
2214,000000	7,941400
2213,000000	7,945500
2212,000000	7,937900
2211,000000	7,930400
2210,000000	7,915700
2209,000000	7,899700
2208,000000	7,883700
2207,000000	7,873300
2206,000000	7,887500
2205,000000	7,887500
2204,000000	7,884300
2203,000000	7,857700
2202,000000	7,852400
2201,000000	7,854400
2200,000000	7,851100
2199,000000	7,848400
2198,000000	7,829500
2197,000000	7,815700
2196,000000	7,831000
2195,000000	7,817900
2194,000000	7,809100
2193,000000	7,799200
2192,000000	7,796700
2191,000000	7,806400
2190,000000	7,806000
2189,000000	7,797000
2188,000000	7,795400
2187,000000	7,791000
2186,000000	7,784300
2185,000000	7,774200
2184,000000	7,775400
2183,000000	7,779800
2182,000000	7,773200
2181,000000	7,752400
2180,000000	7,740300
2179,000000	7,748300
2178,000000	7,727400
2177,000000	7,742300
2176,000000	7,735200
2175,000000	7,735100
2174,000000	7,750500
2173,000000	7,738100
2172,000000	7,716500
2171,000000	7,744800
2170,000000	7,738300
2169,000000	7,744800
2168,000000	7,733200
2167,000000	7,755100
2166,000000	7,744200
2165,000000	7,739800
2164,000000	7,755400
2163,000000	7,760400
2162,000000	7,776100
2161,000000	7,804800
2160,000000	7,800900
2159,000000	7,820000
2158,000000	7,815800
2157,000000	7,833600
2156,000000	7,860800
2155,000000	7,861800
2154,000000	7,870500
2153,000000	7,884300
2152,000000	7,921800
2151,000000	7,921800
2150,000000	7,941200
2149,000000	7,945200
2148,000000	7,971300
2147,000000	7,985100
2146,000000	7,994300
2145,000000	8,012400
2144,000000	8,026700
2143,000000	8,031900
2142,000000	8,050600
2141,000000	8,068700
2140,000000	8,078200
2139,000000	8,064900
2138,000000	8,083500
2137,000000	8,100500
2136,000000	8,129200
2135,000000	8,141300
2134,000000	8,145500
2133,000000	8,143700
2132,000000	8,145100
2131,000000	8,154900
2130,000000	8,165700
2129,000000	8,153200
2128,000000	8,155600
2127,000000	8,154100
2126,000000	8,141700
2125,000000	8,140600
2124,000000	8,142600
2123,000000	8,166300
2122,000000	8,157800
2121,000000	8,143300
2120,000000	8,133000
2119,000000	8,138700
2118,000000	8,139000
2117,000000	8,116200
2116,000000	8,118500
2115,000000	8,115900
2114,000000	8,100500
2113,000000	8,081000
2112,000000	8,074200
2111,000000	8,051800
2110,000000	8,045200
2109,000000	8,054800
2108,000000	8,035600
2107,000000	8,028900
2106,000000	8,023000
2105,000000	8,005700
2104,000000	7,983300
2103,000000	7,979100
2102,000000	7,975600
2101,000000	7,955200
2100,000000	7,948900
2099,000000	7,952700
2098,000000	7,930500
2097,000000	7,910300
2096,000000	7,904100
2095,000000	7,907800
2094,000000	7,901400
2093,000000	7,877000
2092,000000	7,876600
2091,000000	7,865800
2090,000000	7,870500
2089,000000	7,862200
2088,000000	7,847800
2087,000000	7,846700
2086,000000	7,837900
2085,000000	7,821800
2084,000000	7,799200
2083,000000	7,790200
2082,000000	7,792300
2081,000000	7,791100
2080,000000	7,780600
2079,000000	7,758500
2078,000000	7,746600
2077,000000	7,746300
2076,000000	7,735600
2075,000000	7,732400
2074,000000	7,709200
2073,000000	7,671300
2072,000000	7,665100
2071,000000	7,649500
2070,000000	7,632300
2069,000000	7,615000
2068,000000	7,592700
2067,000000	7,580500
2066,000000	7,578000
2065,000000	7,554400
2064,000000	7,524400
2063,000000	7,502400
2062,000000	7,496900
2061,000000	7,498100
2060,000000	7,487700
2059,000000	7,471100
2058,000000	7,460500
2057,000000	7,450600
2056,000000	7,441700
2055,000000	7,432600
2054,000000	7,439600
2053,000000	7,445100
2052,000000	7,451800
2051,000000	7,443000
2050,000000	7,441800
2049,000000	7,459100
2048,000000	7,478400
2047,000000	7,511900
2046,000000	7,532400
2045,000000	7,534100
2044,000000	7,543300
2043,000000	7,568900
2042,000000	7,612800
2041,000000	7,622300
2040,000000	7,639600
2039,000000	7,660400
2038,000000	7,682900
2037,000000	7,689200
2036,000000	7,701800
2035,000000	7,726200
2034,000000	7,745800
2033,000000	7,758000
2032,000000	7,764600
2031,000000	7,778200
2030,000000	7,782700
2029,000000	7,785500
2028,000000	7,793600
2027,000000	7,789500
2026,000000	7,779400
2025,000000	7,805200
2024,000000	7,803000
2023,000000	7,808000
2022,000000	7,801000
2021,000000	7,793000
2020,000000	7,794000
2019,000000	7,795800
2018,000000	7,804100
2017,000000	7,798500
2016,000000	7,801300
2015,000000	7,784900
2014,000000	7,783200
2013,000000	7,777900
2012,000000	7,760300
2011,000000	7,736100
2010,000000	7,749800
2009,000000	7,730600
2008,000000	7,700800
2007,000000	7,686400
2006,000000	7,680500
2005,000000	7,661100
2004,000000	7,649200
2003,000000	7,624900
2002,000000	7,612200
2001,000000	7,586500
2000,000000	7,578000
1999,000000	7,555000
1998,000000	7,549000
1997,000000	7,510900
1996,000000	7,497200
1995,000000	7,485100
1994,000000	7,462000
1993,000000	7,425300
1992,000000	7,388100
1991,000000	7,390100
1990,000000	7,358900
1989,000000	7,321900
1988,000000	7,310800
1987,000000	7,278100
1986,000000	7,253900
1985,000000	7,234400
1984,000000	7,210100
1983,000000	7,163700
1982,000000	7,138100
1981,000000	7,121300
1980,000000	7,110300
1979,000000	7,083400
1978,000000	7,043300
1977,000000	7,031800
1976,000000	7,000300
1975,000000	6,997700
1974,000000	6,969700
1973,000000	6,909300
1972,000000	6,909000
1971,000000	6,886300
1970,000000	6,855500
1969,000000	6,845700
1968,000000	6,818900
1967,000000	6,804500
1966,000000	6,766900
1965,000000	6,755000
1964,000000	6,735400
1963,000000	6,724800
1962,000000	6,722200
1961,000000	6,695500
1960,000000	6,672500
1959,000000	6,660900
1958,000000	6,634900
1957,000000	6,608600
1956,000000	6,603500
1955,000000	6,599000
1954,000000	6,563200
1953,000000	6,567400
1952,000000	6,555400
1951,000000	6,528200
1950,000000	6,518100
1949,000000	6,490700
1948,000000	6,492800
1947,000000	6,472000
1946,000000	6,459100
1945,000000	6,441200
1944,000000	6,442000
1943,000000	6,437500
1942,000000	6,418800
1941,000000	6,396000
1940,000000	6,408800
1939,000000	6,389200
1938,000000	6,419900
1937,000000	6,397600
1936,000000	6,433900
1935,000000	6,442000
1934,000000	6,414200
1933,000000	6,404900
1932,000000	6,435100
1931,000000	6,443100
1930,000000	6,442400
1929,000000	6,461700
1928,000000	6,469200
1927,000000	6,490600
1926,000000	6,494200
1925,000000	6,548400
1924,000000	6,572500
1923,000000	6,571500
1922,000000	6,595300
1921,000000	6,626700
1920,000000	6,676600
1919,000000	6,743300
1918,000000	6,777200
1917,000000	6,791000
1916,000000	6,832000
1915,000000	6,867500
1914,000000	6,893800
1913,000000	6,957400
1912,000000	7,026500
1911,000000	7,116500
1910,000000	7,138000
1909,000000	7,176800
1908,000000	7,240600
1907,000000	7,266100
1906,000000	7,337900
1905,000000	7,434200
1904,000000	7,552500
1903,000000	7,631800
1902,000000	7,716500
1901,000000	7,802400
1900,000000	7,878200
1899,000000	8,012400
1898,000000	8,168300
1897,000000	8,279700
1896,000000	8,371500
1895,000000	8,470300
1894,000000	8,585600
1893,000000	8,709300
1892,000000	8,854600
1891,000000	9,052500
1890,000000	9,240300
1889,000000	9,434000
1888,000000	9,634000
1887,000000	9,845400
1886,000000	10,060900
1885,000000	10,285100
1884,000000	10,553800
1883,000000	10,861800
1882,000000	11,170300
1881,000000	11,464200
1880,000000	11,779000
1879,000000	12,093800
1878,000000	12,380100
1877,000000	12,685100
1876,000000	13,004800
1875,000000	13,341500
1874,000000	13,634400
1873,000000	13,941000
1872,000000	14,258400
1871,000000	14,560800
1870,000000	14,861300
1869,000000	15,146600
1868,000000	15,416000
1867,000000	15,619600
1866,000000	15,815200
1865,000000	15,963400
1864,000000	16,119700
1863,000000	16,260300
1862,000000	16,370400
1861,000000	16,510400
1860,000000	16,674800
1859,000000	16,805100
1858,000000	16,920500
1857,000000	17,031200
1856,000000	17,111900
1855,000000	17,177300
1854,000000	17,240000
1853,000000	17,309400
1852,000000	17,336400
1851,000000	17,373200
1850,000000	17,403300
1849,000000	17,441100
1848,000000	17,465500
1847,000000	17,501200
1846,000000	17,515900
1845,000000	17,508400
1844,000000	17,484100
1843,000000	17,465200
1842,000000	17,462900
1841,000000	17,496700
1840,000000	17,499700
1839,000000	17,498100
1838,000000	17,479800
1837,000000	17,475600
1836,000000	17,468000
1835,000000	17,455100
1834,000000	17,422100
1833,000000	17,382100
1832,000000	17,330700
1831,000000	17,293800
1830,000000	17,274400
1829,000000	17,245000
1828,000000	17,199500
1827,000000	17,151700
1826,000000	17,119600
1825,000000	17,079900
1824,000000	17,043100
1823,000000	17,007200
1822,000000	16,973900
1821,000000	16,962800
1820,000000	16,962000
1819,000000	16,938700
1818,000000	16,913600
1817,000000	16,886300
1816,000000	16,860700
1815,000000	16,861300
1814,000000	16,854900
1813,000000	16,836600
1812,000000	16,825500
1811,000000	16,811100
1810,000000	16,789400
1809,000000	16,761700
1808,000000	16,739700
1807,000000	16,697400
1806,000000	16,677700
1805,000000	16,656400
1804,000000	16,611700
1803,000000	16,582900
1802,000000	16,561400
1801,000000	16,531300
1800,000000	16,476400
1799,000000	16,426700
1798,000000	16,401200
1797,000000	16,381700
1796,000000	16,355300
1795,000000	16,315300
1794,000000	16,269500
1793,000000	16,242600
1792,000000	16,211900
1791,000000	16,171900
1790,000000	16,144900
1789,000000	16,115000
1788,000000	16,074400
1787,000000	16,040900
1786,000000	16,010800
1785,000000	15,970900
1784,000000	15,921500
1783,000000	15,886900
1782,000000	15,849900
1781,000000	15,804300
1780,000000	15,760000
1779,000000	15,720700
1778,000000	15,676700
1777,000000	15,630300
1776,000000	15,582600
1775,000000	15,533100
1774,000000	15,474200
1773,000000	15,422400
1772,000000	15,363300
1771,000000	15,297800
1770,000000	15,239700
1769,000000	15,177600
1768,000000	15,109100
1767,000000	15,053500
1766,000000	14,996000
1765,000000	14,939100
1764,000000	14,904600
1763,000000	14,876900
1762,000000	14,858300
1761,000000	14,867700
1760,000000	14,891000
1759,000000	14,914200
1758,000000	14,963400
1757,000000	15,010900
1756,000000	15,057000
1755,000000	15,091500
1754,000000	15,125300
1753,000000	15,186200
1752,000000	15,213600
1751,000000	15,231100
1750,000000	15,259200
1749,000000	15,245500
1748,000000	15,228200
1747,000000	15,215500
1746,000000	15,177400
1745,000000	15,133800
1744,000000	15,089300
1743,000000	15,017300
1742,000000	14,941500
1741,000000	14,855600
1740,000000	14,747800
1739,000000	14,625000
1738,000000	14,520700
1737,000000	14,405200
1736,000000	14,296200
1735,000000	14,210300
1734,000000	14,132800
1733,000000	14,073200
1732,000000	14,061000
1731,000000	14,067200
1730,000000	14,108500
1729,000000	14,154800
1728,000000	14,196000
1727,000000	14,262100
1726,000000	14,330200
1725,000000	14,384100
1724,000000	14,454600
1723,000000	14,510900
1722,000000	14,556700
1721,000000	14,577400
1720,000000	14,616600
1719,000000	14,650200
1718,000000	14,694900
1717,000000	14,732300
1716,000000	14,795100
1715,000000	14,841900
1714,000000	14,873900
1713,000000	14,944800
1712,000000	15,011400
1711,000000	15,047200
1710,000000	15,099100
1709,000000	15,112600
1708,000000	15,140400
1707,000000	15,135800
1706,000000	15,122200
1705,000000	15,097700
1704,000000	15,072400
1703,000000	15,030200
1702,000000	14,969900
1701,000000	14,925600
1700,000000	14,867300
1699,000000	14,755300
1698,000000	14,670500
1697,000000	14,570200
1696,000000	14,489700
1695,000000	14,419200
1694,000000	14,390000
1693,000000	14,387100
1692,000000	14,454100
1691,000000	14,524300
1690,000000	14,620500
1689,000000	14,723700
1688,000000	14,794300
1687,000000	14,893500
1686,000000	14,937200
1685,000000	14,994100
1684,000000	15,047200
1683,000000	15,101700
1682,000000	15,211000
1681,000000	15,379800
1680,000000	15,608400
1679,000000	15,884300
1678,000000	16,203900
1677,000000	16,551200
1676,000000	16,878900
1675,000000	17,197500
1674,000000	17,455900
1673,000000	17,718200
1672,000000	17,927300
1671,000000	18,148400
1670,000000	18,280100
1669,000000	18,445400
1668,000000	18,573200
1667,000000	18,695600
1666,000000	18,788000
1665,000000	18,891500
1664,000000	18,957500
1663,000000	19,030900
1662,000000	19,096200
1661,000000	19,166900
1660,000000	19,209200
1659,000000	19,244700
1658,000000	19,256700
1657,000000	19,315600
1656,000000	19,324300
1655,000000	19,317500
1654,000000	19,342000
1653,000000	19,351900
1652,000000	19,348600
1651,000000	19,328800
1650,000000	19,307700
1649,000000	19,277100
1648,000000	19,262700
1647,000000	19,212200
1646,000000	19,181100
1645,000000	19,162700
1644,000000	19,134900
1643,000000	19,091600
1642,000000	19,051500
1641,000000	19,000600
1640,000000	18,957400
1639,000000	18,932900
1638,000000	18,867700
1637,000000	18,827300
1636,000000	18,797000
1635,000000	18,731800
1634,000000	18,674400
1633,000000	18,612700
1632,000000	18,577000
1631,000000	18,538800
1630,000000	18,454900
1629,000000	18,425400
1628,000000	18,369700
1627,000000	18,272500
1626,000000	18,243100
1625,000000	18,180800
1624,000000	18,117300
1623,000000	18,052100
1622,000000	18,009200
1621,000000	17,949900
1620,000000	17,894600
1619,000000	17,838500
1618,000000	17,787200
1617,000000	17,726200
1616,000000	17,690800
1615,000000	17,635600
1614,000000	17,570700
1613,000000	17,524700
1612,000000	17,466300
1611,000000	17,444800
1610,000000	17,364900
1609,000000	17,342400
1608,000000	17,275700
1607,000000	17,221600
1606,000000	17,165600
1605,000000	17,101500
1604,000000	17,065400
1603,000000	17,003300
1602,000000	16,950000
1601,000000	16,887500
1600,000000	16,835700
1599,000000	16,776000
1598,000000	16,723500
1597,000000	16,660200
1596,000000	16,611600
1595,000000	16,584600
1594,000000	16,514200
1593,000000	16,468400
1592,000000	16,426200
1591,000000	16,383700
1590,000000	16,318600
1589,000000	16,292500
1588,000000	16,243900
1587,000000	16,215000
1586,000000	16,172400
1585,000000	16,116400
1584,000000	16,076800
1583,000000	16,046700
1582,000000	16,009000
1581,000000	15,957900
1580,000000	15,931600
1579,000000	15,902000
1578,000000	15,865000
1577,000000	15,847600
1576,000000	15,810800
1575,000000	15,803300
1574,000000	15,774500
1573,000000	15,754400
1572,000000	15,727600
1571,000000	15,710200
1570,000000	15,699100
1569,000000	15,690700
1568,000000	15,678100
1567,000000	15,667000
1566,000000	15,661100
1565,000000	15,653100
1564,000000	15,654900
1563,000000	15,651500
1562,000000	15,639500
1561,000000	15,617000
1560,000000	15,601800
1559,000000	15,596300
1558,000000	15,586600
1557,000000	15,573400
1556,000000	15,553000
1555,000000	15,517400
1554,000000	15,499700
1553,000000	15,494900
1552,000000	15,464800
1551,000000	15,431300
1550,000000	15,398400
1549,000000	15,375600
1548,000000	15,345600
1547,000000	15,316300
1546,000000	15,288800
1545,000000	15,258800
1544,000000	15,232700
1543,000000	15,213800
1542,000000	15,196000
1541,000000	15,175100
1540,000000	15,146000
1539,000000	15,118300
1538,000000	15,103800
1537,000000	15,097000
1536,000000	15,069500
1535,000000	15,038000
1534,000000	15,008900
1533,000000	14,983400
1532,000000	14,956100
1531,000000	14,923500
1530,000000	14,893900
1529,000000	14,864200
1528,000000	14,825900
1527,000000	14,794800
1526,000000	14,768800
1525,000000	14,725200
1524,000000	14,682100
1523,000000	14,647500
1522,000000	14,611300
1521,000000	14,570300
1520,000000	14,526100
1519,000000	14,482300
1518,000000	14,432400
1517,000000	14,397700
1516,000000	14,362200
1515,000000	14,311100
1514,000000	14,263100
1513,000000	14,219200
1512,000000	14,174900
1511,000000	14,142700
1510,000000	14,096400
1509,000000	14,030400
1508,000000	13,977400
1507,000000	13,933600
1506,000000	13,893400
1505,000000	13,850500
1504,000000	13,800900
1503,000000	13,742300
1502,000000	13,690200
1501,000000	13,660100
1500,000000	13,629400
1499,000000	13,581300
1498,000000	13,535200
1497,000000	13,493600
1496,000000	13,451900
1495,000000	13,411700
1494,000000	13,375000
1493,000000	13,345300
1492,000000	13,303800
1491,000000	13,276900
1490,000000	13,259500
1489,000000	13,223000
1488,000000	13,173900
1487,000000	13,142300
1486,000000	13,124000
1485,000000	13,104900
1484,000000	13,070400
1483,000000	13,040600
1482,000000	13,023400
1481,000000	13,029900
1480,000000	13,010600
1479,000000	12,976300
1478,000000	12,942700
1477,000000	12,933500
1476,000000	12,928200
1475,000000	12,907400
1474,000000	12,892600
1473,000000	12,881800
1472,000000	12,872100
1471,000000	12,873300
1470,000000	12,884100
1469,000000	12,880500
1468,000000	12,863300
1467,000000	12,874400
1466,000000	12,877800
1465,000000	12,885000
1464,000000	12,882700
1463,000000	12,873800
1462,000000	12,881600
1461,000000	12,902600
1460,000000	12,924000
1459,000000	12,952800
1458,000000	12,973600
1457,000000	12,998200
1456,000000	13,027400
1455,000000	13,047400
1454,000000	13,084200
1453,000000	13,147200
1452,000000	13,186500
1451,000000	13,211200
1450,000000	13,266600
1449,000000	13,311700
1448,000000	13,352500
1447,000000	13,408600
1446,000000	13,477200
1445,000000	13,545600
1444,000000	13,592600
1443,000000	13,644900
1442,000000	13,690900
1441,000000	13,761700
1440,000000	13,833000
1439,000000	13,901200
1438,000000	13,968100
1437,000000	14,045400
1436,000000	14,118800
1435,000000	14,199600
1434,000000	14,275800
1433,000000	14,378600
1432,000000	14,449200
1431,000000	14,547000
1430,000000	14,650500
1429,000000	14,739900
1428,000000	14,844700
1427,000000	14,967700
1426,000000	15,093000
1425,000000	15,202600
1424,000000	15,359700
1423,000000	15,514000
1422,000000	15,646300
1421,000000	15,816300
1420,000000	15,970900
1419,000000	16,159800
1418,000000	16,342900
1417,000000	16,532500
1416,000000	16,717000
1415,000000	16,911700
1414,000000	17,153300
1413,000000	17,389800
1412,000000	17,615800
1411,000000	17,840300
1410,000000	18,086900
1409,000000	18,395000
1408,000000	18,702100
1407,000000	19,026100
1406,000000	19,348700
1405,000000	19,670100
1404,000000	20,045900
1403,000000	20,391300
1402,000000	20,754700
1401,000000	21,100600
1400,000000	21,531600
1399,000000	21,961000
1398,000000	22,314500
1397,000000	22,584100
1396,000000	22,947300
1395,000000	23,351400
1394,000000	23,771600
1393,000000	24,117000
1392,000000	24,462700
1391,000000	24,849800
1390,000000	25,291300
1389,000000	25,654200
1388,000000	26,108100
1387,000000	26,645900
1386,000000	27,136200
1385,000000	27,637700
1384,000000	28,142300
1383,000000	28,718100
1382,000000	29,286700
1381,000000	29,800100
1380,000000	30,272800
1379,000000	30,592200
1378,000000	30,889400
1377,000000	31,133700
1376,000000	31,382100
1375,000000	31,606200
1374,000000	31,822700
1373,000000	32,075100
1372,000000	32,351800
1371,000000	32,674100
1370,000000	32,965600
1369,000000	33,259100
1368,000000	33,528100
1367,000000	33,804800
1366,000000	34,028100
1365,000000	34,246500
1364,000000	34,463400
1363,000000	34,621100
1362,000000	34,779600
1361,000000	34,969500
1360,000000	35,117200
1359,000000	35,173500
1358,000000	35,301900
1357,000000	35,398400
1356,000000	35,527600
1355,000000	35,719300
1354,000000	35,956300
1353,000000	36,220900
1352,000000	36,517400
1351,000000	36,894900
1350,000000	37,266000
1349,000000	37,622400
1348,000000	37,960700
1347,000000	38,289500
1346,000000	38,601000
1345,000000	38,856500
1344,000000	39,148800
1343,000000	39,452000
1342,000000	39,739800
1341,000000	39,998700
1340,000000	40,279800
1339,000000	40,546400
1338,000000	40,806500
1337,000000	41,059600
1336,000000	41,334200
1335,000000	41,575600
1334,000000	41,815000
1333,000000	42,064900
1332,000000	42,288300
1331,000000	42,535300
1330,000000	42,752800
1329,000000	42,970300
1328,000000	43,167500
1327,000000	43,367800
1326,000000	43,574100
1325,000000	43,777000
1324,000000	43,947500
1323,000000	44,132100
1322,000000	44,294700
1321,000000	44,463800
1320,000000	44,620100
1319,000000	44,757700
1318,000000	44,909400
1317,000000	45,038900
1316,000000	45,174800
1315,000000	45,302700
1314,000000	45,418700
1313,000000	45,524200
1312,000000	45,649200
1311,000000	45,749500
1310,000000	45,839400
1309,000000	45,929900
1308,000000	46,027600
1307,000000	46,088400
1306,000000	46,151400
1305,000000	46,228700
1304,000000	46,271700
1303,000000	46,328800
1302,000000	46,362400
1301,000000	46,409600
1300,000000	46,436000
1299,000000	46,461200
1298,000000	46,494800
1297,000000	46,516500
1296,000000	46,524600
1295,000000	46,538900
1294,000000	46,540000
1293,000000	46,538000
1292,000000	46,541800
1291,000000	46,539300
1290,000000	46,552000
1289,000000	46,529800
1288,000000	46,503000
1287,000000	46,472200
1286,000000	46,440100
1285,000000	46,405000
1284,000000	46,364500
1283,000000	46,323500
1282,000000	46,279500
1281,000000	46,236700
1280,000000	46,198200
1279,000000	46,139800
1278,000000	46,080400
1277,000000	46,040100
1276,000000	45,990700
1275,000000	45,949800
1274,000000	45,899800
1273,000000	45,857700
1272,000000	45,805300
1271,000000	45,763800
1270,000000	45,726000
1269,000000	45,678900
1268,000000	45,627400
1267,000000	45,586600
1266,000000	45,543000
1265,000000	45,507400
1264,000000	45,459500
1263,000000	45,405200
1262,000000	45,339000
1261,000000	45,279100
1260,000000	45,229000
1259,000000	45,186400
1258,000000	45,122700
1257,000000	45,060900
1256,000000	44,999200
1255,000000	44,926600
1254,000000	44,870500
1253,000000	44,800900
1252,000000	44,718200
1251,000000	44,648500
1250,000000	44,576400
1249,000000	44,476100
1248,000000	44,391000
1247,000000	44,319300
1246,000000	44,207200
1245,000000	44,105900
1244,000000	44,020500
1243,000000	43,916200
1242,000000	43,801800
1241,000000	43,682400
1240,000000	43,575400
1239,000000	43,468500
1238,000000	43,360600
1237,000000	43,243600
1236,000000	43,129600
1235,000000	43,006700
1234,000000	42,877700
1233,000000	42,744500
1232,000000	42,612000
1231,000000	42,479000
1230,000000	42,343300
1229,000000	42,210400
1228,000000	42,081400
1227,000000	41,935800
1226,000000	41,784800
1225,000000	41,640200
1224,000000	41,485000
1223,000000	41,336700
1222,000000	41,190600
1221,000000	41,035400
1220,000000	40,884000
1219,000000	40,735500
1218,000000	40,581000
1217,000000	40,431100
1216,000000	40,293900
1215,000000	40,158200
1214,000000	40,018500
1213,000000	39,879000
1212,000000	39,744500
1211,000000	39,617700
1210,000000	39,502400
1209,000000	39,369800
1208,000000	39,242500
1207,000000	39,133400
1206,000000	39,019100
1205,000000	38,916800
1204,000000	38,822000
1203,000000	38,740600
1202,000000	38,664800
1201,000000	38,589400
1200,000000	38,522400
1199,000000	38,456200
1198,000000	38,381300
1197,000000	38,293100
1196,000000	38,171900
1195,000000	38,035800
1194,000000	37,874100
1193,000000	37,670200
1192,000000	37,436500
1191,000000	37,180300
1190,000000	36,901900
1189,000000	36,608400
1188,000000	36,341100
1187,000000	36,121400
1186,000000	35,952900
1185,000000	35,849300
1184,000000	35,825900
1183,000000	35,896700
1182,000000	36,032600
1181,000000	36,239800
1180,000000	36,499000
1179,000000	36,795200
1178,000000	37,053700
1177,000000	37,316700
1176,000000	37,556700
1175,000000	37,752400
1174,000000	37,942100
1173,000000	38,103200
1172,000000	38,262200
1171,000000	38,424500
1170,000000	38,604800
1169,000000	38,777200
1168,000000	38,953500
1167,000000	39,136900
1166,000000	39,315000
1165,000000	39,501300
1164,000000	39,674400
1163,000000	39,877200
1162,000000	40,073600
1161,000000	40,278500
1160,000000	40,471500
1159,000000	40,663100
1158,000000	40,834800
1157,000000	41,020300
1156,000000	41,195000
1155,000000	41,347900
1154,000000	41,468100
1153,000000	41,592000
1152,000000	41,679800
1151,000000	41,742300
1150,000000	41,786800
1149,000000	41,836300
1148,000000	41,876800
1147,000000	41,929400
1146,000000	41,970700
1145,000000	42,055500
1144,000000	42,151500
1143,000000	42,260000
1142,000000	42,411700
1141,000000	42,563100
1140,000000	42,757400
1139,000000	42,940100
1138,000000	43,104500
1137,000000	43,311300
1136,000000	43,509600
1135,000000	43,718900
1134,000000	43,932900
1133,000000	44,140700
1132,000000	44,278600
1131,000000	44,441400
1130,000000	44,561900
1129,000000	44,688200
1128,000000	44,768900
1127,000000	44,820600
1126,000000	44,861900
1125,000000	44,893700
1124,000000	44,891200
1123,000000	44,891400
1122,000000	44,875300
1121,000000	44,855500
1120,000000	44,800300
1119,000000	44,768600
1118,000000	44,734800
1117,000000	44,665800
1116,000000	44,613900
1115,000000	44,545700
1114,000000	44,483800
1113,000000	44,419700
1112,000000	44,356700
1111,000000	44,280500
1110,000000	44,210900
1109,000000	44,160400
1108,000000	44,068200
1107,000000	43,994800
1106,000000	43,928500
1105,000000	43,852300
1104,000000	43,777000
1103,000000	43,719300
1102,000000	43,636600
1101,000000	43,574700
1100,000000	43,502000
1099,000000	43,413900
1098,000000	43,342700
1097,000000	43,247600
1096,000000	43,187000
1095,000000	43,097300
1094,000000	43,003600
1093,000000	42,926600
1092,000000	42,823400
1091,000000	42,746500
1090,000000	42,662400
1089,000000	42,563800
1088,000000	42,476000
1087,000000	42,387600
1086,000000	42,300500
1085,000000	42,205400
1084,000000	42,113500
1083,000000	42,043300
1082,000000	41,927200
1081,000000	41,832900
1080,000000	41,748200
1079,000000	41,646800
1078,000000	41,559400
1077,000000	41,468000
1076,000000	41,353400
1075,000000	41,262700
1074,000000	41,155400
1073,000000	41,073900
1072,000000	40,980000
1071,000000	40,892000
1070,000000	40,786300
1069,000000	40,691900
1068,000000	40,588500
1067,000000	40,488900
1066,000000	40,388400
1065,000000	40,287100
1064,000000	40,191400
1063,000000	40,094500
1062,000000	39,999700
1061,000000	39,890100
1060,000000	39,792500
1059,000000	39,701700
1058,000000	39,585400
1057,000000	39,484300
1056,000000	39,393400
1055,000000	39,291100
1054,000000	39,193500
1053,000000	39,077600
1052,000000	38,995900
1051,000000	38,899300
1050,000000	38,793300
1049,000000	38,695600
1048,000000	38,609300
1047,000000	38,510300
1046,000000	38,414000
1045,000000	38,320400
1044,000000	38,232500
1043,000000	38,147300
1042,000000	38,053000
1041,000000	37,974100
1040,000000	37,854600
1039,000000	37,773100
1038,000000	37,690900
1037,000000	37,596000
1036,000000	37,510700
1035,000000	37,410100
1034,000000	37,310400
1033,000000	37,247400
1032,000000	37,149400
1031,000000	37,054500
1030,000000	36,956500
1029,000000	36,858700
1028,000000	36,789900
1027,000000	36,685600
1026,000000	36,596600
1025,000000	36,489300
1024,000000	36,402800
1023,000000	36,319400
1022,000000	36,226800
1021,000000	36,131200
1020,000000	36,060100
1019,000000	35,974600
1018,000000	35,872700
1017,000000	35,804300
1016,000000	35,704200
1015,000000	35,630300
1014,000000	35,558900
1013,000000	35,478500
1012,000000	35,421700
1011,000000	35,347600
1010,000000	35,299500
1009,000000	35,236500
1008,000000	35,167400
1007,000000	35,101700
1006,000000	35,051300
1005,000000	34,996600
1004,000000	34,941100
1003,000000	34,886800
1002,000000	34,832800
1001,000000	34,786900
1000,000000	34,742900
999,000000	34,696300
998,000000	34,635400
997,000000	34,583100
996,000000	34,546300
995,000000	34,503800
994,000000	34,456200
993,000000	34,409300
992,000000	34,371500
991,000000	34,333800
990,000000	34,300200
989,000000	34,271100
988,000000	34,219400
987,000000	34,183900
986,000000	34,165300
985,000000	34,143900
984,000000	34,115900
983,000000	34,077900
982,000000	34,055400
981,000000	34,039600
980,000000	34,026300
979,000000	34,004800
978,000000	33,969400
977,000000	33,967200
976,000000	33,966200
975,000000	33,960000
974,000000	33,952700
973,000000	33,924100
972,000000	33,928600
971,000000	33,938900
970,000000	33,931200
969,000000	33,926000
968,000000	33,910900
967,000000	33,900000
966,000000	33,915000
965,000000	33,935500
964,000000	33,944300
963,000000	33,963300
962,000000	33,965500
961,000000	33,965500
960,000000	33,989200
959,000000	34,008900
958,000000	34,033500
957,000000	34,055900
956,000000	34,066300
955,000000	34,086700
954,000000	34,102500
953,000000	34,137400
952,000000	34,172500
951,000000	34,184800
950,000000	34,224900
949,000000	34,269200
948,000000	34,290400
947,000000	34,332600
946,000000	34,362500
945,000000	34,389700
944,000000	34,437000
943,000000	34,475100
942,000000	34,503700
941,000000	34,530400
940,000000	34,576700
939,000000	34,628400
938,000000	34,671400
937,000000	34,714200
936,000000	34,753500
935,000000	34,795800
934,000000	34,860300
933,000000	34,904200
932,000000	34,950500
931,000000	34,999400
930,000000	35,053300
929,000000	35,104800
928,000000	35,139800
927,000000	35,185000
926,000000	35,257800
925,000000	35,308000
924,000000	35,348600
923,000000	35,405500
922,000000	35,458700
921,000000	35,516800
920,000000	35,598100
919,000000	35,667900
918,000000	35,722200
917,000000	35,773100
916,000000	35,827900
915,000000	35,894500
914,000000	35,982600
913,000000	36,041600
912,000000	36,092700
911,000000	36,137000
910,000000	36,199100
909,000000	36,270700
908,000000	36,371300
907,000000	36,441000
906,000000	36,499600
905,000000	36,551300
904,000000	36,618400
903,000000	36,690700
902,000000	36,765700
901,000000	36,843100
900,000000	36,925000
899,000000	37,004100
898,000000	37,065700
897,000000	37,126800
896,000000	37,198000
895,000000	37,272300
894,000000	37,363300
893,000000	37,459100
892,000000	37,525400
891,000000	37,590800
890,000000	37,661700
889,000000	37,728900
888,000000	37,799300
887,000000	37,875600
886,000000	37,956500
885,000000	38,015000
884,000000	38,056000
883,000000	38,115600
882,000000	38,178300
881,000000	38,222900
880,000000	38,289400
879,000000	38,319700
878,000000	38,370600
877,000000	38,384100
876,000000	38,396800
875,000000	38,410200
874,000000	38,429700
873,000000	38,395500
872,000000	38,352900
871,000000	38,314300
870,000000	38,311300
869,000000	38,394100
868,000000	38,521500
867,000000	38,651100
866,000000	38,762200
865,000000	38,884000
864,000000	38,997600
863,000000	39,107500
862,000000	39,219200
861,000000	39,355700
860,000000	39,471900
859,000000	39,590700
858,000000	39,701200
857,000000	44,609900
856,000000	45,015300
855,000000	45,160000
854,000000	45,637900
853,000000	45,760900
852,000000	46,066100
851,000000	45,927100
850,000000	45,934500
849,000000	46,028500
848,000000	46,434800
847,000000	46,484700
846,000000	46,649100
845,000000	46,780700
844,000000	46,719500
843,000000	46,648100
842,000000	46,884400
841,000000	47,100100
840,000000	47,071600
839,000000	47,127700
838,000000	47,199800
837,000000	47,391700
836,000000	47,362700
835,000000	47,648600
834,000000	47,628700
833,000000	47,758100
832,000000	47,799800
831,000000	47,769600
830,000000	47,969300
829,000000	47,992000
828,000000	47,975000
827,000000	48,041000
826,000000	48,129700
825,000000	48,157900
824,000000	48,282500
823,000000	48,269200
822,000000	48,265700
821,000000	48,338800
820,000000	48,395100
819,000000	48,372200
818,000000	48,372700
817,000000	48,374800
816,000000	48,444000
815,000000	48,374400
814,000000	48,553300
813,000000	48,397900
812,000000	48,258500
811,000000	48,430100
810,000000	48,406400
809,000000	48,556200
808,000000	48,439200
807,000000	48,614900
806,000000	48,473100
805,000000	48,525000
804,000000	48,514000
803,000000	48,294000
802,000000	48,387100
801,000000	48,325800
800,000000	48,486500
799,000000	48,338000
798,000000	48,314500
797,000000	48,366000
796,000000	48,121600
795,000000	48,129000
794,000000	48,011900
793,000000	48,162800
792,000000	48,056900
791,000000	47,821100
790,000000	47,874000
789,000000	47,900900
788,000000	47,782500
787,000000	47,824500
786,000000	47,628800
785,000000	47,686700
784,000000	47,692900
783,000000	47,581000
782,000000	47,500500
781,000000	47,404000
780,000000	47,315000
779,000000	47,265400
778,000000	47,167200
777,000000	47,098900
776,000000	47,023300
775,000000	46,889500
774,000000	46,865700
773,000000	46,731000
772,000000	46,543300
771,000000	46,561100
770,000000	46,454700
769,000000	46,307200
768,000000	46,172300
767,000000	46,196900
766,000000	46,065800
765,000000	45,950300
764,000000	45,843300
763,000000	45,708900
762,000000	45,561000
761,000000	45,420500
760,000000	45,256900
759,000000	45,200400
758,000000	44,993800
757,000000	44,860200
756,000000	44,683300
755,000000	44,555800
754,000000	44,470300
753,000000	44,297100
752,000000	44,058300
751,000000	43,928000
750,000000	43,849500
749,000000	43,670500
748,000000	43,424200
747,000000	43,383200
746,000000	43,181100
745,000000	43,001100
744,000000	42,840700
743,000000	42,596100
742,000000	42,427300
741,000000	42,231100
740,000000	42,038000
739,000000	41,898700
738,000000	41,667400
737,000000	41,448800
736,000000	41,267400
735,000000	41,073600
734,000000	40,862300
733,000000	40,690800
732,000000	40,446700
731,000000	40,199900
730,000000	40,064700
729,000000	39,831600
728,000000	39,624900
727,000000	39,347200
726,000000	39,110500
725,000000	38,937800
724,000000	38,750900
723,000000	38,509200
722,000000	38,265200
721,000000	38,018400
720,000000	37,773900
719,000000	37,582200
718,000000	37,323100
717,000000	37,099600
716,000000	36,891800
715,000000	36,693600
714,000000	36,435400
713,000000	36,178300
712,000000	35,978000
711,000000	35,798300
710,000000	35,543900
709,000000	35,259900
708,000000	35,074700
707,000000	34,823200
706,000000	34,598200
705,000000	34,406000
704,000000	34,161800
703,000000	33,956200
702,000000	33,716900
701,000000	33,479300
700,000000	33,247100
699,000000	33,070300
698,000000	32,862000
697,000000	32,654600
696,000000	32,460700
695,000000	32,237600
694,000000	32,054000
693,000000	31,860300
692,000000	31,681300
691,000000	31,475200
690,000000	31,293100
689,000000	31,086300
688,000000	30,895300
687,000000	30,690300
686,000000	30,527900
685,000000	30,345600
684,000000	30,148900
683,000000	29,993600
682,000000	29,812300
681,000000	29,641500
680,000000	29,489200
679,000000	29,315900
678,000000	29,158900
677,000000	29,048500
676,000000	28,881500
675,000000	28,712200
674,000000	28,592500
673,000000	28,446400
672,000000	28,297100
671,000000	28,164000
670,000000	28,040800
669,000000	27,909200
668,000000	27,785900
667,000000	27,674700
666,000000	27,563400
665,000000	27,454900
664,000000	27,336000
663,000000	27,214400
662,000000	27,117500
661,000000	27,025800
660,000000	26,917300
659,000000	26,822500
658,000000	26,732400
657,000000	26,621000
656,000000	26,526700
655,000000	26,478500
654,000000	26,419400
653,000000	26,338800
652,000000	26,284700
651,000000	26,237600
650,000000	26,191200
649,000000	26,142500
648,000000	26,095000
647,000000	26,064300
646,000000	26,022100
645,000000	25,971200
644,000000	25,946400
643,000000	25,932400
642,000000	25,922400
641,000000	25,913500
640,000000	25,901300
639,000000	25,921800
638,000000	25,941900
637,000000	25,942700
636,000000	25,956800
635,000000	25,990100
634,000000	26,013800
633,000000	26,031000
632,000000	26,076900
631,000000	26,125400
630,000000	26,160200
629,000000	26,191000
628,000000	26,266800
627,000000	26,359900
626,000000	26,433600
625,000000	26,502600
624,000000	26,590200
623,000000	26,684900
622,000000	26,779900
621,000000	26,877000
620,000000	26,981100
619,000000	27,097200
618,000000	27,226600
617,000000	27,369200
616,000000	27,512200
615,000000	27,656000
614,000000	27,812600
613,000000	27,980900
612,000000	28,141000
611,000000	28,278400
610,000000	28,444200
609,000000	28,600100
608,000000	28,777200
607,000000	28,963000
606,000000	29,123300
605,000000	29,282800
604,000000	29,460400
603,000000	29,645600
602,000000	29,802900
601,000000	29,980500
600,000000	30,161700
599,000000	30,326400
598,000000	30,482400
597,000000	30,644400
596,000000	30,794200
595,000000	30,952200
594,000000	31,084600
593,000000	31,245800
592,000000	31,380400
591,000000	31,494500
590,000000	31,633100
589,000000	31,765400
588,000000	31,869000
587,000000	31,960400
586,000000	32,032300
585,000000	32,104100
584,000000	32,194200
583,000000	32,235300
582,000000	32,296700
581,000000	32,353500
580,000000	32,397100
579,000000	32,413700
578,000000	32,426300
577,000000	32,434400
576,000000	32,442300
575,000000	32,421700
574,000000	32,430100
573,000000	32,381100
572,000000	32,361600
571,000000	32,306200
570,000000	32,253200
569,000000	32,174200
568,000000	32,114400
567,000000	32,019600
566,000000	31,919400
565,000000	31,831000
564,000000	31,687400
563,000000	31,557700
562,000000	31,432300
561,000000	31,281600
560,000000	31,139000
559,000000	30,971800
558,000000	30,823500
557,000000	30,649300
556,000000	30,460400
555,000000	30,265700
554,000000	30,028800
553,000000	29,802700
552,000000	29,570200
551,000000	29,294500
550,000000	29,034800
549,000000	28,784100
548,000000	28,542200
547,000000	28,275500
546,000000	27,988700
545,000000	27,674800
544,000000	27,395600
543,000000	27,101700
542,000000	26,780100
541,000000	26,469500
540,000000	26,146600
539,000000	25,818200
538,000000	25,511000
537,000000	25,179800
536,000000	24,856200
535,000000	24,540600
534,000000	24,216000
533,000000	23,873800
532,000000	23,543900
531,000000	23,205200
530,000000	22,880900
529,000000	22,564300
528,000000	22,223700
527,000000	21,903800
526,000000	21,589200
525,000000	21,280200
524,000000	20,975000
523,000000	20,650700
522,000000	20,351200
521,000000	20,060800
520,000000	19,770900
519,000000	19,479500
518,000000	19,213400
517,000000	18,955700
516,000000	18,679500
515,000000	18,426300
514,000000	18,173900
513,000000	17,943000
512,000000	17,702500
511,000000	17,477600
510,000000	17,270800
509,000000	17,061200
508,000000	16,847700
507,000000	16,633200
506,000000	16,450300
505,000000	16,267800
504,000000	16,102400
503,000000	15,913100
502,000000	15,737400
501,000000	15,591800
500,000000	15,443700
499,000000	15,283200
498,000000	15,147500
497,000000	15,000400
496,000000	14,889500
495,000000	14,748000
494,000000	14,619400
493,000000	14,492400
492,000000	14,416800
491,000000	14,299400
490,000000	14,183300
489,000000	14,096100
488,000000	14,005400
487,000000	13,929800
486,000000	13,840200
485,000000	13,767100
484,000000	13,690400
483,000000	13,608600
482,000000	13,540700
481,000000	13,452000
480,000000	13,359700
479,000000	13,267100
478,000000	13,194300
477,000000	13,127500
476,000000	13,051300
475,000000	12,984200
474,000000	12,913800
473,000000	12,837700
472,000000	12,779300
471,000000	12,726800
470,000000	12,674200
469,000000	12,615900
468,000000	12,572100
467,000000	12,503700
466,000000	12,462300
465,000000	12,408300
464,000000	12,376700
463,000000	12,349200
462,000000	12,303200
461,000000	12,259000
460,000000	12,219400
459,000000	12,196400
458,000000	12,150500
457,000000	12,130400
456,000000	12,096200
455,000000	12,082900
454,000000	12,038200
453,000000	12,001700
452,000000	11,977300
451,000000	11,961800
450,000000	11,941500
449,000000	11,888000
448,000000	11,842100
447,000000	11,811100
446,000000	11,785700
445,000000	11,752300
444,000000	11,730400
443,000000	11,690800
442,000000	11,631000
441,000000	11,603600
440,000000	11,553900
439,000000	11,506800
438,000000	11,461000
437,000000	11,408700
436,000000	11,325700
435,000000	11,283100
434,000000	11,218700
433,000000	11,183500
432,000000	11,115400
431,000000	11,054000
430,000000	10,985800
429,000000	10,916400
428,000000	10,841800
427,000000	10,805000
426,000000	10,730300
425,000000	10,649100
424,000000	10,570600
423,000000	10,536000
422,000000	10,463900
421,000000	10,367800
420,000000	10,276200
419,000000	10,211800
418,000000	10,147700
417,000000	10,047400
416,000000	9,965000
415,000000	9,890600
414,000000	9,793700
413,000000	9,718900
412,000000	9,623100
411,000000	9,549600
410,000000	9,450500
409,000000	9,339900
408,000000	9,246700
407,000000	9,139800
406,000000	9,053500
405,000000	8,963700
404,000000	8,854600
403,000000	8,762700
402,000000	8,679800
401,000000	8,563500
400,000000	8,457200
399,000000	8,367400
398,000000	8,249700
397,000000	8,147900
396,000000	8,045300
395,000000	7,949000
394,000000	7,851000
393,000000	7,747800
392,000000	7,643300
391,000000	7,566000
390,000000	7,442000
389,000000	7,330600
388,000000	7,252100
387,000000	7,138500
386,000000	7,048900
385,000000	6,970700
384,000000	6,891100
383,000000	6,794000
382,000000	6,681400
381,000000	6,596700
380,000000	6,513900
379,000000	6,429100
378,000000	6,362100
377,000000	6,291900
376,000000	6,240600
375,000000	5,998900
374,000000	5,712800
373,000000	5,910900
372,000000	5,958600
371,000000	5,794000
370,000000	5,704100
369,000000	5,735600
368,000000	5,727100
367,000000	5,706200
366,000000	5,658500
365,000000	5,638700
364,000000	5,482200
363,000000	5,368900
362,000000	5,362400
361,000000	5,503800
360,000000	5,508500
359,000000	5,507800
358,000000	5,410900
357,000000	5,362200
356,000000	5,365800
355,000000	5,275100
354,000000	5,173500
353,000000	5,231800
352,000000	5,161100
351,000000	5,041700
350,000000	5,010400
349,000000	5,002800
348,000000	5,112600
347,000000	5,167500
346,000000	5,117700
345,000000	5,129400
344,000000	5,112600
343,000000	5,137100
342,000000	5,198800
341,000000	5,121800
340,000000	5,119500
339,000000	5,064900
338,000000	5,017700
337,000000	5,011800
336,000000	4,890000
335,000000	4,943500
334,000000	5,124600
333,000000	5,130200
332,000000	5,148200
331,000000	4,984400
330,000000	4,867700
329,000000	4,892300
328,000000	4,843800
327,000000	5,162400
326,000000	5,341400
325,000000	5,148800
324,000000	5,199000
323,000000	4,998600
322,000000	4,983400
321,000000	5,337500
320,000000	5,165600
319,000000	5,113000
318,000000	5,267300
317,000000	5,332500
316,000000	5,015000
315,000000	4,733700
314,000000	4,755800
313,000000	4,768000
312,000000	4,754000
311,000000	4,752100
310,000000	4,771600
309,000000	4,782600
308,000000	4,747300
307,000000	4,739500
306,000000	4,784900
305,000000	4,796200
304,000000	4,771400
303,000000	4,785200
302,000000	4,794000
301,000000	4,815000
300,000000	4,798300
299,000000	4,764700
298,000000	4,758200
297,000000	4,752700
296,000000	4,749000
295,000000	4,771200
294,000000	4,794100
293,000000	4,797700
292,000000	4,778300
291,000000	4,789900
290,000000	4,802000
289,000000	4,764400
288,000000	4,728300
287,000000	4,761800
286,000000	4,793800
285,000000	4,774800
284,000000	4,769700
283,000000	4,797200
282,000000	4,823200
281,000000	4,805700
280,000000	4,819700
279,000000	4,840400
278,000000	4,852200
277,000000	4,832100
276,000000	4,864600
275,000000	4,876800
274,000000	4,883700
273,000000	4,879000
272,000000	4,943400
271,000000	4,942300
270,000000	4,942200
269,000000	4,979200
268,000000	4,991200
267,000000	4,984000
266,000000	5,020000
265,000000	5,042000
264,000000	5,057500
263,000000	5,097100
262,000000	5,110000
261,000000	5,136000
260,000000	5,144000
259,000000	5,168700
258,000000	5,209700
257,000000	5,216600
256,000000	5,224200
255,000000	5,208300
254,000000	5,248700
253,000000	5,254100
252,000000	5,304500
251,000000	5,294900
250,000000	5,278200
