PE UV       SUBTECH     SPECTRUM    ASCII       PEDS        4.00        
   -1
CICIMAUCR0233-3.ASC
24/06/14
14:14:12.00
24/06/14
14:14:12.00
Vinicio Soto Monge
C. resplendens. Sex F. Ventral 
250,000000
1
Lambda 1050
1050L1511233
PerkinElmer UV WinLab 6.3.2.0749 / 2.02.05 Lambda 900 UV/VIS/NIR, Aug  7 2015 09:38:08

0
0
3350/servo 860,8/2
0
0
UV/VIS
1
1
1
DoubleDePol,CommonBeamDepol,RBeamAtt,SBeamAtt,60mm sphere, WB InGaAs Detector
0
0
0
0
Program
Program
3350/servo 860,8/2
3350/0,2 860,8/0,2
3350/0,2 860,8/0,2
0
15.00
 
 
 
0
 
860,8
319,2
860,8
Front
100
on
S:100 R:100
0
0
0
0
 
0
 
 
 
0
 
 
0
0
0
0
0
 
 
 
 
0
0


0
0
#HDR
-1
-1
#GR
nm
%R
1.0
0.0
2500,000000
-1,000000
2251
8
50,153800
4,151800
#DATA
2500,000000	4,769000
2499,000000	4,622600
2498,000000	4,649200
2497,000000	4,636800
2496,000000	4,537000
2495,000000	4,513700
2494,000000	4,466400
2493,000000	4,497300
2492,000000	4,382200
2491,000000	4,518600
2490,000000	4,386700
2489,000000	4,454600
2488,000000	4,439200
2487,000000	4,367700
2486,000000	4,312600
2485,000000	4,444500
2484,000000	4,431300
2483,000000	4,391400
2482,000000	4,384500
2481,000000	4,427000
2480,000000	4,381700
2479,000000	4,422700
2478,000000	4,391600
2477,000000	4,351700
2476,000000	4,381000
2475,000000	4,391500
2474,000000	4,330700
2473,000000	4,286500
2472,000000	4,304300
2471,000000	4,321800
2470,000000	4,313500
2469,000000	4,312800
2468,000000	4,285900
2467,000000	4,334200
2466,000000	4,349600
2465,000000	4,318000
2464,000000	4,321100
2463,000000	4,347300
2462,000000	4,332200
2461,000000	4,315100
2460,000000	4,299700
2459,000000	4,300500
2458,000000	4,294100
2457,000000	4,305600
2456,000000	4,342000
2455,000000	4,361300
2454,000000	4,377100
2453,000000	4,359600
2452,000000	4,357200
2451,000000	4,354000
2450,000000	4,401700
2449,000000	4,370500
2448,000000	4,383400
2447,000000	4,399300
2446,000000	4,428600
2445,000000	4,413300
2444,000000	4,449100
2443,000000	4,447300
2442,000000	4,441500
2441,000000	4,464600
2440,000000	4,503700
2439,000000	4,490600
2438,000000	4,513100
2437,000000	4,514900
2436,000000	4,523600
2435,000000	4,545800
2434,000000	4,569500
2433,000000	4,571100
2432,000000	4,578200
2431,000000	4,598100
2430,000000	4,585200
2429,000000	4,590500
2428,000000	4,614500
2427,000000	4,620500
2426,000000	4,605600
2425,000000	4,615200
2424,000000	4,627300
2423,000000	4,635300
2422,000000	4,625100
2421,000000	4,655500
2420,000000	4,666000
2419,000000	4,646200
2418,000000	4,659000
2417,000000	4,663200
2416,000000	4,676900
2415,000000	4,696700
2414,000000	4,684500
2413,000000	4,700700
2412,000000	4,717000
2411,000000	4,720400
2410,000000	4,728900
2409,000000	4,744600
2408,000000	4,745300
2407,000000	4,736300
2406,000000	4,746000
2405,000000	4,752800
2404,000000	4,753700
2403,000000	4,757700
2402,000000	4,775100
2401,000000	4,786200
2400,000000	4,804700
2399,000000	4,810600
2398,000000	4,834100
2397,000000	4,834400
2396,000000	4,841900
2395,000000	4,841400
2394,000000	4,842400
2393,000000	4,847300
2392,000000	4,853000
2391,000000	4,862300
2390,000000	4,878100
2389,000000	4,887500
2388,000000	4,889300
2387,000000	4,885300
2386,000000	4,890100
2385,000000	4,893700
2384,000000	4,904300
2383,000000	4,910800
2382,000000	4,916100
2381,000000	4,925500
2380,000000	4,923600
2379,000000	4,919500
2378,000000	4,922100
2377,000000	4,932600
2376,000000	4,928100
2375,000000	4,920900
2374,000000	4,913500
2373,000000	4,909700
2372,000000	4,903500
2371,000000	4,907200
2370,000000	4,912100
2369,000000	4,911600
2368,000000	4,908200
2367,000000	4,894900
2366,000000	4,882600
2365,000000	4,873700
2364,000000	4,884100
2363,000000	4,884000
2362,000000	4,881200
2361,000000	4,871000
2360,000000	4,861700
2359,000000	4,865900
2358,000000	4,857800
2357,000000	4,862600
2356,000000	4,855300
2355,000000	4,834800
2354,000000	4,827300
2353,000000	4,828100
2352,000000	4,821600
2351,000000	4,830600
2350,000000	4,834000
2349,000000	4,834200
2348,000000	4,845700
2347,000000	4,849300
2346,000000	4,852700
2345,000000	4,857100
2344,000000	4,856200
2343,000000	4,860200
2342,000000	4,876000
2341,000000	4,890600
2340,000000	4,900000
2339,000000	4,897500
2338,000000	4,910300
2337,000000	4,914300
2336,000000	4,910700
2335,000000	4,909100
2334,000000	4,922700
2333,000000	4,926200
2332,000000	4,902900
2331,000000	4,897700
2330,000000	4,905400
2329,000000	4,893300
2328,000000	4,890100
2327,000000	4,881200
2326,000000	4,870600
2325,000000	4,877500
2324,000000	4,867300
2323,000000	4,859200
2322,000000	4,841900
2321,000000	4,824600
2320,000000	4,817300
2319,000000	4,814600
2318,000000	4,802200
2317,000000	4,766500
2316,000000	4,743100
2315,000000	4,737800
2314,000000	4,734700
2313,000000	4,712900
2312,000000	4,687800
2311,000000	4,678500
2310,000000	4,669500
2309,000000	4,655200
2308,000000	4,629600
2307,000000	4,630100
2306,000000	4,637400
2305,000000	4,640300
2304,000000	4,630400
2303,000000	4,641900
2302,000000	4,632900
2301,000000	4,641300
2300,000000	4,646900
2299,000000	4,656900
2298,000000	4,660000
2297,000000	4,671800
2296,000000	4,687000
2295,000000	4,715700
2294,000000	4,721200
2293,000000	4,743100
2292,000000	4,739500
2291,000000	4,748000
2290,000000	4,760300
2289,000000	4,767100
2288,000000	4,770200
2287,000000	4,764500
2286,000000	4,796900
2285,000000	4,780800
2284,000000	4,769900
2283,000000	4,770200
2282,000000	4,765700
2281,000000	4,731000
2280,000000	4,743700
2279,000000	4,739800
2278,000000	4,735900
2277,000000	4,744200
2276,000000	4,731100
2275,000000	4,724600
2274,000000	4,714400
2273,000000	4,700600
2272,000000	4,696500
2271,000000	4,681700
2270,000000	4,704100
2269,000000	4,705000
2268,000000	4,716000
2267,000000	4,727100
2266,000000	4,738900
2265,000000	4,749900
2264,000000	4,769300
2263,000000	4,785300
2262,000000	4,816700
2261,000000	4,859300
2260,000000	4,882900
2259,000000	4,924500
2258,000000	4,954500
2257,000000	5,013700
2256,000000	5,056700
2255,000000	5,074000
2254,000000	5,129300
2253,000000	5,182900
2252,000000	5,217900
2251,000000	5,262500
2250,000000	5,330600
2249,000000	5,365200
2248,000000	5,397200
2247,000000	5,446500
2246,000000	5,500700
2245,000000	5,529800
2244,000000	5,546800
2243,000000	5,592100
2242,000000	5,620500
2241,000000	5,646300
2240,000000	5,697000
2239,000000	5,695300
2238,000000	5,716800
2237,000000	5,753700
2236,000000	5,752800
2235,000000	5,790100
2234,000000	5,799800
2233,000000	5,807000
2232,000000	5,824800
2231,000000	5,832300
2230,000000	5,852000
2229,000000	5,860000
2228,000000	5,877600
2227,000000	5,864500
2226,000000	5,883900
2225,000000	5,853800
2224,000000	5,852400
2223,000000	5,852000
2222,000000	5,877700
2221,000000	5,841000
2220,000000	5,838800
2219,000000	5,858200
2218,000000	5,825100
2217,000000	5,843600
2216,000000	5,831900
2215,000000	5,839400
2214,000000	5,826200
2213,000000	5,809000
2212,000000	5,828500
2211,000000	5,808400
2210,000000	5,810000
2209,000000	5,811700
2208,000000	5,791000
2207,000000	5,768700
2206,000000	5,786900
2205,000000	5,767900
2204,000000	5,769100
2203,000000	5,768900
2202,000000	5,753600
2201,000000	5,768200
2200,000000	5,742400
2199,000000	5,780100
2198,000000	5,749700
2197,000000	5,726100
2196,000000	5,748000
2195,000000	5,767300
2194,000000	5,752200
2193,000000	5,727400
2192,000000	5,732000
2191,000000	5,723900
2190,000000	5,725800
2189,000000	5,723600
2188,000000	5,751400
2187,000000	5,731400
2186,000000	5,709500
2185,000000	5,713400
2184,000000	5,733300
2183,000000	5,716300
2182,000000	5,732700
2181,000000	5,709300
2180,000000	5,713000
2179,000000	5,723500
2178,000000	5,706600
2177,000000	5,697700
2176,000000	5,694300
2175,000000	5,699500
2174,000000	5,704000
2173,000000	5,713700
2172,000000	5,709000
2171,000000	5,692000
2170,000000	5,701100
2169,000000	5,703900
2168,000000	5,704300
2167,000000	5,715200
2166,000000	5,720800
2165,000000	5,723400
2164,000000	5,737300
2163,000000	5,739300
2162,000000	5,723600
2161,000000	5,747700
2160,000000	5,760100
2159,000000	5,749800
2158,000000	5,762800
2157,000000	5,775600
2156,000000	5,785800
2155,000000	5,783800
2154,000000	5,802000
2153,000000	5,803100
2152,000000	5,808500
2151,000000	5,837400
2150,000000	5,843300
2149,000000	5,859000
2148,000000	5,860800
2147,000000	5,864800
2146,000000	5,881800
2145,000000	5,900900
2144,000000	5,910800
2143,000000	5,921700
2142,000000	5,923200
2141,000000	5,929500
2140,000000	5,933400
2139,000000	5,945800
2138,000000	5,948100
2137,000000	5,955300
2136,000000	5,967600
2135,000000	5,976300
2134,000000	5,974000
2133,000000	5,991000
2132,000000	5,995300
2131,000000	5,998200
2130,000000	5,987800
2129,000000	5,983700
2128,000000	5,991300
2127,000000	5,990000
2126,000000	5,985000
2125,000000	5,986400
2124,000000	6,001200
2123,000000	5,990300
2122,000000	5,990600
2121,000000	5,990200
2120,000000	5,993400
2119,000000	5,975800
2118,000000	5,967700
2117,000000	5,963600
2116,000000	5,953200
2115,000000	5,939400
2114,000000	5,942500
2113,000000	5,923400
2112,000000	5,907500
2111,000000	5,914400
2110,000000	5,914800
2109,000000	5,901800
2108,000000	5,900800
2107,000000	5,896400
2106,000000	5,900500
2105,000000	5,877100
2104,000000	5,862100
2103,000000	5,853000
2102,000000	5,848000
2101,000000	5,843400
2100,000000	5,844300
2099,000000	5,827100
2098,000000	5,811900
2097,000000	5,812100
2096,000000	5,817300
2095,000000	5,820600
2094,000000	5,798200
2093,000000	5,790900
2092,000000	5,789400
2091,000000	5,768400
2090,000000	5,776200
2089,000000	5,779800
2088,000000	5,769600
2087,000000	5,752700
2086,000000	5,743400
2085,000000	5,754600
2084,000000	5,751900
2083,000000	5,742100
2082,000000	5,729300
2081,000000	5,720800
2080,000000	5,720300
2079,000000	5,710400
2078,000000	5,703800
2077,000000	5,702500
2076,000000	5,681800
2075,000000	5,658700
2074,000000	5,651100
2073,000000	5,644200
2072,000000	5,636500
2071,000000	5,624200
2070,000000	5,620300
2069,000000	5,607600
2068,000000	5,592900
2067,000000	5,583800
2066,000000	5,583100
2065,000000	5,580700
2064,000000	5,557400
2063,000000	5,552000
2062,000000	5,534800
2061,000000	5,514900
2060,000000	5,512800
2059,000000	5,501700
2058,000000	5,497700
2057,000000	5,488000
2056,000000	5,482300
2055,000000	5,488900
2054,000000	5,477400
2053,000000	5,479200
2052,000000	5,486300
2051,000000	5,498500
2050,000000	5,503800
2049,000000	5,509500
2048,000000	5,510500
2047,000000	5,523600
2046,000000	5,537800
2045,000000	5,549000
2044,000000	5,553500
2043,000000	5,575500
2042,000000	5,597100
2041,000000	5,601800
2040,000000	5,617700
2039,000000	5,637000
2038,000000	5,661200
2037,000000	5,674200
2036,000000	5,674400
2035,000000	5,680100
2034,000000	5,697400
2033,000000	5,706600
2032,000000	5,717700
2031,000000	5,718400
2030,000000	5,714600
2029,000000	5,721000
2028,000000	5,721200
2027,000000	5,742700
2026,000000	5,750600
2025,000000	5,735100
2024,000000	5,730200
2023,000000	5,736000
2022,000000	5,744600
2021,000000	5,740000
2020,000000	5,735400
2019,000000	5,740700
2018,000000	5,741600
2017,000000	5,730200
2016,000000	5,737400
2015,000000	5,728400
2014,000000	5,713700
2013,000000	5,714400
2012,000000	5,701400
2011,000000	5,692000
2010,000000	5,678200
2009,000000	5,679800
2008,000000	5,663600
2007,000000	5,644100
2006,000000	5,642200
2005,000000	5,631800
2004,000000	5,623000
2003,000000	5,600000
2002,000000	5,599900
2001,000000	5,592300
2000,000000	5,573200
1999,000000	5,555000
1998,000000	5,553500
1997,000000	5,533800
1996,000000	5,503200
1995,000000	5,510000
1994,000000	5,484900
1993,000000	5,476900
1992,000000	5,458800
1991,000000	5,411600
1990,000000	5,391700
1989,000000	5,394100
1988,000000	5,377900
1987,000000	5,342600
1986,000000	5,333500
1985,000000	5,337700
1984,000000	5,301400
1983,000000	5,279200
1982,000000	5,272200
1981,000000	5,267700
1980,000000	5,258700
1979,000000	5,234100
1978,000000	5,204800
1977,000000	5,185900
1976,000000	5,168300
1975,000000	5,162300
1974,000000	5,147900
1973,000000	5,135100
1972,000000	5,115500
1971,000000	5,120300
1970,000000	5,088300
1969,000000	5,080500
1968,000000	5,073900
1967,000000	5,049600
1966,000000	5,010700
1965,000000	5,026600
1964,000000	5,010300
1963,000000	5,003000
1962,000000	5,009300
1961,000000	4,980500
1960,000000	4,977400
1959,000000	4,978100
1958,000000	4,952500
1957,000000	4,952500
1956,000000	4,933900
1955,000000	4,927300
1954,000000	4,917500
1953,000000	4,894800
1952,000000	4,895900
1951,000000	4,877100
1950,000000	4,886100
1949,000000	4,855500
1948,000000	4,866900
1947,000000	4,860300
1946,000000	4,858900
1945,000000	4,831500
1944,000000	4,829700
1943,000000	4,835200
1942,000000	4,833200
1941,000000	4,833200
1940,000000	4,838100
1939,000000	4,846700
1938,000000	4,843100
1937,000000	4,830500
1936,000000	4,824900
1935,000000	4,836700
1934,000000	4,837300
1933,000000	4,842600
1932,000000	4,831900
1931,000000	4,828500
1930,000000	4,852400
1929,000000	4,845100
1928,000000	4,884200
1927,000000	4,888600
1926,000000	4,902500
1925,000000	4,922500
1924,000000	4,919900
1923,000000	4,935600
1922,000000	4,937600
1921,000000	4,988300
1920,000000	5,017100
1919,000000	5,027100
1918,000000	5,060000
1917,000000	5,076800
1916,000000	5,091000
1915,000000	5,117900
1914,000000	5,134900
1913,000000	5,179200
1912,000000	5,209000
1911,000000	5,259300
1910,000000	5,268000
1909,000000	5,306900
1908,000000	5,339400
1907,000000	5,358900
1906,000000	5,426000
1905,000000	5,486200
1904,000000	5,538600
1903,000000	5,599400
1902,000000	5,640500
1901,000000	5,690600
1900,000000	5,756200
1899,000000	5,812300
1898,000000	5,869500
1897,000000	5,961400
1896,000000	6,005900
1895,000000	6,040800
1894,000000	6,112000
1893,000000	6,186600
1892,000000	6,288000
1891,000000	6,389700
1890,000000	6,514100
1889,000000	6,625400
1888,000000	6,752300
1887,000000	6,875600
1886,000000	6,963000
1885,000000	7,128600
1884,000000	7,295300
1883,000000	7,465600
1882,000000	7,662600
1881,000000	7,855000
1880,000000	8,044700
1879,000000	8,217000
1878,000000	8,399200
1877,000000	8,594900
1876,000000	8,812500
1875,000000	9,029800
1874,000000	9,228700
1873,000000	9,459200
1872,000000	9,693600
1871,000000	9,917000
1870,000000	10,111300
1869,000000	10,334800
1868,000000	10,517800
1867,000000	10,648800
1866,000000	10,779000
1865,000000	10,865200
1864,000000	10,960500
1863,000000	11,057200
1862,000000	11,138600
1861,000000	11,236800
1860,000000	11,355500
1859,000000	11,449100
1858,000000	11,540900
1857,000000	11,644000
1856,000000	11,709500
1855,000000	11,744600
1854,000000	11,784600
1853,000000	11,841500
1852,000000	11,869900
1851,000000	11,883700
1850,000000	11,895200
1849,000000	11,901700
1848,000000	11,920100
1847,000000	11,969900
1846,000000	12,005800
1845,000000	11,994500
1844,000000	11,965100
1843,000000	11,917300
1842,000000	11,901600
1841,000000	11,921700
1840,000000	11,939000
1839,000000	11,971300
1838,000000	11,963200
1837,000000	11,963500
1836,000000	11,950300
1835,000000	11,931800
1834,000000	11,918600
1833,000000	11,888800
1832,000000	11,840700
1831,000000	11,795000
1830,000000	11,776500
1829,000000	11,763300
1828,000000	11,743000
1827,000000	11,695600
1826,000000	11,664200
1825,000000	11,637900
1824,000000	11,604200
1823,000000	11,565600
1822,000000	11,536500
1821,000000	11,517100
1820,000000	11,514800
1819,000000	11,529600
1818,000000	11,498300
1817,000000	11,476200
1816,000000	11,454500
1815,000000	11,435900
1814,000000	11,437600
1813,000000	11,438100
1812,000000	11,424900
1811,000000	11,402300
1810,000000	11,379200
1809,000000	11,365900
1808,000000	11,349900
1807,000000	11,325900
1806,000000	11,301500
1805,000000	11,282800
1804,000000	11,250400
1803,000000	11,220900
1802,000000	11,198200
1801,000000	11,172500
1800,000000	11,156300
1799,000000	11,125300
1798,000000	11,084000
1797,000000	11,053300
1796,000000	11,033300
1795,000000	11,006300
1794,000000	10,970800
1793,000000	10,939100
1792,000000	10,911200
1791,000000	10,894700
1790,000000	10,867200
1789,000000	10,834800
1788,000000	10,808700
1787,000000	10,774800
1786,000000	10,737000
1785,000000	10,716300
1784,000000	10,694100
1783,000000	10,666400
1782,000000	10,623500
1781,000000	10,589600
1780,000000	10,566800
1779,000000	10,525400
1778,000000	10,493000
1777,000000	10,461300
1776,000000	10,422500
1775,000000	10,393500
1774,000000	10,356200
1773,000000	10,309600
1772,000000	10,255600
1771,000000	10,208800
1770,000000	10,173300
1769,000000	10,135800
1768,000000	10,074600
1767,000000	10,024000
1766,000000	9,990200
1765,000000	9,958900
1764,000000	9,935000
1763,000000	9,897200
1762,000000	9,873700
1761,000000	9,894200
1760,000000	9,916400
1759,000000	9,932100
1758,000000	9,964700
1757,000000	10,005300
1756,000000	10,033600
1755,000000	10,062800
1754,000000	10,107300
1753,000000	10,137700
1752,000000	10,157000
1751,000000	10,165200
1750,000000	10,164400
1749,000000	10,162700
1748,000000	10,162200
1747,000000	10,159300
1746,000000	10,131400
1745,000000	10,089700
1744,000000	10,051700
1743,000000	10,011100
1742,000000	9,963000
1741,000000	9,894200
1740,000000	9,810100
1739,000000	9,737000
1738,000000	9,663800
1737,000000	9,563800
1736,000000	9,508700
1735,000000	9,436400
1734,000000	9,375800
1733,000000	9,344200
1732,000000	9,341100
1731,000000	9,340500
1730,000000	9,345800
1729,000000	9,389500
1728,000000	9,423700
1727,000000	9,465100
1726,000000	9,506000
1725,000000	9,563500
1724,000000	9,599900
1723,000000	9,636200
1722,000000	9,658800
1721,000000	9,674000
1720,000000	9,720300
1719,000000	9,723700
1718,000000	9,751200
1717,000000	9,767300
1716,000000	9,810900
1715,000000	9,856800
1714,000000	9,900100
1713,000000	9,948500
1712,000000	9,965200
1711,000000	9,999500
1710,000000	10,012900
1709,000000	10,026200
1708,000000	10,048700
1707,000000	10,067800
1706,000000	10,046300
1705,000000	10,034900
1704,000000	10,013300
1703,000000	9,958900
1702,000000	9,938400
1701,000000	9,891200
1700,000000	9,841200
1699,000000	9,788200
1698,000000	9,718500
1697,000000	9,635400
1696,000000	9,584500
1695,000000	9,560400
1694,000000	9,521000
1693,000000	9,525500
1692,000000	9,559000
1691,000000	9,614000
1690,000000	9,662400
1689,000000	9,731300
1688,000000	9,796800
1687,000000	9,856800
1686,000000	9,899800
1685,000000	9,908300
1684,000000	9,962600
1683,000000	9,982500
1682,000000	10,071300
1681,000000	10,189500
1680,000000	10,343700
1679,000000	10,557500
1678,000000	10,778300
1677,000000	11,047300
1676,000000	11,277100
1675,000000	11,481700
1674,000000	11,703600
1673,000000	11,883000
1672,000000	12,046300
1671,000000	12,204000
1670,000000	12,338800
1669,000000	12,448300
1668,000000	12,554600
1667,000000	12,635300
1666,000000	12,692600
1665,000000	12,763400
1664,000000	12,838200
1663,000000	12,874700
1662,000000	12,923300
1661,000000	12,944900
1660,000000	12,988100
1659,000000	13,003700
1658,000000	13,010200
1657,000000	13,031700
1656,000000	13,056000
1655,000000	13,042200
1654,000000	13,053400
1653,000000	13,055300
1652,000000	13,041800
1651,000000	13,045600
1650,000000	13,012200
1649,000000	13,006000
1648,000000	12,971600
1647,000000	12,966300
1646,000000	12,927300
1645,000000	12,894600
1644,000000	12,866000
1643,000000	12,826700
1642,000000	12,811000
1641,000000	12,777800
1640,000000	12,732700
1639,000000	12,692900
1638,000000	12,672900
1637,000000	12,620400
1636,000000	12,566600
1635,000000	12,546100
1634,000000	12,503500
1633,000000	12,468700
1632,000000	12,419200
1631,000000	12,381200
1630,000000	12,333800
1629,000000	12,298200
1628,000000	12,251400
1627,000000	12,202700
1626,000000	12,161400
1625,000000	12,122600
1624,000000	12,063800
1623,000000	12,022400
1622,000000	11,977700
1621,000000	11,927100
1620,000000	11,900000
1619,000000	11,846200
1618,000000	11,793100
1617,000000	11,745600
1616,000000	11,714400
1615,000000	11,680100
1614,000000	11,656400
1613,000000	11,608800
1612,000000	11,567600
1611,000000	11,533700
1610,000000	11,510000
1609,000000	11,463800
1608,000000	11,401900
1607,000000	11,370400
1606,000000	11,330500
1605,000000	11,285500
1604,000000	11,259300
1603,000000	11,203700
1602,000000	11,156500
1601,000000	11,137000
1600,000000	11,112900
1599,000000	11,072400
1598,000000	11,028900
1597,000000	10,978500
1596,000000	10,937600
1595,000000	10,896000
1594,000000	10,863900
1593,000000	10,839800
1592,000000	10,802900
1591,000000	10,780000
1590,000000	10,749400
1589,000000	10,706600
1588,000000	10,656300
1587,000000	10,634000
1586,000000	10,624600
1585,000000	10,589600
1584,000000	10,565900
1583,000000	10,539400
1582,000000	10,501800
1581,000000	10,478100
1580,000000	10,450400
1579,000000	10,431800
1578,000000	10,406800
1577,000000	10,393800
1576,000000	10,370000
1575,000000	10,346000
1574,000000	10,339800
1573,000000	10,315400
1572,000000	10,306000
1571,000000	10,313100
1570,000000	10,284700
1569,000000	10,270800
1568,000000	10,264600
1567,000000	10,275900
1566,000000	10,248400
1565,000000	10,235000
1564,000000	10,227900
1563,000000	10,220600
1562,000000	10,219200
1561,000000	10,212200
1560,000000	10,197200
1559,000000	10,191900
1558,000000	10,188800
1557,000000	10,179100
1556,000000	10,150400
1555,000000	10,149400
1554,000000	10,145400
1553,000000	10,116200
1552,000000	10,085700
1551,000000	10,073000
1550,000000	10,060300
1549,000000	10,034400
1548,000000	10,017400
1547,000000	10,025600
1546,000000	10,010200
1545,000000	9,977300
1544,000000	9,956800
1543,000000	9,939900
1542,000000	9,913900
1541,000000	9,904600
1540,000000	9,889500
1539,000000	9,869300
1538,000000	9,870200
1537,000000	9,858200
1536,000000	9,837700
1535,000000	9,820900
1534,000000	9,801300
1533,000000	9,782500
1532,000000	9,764800
1531,000000	9,745600
1530,000000	9,720900
1529,000000	9,692900
1528,000000	9,665700
1527,000000	9,644900
1526,000000	9,624900
1525,000000	9,593800
1524,000000	9,563300
1523,000000	9,536400
1522,000000	9,520200
1521,000000	9,497800
1520,000000	9,456300
1519,000000	9,421700
1518,000000	9,391100
1517,000000	9,371300
1516,000000	9,352200
1515,000000	9,314700
1514,000000	9,281600
1513,000000	9,255200
1512,000000	9,237600
1511,000000	9,212400
1510,000000	9,168400
1509,000000	9,121000
1508,000000	9,103900
1507,000000	9,070800
1506,000000	9,035700
1505,000000	9,007500
1504,000000	8,984600
1503,000000	8,954600
1502,000000	8,927300
1501,000000	8,899300
1500,000000	8,855300
1499,000000	8,828100
1498,000000	8,806800
1497,000000	8,787500
1496,000000	8,756400
1495,000000	8,732700
1494,000000	8,714600
1493,000000	8,677600
1492,000000	8,662000
1491,000000	8,634500
1490,000000	8,603200
1489,000000	8,593400
1488,000000	8,575800
1487,000000	8,561100
1486,000000	8,538900
1485,000000	8,521600
1484,000000	8,514000
1483,000000	8,503500
1482,000000	8,478000
1481,000000	8,456500
1480,000000	8,455800
1479,000000	8,448100
1478,000000	8,437100
1477,000000	8,416500
1476,000000	8,404800
1475,000000	8,395200
1474,000000	8,391800
1473,000000	8,381800
1472,000000	8,375200
1471,000000	8,387600
1470,000000	8,379400
1469,000000	8,371300
1468,000000	8,368000
1467,000000	8,379500
1466,000000	8,389600
1465,000000	8,380200
1464,000000	8,377200
1463,000000	8,383800
1462,000000	8,396000
1461,000000	8,403300
1460,000000	8,407100
1459,000000	8,412900
1458,000000	8,431000
1457,000000	8,442900
1456,000000	8,470800
1455,000000	8,487300
1454,000000	8,518800
1453,000000	8,535200
1452,000000	8,543900
1451,000000	8,584700
1450,000000	8,618700
1449,000000	8,665900
1448,000000	8,689000
1447,000000	8,701900
1446,000000	8,730800
1445,000000	8,786600
1444,000000	8,816800
1443,000000	8,844600
1442,000000	8,885400
1441,000000	8,929400
1440,000000	8,949400
1439,000000	9,014500
1438,000000	9,056100
1437,000000	9,099700
1436,000000	9,138200
1435,000000	9,179500
1434,000000	9,233700
1433,000000	9,294200
1432,000000	9,346400
1431,000000	9,417600
1430,000000	9,493700
1429,000000	9,535100
1428,000000	9,592300
1427,000000	9,686900
1426,000000	9,765100
1425,000000	9,849200
1424,000000	9,922700
1423,000000	10,013100
1422,000000	10,117800
1421,000000	10,213700
1420,000000	10,299100
1419,000000	10,432400
1418,000000	10,562900
1417,000000	10,685000
1416,000000	10,785100
1415,000000	10,924600
1414,000000	11,075900
1413,000000	11,230200
1412,000000	11,405900
1411,000000	11,537000
1410,000000	11,694700
1409,000000	11,910900
1408,000000	12,132200
1407,000000	12,366800
1406,000000	12,603100
1405,000000	12,813900
1404,000000	13,067000
1403,000000	13,342500
1402,000000	13,587300
1401,000000	13,817700
1400,000000	14,148900
1399,000000	14,493800
1398,000000	14,747500
1397,000000	14,949000
1396,000000	15,184100
1395,000000	15,541400
1394,000000	15,905200
1393,000000	16,138000
1392,000000	16,395600
1391,000000	16,746300
1390,000000	17,090700
1389,000000	17,386300
1388,000000	17,737300
1387,000000	18,174800
1386,000000	18,649700
1385,000000	19,085700
1384,000000	19,511800
1383,000000	20,010300
1382,000000	20,555600
1381,000000	21,061400
1380,000000	21,532800
1379,000000	21,819900
1378,000000	22,165200
1377,000000	22,382000
1376,000000	22,607200
1375,000000	22,817100
1374,000000	23,039000
1373,000000	23,267500
1372,000000	23,542900
1371,000000	23,849100
1370,000000	24,182600
1369,000000	24,470200
1368,000000	24,737300
1367,000000	25,034300
1366,000000	25,295000
1365,000000	25,508200
1364,000000	25,700400
1363,000000	25,889600
1362,000000	26,063200
1361,000000	26,246500
1360,000000	26,448500
1359,000000	26,593500
1358,000000	26,647000
1357,000000	26,752800
1356,000000	26,869500
1355,000000	27,062600
1354,000000	27,346700
1353,000000	27,680600
1352,000000	27,994600
1351,000000	28,389800
1350,000000	28,815600
1349,000000	29,226500
1348,000000	29,579600
1347,000000	29,962300
1346,000000	30,335900
1345,000000	30,652200
1344,000000	30,994100
1343,000000	31,344000
1342,000000	31,651000
1341,000000	31,972900
1340,000000	32,288600
1339,000000	32,618700
1338,000000	32,942600
1337,000000	33,267200
1336,000000	33,589100
1335,000000	33,912300
1334,000000	34,203300
1333,000000	34,534200
1332,000000	34,858200
1331,000000	35,150200
1330,000000	35,461100
1329,000000	35,735600
1328,000000	36,028200
1327,000000	36,320300
1326,000000	36,575700
1325,000000	36,826600
1324,000000	37,092100
1323,000000	37,344900
1322,000000	37,572400
1321,000000	37,814700
1320,000000	38,067000
1319,000000	38,279300
1318,000000	38,493000
1317,000000	38,676200
1316,000000	38,862800
1315,000000	39,068700
1314,000000	39,275400
1313,000000	39,442800
1312,000000	39,611600
1311,000000	39,773200
1310,000000	39,946100
1309,000000	40,095600
1308,000000	40,235400
1307,000000	40,354800
1306,000000	40,477300
1305,000000	40,587500
1304,000000	40,705000
1303,000000	40,801100
1302,000000	40,891600
1301,000000	40,976600
1300,000000	41,047600
1299,000000	41,117000
1298,000000	41,188700
1297,000000	41,243600
1296,000000	41,293300
1295,000000	41,339700
1294,000000	41,381300
1293,000000	41,405200
1292,000000	41,439500
1291,000000	41,480100
1290,000000	41,486600
1289,000000	41,489700
1288,000000	41,495800
1287,000000	41,498200
1286,000000	41,486200
1285,000000	41,464300
1284,000000	41,441000
1283,000000	41,407900
1282,000000	41,377200
1281,000000	41,345800
1280,000000	41,306100
1279,000000	41,268500
1278,000000	41,221600
1277,000000	41,187300
1276,000000	41,150100
1275,000000	41,110600
1274,000000	41,076300
1273,000000	41,029100
1272,000000	40,996500
1271,000000	40,966100
1270,000000	40,935200
1269,000000	40,904300
1268,000000	40,869900
1267,000000	40,837100
1266,000000	40,786000
1265,000000	40,725300
1264,000000	40,691000
1263,000000	40,658600
1262,000000	40,605300
1261,000000	40,542200
1260,000000	40,498300
1259,000000	40,453100
1258,000000	40,395700
1257,000000	40,336500
1256,000000	40,274100
1255,000000	40,197800
1254,000000	40,151700
1253,000000	40,083000
1252,000000	39,994200
1251,000000	39,920900
1250,000000	39,840500
1249,000000	39,760700
1248,000000	39,684900
1247,000000	39,598200
1246,000000	39,500800
1245,000000	39,387700
1244,000000	39,280900
1243,000000	39,168000
1242,000000	39,036300
1241,000000	38,915400
1240,000000	38,792800
1239,000000	38,666100
1238,000000	38,549400
1237,000000	38,419600
1236,000000	38,280700
1235,000000	38,136700
1234,000000	37,980800
1233,000000	37,832900
1232,000000	37,694500
1231,000000	37,533500
1230,000000	37,357800
1229,000000	37,187600
1228,000000	37,023000
1227,000000	36,866700
1226,000000	36,698400
1225,000000	36,501300
1224,000000	36,312800
1223,000000	36,128400
1222,000000	35,934800
1221,000000	35,736100
1220,000000	35,555700
1219,000000	35,379200
1218,000000	35,201400
1217,000000	35,024600
1216,000000	34,844800
1215,000000	34,699100
1214,000000	34,537400
1213,000000	34,379000
1212,000000	34,235700
1211,000000	34,093700
1210,000000	33,952300
1209,000000	33,813500
1208,000000	33,692100
1207,000000	33,574300
1206,000000	33,461000
1205,000000	33,359100
1204,000000	33,274100
1203,000000	33,218600
1202,000000	33,163700
1201,000000	33,112700
1200,000000	33,078000
1199,000000	33,017100
1198,000000	32,953700
1197,000000	32,876700
1196,000000	32,760200
1195,000000	32,622100
1194,000000	32,443000
1193,000000	32,227700
1192,000000	31,959000
1191,000000	31,644600
1190,000000	31,298900
1189,000000	30,937400
1188,000000	30,608600
1187,000000	30,340500
1186,000000	30,164200
1185,000000	30,061500
1184,000000	30,053200
1183,000000	30,171500
1182,000000	30,404400
1181,000000	30,744700
1180,000000	31,135700
1179,000000	31,566300
1178,000000	32,009000
1177,000000	32,418300
1176,000000	32,794700
1175,000000	33,133800
1174,000000	33,442700
1173,000000	33,751700
1172,000000	34,045600
1171,000000	34,328600
1170,000000	34,622800
1169,000000	34,912600
1168,000000	35,219100
1167,000000	35,533200
1166,000000	35,849000
1165,000000	36,186500
1164,000000	36,519700
1163,000000	36,876900
1162,000000	37,232200
1161,000000	37,602200
1160,000000	37,965500
1159,000000	38,338800
1158,000000	38,695300
1157,000000	39,040300
1156,000000	39,392100
1155,000000	39,703800
1154,000000	39,990900
1153,000000	40,246600
1152,000000	40,469800
1151,000000	40,672600
1150,000000	40,829900
1149,000000	40,967700
1148,000000	41,125700
1147,000000	41,278300
1146,000000	41,461800
1145,000000	41,669700
1144,000000	41,948100
1143,000000	42,276700
1142,000000	42,624300
1141,000000	43,029100
1140,000000	43,450400
1139,000000	43,881300
1138,000000	44,354400
1137,000000	44,827200
1136,000000	45,314800
1135,000000	45,838500
1134,000000	46,386700
1133,000000	46,923400
1132,000000	47,387100
1131,000000	47,810500
1130,000000	48,194900
1129,000000	48,539800
1128,000000	48,851300
1127,000000	49,096500
1126,000000	49,313100
1125,000000	49,478300
1124,000000	49,616700
1123,000000	49,737600
1122,000000	49,852900
1121,000000	49,919800
1120,000000	49,987400
1119,000000	50,049800
1118,000000	50,094500
1117,000000	50,118000
1116,000000	50,137500
1115,000000	50,153800
1114,000000	50,140400
1113,000000	50,129500
1112,000000	50,121500
1111,000000	50,113600
1110,000000	50,112500
1109,000000	50,099600
1108,000000	50,112700
1107,000000	50,098400
1106,000000	50,077500
1105,000000	50,076000
1104,000000	50,052000
1103,000000	50,034500
1102,000000	50,032000
1101,000000	50,008200
1100,000000	50,003900
1099,000000	49,968000
1098,000000	49,950600
1097,000000	49,926000
1096,000000	49,914700
1095,000000	49,880400
1094,000000	49,835100
1093,000000	49,811900
1092,000000	49,762000
1091,000000	49,721500
1090,000000	49,688700
1089,000000	49,627600
1088,000000	49,554700
1087,000000	49,526300
1086,000000	49,464300
1085,000000	49,414400
1084,000000	49,345200
1083,000000	49,292600
1082,000000	49,228000
1081,000000	49,168600
1080,000000	49,102300
1079,000000	49,015000
1078,000000	48,960300
1077,000000	48,911100
1076,000000	48,818400
1075,000000	48,759300
1074,000000	48,716000
1073,000000	48,633500
1072,000000	48,553000
1071,000000	48,485300
1070,000000	48,403100
1069,000000	48,336900
1068,000000	48,257000
1067,000000	48,190100
1066,000000	48,118200
1065,000000	48,041300
1064,000000	47,956500
1063,000000	47,881400
1062,000000	47,782500
1061,000000	47,718100
1060,000000	47,658700
1059,000000	47,542000
1058,000000	47,454300
1057,000000	47,367300
1056,000000	47,274300
1055,000000	47,196400
1054,000000	47,114000
1053,000000	46,991400
1052,000000	46,927100
1051,000000	46,830700
1050,000000	46,745800
1049,000000	46,662500
1048,000000	46,573900
1047,000000	46,497000
1046,000000	46,399300
1045,000000	46,329700
1044,000000	46,242100
1043,000000	46,170700
1042,000000	46,082300
1041,000000	46,008600
1040,000000	45,931300
1039,000000	45,836400
1038,000000	45,755700
1037,000000	45,678200
1036,000000	45,592500
1035,000000	45,510800
1034,000000	45,405300
1033,000000	45,304700
1032,000000	45,215300
1031,000000	45,125700
1030,000000	45,043600
1029,000000	44,925600
1028,000000	44,827900
1027,000000	44,721200
1026,000000	44,641000
1025,000000	44,527500
1024,000000	44,413900
1023,000000	44,319000
1022,000000	44,223500
1021,000000	44,104300
1020,000000	44,009100
1019,000000	43,899900
1018,000000	43,799400
1017,000000	43,723700
1016,000000	43,599500
1015,000000	43,517400
1014,000000	43,449100
1013,000000	43,367100
1012,000000	43,323400
1011,000000	43,248200
1010,000000	43,179900
1009,000000	43,141500
1008,000000	43,091600
1007,000000	43,042500
1006,000000	43,006900
1005,000000	42,956100
1004,000000	42,921300
1003,000000	42,898100
1002,000000	42,857400
1001,000000	42,823900
1000,000000	42,793900
999,000000	42,760100
998,000000	42,718600
997,000000	42,675200
996,000000	42,647200
995,000000	42,617400
994,000000	42,587600
993,000000	42,565800
992,000000	42,538400
991,000000	42,522000
990,000000	42,505000
989,000000	42,469900
988,000000	42,455000
987,000000	42,448900
986,000000	42,434200
985,000000	42,421900
984,000000	42,419100
983,000000	42,420100
982,000000	42,414300
981,000000	42,420600
980,000000	42,412700
979,000000	42,408200
978,000000	42,416800
977,000000	42,420400
976,000000	42,419900
975,000000	42,421700
974,000000	42,431900
973,000000	42,446000
972,000000	42,446200
971,000000	42,464600
970,000000	42,477100
969,000000	42,481900
968,000000	42,495900
967,000000	42,499700
966,000000	42,523500
965,000000	42,561700
964,000000	42,578700
963,000000	42,591100
962,000000	42,619600
961,000000	42,649900
960,000000	42,694500
959,000000	42,742900
958,000000	42,767000
957,000000	42,787300
956,000000	42,824300
955,000000	42,860300
954,000000	42,903400
953,000000	42,936500
952,000000	42,972200
951,000000	43,007500
950,000000	43,043000
949,000000	43,079200
948,000000	43,114700
947,000000	43,156200
946,000000	43,178400
945,000000	43,199400
944,000000	43,232900
943,000000	43,252600
942,000000	43,253800
941,000000	43,279600
940,000000	43,296600
939,000000	43,290900
938,000000	43,289700
937,000000	43,295600
936,000000	43,291800
935,000000	43,305700
934,000000	43,326200
933,000000	43,345000
932,000000	43,356700
931,000000	43,355000
930,000000	43,370300
929,000000	43,371300
928,000000	43,351700
927,000000	43,352600
926,000000	43,348300
925,000000	43,336500
924,000000	43,335700
923,000000	43,327200
922,000000	43,295300
921,000000	43,300100
920,000000	43,303300
919,000000	43,281800
918,000000	43,269800
917,000000	43,251300
916,000000	43,221000
915,000000	43,192200
914,000000	43,173000
913,000000	43,134300
912,000000	43,105200
911,000000	43,076500
910,000000	43,051800
909,000000	43,036000
908,000000	43,020800
907,000000	42,999100
906,000000	42,970900
905,000000	42,963100
904,000000	42,970100
903,000000	42,967300
902,000000	42,963200
901,000000	42,955900
900,000000	42,936700
899,000000	42,954000
898,000000	42,969200
897,000000	42,951300
896,000000	42,946100
895,000000	42,945500
894,000000	42,930700
893,000000	42,918800
892,000000	42,914700
891,000000	42,904300
890,000000	42,869600
889,000000	42,831000
888,000000	42,796100
887,000000	42,754500
886,000000	42,700300
885,000000	42,634000
884,000000	42,579800
883,000000	42,535700
882,000000	42,472500
881,000000	42,405800
880,000000	42,324900
879,000000	42,277600
878,000000	42,172300
877,000000	42,074800
876,000000	41,981700
875,000000	41,860900
874,000000	41,729300
873,000000	41,591300
872,000000	41,457900
871,000000	41,348000
870,000000	41,313500
869,000000	41,333800
868,000000	41,361700
867,000000	41,384600
866,000000	41,431700
865,000000	41,468300
864,000000	41,503400
863,000000	41,524400
862,000000	41,561500
861,000000	41,590300
860,000000	41,613300
859,000000	41,653600
858,000000	41,670000
857,000000	47,603100
856,000000	48,272000
855,000000	48,025700
854,000000	48,194200
853,000000	48,371500
852,000000	48,743800
851,000000	48,638500
850,000000	48,985600
849,000000	48,807100
848,000000	48,952400
847,000000	48,743400
846,000000	49,123500
845,000000	49,032600
844,000000	48,910800
843,000000	49,034500
842,000000	49,060600
841,000000	49,305600
840,000000	49,082500
839,000000	49,046900
838,000000	48,916400
837,000000	49,223700
836,000000	49,093500
835,000000	49,023800
834,000000	48,952600
833,000000	49,082000
832,000000	49,060200
831,000000	48,923000
830,000000	49,005700
829,000000	49,017600
828,000000	49,001900
827,000000	48,812800
826,000000	48,851200
825,000000	48,776100
824,000000	48,802100
823,000000	48,709300
822,000000	48,879900
821,000000	48,760800
820,000000	48,867800
819,000000	48,578100
818,000000	48,670100
817,000000	48,556500
816,000000	48,320200
815,000000	48,442300
814,000000	48,247100
813,000000	48,424300
812,000000	48,211000
811,000000	48,060600
810,000000	48,138700
809,000000	48,054400
808,000000	47,977200
807,000000	47,998000
806,000000	47,866500
805,000000	47,654100
804,000000	47,724200
803,000000	47,640100
802,000000	47,520700
801,000000	47,394700
800,000000	47,288000
799,000000	47,209000
798,000000	46,988200
797,000000	47,022700
796,000000	47,020400
795,000000	46,989200
794,000000	46,754900
793,000000	46,874700
792,000000	46,647300
791,000000	46,568200
790,000000	46,441700
789,000000	46,428600
788,000000	46,255100
787,000000	46,150700
786,000000	46,028400
785,000000	45,994100
784,000000	45,898200
783,000000	45,710100
782,000000	45,681800
781,000000	45,553100
780,000000	45,437100
779,000000	45,370700
778,000000	45,224500
777,000000	45,172400
776,000000	44,970800
775,000000	44,836800
774,000000	44,729500
773,000000	44,605300
772,000000	44,578800
771,000000	44,404600
770,000000	44,207900
769,000000	44,107700
768,000000	43,950200
767,000000	43,827600
766,000000	43,701600
765,000000	43,652400
764,000000	43,472200
763,000000	43,317200
762,000000	43,178100
761,000000	43,091500
760,000000	42,867600
759,000000	42,735400
758,000000	42,666400
757,000000	42,495400
756,000000	42,242000
755,000000	42,147300
754,000000	42,081600
753,000000	41,863700
752,000000	41,744700
751,000000	41,634400
750,000000	41,445800
749,000000	41,259500
748,000000	41,102600
747,000000	41,024900
746,000000	40,782800
745,000000	40,673400
744,000000	40,447900
743,000000	40,372300
742,000000	40,144700
741,000000	39,895000
740,000000	39,755800
739,000000	39,568700
738,000000	39,379100
737,000000	39,231100
736,000000	39,013700
735,000000	38,870400
734,000000	38,636400
733,000000	38,524200
732,000000	38,315800
731,000000	38,115300
730,000000	37,910700
729,000000	37,704400
728,000000	37,514400
727,000000	37,328800
726,000000	37,094500
725,000000	36,861700
724,000000	36,673300
723,000000	36,447300
722,000000	36,206700
721,000000	36,004800
720,000000	35,788800
719,000000	35,604200
718,000000	35,414400
717,000000	35,186200
716,000000	34,948400
715,000000	34,776500
714,000000	34,527700
713,000000	34,311000
712,000000	34,158700
711,000000	33,934500
710,000000	33,669600
709,000000	33,433300
708,000000	33,193300
707,000000	33,023400
706,000000	32,795400
705,000000	32,550400
704,000000	32,355600
703,000000	32,106600
702,000000	31,884200
701,000000	31,667700
700,000000	31,443500
699,000000	31,232800
698,000000	31,057000
697,000000	30,878800
696,000000	30,676400
695,000000	30,470700
694,000000	30,239000
693,000000	30,030700
692,000000	29,815100
691,000000	29,590000
690,000000	29,423200
689,000000	29,229200
688,000000	29,025800
687,000000	28,831500
686,000000	28,661600
685,000000	28,474600
684,000000	28,290200
683,000000	28,124900
682,000000	27,972800
681,000000	27,799000
680,000000	27,610900
679,000000	27,437600
678,000000	27,289000
677,000000	27,134600
676,000000	26,975300
675,000000	26,822100
674,000000	26,657800
673,000000	26,520600
672,000000	26,379600
671,000000	26,237700
670,000000	26,100000
669,000000	25,966200
668,000000	25,824700
667,000000	25,689500
666,000000	25,569300
665,000000	25,473800
664,000000	25,349400
663,000000	25,223100
662,000000	25,112900
661,000000	25,015300
660,000000	24,910200
659,000000	24,798700
658,000000	24,716700
657,000000	24,616500
656,000000	24,515200
655,000000	24,419400
654,000000	24,324100
653,000000	24,225000
652,000000	24,131100
651,000000	24,054900
650,000000	23,983300
649,000000	23,904400
648,000000	23,836000
647,000000	23,785400
646,000000	23,731900
645,000000	23,669800
644,000000	23,605900
643,000000	23,534700
642,000000	23,480700
641,000000	23,445000
640,000000	23,399400
639,000000	23,344200
638,000000	23,299400
637,000000	23,249800
636,000000	23,213000
635,000000	23,182600
634,000000	23,172200
633,000000	23,171900
632,000000	23,130200
631,000000	23,105600
630,000000	23,093300
629,000000	23,075900
628,000000	23,071800
627,000000	23,061200
626,000000	23,052900
625,000000	23,056100
624,000000	23,050600
623,000000	23,062600
622,000000	23,072000
621,000000	23,079400
620,000000	23,092200
619,000000	23,112000
618,000000	23,129400
617,000000	23,156600
616,000000	23,185800
615,000000	23,209900
614,000000	23,246300
613,000000	23,279400
612,000000	23,314100
611,000000	23,353700
610,000000	23,391100
609,000000	23,427900
608,000000	23,462200
607,000000	23,501400
606,000000	23,558000
605,000000	23,618500
604,000000	23,657300
603,000000	23,708200
602,000000	23,772000
601,000000	23,814600
600,000000	23,865400
599,000000	23,930700
598,000000	23,971200
597,000000	24,035400
596,000000	24,069400
595,000000	24,113600
594,000000	24,174700
593,000000	24,225400
592,000000	24,255600
591,000000	24,288300
590,000000	24,328700
589,000000	24,368000
588,000000	24,394900
587,000000	24,414000
586,000000	24,452900
585,000000	24,487400
584,000000	24,500400
583,000000	24,511500
582,000000	24,513700
581,000000	24,520000
580,000000	24,528800
579,000000	24,532100
578,000000	24,519100
577,000000	24,515900
576,000000	24,493300
575,000000	24,474800
574,000000	24,448300
573,000000	24,421000
572,000000	24,376200
571,000000	24,328800
570,000000	24,294300
569,000000	24,236800
568,000000	24,180800
567,000000	24,113100
566,000000	24,074700
565,000000	23,993800
564,000000	23,920000
563,000000	23,859400
562,000000	23,749900
561,000000	23,643800
560,000000	23,555500
559,000000	23,442100
558,000000	23,333300
557,000000	23,224800
556,000000	23,116100
555,000000	23,008200
554,000000	22,846900
553,000000	22,712100
552,000000	22,578400
551,000000	22,432100
550,000000	22,283800
549,000000	22,136100
548,000000	21,975200
547,000000	21,820600
546,000000	21,656400
545,000000	21,485800
544,000000	21,296700
543,000000	21,116900
542,000000	20,947500
541,000000	20,752700
540,000000	20,534300
539,000000	20,345900
538,000000	20,164000
537,000000	19,955800
536,000000	19,749300
535,000000	19,546500
534,000000	19,345600
533,000000	19,121600
532,000000	18,913700
531,000000	18,673900
530,000000	18,448700
529,000000	18,227500
528,000000	18,013400
527,000000	17,777700
526,000000	17,550200
525,000000	17,325800
524,000000	17,094500
523,000000	16,853200
522,000000	16,618400
521,000000	16,399300
520,000000	16,164600
519,000000	15,932500
518,000000	15,719800
517,000000	15,484400
516,000000	15,269300
515,000000	15,060000
514,000000	14,863600
513,000000	14,640300
512,000000	14,445700
511,000000	14,251100
510,000000	14,065500
509,000000	13,873400
508,000000	13,715100
507,000000	13,516800
506,000000	13,362300
505,000000	13,214100
504,000000	13,063900
503,000000	12,925500
502,000000	12,776100
501,000000	12,619900
500,000000	12,485100
499,000000	12,366600
498,000000	12,262300
497,000000	12,152000
496,000000	12,053800
495,000000	11,938900
494,000000	11,818600
493,000000	11,744600
492,000000	11,659600
491,000000	11,569400
490,000000	11,477800
489,000000	11,394700
488,000000	11,334800
487,000000	11,267400
486,000000	11,205900
485,000000	11,146700
484,000000	11,060800
483,000000	11,020800
482,000000	10,945400
481,000000	10,868100
480,000000	10,803100
479,000000	10,730000
478,000000	10,667300
477,000000	10,590300
476,000000	10,532800
475,000000	10,482500
474,000000	10,419300
473,000000	10,346800
472,000000	10,283800
471,000000	10,217800
470,000000	10,172400
469,000000	10,113600
468,000000	10,061300
467,000000	10,002200
466,000000	9,958100
465,000000	9,914800
464,000000	9,862200
463,000000	9,811400
462,000000	9,787600
461,000000	9,746000
460,000000	9,700700
459,000000	9,646200
458,000000	9,608100
457,000000	9,560300
456,000000	9,518000
455,000000	9,481600
454,000000	9,472300
453,000000	9,417600
452,000000	9,386200
451,000000	9,334600
450,000000	9,297700
449,000000	9,235900
448,000000	9,214200
447,000000	9,180000
446,000000	9,151500
445,000000	9,090500
444,000000	9,070200
443,000000	9,022900
442,000000	8,989700
441,000000	8,932200
440,000000	8,875400
439,000000	8,813600
438,000000	8,781400
437,000000	8,734300
436,000000	8,690000
435,000000	8,618200
434,000000	8,582200
433,000000	8,536500
432,000000	8,485500
431,000000	8,450700
430,000000	8,407900
429,000000	8,337900
428,000000	8,269800
427,000000	8,261500
426,000000	8,203900
425,000000	8,148700
424,000000	8,096000
423,000000	8,050000
422,000000	8,009000
421,000000	7,950200
420,000000	7,888400
419,000000	7,819100
418,000000	7,784500
417,000000	7,734600
416,000000	7,685300
415,000000	7,635700
414,000000	7,571600
413,000000	7,524000
412,000000	7,462900
411,000000	7,401900
410,000000	7,338400
409,000000	7,277700
408,000000	7,209300
407,000000	7,128000
406,000000	7,077800
405,000000	7,031300
404,000000	6,964900
403,000000	6,905200
402,000000	6,842800
401,000000	6,766400
400,000000	6,702900
399,000000	6,626800
398,000000	6,572000
397,000000	6,510300
396,000000	6,456100
395,000000	6,364200
394,000000	6,313900
393,000000	6,255300
392,000000	6,209300
391,000000	6,109000
390,000000	6,033400
389,000000	5,967600
388,000000	5,900600
387,000000	5,822900
386,000000	5,773000
385,000000	5,709100
384,000000	5,659400
383,000000	5,587400
382,000000	5,516900
381,000000	5,461100
380,000000	5,405100
379,000000	5,383900
378,000000	5,301000
377,000000	5,226300
376,000000	5,195100
375,000000	5,046600
374,000000	4,807500
373,000000	4,783400
372,000000	4,773600
371,000000	4,669500
370,000000	4,849600
369,000000	4,778300
368,000000	4,640000
367,000000	4,776100
366,000000	4,765900
365,000000	4,749900
364,000000	4,633100
363,000000	4,661100
362,000000	4,616900
361,000000	4,665700
360,000000	4,652400
359,000000	4,566700
358,000000	4,698200
357,000000	4,717100
356,000000	4,607000
355,000000	4,757700
354,000000	4,625300
353,000000	4,540600
352,000000	4,623900
351,000000	4,602500
350,000000	4,575500
349,000000	4,441700
348,000000	4,398100
347,000000	4,551800
346,000000	4,482300
345,000000	4,495800
344,000000	4,688300
343,000000	4,754100
342,000000	4,428400
341,000000	4,243500
340,000000	4,530300
339,000000	4,555900
338,000000	4,330900
337,000000	4,205400
336,000000	4,288400
335,000000	4,353800
334,000000	4,361000
333,000000	4,493300
332,000000	4,646300
331,000000	4,581600
330,000000	4,330500
329,000000	4,151800
328,000000	4,351000
327,000000	4,625700
326,000000	4,768900
325,000000	4,580000
324,000000	4,680400
323,000000	4,883700
322,000000	4,525200
321,000000	4,779200
320,000000	4,848600
319,000000	5,176300
318,000000	5,259300
317,000000	4,772400
316,000000	4,412100
315,000000	4,239300
314,000000	4,214000
313,000000	4,211400
312,000000	4,262000
311,000000	4,249200
310,000000	4,258600
309,000000	4,281700
308,000000	4,288000
307,000000	4,252600
306,000000	4,259700
305,000000	4,273800
304,000000	4,287600
303,000000	4,298700
302,000000	4,240500
301,000000	4,239700
300,000000	4,251400
299,000000	4,267100
298,000000	4,288200
297,000000	4,301400
296,000000	4,301300
295,000000	4,303800
294,000000	4,280300
293,000000	4,294700
292,000000	4,316200
291,000000	4,319000
290,000000	4,311500
289,000000	4,300700
288,000000	4,282000
287,000000	4,305900
286,000000	4,328400
285,000000	4,309700
284,000000	4,329600
283,000000	4,366400
282,000000	4,377800
281,000000	4,403500
280,000000	4,391900
279,000000	4,370700
278,000000	4,356200
277,000000	4,408600
276,000000	4,403900
275,000000	4,380600
274,000000	4,422000
273,000000	4,463900
272,000000	4,448800
271,000000	4,466100
270,000000	4,454200
269,000000	4,451400
268,000000	4,453900
267,000000	4,501600
266,000000	4,499600
265,000000	4,519700
264,000000	4,568300
263,000000	4,603100
262,000000	4,587800
261,000000	4,589900
260,000000	4,641400
259,000000	4,626600
258,000000	4,619600
257,000000	4,661600
256,000000	4,645500
255,000000	4,666500
254,000000	4,711900
253,000000	4,689400
252,000000	4,706600
251,000000	4,700700
250,000000	4,715000
