PE UV       SUBTECH     SPECTRUM    ASCII       PEDS        4.00        
   -1
CICIMAUCR0240-3.ASC
24/06/20
16:02:23.00
24/06/20
16:02:23.00
Vinicio Soto Monge
C. resplendens. Sex M. Ventral
250,000000
1
Lambda 1050
1050L1511233
PerkinElmer UV WinLab 6.3.2.0749 / 2.02.05 Lambda 900 UV/VIS/NIR, Aug  7 2015 09:38:08

0
0
3350/servo 860,8/2
0
0
UV/VIS
1
1
1
DoubleDePol,CommonBeamDepol,RBeamAtt,SBeamAtt,60mm sphere, WB InGaAs Detector
0
0
0
0
Program
Program
3350/servo 860,8/2
3350/0,2 860,8/0,2
3350/0,2 860,8/0,2
0
15.00
 
 
 
0
 
860,8
319,2
860,8
Front
100
on
S:100 R:100
0
0
0
0
 
0
 
 
 
0
 
 
0
0
0
0
0
 
 
 
 
0
0


0
0
#HDR
-1
-1
#GR
nm
%R
1.0
0.0
2500,000000
-1,000000
2251
8
61,160800
4,474200
#DATA
2500,000000	5,964800
2499,000000	5,945500
2498,000000	5,991100
2497,000000	5,914200
2496,000000	5,894300
2495,000000	5,758000
2494,000000	5,878400
2493,000000	5,898700
2492,000000	5,881000
2491,000000	5,865600
2490,000000	5,818000
2489,000000	5,887500
2488,000000	5,839800
2487,000000	5,806000
2486,000000	5,766300
2485,000000	5,774200
2484,000000	5,858400
2483,000000	5,816100
2482,000000	5,775700
2481,000000	5,810200
2480,000000	5,777600
2479,000000	5,792700
2478,000000	5,767200
2477,000000	5,684900
2476,000000	5,775900
2475,000000	5,734100
2474,000000	5,706400
2473,000000	5,734300
2472,000000	5,706200
2471,000000	5,714900
2470,000000	5,737900
2469,000000	5,755300
2468,000000	5,726200
2467,000000	5,708200
2466,000000	5,755100
2465,000000	5,724800
2464,000000	5,792500
2463,000000	5,758800
2462,000000	5,789800
2461,000000	5,786400
2460,000000	5,780400
2459,000000	5,817200
2458,000000	5,793200
2457,000000	5,817900
2456,000000	5,853800
2455,000000	5,850700
2454,000000	5,861200
2453,000000	5,903900
2452,000000	5,925000
2451,000000	5,945700
2450,000000	5,970400
2449,000000	5,986100
2448,000000	5,989800
2447,000000	6,040400
2446,000000	6,082500
2445,000000	6,104900
2444,000000	6,103700
2443,000000	6,132900
2442,000000	6,173300
2441,000000	6,200800
2440,000000	6,221900
2439,000000	6,235800
2438,000000	6,263600
2437,000000	6,292400
2436,000000	6,315600
2435,000000	6,349600
2434,000000	6,363200
2433,000000	6,380800
2432,000000	6,396200
2431,000000	6,428300
2430,000000	6,447200
2429,000000	6,463500
2428,000000	6,491900
2427,000000	6,505700
2426,000000	6,530300
2425,000000	6,550400
2424,000000	6,572100
2423,000000	6,588800
2422,000000	6,614500
2421,000000	6,631300
2420,000000	6,649600
2419,000000	6,656300
2418,000000	6,665700
2417,000000	6,699800
2416,000000	6,709600
2415,000000	6,725400
2414,000000	6,742000
2413,000000	6,749100
2412,000000	6,780700
2411,000000	6,784500
2410,000000	6,797700
2409,000000	6,807800
2408,000000	6,831200
2407,000000	6,850900
2406,000000	6,863300
2405,000000	6,872000
2404,000000	6,874600
2403,000000	6,869000
2402,000000	6,884600
2401,000000	6,909800
2400,000000	6,923000
2399,000000	6,943300
2398,000000	6,948600
2397,000000	6,964800
2396,000000	7,003100
2395,000000	7,025700
2394,000000	7,034100
2393,000000	7,048200
2392,000000	7,050400
2391,000000	7,069000
2390,000000	7,076200
2389,000000	7,079500
2388,000000	7,115800
2387,000000	7,113800
2386,000000	7,106300
2385,000000	7,110400
2384,000000	7,132200
2383,000000	7,137600
2382,000000	7,137300
2381,000000	7,145500
2380,000000	7,141900
2379,000000	7,144000
2378,000000	7,157000
2377,000000	7,162100
2376,000000	7,166800
2375,000000	7,159500
2374,000000	7,140800
2373,000000	7,141800
2372,000000	7,152100
2371,000000	7,135000
2370,000000	7,132000
2369,000000	7,131100
2368,000000	7,123700
2367,000000	7,128600
2366,000000	7,123300
2365,000000	7,101700
2364,000000	7,091700
2363,000000	7,083900
2362,000000	7,059000
2361,000000	7,045000
2360,000000	7,039800
2359,000000	7,032900
2358,000000	7,022300
2357,000000	7,005300
2356,000000	6,997100
2355,000000	6,980700
2354,000000	6,963300
2353,000000	6,965200
2352,000000	6,971200
2351,000000	6,977100
2350,000000	6,976100
2349,000000	6,963100
2348,000000	6,978200
2347,000000	6,992600
2346,000000	7,009600
2345,000000	7,017600
2344,000000	7,023000
2343,000000	7,041400
2342,000000	7,058000
2341,000000	7,074700
2340,000000	7,078400
2339,000000	7,093400
2338,000000	7,108600
2337,000000	7,106100
2336,000000	7,108900
2335,000000	7,127500
2334,000000	7,130800
2333,000000	7,132300
2332,000000	7,109600
2331,000000	7,117000
2330,000000	7,112300
2329,000000	7,083500
2328,000000	7,088100
2327,000000	7,087700
2326,000000	7,055100
2325,000000	7,042500
2324,000000	7,044100
2323,000000	7,020700
2322,000000	6,995800
2321,000000	6,963700
2320,000000	6,942000
2319,000000	6,924700
2318,000000	6,904700
2317,000000	6,854300
2316,000000	6,821900
2315,000000	6,793600
2314,000000	6,752800
2313,000000	6,717800
2312,000000	6,696800
2311,000000	6,673900
2310,000000	6,637700
2309,000000	6,611600
2308,000000	6,591700
2307,000000	6,578800
2306,000000	6,562900
2305,000000	6,544700
2304,000000	6,541300
2303,000000	6,543700
2302,000000	6,555900
2301,000000	6,574200
2300,000000	6,577200
2299,000000	6,592000
2298,000000	6,621200
2297,000000	6,639800
2296,000000	6,680400
2295,000000	6,707300
2294,000000	6,733600
2293,000000	6,772400
2292,000000	6,787300
2291,000000	6,813200
2290,000000	6,830200
2289,000000	6,836600
2288,000000	6,862300
2287,000000	6,852100
2286,000000	6,866200
2285,000000	6,872400
2284,000000	6,862200
2283,000000	6,871000
2282,000000	6,861100
2281,000000	6,842800
2280,000000	6,842500
2279,000000	6,846000
2278,000000	6,816900
2277,000000	6,802900
2276,000000	6,793000
2275,000000	6,782200
2274,000000	6,758000
2273,000000	6,741200
2272,000000	6,743100
2271,000000	6,739800
2270,000000	6,727100
2269,000000	6,753500
2268,000000	6,760900
2267,000000	6,781100
2266,000000	6,804600
2265,000000	6,841400
2264,000000	6,882500
2263,000000	6,908300
2262,000000	6,970100
2261,000000	7,039600
2260,000000	7,132100
2259,000000	7,206700
2258,000000	7,292200
2257,000000	7,372800
2256,000000	7,477600
2255,000000	7,571800
2254,000000	7,642500
2253,000000	7,756900
2252,000000	7,839100
2251,000000	7,956200
2250,000000	8,058000
2249,000000	8,149700
2248,000000	8,221100
2247,000000	8,297300
2246,000000	8,395300
2245,000000	8,476400
2244,000000	8,535400
2243,000000	8,614300
2242,000000	8,659300
2241,000000	8,727300
2240,000000	8,794700
2239,000000	8,820700
2238,000000	8,877100
2237,000000	8,925600
2236,000000	8,953800
2235,000000	8,980800
2234,000000	9,022900
2233,000000	9,032000
2232,000000	9,070500
2231,000000	9,090000
2230,000000	9,102900
2229,000000	9,109300
2228,000000	9,102100
2227,000000	9,106800
2226,000000	9,097700
2225,000000	9,123400
2224,000000	9,121100
2223,000000	9,095500
2222,000000	9,110300
2221,000000	9,083800
2220,000000	9,063600
2219,000000	9,063900
2218,000000	9,030200
2217,000000	8,990700
2216,000000	8,975000
2215,000000	8,953400
2214,000000	8,957000
2213,000000	8,924700
2212,000000	8,914600
2211,000000	8,897500
2210,000000	8,887300
2209,000000	8,851200
2208,000000	8,836100
2207,000000	8,822500
2206,000000	8,820700
2205,000000	8,806800
2204,000000	8,789600
2203,000000	8,792000
2202,000000	8,788800
2201,000000	8,783900
2200,000000	8,763600
2199,000000	8,755900
2198,000000	8,744500
2197,000000	8,749000
2196,000000	8,732500
2195,000000	8,728800
2194,000000	8,712100
2193,000000	8,707600
2192,000000	8,720500
2191,000000	8,712500
2190,000000	8,691600
2189,000000	8,689100
2188,000000	8,667600
2187,000000	8,666400
2186,000000	8,660700
2185,000000	8,677900
2184,000000	8,661700
2183,000000	8,657700
2182,000000	8,641000
2181,000000	8,652400
2180,000000	8,621800
2179,000000	8,619700
2178,000000	8,602500
2177,000000	8,605700
2176,000000	8,602300
2175,000000	8,625500
2174,000000	8,611600
2173,000000	8,602100
2172,000000	8,607200
2171,000000	8,608300
2170,000000	8,603200
2169,000000	8,613000
2168,000000	8,626200
2167,000000	8,629300
2166,000000	8,646100
2165,000000	8,640800
2164,000000	8,653100
2163,000000	8,646100
2162,000000	8,658900
2161,000000	8,691700
2160,000000	8,696400
2159,000000	8,710000
2158,000000	8,722400
2157,000000	8,751500
2156,000000	8,764100
2155,000000	8,792400
2154,000000	8,826400
2153,000000	8,845100
2152,000000	8,857000
2151,000000	8,883500
2150,000000	8,911000
2149,000000	8,945900
2148,000000	8,967300
2147,000000	8,987100
2146,000000	9,015600
2145,000000	9,041700
2144,000000	9,077000
2143,000000	9,094600
2142,000000	9,118000
2141,000000	9,147700
2140,000000	9,162700
2139,000000	9,192900
2138,000000	9,225800
2137,000000	9,233400
2136,000000	9,249400
2135,000000	9,264700
2134,000000	9,287900
2133,000000	9,323400
2132,000000	9,329300
2131,000000	9,334300
2130,000000	9,341800
2129,000000	9,362500
2128,000000	9,366200
2127,000000	9,382100
2126,000000	9,380700
2125,000000	9,387200
2124,000000	9,383900
2123,000000	9,402000
2122,000000	9,434900
2121,000000	9,410200
2120,000000	9,394500
2119,000000	9,398800
2118,000000	9,398600
2117,000000	9,389700
2116,000000	9,388400
2115,000000	9,357600
2114,000000	9,356900
2113,000000	9,357300
2112,000000	9,336200
2111,000000	9,322400
2110,000000	9,319300
2109,000000	9,314400
2108,000000	9,305200
2107,000000	9,302200
2106,000000	9,284700
2105,000000	9,260700
2104,000000	9,258800
2103,000000	9,239100
2102,000000	9,234500
2101,000000	9,239300
2100,000000	9,209200
2099,000000	9,197800
2098,000000	9,195800
2097,000000	9,178800
2096,000000	9,168700
2095,000000	9,149000
2094,000000	9,137600
2093,000000	9,139900
2092,000000	9,132700
2091,000000	9,113300
2090,000000	9,114500
2089,000000	9,125800
2088,000000	9,113400
2087,000000	9,102400
2086,000000	9,095000
2085,000000	9,073400
2084,000000	9,052800
2083,000000	9,044400
2082,000000	9,044300
2081,000000	9,027000
2080,000000	9,006200
2079,000000	8,996700
2078,000000	8,968500
2077,000000	8,944900
2076,000000	8,925800
2075,000000	8,908100
2074,000000	8,887300
2073,000000	8,847800
2072,000000	8,810700
2071,000000	8,802300
2070,000000	8,769600
2069,000000	8,729600
2068,000000	8,699000
2067,000000	8,667100
2066,000000	8,639300
2065,000000	8,616000
2064,000000	8,586100
2063,000000	8,551500
2062,000000	8,523800
2061,000000	8,505900
2060,000000	8,468700
2059,000000	8,444200
2058,000000	8,426600
2057,000000	8,419200
2056,000000	8,410200
2055,000000	8,398600
2054,000000	8,398700
2053,000000	8,407100
2052,000000	8,412200
2051,000000	8,431500
2050,000000	8,445800
2049,000000	8,464900
2048,000000	8,487600
2047,000000	8,518500
2046,000000	8,548600
2045,000000	8,594400
2044,000000	8,637900
2043,000000	8,677900
2042,000000	8,714000
2041,000000	8,763800
2040,000000	8,801800
2039,000000	8,840000
2038,000000	8,886400
2037,000000	8,929200
2036,000000	8,939900
2035,000000	8,982800
2034,000000	9,020500
2033,000000	9,039200
2032,000000	9,072400
2031,000000	9,094400
2030,000000	9,106800
2029,000000	9,138100
2028,000000	9,163900
2027,000000	9,190400
2026,000000	9,204200
2025,000000	9,205600
2024,000000	9,226900
2023,000000	9,228700
2022,000000	9,250100
2021,000000	9,257900
2020,000000	9,250200
2019,000000	9,263700
2018,000000	9,265900
2017,000000	9,282000
2016,000000	9,272300
2015,000000	9,270300
2014,000000	9,267000
2013,000000	9,268600
2012,000000	9,264000
2011,000000	9,260500
2010,000000	9,247200
2009,000000	9,231500
2008,000000	9,223700
2007,000000	9,212500
2006,000000	9,176500
2005,000000	9,170200
2004,000000	9,147300
2003,000000	9,127200
2002,000000	9,102000
2001,000000	9,067600
2000,000000	9,044000
1999,000000	9,035200
1998,000000	8,990000
1997,000000	8,969200
1996,000000	8,921700
1995,000000	8,907400
1994,000000	8,886700
1993,000000	8,842900
1992,000000	8,807600
1991,000000	8,776300
1990,000000	8,739500
1989,000000	8,689500
1988,000000	8,665100
1987,000000	8,625900
1986,000000	8,593400
1985,000000	8,543200
1984,000000	8,494900
1983,000000	8,470600
1982,000000	8,431300
1981,000000	8,388000
1980,000000	8,349400
1979,000000	8,307200
1978,000000	8,263200
1977,000000	8,230700
1976,000000	8,207400
1975,000000	8,165900
1974,000000	8,125300
1973,000000	8,094800
1972,000000	8,048300
1971,000000	8,031100
1970,000000	7,986000
1969,000000	7,953600
1968,000000	7,904800
1967,000000	7,885800
1966,000000	7,838500
1965,000000	7,813300
1964,000000	7,789900
1963,000000	7,765700
1962,000000	7,716600
1961,000000	7,680100
1960,000000	7,659500
1959,000000	7,638700
1958,000000	7,590600
1957,000000	7,580400
1956,000000	7,551600
1955,000000	7,521800
1954,000000	7,472500
1953,000000	7,457200
1952,000000	7,423500
1951,000000	7,390500
1950,000000	7,369100
1949,000000	7,364200
1948,000000	7,328200
1947,000000	7,322500
1946,000000	7,288400
1945,000000	7,258700
1944,000000	7,248700
1943,000000	7,233700
1942,000000	7,215600
1941,000000	7,203400
1940,000000	7,183700
1939,000000	7,190800
1938,000000	7,169700
1937,000000	7,183400
1936,000000	7,147700
1935,000000	7,164300
1934,000000	7,156100
1933,000000	7,190300
1932,000000	7,190100
1931,000000	7,192800
1930,000000	7,228500
1929,000000	7,243200
1928,000000	7,254900
1927,000000	7,291900
1926,000000	7,317700
1925,000000	7,336900
1924,000000	7,388100
1923,000000	7,440400
1922,000000	7,454100
1921,000000	7,512000
1920,000000	7,562200
1919,000000	7,628300
1918,000000	7,683600
1917,000000	7,722300
1916,000000	7,802300
1915,000000	7,851100
1914,000000	7,932200
1913,000000	7,996600
1912,000000	8,101100
1911,000000	8,177400
1910,000000	8,287500
1909,000000	8,399200
1908,000000	8,470900
1907,000000	8,568400
1906,000000	8,689200
1905,000000	8,833400
1904,000000	8,959200
1903,000000	9,103900
1902,000000	9,222400
1901,000000	9,393500
1900,000000	9,518600
1899,000000	9,707600
1898,000000	9,903600
1897,000000	10,069000
1896,000000	10,277200
1895,000000	10,467700
1894,000000	10,648100
1893,000000	10,858100
1892,000000	11,095000
1891,000000	11,343400
1890,000000	11,586900
1889,000000	11,846500
1888,000000	12,136000
1887,000000	12,433700
1886,000000	12,729700
1885,000000	13,045800
1884,000000	13,397300
1883,000000	13,735800
1882,000000	14,081700
1881,000000	14,480900
1880,000000	14,839000
1879,000000	15,194200
1878,000000	15,527000
1877,000000	15,892000
1876,000000	16,268800
1875,000000	16,606300
1874,000000	16,930200
1873,000000	17,265200
1872,000000	17,598300
1871,000000	17,915800
1870,000000	18,229700
1869,000000	18,514900
1868,000000	18,783800
1867,000000	19,042300
1866,000000	19,257500
1865,000000	19,437700
1864,000000	19,628000
1863,000000	19,767700
1862,000000	19,917200
1861,000000	20,062900
1860,000000	20,215500
1859,000000	20,357500
1858,000000	20,491200
1857,000000	20,602600
1856,000000	20,683100
1855,000000	20,755400
1854,000000	20,822200
1853,000000	20,911700
1852,000000	20,955500
1851,000000	20,965000
1850,000000	20,998700
1849,000000	21,015300
1848,000000	21,051200
1847,000000	21,083900
1846,000000	21,097700
1845,000000	21,101600
1844,000000	21,080400
1843,000000	21,042200
1842,000000	21,030800
1841,000000	21,066400
1840,000000	21,074700
1839,000000	21,064500
1838,000000	21,039600
1837,000000	21,012500
1836,000000	20,989600
1835,000000	20,994500
1834,000000	20,950200
1833,000000	20,911400
1832,000000	20,868100
1831,000000	20,813800
1830,000000	20,781700
1829,000000	20,755300
1828,000000	20,713200
1827,000000	20,668100
1826,000000	20,631700
1825,000000	20,600400
1824,000000	20,546600
1823,000000	20,489300
1822,000000	20,475100
1821,000000	20,465100
1820,000000	20,455500
1819,000000	20,441400
1818,000000	20,412500
1817,000000	20,373200
1816,000000	20,358200
1815,000000	20,353200
1814,000000	20,338800
1813,000000	20,321600
1812,000000	20,314600
1811,000000	20,298900
1810,000000	20,277500
1809,000000	20,247900
1808,000000	20,198000
1807,000000	20,163500
1806,000000	20,137300
1805,000000	20,110500
1804,000000	20,066800
1803,000000	20,017900
1802,000000	19,985800
1801,000000	19,963700
1800,000000	19,942500
1799,000000	19,888300
1798,000000	19,843300
1797,000000	19,813800
1796,000000	19,778700
1795,000000	19,736200
1794,000000	19,687800
1793,000000	19,647900
1792,000000	19,621100
1791,000000	19,601600
1790,000000	19,557300
1789,000000	19,500000
1788,000000	19,476900
1787,000000	19,447700
1786,000000	19,397700
1785,000000	19,351800
1784,000000	19,322200
1783,000000	19,290900
1782,000000	19,235900
1781,000000	19,172100
1780,000000	19,134200
1779,000000	19,097700
1778,000000	19,046300
1777,000000	18,991200
1776,000000	18,932300
1775,000000	18,869800
1774,000000	18,801200
1773,000000	18,752500
1772,000000	18,692500
1771,000000	18,633400
1770,000000	18,556200
1769,000000	18,470200
1768,000000	18,391000
1767,000000	18,313700
1766,000000	18,265500
1765,000000	18,213500
1764,000000	18,166200
1763,000000	18,142500
1762,000000	18,125400
1761,000000	18,109400
1760,000000	18,115200
1759,000000	18,145300
1758,000000	18,199900
1757,000000	18,232800
1756,000000	18,275000
1755,000000	18,322000
1754,000000	18,355900
1753,000000	18,391300
1752,000000	18,432300
1751,000000	18,437700
1750,000000	18,429900
1749,000000	18,428800
1748,000000	18,420100
1747,000000	18,382300
1746,000000	18,354000
1745,000000	18,303700
1744,000000	18,233800
1743,000000	18,153100
1742,000000	18,074500
1741,000000	17,974400
1740,000000	17,863000
1739,000000	17,723900
1738,000000	17,589200
1737,000000	17,457700
1736,000000	17,349100
1735,000000	17,238200
1734,000000	17,159100
1733,000000	17,112000
1732,000000	17,085400
1731,000000	17,078500
1730,000000	17,094300
1729,000000	17,134400
1728,000000	17,177300
1727,000000	17,236700
1726,000000	17,284000
1725,000000	17,332000
1724,000000	17,378700
1723,000000	17,423800
1722,000000	17,475800
1721,000000	17,525400
1720,000000	17,573500
1719,000000	17,623600
1718,000000	17,696100
1717,000000	17,768500
1716,000000	17,840200
1715,000000	17,906600
1714,000000	18,002200
1713,000000	18,068300
1712,000000	18,147500
1711,000000	18,239200
1710,000000	18,280000
1709,000000	18,341600
1708,000000	18,363800
1707,000000	18,380700
1706,000000	18,389900
1705,000000	18,365100
1704,000000	18,342600
1703,000000	18,314600
1702,000000	18,265400
1701,000000	18,213800
1700,000000	18,140700
1699,000000	18,037900
1698,000000	17,936500
1697,000000	17,843200
1696,000000	17,781300
1695,000000	17,730800
1694,000000	17,677200
1693,000000	17,665000
1692,000000	17,724700
1691,000000	17,768000
1690,000000	17,845000
1689,000000	17,938100
1688,000000	18,025700
1687,000000	18,086000
1686,000000	18,157400
1685,000000	18,212800
1684,000000	18,290000
1683,000000	18,391000
1682,000000	18,534000
1681,000000	18,718500
1680,000000	18,980600
1679,000000	19,271800
1678,000000	19,614500
1677,000000	19,952500
1676,000000	20,319400
1675,000000	20,638200
1674,000000	20,943600
1673,000000	21,213100
1672,000000	21,443400
1671,000000	21,661100
1670,000000	21,857300
1669,000000	22,032400
1668,000000	22,191300
1667,000000	22,341700
1666,000000	22,453700
1665,000000	22,582500
1664,000000	22,664900
1663,000000	22,767700
1662,000000	22,848400
1661,000000	22,930000
1660,000000	22,950600
1659,000000	23,037400
1658,000000	23,070000
1657,000000	23,131400
1656,000000	23,129400
1655,000000	23,163200
1654,000000	23,165000
1653,000000	23,193700
1652,000000	23,195900
1651,000000	23,177600
1650,000000	23,160700
1649,000000	23,143700
1648,000000	23,120900
1647,000000	23,078100
1646,000000	23,068400
1645,000000	23,019400
1644,000000	22,994800
1643,000000	22,948500
1642,000000	22,878300
1641,000000	22,860800
1640,000000	22,790000
1639,000000	22,763500
1638,000000	22,705400
1637,000000	22,677400
1636,000000	22,616900
1635,000000	22,587800
1634,000000	22,527500
1633,000000	22,455000
1632,000000	22,403700
1631,000000	22,342700
1630,000000	22,293000
1629,000000	22,223700
1628,000000	22,143000
1627,000000	22,095900
1626,000000	22,009800
1625,000000	21,961600
1624,000000	21,868700
1623,000000	21,805500
1622,000000	21,734100
1621,000000	21,683400
1620,000000	21,619700
1619,000000	21,566400
1618,000000	21,494200
1617,000000	21,444900
1616,000000	21,397200
1615,000000	21,334500
1614,000000	21,254800
1613,000000	21,194900
1612,000000	21,129500
1611,000000	21,071500
1610,000000	21,027600
1609,000000	20,965600
1608,000000	20,907800
1607,000000	20,856000
1606,000000	20,777100
1605,000000	20,713100
1604,000000	20,645800
1603,000000	20,589700
1602,000000	20,523200
1601,000000	20,446300
1600,000000	20,388100
1599,000000	20,314700
1598,000000	20,251400
1597,000000	20,187200
1596,000000	20,129800
1595,000000	20,070400
1594,000000	20,013700
1593,000000	19,943900
1592,000000	19,888500
1591,000000	19,842800
1590,000000	19,778300
1589,000000	19,744800
1588,000000	19,662900
1587,000000	19,617500
1586,000000	19,578100
1585,000000	19,526500
1584,000000	19,486800
1583,000000	19,435200
1582,000000	19,376500
1581,000000	19,353500
1580,000000	19,308500
1579,000000	19,256900
1578,000000	19,223700
1577,000000	19,202700
1576,000000	19,170300
1575,000000	19,142100
1574,000000	19,104500
1573,000000	19,073600
1572,000000	19,068900
1571,000000	19,056300
1570,000000	19,040900
1569,000000	19,034000
1568,000000	19,019000
1567,000000	19,017800
1566,000000	19,006700
1565,000000	19,003000
1564,000000	18,991400
1563,000000	18,991700
1562,000000	18,990600
1561,000000	18,975200
1560,000000	18,952100
1559,000000	18,941900
1558,000000	18,919600
1557,000000	18,887900
1556,000000	18,859800
1555,000000	18,833800
1554,000000	18,798100
1553,000000	18,769500
1552,000000	18,737800
1551,000000	18,707300
1550,000000	18,662100
1549,000000	18,621100
1548,000000	18,583400
1547,000000	18,530200
1546,000000	18,481900
1545,000000	18,460700
1544,000000	18,428700
1543,000000	18,400100
1542,000000	18,363000
1541,000000	18,316500
1540,000000	18,288500
1539,000000	18,269800
1538,000000	18,250200
1537,000000	18,219000
1536,000000	18,196600
1535,000000	18,163600
1534,000000	18,123600
1533,000000	18,096200
1532,000000	18,068500
1531,000000	18,032800
1530,000000	17,992700
1529,000000	17,958800
1528,000000	17,918900
1527,000000	17,870800
1526,000000	17,815900
1525,000000	17,777800
1524,000000	17,732300
1523,000000	17,675300
1522,000000	17,642500
1521,000000	17,600900
1520,000000	17,554800
1519,000000	17,497600
1518,000000	17,433500
1517,000000	17,387400
1516,000000	17,339400
1515,000000	17,290400
1514,000000	17,238700
1513,000000	17,178800
1512,000000	17,121400
1511,000000	17,073000
1510,000000	17,023300
1509,000000	16,968600
1508,000000	16,921100
1507,000000	16,855900
1506,000000	16,789800
1505,000000	16,735000
1504,000000	16,686600
1503,000000	16,642900
1502,000000	16,585500
1501,000000	16,538500
1500,000000	16,492300
1499,000000	16,430000
1498,000000	16,383200
1497,000000	16,338100
1496,000000	16,297700
1495,000000	16,257600
1494,000000	16,213900
1493,000000	16,189200
1492,000000	16,171200
1491,000000	16,133500
1490,000000	16,094000
1489,000000	16,056400
1488,000000	16,036200
1487,000000	16,028800
1486,000000	15,987200
1485,000000	15,937400
1484,000000	15,921400
1483,000000	15,905200
1482,000000	15,885400
1481,000000	15,856500
1480,000000	15,842200
1479,000000	15,826500
1478,000000	15,808800
1477,000000	15,802000
1476,000000	15,804300
1475,000000	15,794200
1474,000000	15,770700
1473,000000	15,777200
1472,000000	15,791800
1471,000000	15,789300
1470,000000	15,791600
1469,000000	15,780200
1468,000000	15,782400
1467,000000	15,799400
1466,000000	15,801700
1465,000000	15,807700
1464,000000	15,827600
1463,000000	15,846400
1462,000000	15,861200
1461,000000	15,882500
1460,000000	15,903200
1459,000000	15,933100
1458,000000	15,964900
1457,000000	15,994800
1456,000000	16,043900
1455,000000	16,104700
1454,000000	16,137300
1453,000000	16,161300
1452,000000	16,211700
1451,000000	16,275400
1450,000000	16,333000
1449,000000	16,375100
1448,000000	16,422000
1447,000000	16,474000
1446,000000	16,549200
1445,000000	16,616900
1444,000000	16,670600
1443,000000	16,737600
1442,000000	16,805000
1441,000000	16,881500
1440,000000	16,950100
1439,000000	17,035200
1438,000000	17,113000
1437,000000	17,196100
1436,000000	17,289900
1435,000000	17,367100
1434,000000	17,451700
1433,000000	17,559300
1432,000000	17,660000
1431,000000	17,769500
1430,000000	17,871400
1429,000000	17,977000
1428,000000	18,098400
1427,000000	18,237600
1426,000000	18,375500
1425,000000	18,520000
1424,000000	18,674200
1423,000000	18,833700
1422,000000	18,983000
1421,000000	19,164100
1420,000000	19,347700
1419,000000	19,549200
1418,000000	19,764000
1417,000000	19,979000
1416,000000	20,163600
1415,000000	20,389000
1414,000000	20,648000
1413,000000	20,905200
1412,000000	21,180300
1411,000000	21,405500
1410,000000	21,675100
1409,000000	22,017300
1408,000000	22,359800
1407,000000	22,706700
1406,000000	23,042000
1405,000000	23,386100
1404,000000	23,778700
1403,000000	24,140300
1402,000000	24,521900
1401,000000	24,881400
1400,000000	25,324600
1399,000000	25,764200
1398,000000	26,126000
1397,000000	26,420100
1396,000000	26,770600
1395,000000	27,228100
1394,000000	27,670500
1393,000000	28,008100
1392,000000	28,338300
1391,000000	28,758300
1390,000000	29,214400
1389,000000	29,603000
1388,000000	30,052800
1387,000000	30,587300
1386,000000	31,134600
1385,000000	31,676700
1384,000000	32,178100
1383,000000	32,756600
1382,000000	33,324500
1381,000000	33,915700
1380,000000	34,403000
1379,000000	34,695200
1378,000000	35,089100
1377,000000	35,340000
1376,000000	35,584500
1375,000000	35,798200
1374,000000	36,039300
1373,000000	36,319000
1372,000000	36,602800
1371,000000	36,915200
1370,000000	37,288200
1369,000000	37,609000
1368,000000	37,859200
1367,000000	38,163400
1366,000000	38,436600
1365,000000	38,671300
1364,000000	38,897000
1363,000000	39,087700
1362,000000	39,275900
1361,000000	39,473500
1360,000000	39,652600
1359,000000	39,808600
1358,000000	39,891200
1357,000000	40,006200
1356,000000	40,137600
1355,000000	40,338800
1354,000000	40,603200
1353,000000	40,950400
1352,000000	41,260300
1351,000000	41,654500
1350,000000	42,096500
1349,000000	42,477200
1348,000000	42,848700
1347,000000	43,247500
1346,000000	43,605400
1345,000000	43,936600
1344,000000	44,299700
1343,000000	44,612200
1342,000000	44,939900
1341,000000	45,264100
1340,000000	45,576600
1339,000000	45,905700
1338,000000	46,214500
1337,000000	46,534700
1336,000000	46,841400
1335,000000	47,134500
1334,000000	47,411400
1333,000000	47,717500
1332,000000	48,020600
1331,000000	48,293200
1330,000000	48,561400
1329,000000	48,823300
1328,000000	49,089600
1327,000000	49,335900
1326,000000	49,578900
1325,000000	49,822700
1324,000000	50,049100
1323,000000	50,276300
1322,000000	50,485600
1321,000000	50,690900
1320,000000	50,880900
1319,000000	51,093800
1318,000000	51,272400
1317,000000	51,454500
1316,000000	51,640800
1315,000000	51,803600
1314,000000	51,982200
1313,000000	52,151800
1312,000000	52,289600
1311,000000	52,434600
1310,000000	52,571700
1309,000000	52,688200
1308,000000	52,809900
1307,000000	52,927000
1306,000000	53,047200
1305,000000	53,129300
1304,000000	53,220800
1303,000000	53,309300
1302,000000	53,374800
1301,000000	53,435100
1300,000000	53,494600
1299,000000	53,565900
1298,000000	53,610300
1297,000000	53,654500
1296,000000	53,698800
1295,000000	53,741000
1294,000000	53,769000
1293,000000	53,785900
1292,000000	53,789700
1291,000000	53,827700
1290,000000	53,834300
1289,000000	53,835900
1288,000000	53,828700
1287,000000	53,830200
1286,000000	53,815300
1285,000000	53,788500
1284,000000	53,754300
1283,000000	53,720800
1282,000000	53,687100
1281,000000	53,648700
1280,000000	53,607400
1279,000000	53,566600
1278,000000	53,524900
1277,000000	53,478900
1276,000000	53,452700
1275,000000	53,408100
1274,000000	53,368100
1273,000000	53,340000
1272,000000	53,322200
1271,000000	53,307000
1270,000000	53,289900
1269,000000	53,256200
1268,000000	53,224200
1267,000000	53,209200
1266,000000	53,184900
1265,000000	53,159300
1264,000000	53,132200
1263,000000	53,105900
1262,000000	53,071600
1261,000000	53,022000
1260,000000	52,982300
1259,000000	52,946800
1258,000000	52,902900
1257,000000	52,859600
1256,000000	52,795400
1255,000000	52,728900
1254,000000	52,678900
1253,000000	52,618500
1252,000000	52,552800
1251,000000	52,459800
1250,000000	52,378400
1249,000000	52,318300
1248,000000	52,227500
1247,000000	52,123300
1246,000000	52,020700
1245,000000	51,919500
1244,000000	51,816600
1243,000000	51,694500
1242,000000	51,575600
1241,000000	51,469900
1240,000000	51,359400
1239,000000	51,233000
1238,000000	51,106800
1237,000000	50,990400
1236,000000	50,869000
1235,000000	50,737100
1234,000000	50,608000
1233,000000	50,484900
1232,000000	50,353000
1231,000000	50,195700
1230,000000	50,051500
1229,000000	49,905500
1228,000000	49,751300
1227,000000	49,591700
1226,000000	49,421300
1225,000000	49,260700
1224,000000	49,097200
1223,000000	48,926800
1222,000000	48,759100
1221,000000	48,585800
1220,000000	48,405100
1219,000000	48,231900
1218,000000	48,065500
1217,000000	47,901100
1216,000000	47,737300
1215,000000	47,582100
1214,000000	47,425700
1213,000000	47,278400
1212,000000	47,143500
1211,000000	46,992800
1210,000000	46,869100
1209,000000	46,723400
1208,000000	46,575400
1207,000000	46,453400
1206,000000	46,343300
1205,000000	46,227900
1204,000000	46,137800
1203,000000	46,057900
1202,000000	45,979000
1201,000000	45,911600
1200,000000	45,849200
1199,000000	45,778700
1198,000000	45,693800
1197,000000	45,600700
1196,000000	45,484500
1195,000000	45,335100
1194,000000	45,152300
1193,000000	44,933700
1192,000000	44,681300
1191,000000	44,389100
1190,000000	44,060600
1189,000000	43,741300
1188,000000	43,442400
1187,000000	43,193500
1186,000000	43,015700
1185,000000	42,932800
1184,000000	42,936800
1183,000000	43,035500
1182,000000	43,241800
1181,000000	43,544500
1180,000000	43,890200
1179,000000	44,270600
1178,000000	44,671300
1177,000000	45,044700
1176,000000	45,386700
1175,000000	45,711800
1174,000000	45,988300
1173,000000	46,257800
1172,000000	46,528700
1171,000000	46,790500
1170,000000	47,060700
1169,000000	47,358200
1168,000000	47,629400
1167,000000	47,933600
1166,000000	48,233600
1165,000000	48,555000
1164,000000	48,877100
1163,000000	49,196200
1162,000000	49,542300
1161,000000	49,892100
1160,000000	50,226700
1159,000000	50,574300
1158,000000	50,901700
1157,000000	51,228300
1156,000000	51,553200
1155,000000	51,850900
1154,000000	52,128900
1153,000000	52,357500
1152,000000	52,561300
1151,000000	52,748000
1150,000000	52,898500
1149,000000	53,027600
1148,000000	53,173800
1147,000000	53,315300
1146,000000	53,496400
1145,000000	53,694700
1144,000000	53,941700
1143,000000	54,215500
1142,000000	54,523700
1141,000000	54,873300
1140,000000	55,242700
1139,000000	55,641900
1138,000000	56,044200
1137,000000	56,442100
1136,000000	56,876800
1135,000000	57,346900
1134,000000	57,829700
1133,000000	58,304300
1132,000000	58,702700
1131,000000	59,058200
1130,000000	59,421700
1129,000000	59,731500
1128,000000	60,005900
1127,000000	60,228200
1126,000000	60,403700
1125,000000	60,552700
1124,000000	60,697900
1123,000000	60,797300
1122,000000	60,907700
1121,000000	60,979800
1120,000000	61,031900
1119,000000	61,071400
1118,000000	61,094200
1117,000000	61,132900
1116,000000	61,133600
1115,000000	61,160800
1114,000000	61,147400
1113,000000	61,128700
1112,000000	61,135600
1111,000000	61,120600
1110,000000	61,105100
1109,000000	61,079100
1108,000000	61,086200
1107,000000	61,064400
1106,000000	61,056200
1105,000000	61,045700
1104,000000	61,039000
1103,000000	61,008600
1102,000000	60,987300
1101,000000	60,962200
1100,000000	60,958600
1099,000000	60,918900
1098,000000	60,899300
1097,000000	60,887100
1096,000000	60,862700
1095,000000	60,828200
1094,000000	60,767800
1093,000000	60,746400
1092,000000	60,723200
1091,000000	60,669100
1090,000000	60,620700
1089,000000	60,563700
1088,000000	60,538200
1087,000000	60,453400
1086,000000	60,405200
1085,000000	60,342500
1084,000000	60,291400
1083,000000	60,221300
1082,000000	60,158200
1081,000000	60,087500
1080,000000	60,012900
1079,000000	59,975300
1078,000000	59,911300
1077,000000	59,839400
1076,000000	59,759800
1075,000000	59,684800
1074,000000	59,625900
1073,000000	59,554900
1072,000000	59,482200
1071,000000	59,409900
1070,000000	59,334800
1069,000000	59,280600
1068,000000	59,198700
1067,000000	59,103000
1066,000000	59,027400
1065,000000	58,933000
1064,000000	58,851100
1063,000000	58,784800
1062,000000	58,692300
1061,000000	58,592300
1060,000000	58,517700
1059,000000	58,458000
1058,000000	58,352300
1057,000000	58,260800
1056,000000	58,172700
1055,000000	58,066200
1054,000000	57,981000
1053,000000	57,898400
1052,000000	57,813100
1051,000000	57,721700
1050,000000	57,629300
1049,000000	57,552900
1048,000000	57,461700
1047,000000	57,371200
1046,000000	57,306500
1045,000000	57,219100
1044,000000	57,138700
1043,000000	57,047500
1042,000000	56,972900
1041,000000	56,895300
1040,000000	56,800300
1039,000000	56,734700
1038,000000	56,644600
1037,000000	56,555600
1036,000000	56,454400
1035,000000	56,367600
1034,000000	56,279300
1033,000000	56,195900
1032,000000	56,090800
1031,000000	55,993000
1030,000000	55,885000
1029,000000	55,783100
1028,000000	55,676400
1027,000000	55,587000
1026,000000	55,479200
1025,000000	55,375000
1024,000000	55,274000
1023,000000	55,181300
1022,000000	55,040300
1021,000000	54,942000
1020,000000	54,839800
1019,000000	54,726500
1018,000000	54,614800
1017,000000	54,515200
1016,000000	54,434200
1015,000000	54,341900
1014,000000	54,245700
1013,000000	54,161300
1012,000000	54,094300
1011,000000	54,015300
1010,000000	53,936000
1009,000000	53,873200
1008,000000	53,822500
1007,000000	53,780800
1006,000000	53,710900
1005,000000	53,652200
1004,000000	53,585700
1003,000000	53,543100
1002,000000	53,486900
1001,000000	53,424500
1000,000000	53,339900
999,000000	53,291700
998,000000	53,254500
997,000000	53,192800
996,000000	53,127200
995,000000	53,063900
994,000000	53,012900
993,000000	52,956000
992,000000	52,903600
991,000000	52,853200
990,000000	52,802800
989,000000	52,751500
988,000000	52,724200
987,000000	52,669100
986,000000	52,617500
985,000000	52,570800
984,000000	52,516000
983,000000	52,480000
982,000000	52,455400
981,000000	52,413100
980,000000	52,375300
979,000000	52,349700
978,000000	52,318100
977,000000	52,268500
976,000000	52,225700
975,000000	52,186500
974,000000	52,167600
973,000000	52,130100
972,000000	52,096000
971,000000	52,075200
970,000000	52,041600
969,000000	51,984900
968,000000	51,952900
967,000000	51,929400
966,000000	51,897000
965,000000	51,858600
964,000000	51,822700
963,000000	51,803300
962,000000	51,799000
961,000000	51,783400
960,000000	51,756100
959,000000	51,717400
958,000000	51,715500
957,000000	51,714900
956,000000	51,675900
955,000000	51,648200
954,000000	51,628200
953,000000	51,605600
952,000000	51,597500
951,000000	51,585400
950,000000	51,559700
949,000000	51,518800
948,000000	51,482300
947,000000	51,446600
946,000000	51,425200
945,000000	51,391200
944,000000	51,343800
943,000000	51,320300
942,000000	51,264600
941,000000	51,192100
940,000000	51,153000
939,000000	51,114300
938,000000	51,043300
937,000000	50,977300
936,000000	50,916900
935,000000	50,864400
934,000000	50,836900
933,000000	50,777200
932,000000	50,698100
931,000000	50,619200
930,000000	50,557700
929,000000	50,519800
928,000000	50,449300
927,000000	50,353600
926,000000	50,269400
925,000000	50,213200
924,000000	50,130300
923,000000	50,036200
922,000000	49,946700
921,000000	49,869500
920,000000	49,782500
919,000000	49,696300
918,000000	49,639000
917,000000	49,545700
916,000000	49,441200
915,000000	49,333700
914,000000	49,226000
913,000000	49,169500
912,000000	49,082200
911,000000	48,980700
910,000000	48,880000
909,000000	48,769300
908,000000	48,671700
907,000000	48,608000
906,000000	48,580400
905,000000	48,496300
904,000000	48,420700
903,000000	48,343900
902,000000	48,277800
901,000000	48,225700
900,000000	48,173400
899,000000	48,127900
898,000000	48,076300
897,000000	47,990200
896,000000	47,930000
895,000000	47,881000
894,000000	47,841000
893,000000	47,780700
892,000000	47,690500
891,000000	47,617000
890,000000	47,550200
889,000000	47,447500
888,000000	47,367900
887,000000	47,289300
886,000000	47,197300
885,000000	47,109900
884,000000	46,990300
883,000000	46,877700
882,000000	46,756500
881,000000	46,662900
880,000000	46,539800
879,000000	46,426900
878,000000	46,279600
877,000000	46,145700
876,000000	45,971600
875,000000	45,754300
874,000000	45,527500
873,000000	45,320200
872,000000	45,088500
871,000000	44,908100
870,000000	44,843900
869,000000	44,831500
868,000000	44,846200
867,000000	44,866400
866,000000	44,857600
865,000000	44,842100
864,000000	44,827000
863,000000	44,832100
862,000000	44,818600
861,000000	44,816200
860,000000	44,802400
859,000000	44,796100
858,000000	44,788600
857,000000	49,363000
856,000000	50,547400
855,000000	50,460500
854,000000	50,259200
853,000000	50,312500
852,000000	50,189900
851,000000	50,680700
850,000000	50,371400
849,000000	50,286500
848,000000	50,462700
847,000000	50,682900
846,000000	50,432100
845,000000	50,573500
844,000000	50,381500
843,000000	50,511100
842,000000	50,491200
841,000000	50,591100
840,000000	50,437500
839,000000	50,431900
838,000000	50,540500
837,000000	50,284400
836,000000	50,444800
835,000000	50,386400
834,000000	50,415500
833,000000	50,392300
832,000000	50,431200
831,000000	50,292800
830,000000	50,215600
829,000000	50,243900
828,000000	50,348100
827,000000	50,265000
826,000000	50,257700
825,000000	50,147900
824,000000	50,137300
823,000000	50,119100
822,000000	50,006000
821,000000	50,036200
820,000000	49,900600
819,000000	49,971400
818,000000	49,905500
817,000000	49,900000
816,000000	49,917500
815,000000	49,668100
814,000000	49,806700
813,000000	49,704000
812,000000	49,659000
811,000000	49,723100
810,000000	49,503200
809,000000	49,558200
808,000000	49,605600
807,000000	49,586300
806,000000	49,408700
805,000000	49,347900
804,000000	49,338500
803,000000	49,268600
802,000000	49,142900
801,000000	49,132500
800,000000	49,193300
799,000000	49,170700
798,000000	48,987600
797,000000	48,907600
796,000000	48,862400
795,000000	48,745300
794,000000	48,693700
793,000000	48,515500
792,000000	48,589900
791,000000	48,693800
790,000000	48,520100
789,000000	48,496800
788,000000	48,262800
787,000000	48,258800
786,000000	48,205500
785,000000	48,159900
784,000000	48,209300
783,000000	48,045800
782,000000	47,983100
781,000000	47,873000
780,000000	47,814800
779,000000	47,674100
778,000000	47,692500
777,000000	47,699400
776,000000	47,496000
775,000000	47,452800
774,000000	47,441100
773,000000	47,389600
772,000000	47,312400
771,000000	47,143000
770,000000	47,180000
769,000000	47,119000
768,000000	47,140100
767,000000	46,981800
766,000000	46,902600
765,000000	46,877300
764,000000	46,797400
763,000000	46,690200
762,000000	46,594500
761,000000	46,517200
760,000000	46,349000
759,000000	46,370300
758,000000	46,293600
757,000000	46,231400
756,000000	46,096800
755,000000	45,955300
754,000000	45,950100
753,000000	45,817500
752,000000	45,829000
751,000000	45,687900
750,000000	45,639200
749,000000	45,534000
748,000000	45,469400
747,000000	45,369700
746,000000	45,262900
745,000000	45,164000
744,000000	45,016200
743,000000	44,882300
742,000000	44,818500
741,000000	44,692500
740,000000	44,674700
739,000000	44,534600
738,000000	44,406600
737,000000	44,268700
736,000000	44,219300
735,000000	44,043800
734,000000	43,978600
733,000000	43,895000
732,000000	43,794900
731,000000	43,716300
730,000000	43,517600
729,000000	43,408300
728,000000	43,348400
727,000000	43,207800
726,000000	43,073600
725,000000	42,907000
724,000000	42,817800
723,000000	42,712800
722,000000	42,503300
721,000000	42,429200
720,000000	42,329300
719,000000	42,187900
718,000000	42,065600
717,000000	41,939000
716,000000	41,794100
715,000000	41,661900
714,000000	41,529000
713,000000	41,405600
712,000000	41,253800
711,000000	41,098500
710,000000	41,009100
709,000000	40,831700
708,000000	40,693500
707,000000	40,574700
706,000000	40,435700
705,000000	40,305900
704,000000	40,147700
703,000000	39,976500
702,000000	39,845500
701,000000	39,699900
700,000000	39,527600
699,000000	39,400400
698,000000	39,226400
697,000000	39,030100
696,000000	38,898100
695,000000	38,698700
694,000000	38,528000
693,000000	38,366000
692,000000	38,214800
691,000000	38,011200
690,000000	37,789800
689,000000	37,643500
688,000000	37,458700
687,000000	37,263600
686,000000	37,094900
685,000000	36,899600
684,000000	36,701700
683,000000	36,529500
682,000000	36,342800
681,000000	36,124600
680,000000	35,947900
679,000000	35,758400
678,000000	35,576000
677,000000	35,384400
676,000000	35,179400
675,000000	34,959900
674,000000	34,749500
673,000000	34,556300
672,000000	34,356300
671,000000	34,160500
670,000000	33,939400
669,000000	33,726800
668,000000	33,530800
667,000000	33,355100
666,000000	33,145700
665,000000	32,946800
664,000000	32,795600
663,000000	32,588300
662,000000	32,374800
661,000000	32,215300
660,000000	32,013100
659,000000	31,809400
658,000000	31,625000
657,000000	31,455900
656,000000	31,267700
655,000000	31,075300
654,000000	30,924500
653,000000	30,762500
652,000000	30,598500
651,000000	30,442100
650,000000	30,279500
649,000000	30,126200
648,000000	29,988300
647,000000	29,838800
646,000000	29,706100
645,000000	29,569600
644,000000	29,422300
643,000000	29,305400
642,000000	29,169200
641,000000	29,024000
640,000000	28,917300
639,000000	28,801400
638,000000	28,674400
637,000000	28,587300
636,000000	28,501400
635,000000	28,385800
634,000000	28,288500
633,000000	28,209200
632,000000	28,128300
631,000000	28,006900
630,000000	27,917500
629,000000	27,859900
628,000000	27,774200
627,000000	27,719600
626,000000	27,660400
625,000000	27,583300
624,000000	27,525500
623,000000	27,473500
622,000000	27,429700
621,000000	27,369900
620,000000	27,323700
619,000000	27,290200
618,000000	27,267100
617,000000	27,250700
616,000000	27,233600
615,000000	27,219300
614,000000	27,206600
613,000000	27,216900
612,000000	27,220900
611,000000	27,236300
610,000000	27,248900
609,000000	27,274200
608,000000	27,298000
607,000000	27,302600
606,000000	27,362200
605,000000	27,419800
604,000000	27,470500
603,000000	27,528600
602,000000	27,578300
601,000000	27,653400
600,000000	27,731600
599,000000	27,811200
598,000000	27,895600
597,000000	27,979100
596,000000	28,076400
595,000000	28,151200
594,000000	28,243600
593,000000	28,327000
592,000000	28,421200
591,000000	28,514500
590,000000	28,623200
589,000000	28,716000
588,000000	28,811500
587,000000	28,915800
586,000000	29,023600
585,000000	29,104000
584,000000	29,219500
583,000000	29,308100
582,000000	29,374100
581,000000	29,464100
580,000000	29,542000
579,000000	29,603700
578,000000	29,652700
577,000000	29,706000
576,000000	29,767100
575,000000	29,822400
574,000000	29,865800
573,000000	29,897200
572,000000	29,922900
571,000000	29,944100
570,000000	29,965700
569,000000	29,955400
568,000000	29,956200
567,000000	29,958700
566,000000	29,962400
565,000000	29,948200
564,000000	29,919100
563,000000	29,864200
562,000000	29,825200
561,000000	29,776900
560,000000	29,727800
559,000000	29,679600
558,000000	29,592600
557,000000	29,526000
556,000000	29,438500
555,000000	29,370900
554,000000	29,272100
553,000000	29,151600
552,000000	29,037800
551,000000	28,919900
550,000000	28,789200
549,000000	28,643100
548,000000	28,503100
547,000000	28,352000
546,000000	28,167700
545,000000	27,998900
544,000000	27,800100
543,000000	27,600200
542,000000	27,410000
541,000000	27,203700
540,000000	26,990100
539,000000	26,765400
538,000000	26,533600
537,000000	26,307600
536,000000	26,049700
535,000000	25,791900
534,000000	25,527600
533,000000	25,267500
532,000000	24,997200
531,000000	24,693500
530,000000	24,403500
529,000000	24,093600
528,000000	23,795700
527,000000	23,490700
526,000000	23,175900
525,000000	22,833500
524,000000	22,513400
523,000000	22,178700
522,000000	21,814500
521,000000	21,488400
520,000000	21,156800
519,000000	20,825000
518,000000	20,477600
517,000000	20,126000
516,000000	19,785800
515,000000	19,484800
514,000000	19,149300
513,000000	18,826200
512,000000	18,511600
511,000000	18,207900
510,000000	17,916500
509,000000	17,582800
508,000000	17,314000
507,000000	17,036700
506,000000	16,761100
505,000000	16,520000
504,000000	16,262300
503,000000	16,006200
502,000000	15,785800
501,000000	15,537100
500,000000	15,296500
499,000000	15,091600
498,000000	14,898100
497,000000	14,728100
496,000000	14,539600
495,000000	14,352900
494,000000	14,194700
493,000000	14,019900
492,000000	13,860600
491,000000	13,708000
490,000000	13,579900
489,000000	13,454700
488,000000	13,330500
487,000000	13,212800
486,000000	13,085900
485,000000	12,986500
484,000000	12,871300
483,000000	12,752000
482,000000	12,640000
481,000000	12,530100
480,000000	12,407200
479,000000	12,281000
478,000000	12,176400
477,000000	12,080800
476,000000	11,991100
475,000000	11,880500
474,000000	11,778400
473,000000	11,688800
472,000000	11,600300
471,000000	11,504500
470,000000	11,434800
469,000000	11,349300
468,000000	11,267500
467,000000	11,202500
466,000000	11,126000
465,000000	11,048400
464,000000	11,003300
463,000000	10,962800
462,000000	10,880800
461,000000	10,824100
460,000000	10,769100
459,000000	10,708400
458,000000	10,681500
457,000000	10,605800
456,000000	10,551900
455,000000	10,532800
454,000000	10,480700
453,000000	10,440200
452,000000	10,374100
451,000000	10,322100
450,000000	10,286100
449,000000	10,247000
448,000000	10,187100
447,000000	10,144800
446,000000	10,101700
445,000000	10,035800
444,000000	9,999500
443,000000	9,942900
442,000000	9,905800
441,000000	9,855300
440,000000	9,797300
439,000000	9,739300
438,000000	9,685200
437,000000	9,620700
436,000000	9,561400
435,000000	9,502800
434,000000	9,447500
433,000000	9,404400
432,000000	9,321600
431,000000	9,252800
430,000000	9,204300
429,000000	9,154600
428,000000	9,080200
427,000000	9,019400
426,000000	8,957100
425,000000	8,878400
424,000000	8,815200
423,000000	8,737100
422,000000	8,671500
421,000000	8,609500
420,000000	8,547400
419,000000	8,463000
418,000000	8,404500
417,000000	8,338800
416,000000	8,255300
415,000000	8,174000
414,000000	8,097500
413,000000	8,030300
412,000000	7,936600
411,000000	7,842700
410,000000	7,762800
409,000000	7,697200
408,000000	7,610000
407,000000	7,542400
406,000000	7,454600
405,000000	7,375100
404,000000	7,306700
403,000000	7,233800
402,000000	7,118900
401,000000	7,027600
400,000000	6,977400
399,000000	6,915100
398,000000	6,814000
397,000000	6,741600
396,000000	6,648400
395,000000	6,593000
394,000000	6,517900
393,000000	6,430700
392,000000	6,334400
391,000000	6,303800
390,000000	6,214800
389,000000	6,123300
388,000000	6,061200
387,000000	6,001500
386,000000	5,927800
385,000000	5,869300
384,000000	5,785600
383,000000	5,720300
382,000000	5,670400
381,000000	5,598300
380,000000	5,534500
379,000000	5,470000
378,000000	5,437000
377,000000	5,414000
376,000000	5,268700
375,000000	4,963700
374,000000	4,763800
373,000000	4,813300
372,000000	4,850500
371,000000	4,866400
370,000000	4,805100
369,000000	4,772400
368,000000	4,860600
367,000000	4,839200
366,000000	4,698500
365,000000	4,690000
364,000000	4,748900
363,000000	4,684300
362,000000	4,577400
361,000000	4,689600
360,000000	4,672500
359,000000	4,704200
358,000000	4,840000
357,000000	4,851600
356,000000	4,749500
355,000000	4,686200
354,000000	4,640600
353,000000	4,599600
352,000000	4,622400
351,000000	4,630000
350,000000	4,504400
349,000000	4,508600
348,000000	4,599400
347,000000	4,615500
346,000000	4,632200
345,000000	4,594200
344,000000	4,640800
343,000000	4,711700
342,000000	4,642100
341,000000	4,516800
340,000000	4,751200
339,000000	4,915400
338,000000	4,883400
337,000000	4,804600
336,000000	4,822000
335,000000	4,800900
334,000000	4,914600
333,000000	5,000800
332,000000	5,057200
331,000000	4,917600
330,000000	4,633700
329,000000	4,982900
328,000000	4,877400
327,000000	4,679400
326,000000	4,707900
325,000000	4,762800
324,000000	4,930000
323,000000	5,055200
322,000000	5,200400
321,000000	5,037100
320,000000	5,067500
319,000000	5,464500
318,000000	5,253500
317,000000	5,437800
316,000000	5,105400
315,000000	4,546800
314,000000	4,525700
313,000000	4,474200
312,000000	4,484600
311,000000	4,514300
310,000000	4,537900
309,000000	4,520400
308,000000	4,502500
307,000000	4,523800
306,000000	4,527300
305,000000	4,529000
304,000000	4,495100
303,000000	4,512300
302,000000	4,553200
301,000000	4,539600
300,000000	4,513800
299,000000	4,506700
298,000000	4,511800
297,000000	4,522400
296,000000	4,549100
295,000000	4,553600
294,000000	4,550700
293,000000	4,525800
292,000000	4,524800
291,000000	4,549200
290,000000	4,534800
289,000000	4,532100
288,000000	4,547500
287,000000	4,555500
286,000000	4,530000
285,000000	4,510000
284,000000	4,544300
283,000000	4,550100
282,000000	4,577100
281,000000	4,591200
280,000000	4,561800
279,000000	4,592100
278,000000	4,601800
277,000000	4,603000
276,000000	4,624500
275,000000	4,603400
274,000000	4,610200
273,000000	4,662400
272,000000	4,670000
271,000000	4,650000
270,000000	4,655400
269,000000	4,650800
268,000000	4,686700
267,000000	4,698800
266,000000	4,708800
265,000000	4,749300
264,000000	4,742300
263,000000	4,775700
262,000000	4,805400
261,000000	4,813300
260,000000	4,828500
259,000000	4,848400
258,000000	4,868900
257,000000	4,878400
256,000000	4,909400
255,000000	4,890300
254,000000	4,912700
253,000000	4,942500
252,000000	4,942600
251,000000	4,935200
250,000000	4,909800
