PE UV       SUBTECH     SPECTRUM    ASCII       PEDS        4.00        
   -1
CICIMAUCR0257-2.ASC
24/06/27
10:47:58.00
24/06/27
10:47:58.00
Vinicio Soto Monge
C. resplendens. Sex F. Ventral
250,000000
1
Lambda 1050
1050L1511233
PerkinElmer UV WinLab 6.3.2.0749 / 2.02.05 Lambda 900 UV/VIS/NIR, Aug  7 2015 09:38:08

0
0
3350/servo 860,8/2
0
0
UV/VIS
1
1
1
DoubleDePol,CommonBeamDepol,RBeamAtt,SBeamAtt,60mm sphere, WB InGaAs Detector
0
0
0
0
Program
Program
3350/servo 860,8/2
3350/0,2 860,8/0,2
3350/0,2 860,8/0,2
0
15.00
 
 
 
0
 
860,8
319,2
860,8
Front
100
on
S:100 R:100
0
0
0
0
 
0
 
 
 
0
 
 
0
0
0
0
0
 
 
 
 
0
0


0
0
#HDR
-1
-1
#GR
nm
%R
1.0
0.0
2500,000000
-1,000000
2251
8
58,971800
4,417200
#DATA
2500,000000	5,292100
2499,000000	5,268700
2498,000000	5,151400
2497,000000	5,163500
2496,000000	5,073700
2495,000000	5,158600
2494,000000	5,160900
2493,000000	5,059000
2492,000000	5,008000
2491,000000	5,172400
2490,000000	5,136500
2489,000000	5,045900
2488,000000	5,033400
2487,000000	5,093900
2486,000000	5,088400
2485,000000	5,066100
2484,000000	5,045500
2483,000000	5,095200
2482,000000	5,056200
2481,000000	5,048600
2480,000000	4,951200
2479,000000	4,988900
2478,000000	5,061500
2477,000000	4,966200
2476,000000	5,047100
2475,000000	4,990000
2474,000000	4,979200
2473,000000	4,985300
2472,000000	4,995200
2471,000000	4,997900
2470,000000	4,972800
2469,000000	4,991800
2468,000000	4,947800
2467,000000	4,956900
2466,000000	4,983100
2465,000000	4,969500
2464,000000	4,987900
2463,000000	5,009600
2462,000000	5,002600
2461,000000	4,982000
2460,000000	4,995500
2459,000000	5,030400
2458,000000	4,980100
2457,000000	5,040400
2456,000000	5,019300
2455,000000	5,047300
2454,000000	5,077300
2453,000000	5,078400
2452,000000	5,094000
2451,000000	5,135600
2450,000000	5,163000
2449,000000	5,178400
2448,000000	5,180000
2447,000000	5,192500
2446,000000	5,220000
2445,000000	5,222700
2444,000000	5,262600
2443,000000	5,268800
2442,000000	5,304300
2441,000000	5,317700
2440,000000	5,338900
2439,000000	5,351400
2438,000000	5,361900
2437,000000	5,386100
2436,000000	5,381000
2435,000000	5,420100
2434,000000	5,456200
2433,000000	5,432700
2432,000000	5,437700
2431,000000	5,466100
2430,000000	5,488200
2429,000000	5,505000
2428,000000	5,511300
2427,000000	5,525300
2426,000000	5,532400
2425,000000	5,556600
2424,000000	5,575800
2423,000000	5,585400
2422,000000	5,578100
2421,000000	5,600400
2420,000000	5,609200
2419,000000	5,603400
2418,000000	5,621600
2417,000000	5,628200
2416,000000	5,644500
2415,000000	5,660800
2414,000000	5,657400
2413,000000	5,657800
2412,000000	5,655500
2411,000000	5,665500
2410,000000	5,684900
2409,000000	5,693800
2408,000000	5,695500
2407,000000	5,706000
2406,000000	5,711000
2405,000000	5,721100
2404,000000	5,736100
2403,000000	5,750300
2402,000000	5,745900
2401,000000	5,755400
2400,000000	5,773500
2399,000000	5,772700
2398,000000	5,787500
2397,000000	5,795300
2396,000000	5,814000
2395,000000	5,819800
2394,000000	5,815400
2393,000000	5,826900
2392,000000	5,827100
2391,000000	5,825800
2390,000000	5,826500
2389,000000	5,828400
2388,000000	5,833900
2387,000000	5,833500
2386,000000	5,840300
2385,000000	5,853200
2384,000000	5,859600
2383,000000	5,861300
2382,000000	5,852400
2381,000000	5,848200
2380,000000	5,846200
2379,000000	5,844200
2378,000000	5,832100
2377,000000	5,814100
2376,000000	5,818100
2375,000000	5,810300
2374,000000	5,804000
2373,000000	5,803400
2372,000000	5,781800
2371,000000	5,762900
2370,000000	5,759200
2369,000000	5,749800
2368,000000	5,736500
2367,000000	5,718000
2366,000000	5,693900
2365,000000	5,674800
2364,000000	5,653700
2363,000000	5,639100
2362,000000	5,618200
2361,000000	5,589700
2360,000000	5,566500
2359,000000	5,547500
2358,000000	5,532500
2357,000000	5,512100
2356,000000	5,503600
2355,000000	5,500700
2354,000000	5,491200
2353,000000	5,481100
2352,000000	5,486300
2351,000000	5,498800
2350,000000	5,479800
2349,000000	5,468000
2348,000000	5,501400
2347,000000	5,510200
2346,000000	5,510200
2345,000000	5,534900
2344,000000	5,548300
2343,000000	5,549100
2342,000000	5,580200
2341,000000	5,589000
2340,000000	5,585300
2339,000000	5,589900
2338,000000	5,587800
2337,000000	5,587700
2336,000000	5,593400
2335,000000	5,586600
2334,000000	5,579600
2333,000000	5,576400
2332,000000	5,561400
2331,000000	5,544700
2330,000000	5,544600
2329,000000	5,519600
2328,000000	5,493600
2327,000000	5,466600
2326,000000	5,448600
2325,000000	5,419400
2324,000000	5,390300
2323,000000	5,374000
2322,000000	5,353600
2321,000000	5,324700
2320,000000	5,297000
2319,000000	5,262300
2318,000000	5,236300
2317,000000	5,209100
2316,000000	5,182600
2315,000000	5,141800
2314,000000	5,115600
2313,000000	5,078500
2312,000000	5,066600
2311,000000	5,044200
2310,000000	5,015600
2309,000000	5,017400
2308,000000	5,001200
2307,000000	4,974000
2306,000000	4,985500
2305,000000	4,992200
2304,000000	4,988500
2303,000000	5,017100
2302,000000	5,012100
2301,000000	5,021300
2300,000000	5,045700
2299,000000	5,063100
2298,000000	5,093600
2297,000000	5,116200
2296,000000	5,104200
2295,000000	5,136500
2294,000000	5,157500
2293,000000	5,167900
2292,000000	5,171600
2291,000000	5,190700
2290,000000	5,216300
2289,000000	5,209800
2288,000000	5,191800
2287,000000	5,197700
2286,000000	5,199800
2285,000000	5,199500
2284,000000	5,178500
2283,000000	5,169900
2282,000000	5,159100
2281,000000	5,155100
2280,000000	5,148000
2279,000000	5,121900
2278,000000	5,121200
2277,000000	5,108100
2276,000000	5,088800
2275,000000	5,086900
2274,000000	5,084100
2273,000000	5,063500
2272,000000	5,062900
2271,000000	5,068600
2270,000000	5,080700
2269,000000	5,092800
2268,000000	5,109100
2267,000000	5,127500
2266,000000	5,128700
2265,000000	5,170600
2264,000000	5,208600
2263,000000	5,263800
2262,000000	5,290700
2261,000000	5,348300
2260,000000	5,426400
2259,000000	5,487800
2258,000000	5,557600
2257,000000	5,601900
2256,000000	5,687200
2255,000000	5,785600
2254,000000	5,871100
2253,000000	5,960800
2252,000000	6,047800
2251,000000	6,135200
2250,000000	6,191400
2249,000000	6,278200
2248,000000	6,351400
2247,000000	6,434100
2246,000000	6,502200
2245,000000	6,574900
2244,000000	6,620100
2243,000000	6,694200
2242,000000	6,768300
2241,000000	6,819900
2240,000000	6,858400
2239,000000	6,915400
2238,000000	6,968700
2237,000000	6,997700
2236,000000	7,037800
2235,000000	7,082500
2234,000000	7,114900
2233,000000	7,145800
2232,000000	7,190700
2231,000000	7,202300
2230,000000	7,238400
2229,000000	7,255000
2228,000000	7,283600
2227,000000	7,284800
2226,000000	7,281700
2225,000000	7,323800
2224,000000	7,305200
2223,000000	7,311300
2222,000000	7,314800
2221,000000	7,327300
2220,000000	7,336200
2219,000000	7,312400
2218,000000	7,305700
2217,000000	7,305800
2216,000000	7,295600
2215,000000	7,294000
2214,000000	7,298100
2213,000000	7,273500
2212,000000	7,289800
2211,000000	7,261200
2210,000000	7,251900
2209,000000	7,247200
2208,000000	7,257900
2207,000000	7,263200
2206,000000	7,251200
2205,000000	7,253000
2204,000000	7,213100
2203,000000	7,250600
2202,000000	7,226900
2201,000000	7,237300
2200,000000	7,245600
2199,000000	7,231700
2198,000000	7,242400
2197,000000	7,238600
2196,000000	7,214100
2195,000000	7,229100
2194,000000	7,228300
2193,000000	7,228200
2192,000000	7,225200
2191,000000	7,228300
2190,000000	7,221000
2189,000000	7,213800
2188,000000	7,208100
2187,000000	7,210600
2186,000000	7,194100
2185,000000	7,181400
2184,000000	7,186100
2183,000000	7,192300
2182,000000	7,198600
2181,000000	7,181000
2180,000000	7,176000
2179,000000	7,168100
2178,000000	7,158900
2177,000000	7,167800
2176,000000	7,148300
2175,000000	7,165000
2174,000000	7,171200
2173,000000	7,157900
2172,000000	7,180100
2171,000000	7,174200
2170,000000	7,195900
2169,000000	7,185000
2168,000000	7,185400
2167,000000	7,177600
2166,000000	7,200300
2165,000000	7,228800
2164,000000	7,221700
2163,000000	7,219600
2162,000000	7,244400
2161,000000	7,252200
2160,000000	7,254800
2159,000000	7,267600
2158,000000	7,283500
2157,000000	7,292300
2156,000000	7,319800
2155,000000	7,339400
2154,000000	7,325400
2153,000000	7,333200
2152,000000	7,354100
2151,000000	7,366700
2150,000000	7,385900
2149,000000	7,408100
2148,000000	7,424700
2147,000000	7,421200
2146,000000	7,424700
2145,000000	7,445600
2144,000000	7,468200
2143,000000	7,476400
2142,000000	7,484700
2141,000000	7,495900
2140,000000	7,509500
2139,000000	7,516600
2138,000000	7,526800
2137,000000	7,527500
2136,000000	7,539800
2135,000000	7,531700
2134,000000	7,527900
2133,000000	7,557600
2132,000000	7,562400
2131,000000	7,553800
2130,000000	7,546200
2129,000000	7,549900
2128,000000	7,558100
2127,000000	7,540900
2126,000000	7,534200
2125,000000	7,532500
2124,000000	7,522200
2123,000000	7,518400
2122,000000	7,504800
2121,000000	7,480400
2120,000000	7,466800
2119,000000	7,470300
2118,000000	7,469900
2117,000000	7,448500
2116,000000	7,425400
2115,000000	7,409000
2114,000000	7,404600
2113,000000	7,381900
2112,000000	7,356100
2111,000000	7,347300
2110,000000	7,331100
2109,000000	7,320500
2108,000000	7,304900
2107,000000	7,289600
2106,000000	7,275700
2105,000000	7,264500
2104,000000	7,248900
2103,000000	7,229500
2102,000000	7,200500
2101,000000	7,189300
2100,000000	7,177300
2099,000000	7,169600
2098,000000	7,151300
2097,000000	7,133100
2096,000000	7,125500
2095,000000	7,119100
2094,000000	7,113000
2093,000000	7,097600
2092,000000	7,074600
2091,000000	7,059600
2090,000000	7,054700
2089,000000	7,047200
2088,000000	7,041900
2087,000000	7,041200
2086,000000	7,025100
2085,000000	7,015500
2084,000000	7,011700
2083,000000	7,002900
2082,000000	6,997900
2081,000000	6,981700
2080,000000	6,970400
2079,000000	6,961000
2078,000000	6,951500
2077,000000	6,943400
2076,000000	6,932800
2075,000000	6,917300
2074,000000	6,900100
2073,000000	6,885300
2072,000000	6,877000
2071,000000	6,869800
2070,000000	6,859400
2069,000000	6,842900
2068,000000	6,837100
2067,000000	6,838200
2066,000000	6,824600
2065,000000	6,809100
2064,000000	6,802500
2063,000000	6,801200
2062,000000	6,801700
2061,000000	6,808100
2060,000000	6,809200
2059,000000	6,804500
2058,000000	6,802900
2057,000000	6,799000
2056,000000	6,796500
2055,000000	6,812900
2054,000000	6,842300
2053,000000	6,871400
2052,000000	6,892900
2051,000000	6,918000
2050,000000	6,948700
2049,000000	6,988300
2048,000000	7,035100
2047,000000	7,080700
2046,000000	7,121700
2045,000000	7,176700
2044,000000	7,229100
2043,000000	7,278900
2042,000000	7,331600
2041,000000	7,383100
2040,000000	7,430900
2039,000000	7,477800
2038,000000	7,527300
2037,000000	7,571600
2036,000000	7,622900
2035,000000	7,678100
2034,000000	7,731600
2033,000000	7,763300
2032,000000	7,807800
2031,000000	7,849000
2030,000000	7,882700
2029,000000	7,921900
2028,000000	7,953000
2027,000000	7,980900
2026,000000	8,015300
2025,000000	8,038900
2024,000000	8,065900
2023,000000	8,089500
2022,000000	8,104800
2021,000000	8,149500
2020,000000	8,167000
2019,000000	8,186900
2018,000000	8,205200
2017,000000	8,220700
2016,000000	8,230800
2015,000000	8,240300
2014,000000	8,262200
2013,000000	8,268900
2012,000000	8,268200
2011,000000	8,259300
2010,000000	8,269700
2009,000000	8,276500
2008,000000	8,268600
2007,000000	8,272700
2006,000000	8,273500
2005,000000	8,288100
2004,000000	8,263800
2003,000000	8,242900
2002,000000	8,220000
2001,000000	8,214600
2000,000000	8,184200
1999,000000	8,174700
1998,000000	8,155400
1997,000000	8,138900
1996,000000	8,092400
1995,000000	8,077300
1994,000000	8,055000
1993,000000	8,001700
1992,000000	7,976200
1991,000000	7,945700
1990,000000	7,910500
1989,000000	7,880600
1988,000000	7,856000
1987,000000	7,820500
1986,000000	7,780500
1985,000000	7,739100
1984,000000	7,700900
1983,000000	7,675400
1982,000000	7,620700
1981,000000	7,583300
1980,000000	7,539500
1979,000000	7,491800
1978,000000	7,462700
1977,000000	7,428900
1976,000000	7,383000
1975,000000	7,350700
1974,000000	7,316900
1973,000000	7,281300
1972,000000	7,226800
1971,000000	7,215600
1970,000000	7,185600
1969,000000	7,150300
1968,000000	7,119100
1967,000000	7,088200
1966,000000	7,064700
1965,000000	7,027600
1964,000000	7,002800
1963,000000	6,967000
1962,000000	6,938100
1961,000000	6,899600
1960,000000	6,877500
1959,000000	6,838700
1958,000000	6,814100
1957,000000	6,793500
1956,000000	6,778300
1955,000000	6,749100
1954,000000	6,736200
1953,000000	6,689500
1952,000000	6,653600
1951,000000	6,620600
1950,000000	6,616000
1949,000000	6,603600
1948,000000	6,600600
1947,000000	6,562500
1946,000000	6,540900
1945,000000	6,540200
1944,000000	6,506800
1943,000000	6,499200
1942,000000	6,522900
1941,000000	6,492600
1940,000000	6,481300
1939,000000	6,484400
1938,000000	6,494200
1937,000000	6,478600
1936,000000	6,508700
1935,000000	6,508000
1934,000000	6,488900
1933,000000	6,520400
1932,000000	6,540700
1931,000000	6,547200
1930,000000	6,597700
1929,000000	6,639200
1928,000000	6,660800
1927,000000	6,724300
1926,000000	6,770600
1925,000000	6,780400
1924,000000	6,828800
1923,000000	6,885300
1922,000000	6,916100
1921,000000	7,008300
1920,000000	7,066600
1919,000000	7,145500
1918,000000	7,199400
1917,000000	7,269200
1916,000000	7,353400
1915,000000	7,415700
1914,000000	7,493700
1913,000000	7,588400
1912,000000	7,714800
1911,000000	7,821500
1910,000000	7,906800
1909,000000	8,017100
1908,000000	8,120000
1907,000000	8,202200
1906,000000	8,321800
1905,000000	8,481800
1904,000000	8,642400
1903,000000	8,778800
1902,000000	8,906000
1901,000000	9,049900
1900,000000	9,201900
1899,000000	9,377100
1898,000000	9,554500
1897,000000	9,733300
1896,000000	9,881400
1895,000000	10,031500
1894,000000	10,167900
1893,000000	10,326200
1892,000000	10,523800
1891,000000	10,783000
1890,000000	11,001200
1889,000000	11,208800
1888,000000	11,425300
1887,000000	11,676000
1886,000000	11,940900
1885,000000	12,244500
1884,000000	12,584100
1883,000000	12,982000
1882,000000	13,425500
1881,000000	13,843100
1880,000000	14,281100
1879,000000	14,711500
1878,000000	15,127900
1877,000000	15,571300
1876,000000	15,969300
1875,000000	16,358200
1874,000000	16,731600
1873,000000	17,085400
1872,000000	17,437800
1871,000000	17,761300
1870,000000	18,083900
1869,000000	18,343500
1868,000000	18,589700
1867,000000	18,759100
1866,000000	18,908000
1865,000000	19,007100
1864,000000	19,105500
1863,000000	19,191900
1862,000000	19,263800
1861,000000	19,350000
1860,000000	19,425600
1859,000000	19,467500
1858,000000	19,513000
1857,000000	19,542400
1856,000000	19,537300
1855,000000	19,518500
1854,000000	19,501900
1853,000000	19,471200
1852,000000	19,412100
1851,000000	19,361700
1850,000000	19,327500
1849,000000	19,256800
1848,000000	19,202100
1847,000000	19,170700
1846,000000	19,109300
1845,000000	19,032600
1844,000000	18,960600
1843,000000	18,901800
1842,000000	18,873900
1841,000000	18,853600
1840,000000	18,834700
1839,000000	18,802100
1838,000000	18,751000
1837,000000	18,694200
1836,000000	18,640300
1835,000000	18,591100
1834,000000	18,526700
1833,000000	18,433500
1832,000000	18,340500
1831,000000	18,257200
1830,000000	18,205800
1829,000000	18,123700
1828,000000	18,029000
1827,000000	17,949000
1826,000000	17,861900
1825,000000	17,786600
1824,000000	17,722500
1823,000000	17,657300
1822,000000	17,638600
1821,000000	17,625200
1820,000000	17,596700
1819,000000	17,565600
1818,000000	17,539700
1817,000000	17,517800
1816,000000	17,492300
1815,000000	17,486600
1814,000000	17,478500
1813,000000	17,453900
1812,000000	17,440300
1811,000000	17,423800
1810,000000	17,398300
1809,000000	17,357400
1808,000000	17,316000
1807,000000	17,279400
1806,000000	17,231100
1805,000000	17,164600
1804,000000	17,101100
1803,000000	17,053500
1802,000000	17,022000
1801,000000	16,987800
1800,000000	16,931100
1799,000000	16,859300
1798,000000	16,793600
1797,000000	16,757600
1796,000000	16,713300
1795,000000	16,658000
1794,000000	16,595300
1793,000000	16,537100
1792,000000	16,488000
1791,000000	16,431200
1790,000000	16,382400
1789,000000	16,312100
1788,000000	16,228100
1787,000000	16,170300
1786,000000	16,101100
1785,000000	16,015700
1784,000000	15,931600
1783,000000	15,842700
1782,000000	15,761100
1781,000000	15,682000
1780,000000	15,599700
1779,000000	15,502500
1778,000000	15,412300
1777,000000	15,313500
1776,000000	15,222600
1775,000000	15,106000
1774,000000	14,979800
1773,000000	14,840600
1772,000000	14,699900
1771,000000	14,586400
1770,000000	14,456900
1769,000000	14,316200
1768,000000	14,195400
1767,000000	14,084800
1766,000000	13,991200
1765,000000	13,897400
1764,000000	13,830800
1763,000000	13,807100
1762,000000	13,796100
1761,000000	13,822000
1760,000000	13,867100
1759,000000	13,916700
1758,000000	13,967500
1757,000000	14,050900
1756,000000	14,113200
1755,000000	14,158300
1754,000000	14,176700
1753,000000	14,191400
1752,000000	14,197700
1751,000000	14,177100
1750,000000	14,130000
1749,000000	14,079300
1748,000000	14,024600
1747,000000	13,964100
1746,000000	13,859900
1745,000000	13,747500
1744,000000	13,615900
1743,000000	13,464900
1742,000000	13,287800
1741,000000	13,086200
1740,000000	12,880000
1739,000000	12,656400
1738,000000	12,462100
1737,000000	12,285900
1736,000000	12,130600
1735,000000	12,024300
1734,000000	11,945500
1733,000000	11,933200
1732,000000	11,951000
1731,000000	11,991200
1730,000000	12,067000
1729,000000	12,163300
1728,000000	12,276900
1727,000000	12,385700
1726,000000	12,470700
1725,000000	12,561500
1724,000000	12,637900
1723,000000	12,670700
1722,000000	12,707000
1721,000000	12,718400
1720,000000	12,714800
1719,000000	12,726100
1718,000000	12,730400
1717,000000	12,760500
1716,000000	12,781500
1715,000000	12,819800
1714,000000	12,887200
1713,000000	12,923100
1712,000000	12,959100
1711,000000	12,988400
1710,000000	13,013200
1709,000000	13,033500
1708,000000	13,019200
1707,000000	12,981600
1706,000000	12,970100
1705,000000	12,938100
1704,000000	12,887300
1703,000000	12,799000
1702,000000	12,718100
1701,000000	12,617400
1700,000000	12,493100
1699,000000	12,368100
1698,000000	12,245300
1697,000000	12,126500
1696,000000	12,040400
1695,000000	11,988700
1694,000000	11,992100
1693,000000	12,058100
1692,000000	12,190700
1691,000000	12,338300
1690,000000	12,486800
1689,000000	12,608900
1688,000000	12,702600
1687,000000	12,779700
1686,000000	12,803000
1685,000000	12,798300
1684,000000	12,829900
1683,000000	12,953300
1682,000000	13,159400
1681,000000	13,502100
1680,000000	13,925600
1679,000000	14,457900
1678,000000	14,993500
1677,000000	15,557500
1676,000000	16,047700
1675,000000	16,512900
1674,000000	16,908400
1673,000000	17,280600
1672,000000	17,562200
1671,000000	17,842900
1670,000000	18,063400
1669,000000	18,283300
1668,000000	18,437800
1667,000000	18,604500
1666,000000	18,714900
1665,000000	18,838800
1664,000000	18,925400
1663,000000	19,018200
1662,000000	19,097500
1661,000000	19,146100
1660,000000	19,200200
1659,000000	19,233300
1658,000000	19,276000
1657,000000	19,289800
1656,000000	19,309700
1655,000000	19,304600
1654,000000	19,297000
1653,000000	19,296300
1652,000000	19,266900
1651,000000	19,243900
1650,000000	19,212500
1649,000000	19,185800
1648,000000	19,135500
1647,000000	19,083000
1646,000000	19,029300
1645,000000	18,979100
1644,000000	18,938600
1643,000000	18,870200
1642,000000	18,793900
1641,000000	18,729900
1640,000000	18,664000
1639,000000	18,582800
1638,000000	18,519900
1637,000000	18,445200
1636,000000	18,365600
1635,000000	18,296900
1634,000000	18,228200
1633,000000	18,147200
1632,000000	18,076400
1631,000000	17,979000
1630,000000	17,908500
1629,000000	17,807400
1628,000000	17,724200
1627,000000	17,615900
1626,000000	17,558600
1625,000000	17,461500
1624,000000	17,370300
1623,000000	17,306700
1622,000000	17,216500
1621,000000	17,129400
1620,000000	17,042000
1619,000000	16,953800
1618,000000	16,879300
1617,000000	16,786200
1616,000000	16,728800
1615,000000	16,632500
1614,000000	16,568900
1613,000000	16,494200
1612,000000	16,423300
1611,000000	16,350400
1610,000000	16,272600
1609,000000	16,222700
1608,000000	16,152400
1607,000000	16,076800
1606,000000	16,011900
1605,000000	15,950000
1604,000000	15,893200
1603,000000	15,822900
1602,000000	15,748100
1601,000000	15,678600
1600,000000	15,617900
1599,000000	15,556100
1598,000000	15,504100
1597,000000	15,437000
1596,000000	15,382000
1595,000000	15,323300
1594,000000	15,264400
1593,000000	15,211100
1592,000000	15,174700
1591,000000	15,117800
1590,000000	15,071100
1589,000000	15,021900
1588,000000	14,981800
1587,000000	14,951000
1586,000000	14,919800
1585,000000	14,885300
1584,000000	14,859700
1583,000000	14,836200
1582,000000	14,826700
1581,000000	14,797100
1580,000000	14,766800
1579,000000	14,743200
1578,000000	14,750300
1577,000000	14,748200
1576,000000	14,735900
1575,000000	14,729000
1574,000000	14,728300
1573,000000	14,735700
1572,000000	14,744900
1571,000000	14,747000
1570,000000	14,756400
1569,000000	14,767600
1568,000000	14,798600
1567,000000	14,828500
1566,000000	14,838600
1565,000000	14,862600
1564,000000	14,882500
1563,000000	14,902600
1562,000000	14,922900
1561,000000	14,945400
1560,000000	14,957100
1559,000000	14,975500
1558,000000	14,988700
1557,000000	14,998500
1556,000000	15,010500
1555,000000	15,021500
1554,000000	15,020600
1553,000000	15,020000
1552,000000	15,013900
1551,000000	15,002300
1550,000000	15,003800
1549,000000	14,986300
1548,000000	14,988500
1547,000000	14,979800
1546,000000	14,963400
1545,000000	14,956500
1544,000000	14,962300
1543,000000	14,960800
1542,000000	14,955500
1541,000000	14,950300
1540,000000	14,951100
1539,000000	14,958700
1538,000000	14,960900
1537,000000	14,957000
1536,000000	14,952100
1535,000000	14,938900
1534,000000	14,936300
1533,000000	14,938100
1532,000000	14,930300
1531,000000	14,906400
1530,000000	14,880500
1529,000000	14,877800
1528,000000	14,861100
1527,000000	14,841600
1526,000000	14,828800
1525,000000	14,809600
1524,000000	14,792800
1523,000000	14,761000
1522,000000	14,740700
1521,000000	14,715500
1520,000000	14,683700
1519,000000	14,668000
1518,000000	14,644800
1517,000000	14,612900
1516,000000	14,599000
1515,000000	14,571400
1514,000000	14,536400
1513,000000	14,520700
1512,000000	14,489500
1511,000000	14,454200
1510,000000	14,425100
1509,000000	14,395500
1508,000000	14,371600
1507,000000	14,338000
1506,000000	14,312500
1505,000000	14,293300
1504,000000	14,263200
1503,000000	14,244900
1502,000000	14,220700
1501,000000	14,184400
1500,000000	14,154900
1499,000000	14,139200
1498,000000	14,120500
1497,000000	14,102300
1496,000000	14,090200
1495,000000	14,072000
1494,000000	14,052400
1493,000000	14,051400
1492,000000	14,045400
1491,000000	14,033900
1490,000000	14,027200
1489,000000	14,031900
1488,000000	14,036500
1487,000000	14,028100
1486,000000	14,019800
1485,000000	14,020000
1484,000000	14,022000
1483,000000	14,036500
1482,000000	14,038900
1481,000000	14,050900
1480,000000	14,071600
1479,000000	14,074300
1478,000000	14,090700
1477,000000	14,102900
1476,000000	14,124500
1475,000000	14,132000
1474,000000	14,147700
1473,000000	14,184800
1472,000000	14,209600
1471,000000	14,209500
1470,000000	14,242000
1469,000000	14,267300
1468,000000	14,272800
1467,000000	14,294100
1466,000000	14,323400
1465,000000	14,354300
1464,000000	14,400600
1463,000000	14,434500
1462,000000	14,461500
1461,000000	14,521400
1460,000000	14,575800
1459,000000	14,639500
1458,000000	14,692300
1457,000000	14,754800
1456,000000	14,843600
1455,000000	14,922200
1454,000000	14,982600
1453,000000	15,067900
1452,000000	15,151600
1451,000000	15,241700
1450,000000	15,350800
1449,000000	15,434000
1448,000000	15,521900
1447,000000	15,625800
1446,000000	15,742000
1445,000000	15,859700
1444,000000	15,977000
1443,000000	16,061400
1442,000000	16,174900
1441,000000	16,301200
1440,000000	16,429200
1439,000000	16,551200
1438,000000	16,658100
1437,000000	16,778700
1436,000000	16,876100
1435,000000	16,994400
1434,000000	17,129300
1433,000000	17,244800
1432,000000	17,373600
1431,000000	17,514900
1430,000000	17,660600
1429,000000	17,796900
1428,000000	17,962200
1427,000000	18,138800
1426,000000	18,312500
1425,000000	18,501000
1424,000000	18,713500
1423,000000	18,926000
1422,000000	19,155800
1421,000000	19,363800
1420,000000	19,567900
1419,000000	19,815200
1418,000000	20,055700
1417,000000	20,295900
1416,000000	20,500800
1415,000000	20,748300
1414,000000	20,995600
1413,000000	21,282200
1412,000000	21,502800
1411,000000	21,735900
1410,000000	22,047100
1409,000000	22,375100
1408,000000	22,769700
1407,000000	23,186200
1406,000000	23,568900
1405,000000	23,998400
1404,000000	24,443100
1403,000000	24,915100
1402,000000	25,306900
1401,000000	25,751100
1400,000000	26,228600
1399,000000	26,659300
1398,000000	26,953700
1397,000000	27,204900
1396,000000	27,504200
1395,000000	27,818400
1394,000000	28,087300
1393,000000	28,266000
1392,000000	28,456000
1391,000000	28,711500
1390,000000	28,958000
1389,000000	29,183300
1388,000000	29,544300
1387,000000	29,937200
1386,000000	30,345300
1385,000000	30,788600
1384,000000	31,306400
1383,000000	31,911600
1382,000000	32,460000
1381,000000	32,975100
1380,000000	33,334600
1379,000000	33,556500
1378,000000	33,743000
1377,000000	33,871600
1376,000000	34,029800
1375,000000	34,252500
1374,000000	34,517600
1373,000000	34,891600
1372,000000	35,333500
1371,000000	35,786500
1370,000000	36,292100
1369,000000	36,701100
1368,000000	37,116700
1367,000000	37,528500
1366,000000	37,835000
1365,000000	38,097500
1364,000000	38,367600
1363,000000	38,580800
1362,000000	38,810200
1361,000000	39,015100
1360,000000	39,204200
1359,000000	39,223800
1358,000000	39,361800
1357,000000	39,504500
1356,000000	39,749700
1355,000000	40,171200
1354,000000	40,750200
1353,000000	41,409300
1352,000000	42,064100
1351,000000	42,827300
1350,000000	43,542300
1349,000000	44,182500
1348,000000	44,757500
1347,000000	45,328500
1346,000000	45,839900
1345,000000	46,311900
1344,000000	46,760300
1343,000000	47,217500
1342,000000	47,618000
1341,000000	48,023900
1340,000000	48,412000
1339,000000	48,803700
1338,000000	49,156800
1337,000000	49,501800
1336,000000	49,850300
1335,000000	50,181100
1334,000000	50,473900
1333,000000	50,784000
1332,000000	51,079200
1331,000000	51,369800
1330,000000	51,647500
1329,000000	51,889600
1328,000000	52,134800
1327,000000	52,350400
1326,000000	52,566500
1325,000000	52,759300
1324,000000	52,971900
1323,000000	53,160200
1322,000000	53,333000
1321,000000	53,499300
1320,000000	53,663400
1319,000000	53,797700
1318,000000	53,942400
1317,000000	54,084600
1316,000000	54,223300
1315,000000	54,343300
1314,000000	54,449700
1313,000000	54,568900
1312,000000	54,684000
1311,000000	54,791900
1310,000000	54,862100
1309,000000	54,939700
1308,000000	55,014600
1307,000000	55,078300
1306,000000	55,130300
1305,000000	55,185500
1304,000000	55,219400
1303,000000	55,241900
1302,000000	55,270600
1301,000000	55,287800
1300,000000	55,279100
1299,000000	55,286800
1298,000000	55,268400
1297,000000	55,276000
1296,000000	55,275100
1295,000000	55,262500
1294,000000	55,231300
1293,000000	55,217600
1292,000000	55,194300
1291,000000	55,167600
1290,000000	55,111000
1289,000000	55,057600
1288,000000	55,007400
1287,000000	54,936100
1286,000000	54,851200
1285,000000	54,773700
1284,000000	54,689000
1283,000000	54,588400
1282,000000	54,485400
1281,000000	54,381900
1280,000000	54,282300
1279,000000	54,198700
1278,000000	54,095700
1277,000000	53,998000
1276,000000	53,904300
1275,000000	53,831700
1274,000000	53,756800
1273,000000	53,677700
1272,000000	53,613100
1271,000000	53,547700
1270,000000	53,481000
1269,000000	53,409500
1268,000000	53,351100
1267,000000	53,277200
1266,000000	53,195900
1265,000000	53,118400
1264,000000	53,049800
1263,000000	52,968100
1262,000000	52,896300
1261,000000	52,822700
1260,000000	52,745800
1259,000000	52,661000
1258,000000	52,582500
1257,000000	52,504100
1256,000000	52,415900
1255,000000	52,305800
1254,000000	52,195700
1253,000000	52,109200
1252,000000	51,997600
1251,000000	51,878000
1250,000000	51,743900
1249,000000	51,618500
1248,000000	51,502800
1247,000000	51,357400
1246,000000	51,193200
1245,000000	51,033200
1244,000000	50,851400
1243,000000	50,657500
1242,000000	50,469100
1241,000000	50,275000
1240,000000	50,056900
1239,000000	49,840600
1238,000000	49,629000
1237,000000	49,404500
1236,000000	49,172100
1235,000000	48,928600
1234,000000	48,697400
1233,000000	48,453700
1232,000000	48,200400
1231,000000	47,944600
1230,000000	47,684100
1229,000000	47,415200
1228,000000	47,148300
1227,000000	46,893300
1226,000000	46,636500
1225,000000	46,363200
1224,000000	46,094800
1223,000000	45,831300
1222,000000	45,564100
1221,000000	45,309800
1220,000000	45,065200
1219,000000	44,816400
1218,000000	44,580900
1217,000000	44,361600
1216,000000	44,152300
1215,000000	43,949500
1214,000000	43,751000
1213,000000	43,559200
1212,000000	43,368900
1211,000000	43,195000
1210,000000	43,033100
1209,000000	42,865100
1208,000000	42,711800
1207,000000	42,591800
1206,000000	42,493800
1205,000000	42,392800
1204,000000	42,329900
1203,000000	42,287600
1202,000000	42,244900
1201,000000	42,195300
1200,000000	42,132500
1199,000000	42,053800
1198,000000	41,942600
1197,000000	41,784500
1196,000000	41,580700
1195,000000	41,284000
1194,000000	40,915600
1193,000000	40,472800
1192,000000	39,945000
1191,000000	39,349400
1190,000000	38,739800
1189,000000	38,171900
1188,000000	37,674600
1187,000000	37,310700
1186,000000	37,113000
1185,000000	37,083400
1184,000000	37,220800
1183,000000	37,540100
1182,000000	38,011300
1181,000000	38,606800
1180,000000	39,267500
1179,000000	39,921500
1178,000000	40,533600
1177,000000	41,080900
1176,000000	41,562400
1175,000000	41,995600
1174,000000	42,400100
1173,000000	42,793400
1172,000000	43,186900
1171,000000	43,622700
1170,000000	44,058900
1169,000000	44,520700
1168,000000	44,974100
1167,000000	45,403700
1166,000000	45,844200
1165,000000	46,319600
1164,000000	46,791500
1163,000000	47,277200
1162,000000	47,760900
1161,000000	48,228100
1160,000000	48,685200
1159,000000	49,143200
1158,000000	49,586000
1157,000000	49,982100
1156,000000	50,347600
1155,000000	50,655000
1154,000000	50,890900
1153,000000	51,060400
1152,000000	51,173000
1151,000000	51,214500
1150,000000	51,207100
1149,000000	51,210200
1148,000000	51,205700
1147,000000	51,219400
1146,000000	51,302100
1145,000000	51,473600
1144,000000	51,736600
1143,000000	52,066500
1142,000000	52,439300
1141,000000	52,852700
1140,000000	53,279800
1139,000000	53,713500
1138,000000	54,180200
1137,000000	54,649000
1136,000000	55,118500
1135,000000	55,597800
1134,000000	56,094900
1133,000000	56,553200
1132,000000	56,925600
1131,000000	57,312000
1130,000000	57,659800
1129,000000	57,949200
1128,000000	58,192000
1127,000000	58,398800
1126,000000	58,539700
1125,000000	58,657800
1124,000000	58,734200
1123,000000	58,830900
1122,000000	58,888500
1121,000000	58,925400
1120,000000	58,963300
1119,000000	58,969200
1118,000000	58,971800
1117,000000	58,968600
1116,000000	58,955400
1115,000000	58,913800
1114,000000	58,878400
1113,000000	58,838800
1112,000000	58,804100
1111,000000	58,752400
1110,000000	58,712900
1109,000000	58,662800
1108,000000	58,630600
1107,000000	58,599300
1106,000000	58,553300
1105,000000	58,496000
1104,000000	58,436500
1103,000000	58,400000
1102,000000	58,355300
1101,000000	58,287300
1100,000000	58,244700
1099,000000	58,190900
1098,000000	58,109800
1097,000000	58,033000
1096,000000	57,981200
1095,000000	57,919700
1094,000000	57,833500
1093,000000	57,734200
1092,000000	57,672600
1091,000000	57,587900
1090,000000	57,499100
1089,000000	57,395400
1088,000000	57,313100
1087,000000	57,217700
1086,000000	57,114300
1085,000000	57,011700
1084,000000	56,899500
1083,000000	56,812100
1082,000000	56,710400
1081,000000	56,604400
1080,000000	56,483300
1079,000000	56,423900
1078,000000	56,326400
1077,000000	56,219900
1076,000000	56,126900
1075,000000	56,016500
1074,000000	55,925300
1073,000000	55,825100
1072,000000	55,750800
1071,000000	55,632700
1070,000000	55,519500
1069,000000	55,427000
1068,000000	55,325300
1067,000000	55,226400
1066,000000	55,144000
1065,000000	55,027600
1064,000000	54,918100
1063,000000	54,812000
1062,000000	54,692200
1061,000000	54,602700
1060,000000	54,505900
1059,000000	54,390400
1058,000000	54,246100
1057,000000	54,152000
1056,000000	54,029500
1055,000000	53,918300
1054,000000	53,823700
1053,000000	53,679800
1052,000000	53,574700
1051,000000	53,470600
1050,000000	53,348400
1049,000000	53,275300
1048,000000	53,170600
1047,000000	53,066500
1046,000000	52,964500
1045,000000	52,874900
1044,000000	52,768900
1043,000000	52,668600
1042,000000	52,582400
1041,000000	52,478100
1040,000000	52,400900
1039,000000	52,301900
1038,000000	52,203400
1037,000000	52,116100
1036,000000	52,006600
1035,000000	51,897800
1034,000000	51,780500
1033,000000	51,691000
1032,000000	51,569200
1031,000000	51,445400
1030,000000	51,340500
1029,000000	51,226600
1028,000000	51,081800
1027,000000	50,975100
1026,000000	50,857800
1025,000000	50,714500
1024,000000	50,574700
1023,000000	50,445000
1022,000000	50,312300
1021,000000	50,174900
1020,000000	50,041900
1019,000000	49,915400
1018,000000	49,799700
1017,000000	49,694800
1016,000000	49,566700
1015,000000	49,454000
1014,000000	49,353700
1013,000000	49,269200
1012,000000	49,188000
1011,000000	49,092900
1010,000000	49,026700
1009,000000	48,970700
1008,000000	48,905200
1007,000000	48,849900
1006,000000	48,785000
1005,000000	48,718600
1004,000000	48,679400
1003,000000	48,628900
1002,000000	48,560000
1001,000000	48,501100
1000,000000	48,426200
999,000000	48,364100
998,000000	48,308600
997,000000	48,246700
996,000000	48,172500
995,000000	48,109400
994,000000	48,050800
993,000000	48,011600
992,000000	47,954200
991,000000	47,887200
990,000000	47,823800
989,000000	47,766000
988,000000	47,721700
987,000000	47,658500
986,000000	47,586700
985,000000	47,533700
984,000000	47,492600
983,000000	47,446500
982,000000	47,376900
981,000000	47,333200
980,000000	47,278700
979,000000	47,208200
978,000000	47,137800
977,000000	47,080900
976,000000	47,045800
975,000000	46,978300
974,000000	46,927700
973,000000	46,847500
972,000000	46,786100
971,000000	46,745600
970,000000	46,673800
969,000000	46,597500
968,000000	46,538400
967,000000	46,460800
966,000000	46,380400
965,000000	46,333700
964,000000	46,264600
963,000000	46,205300
962,000000	46,148700
961,000000	46,084200
960,000000	46,043300
959,000000	46,005000
958,000000	45,938400
957,000000	45,875800
956,000000	45,811200
955,000000	45,741400
954,000000	45,674600
953,000000	45,596000
952,000000	45,524700
951,000000	45,452400
950,000000	45,356400
949,000000	45,282500
948,000000	45,216700
947,000000	45,124100
946,000000	45,034800
945,000000	44,963700
944,000000	44,878200
943,000000	44,792100
942,000000	44,714100
941,000000	44,639800
940,000000	44,564500
939,000000	44,474000
938,000000	44,395400
937,000000	44,340900
936,000000	44,259200
935,000000	44,167200
934,000000	44,101600
933,000000	44,024500
932,000000	43,950000
931,000000	43,896700
930,000000	43,826600
929,000000	43,743500
928,000000	43,687400
927,000000	43,618000
926,000000	43,521400
925,000000	43,459600
924,000000	43,406600
923,000000	43,333000
922,000000	43,284500
921,000000	43,214900
920,000000	43,130900
919,000000	43,055400
918,000000	42,985400
917,000000	42,922400
916,000000	42,855200
915,000000	42,776100
914,000000	42,704900
913,000000	42,639300
912,000000	42,564900
911,000000	42,504500
910,000000	42,442900
909,000000	42,380300
908,000000	42,346100
907,000000	42,324700
906,000000	42,291300
905,000000	42,277900
904,000000	42,260700
903,000000	42,256700
902,000000	42,259100
901,000000	42,265800
900,000000	42,293200
899,000000	42,321900
898,000000	42,331500
897,000000	42,342900
896,000000	42,344400
895,000000	42,358800
894,000000	42,391200
893,000000	42,382500
892,000000	42,374700
891,000000	42,377400
890,000000	42,382100
889,000000	42,386200
888,000000	42,378000
887,000000	42,358200
886,000000	42,342500
885,000000	42,314500
884,000000	42,307700
883,000000	42,268900
882,000000	42,247700
881,000000	42,187300
880,000000	42,135400
879,000000	42,081500
878,000000	42,007500
877,000000	41,903100
876,000000	41,764100
875,000000	41,640500
874,000000	41,525600
873,000000	41,459400
872,000000	41,475700
871,000000	41,521400
870,000000	41,595200
869,000000	41,656400
868,000000	41,722700
867,000000	41,788400
866,000000	41,855900
865,000000	41,923100
864,000000	41,989600
863,000000	42,054900
862,000000	42,138500
861,000000	42,211900
860,000000	42,297300
859,000000	42,369500
858,000000	42,453500
857,000000	46,994100
856,000000	47,988700
855,000000	48,477700
854,000000	48,999500
853,000000	48,639700
852,000000	48,562600
851,000000	49,204300
850,000000	49,204200
849,000000	49,285600
848,000000	49,482200
847,000000	49,641400
846,000000	50,087600
845,000000	50,018400
844,000000	49,958000
843,000000	50,101300
842,000000	50,411600
841,000000	50,564600
840,000000	50,409700
839,000000	50,712600
838,000000	50,772900
837,000000	51,043000
836,000000	50,952900
835,000000	50,991400
834,000000	51,083600
833,000000	51,094300
832,000000	51,311600
831,000000	51,412500
830,000000	51,427200
829,000000	51,617000
828,000000	51,520000
827,000000	51,684800
826,000000	51,787900
825,000000	51,753000
824,000000	51,626500
823,000000	51,746300
822,000000	51,883400
821,000000	51,921600
820,000000	51,944900
819,000000	52,042200
818,000000	52,012800
817,000000	51,769900
816,000000	51,980700
815,000000	52,047900
814,000000	51,977700
813,000000	52,164600
812,000000	52,230400
811,000000	52,108700
810,000000	52,140300
809,000000	52,128400
808,000000	52,221800
807,000000	52,194400
806,000000	52,191900
805,000000	52,218000
804,000000	52,068100
803,000000	52,032900
802,000000	51,997300
801,000000	52,185600
800,000000	52,247800
799,000000	52,027900
798,000000	52,113400
797,000000	52,095600
796,000000	51,916900
795,000000	51,869900
794,000000	51,842400
793,000000	51,814200
792,000000	51,825800
791,000000	51,846900
790,000000	51,820600
789,000000	51,782500
788,000000	51,760400
787,000000	51,555600
786,000000	51,677600
785,000000	51,597200
784,000000	51,431300
783,000000	51,509100
782,000000	51,374800
781,000000	51,377900
780,000000	51,365000
779,000000	51,214900
778,000000	51,143600
777,000000	51,188700
776,000000	51,036600
775,000000	50,866600
774,000000	50,898700
773,000000	50,752400
772,000000	50,654800
771,000000	50,569100
770,000000	50,616300
769,000000	50,449600
768,000000	50,354600
767,000000	50,328300
766,000000	50,157000
765,000000	50,093400
764,000000	50,078300
763,000000	49,904600
762,000000	49,841900
761,000000	49,720800
760,000000	49,660100
759,000000	49,487600
758,000000	49,449100
757,000000	49,332500
756,000000	49,184100
755,000000	49,095900
754,000000	48,926300
753,000000	48,828600
752,000000	48,695900
751,000000	48,511300
750,000000	48,517700
749,000000	48,361500
748,000000	48,267600
747,000000	48,109200
746,000000	48,004700
745,000000	47,798200
744,000000	47,644600
743,000000	47,517900
742,000000	47,403000
741,000000	47,265200
740,000000	47,040000
739,000000	46,888300
738,000000	46,663200
737,000000	46,516600
736,000000	46,286800
735,000000	46,250600
734,000000	46,010800
733,000000	45,872900
732,000000	45,660100
731,000000	45,368500
730,000000	45,224700
729,000000	45,026300
728,000000	44,805200
727,000000	44,521200
726,000000	44,374900
725,000000	44,057600
724,000000	43,792900
723,000000	43,505200
722,000000	43,241100
721,000000	42,978200
720,000000	42,679300
719,000000	42,396400
718,000000	42,136600
717,000000	41,856000
716,000000	41,585000
715,000000	41,280500
714,000000	40,967000
713,000000	40,624000
712,000000	40,390700
711,000000	40,056400
710,000000	39,690600
709,000000	39,390300
708,000000	39,046200
707,000000	38,771300
706,000000	38,457800
705,000000	38,160900
704,000000	37,832800
703,000000	37,468500
702,000000	37,136200
701,000000	36,840500
700,000000	36,520800
699,000000	36,188600
698,000000	35,914700
697,000000	35,592400
696,000000	35,328400
695,000000	35,022000
694,000000	34,766800
693,000000	34,444200
692,000000	34,156500
691,000000	33,885100
690,000000	33,596900
689,000000	33,304900
688,000000	33,044800
687,000000	32,763100
686,000000	32,521700
685,000000	32,291300
684,000000	32,054300
683,000000	31,829500
682,000000	31,594900
681,000000	31,378200
680,000000	31,164300
679,000000	30,935800
678,000000	30,739900
677,000000	30,590000
676,000000	30,393200
675,000000	30,174100
674,000000	29,999900
673,000000	29,839100
672,000000	29,658700
671,000000	29,490600
670,000000	29,330800
669,000000	29,182000
668,000000	29,037700
667,000000	28,896600
666,000000	28,771800
665,000000	28,665300
664,000000	28,557100
663,000000	28,430300
662,000000	28,307100
661,000000	28,211600
660,000000	28,120600
659,000000	28,026500
658,000000	27,939300
657,000000	27,871600
656,000000	27,785500
655,000000	27,707200
654,000000	27,644100
653,000000	27,574100
652,000000	27,515100
651,000000	27,455000
650,000000	27,416800
649,000000	27,381800
648,000000	27,311600
647,000000	27,264100
646,000000	27,237200
645,000000	27,203200
644,000000	27,166700
643,000000	27,133900
642,000000	27,096800
641,000000	27,063600
640,000000	27,066800
639,000000	27,067200
638,000000	27,038500
637,000000	27,020000
636,000000	27,032700
635,000000	27,036000
634,000000	27,040200
633,000000	27,044400
632,000000	27,056900
631,000000	27,083500
630,000000	27,120600
629,000000	27,155400
628,000000	27,194800
627,000000	27,256200
626,000000	27,316200
625,000000	27,390100
624,000000	27,461800
623,000000	27,542200
622,000000	27,639100
621,000000	27,714400
620,000000	27,797800
619,000000	27,905300
618,000000	28,008000
617,000000	28,117400
616,000000	28,233300
615,000000	28,357000
614,000000	28,487700
613,000000	28,616900
612,000000	28,746600
611,000000	28,890800
610,000000	29,034400
609,000000	29,164800
608,000000	29,300200
607,000000	29,465700
606,000000	29,598700
605,000000	29,722900
604,000000	29,854800
603,000000	29,989400
602,000000	30,134100
601,000000	30,270600
600,000000	30,375000
599,000000	30,486300
598,000000	30,609100
597,000000	30,727400
596,000000	30,848100
595,000000	30,937600
594,000000	31,030200
593,000000	31,133000
592,000000	31,244100
591,000000	31,288100
590,000000	31,370400
589,000000	31,475800
588,000000	31,544400
587,000000	31,584400
586,000000	31,626600
585,000000	31,690100
584,000000	31,744500
583,000000	31,760400
582,000000	31,769100
581,000000	31,771900
580,000000	31,778300
579,000000	31,788700
578,000000	31,749900
577,000000	31,728700
576,000000	31,673800
575,000000	31,637000
574,000000	31,593000
573,000000	31,521800
572,000000	31,449100
571,000000	31,390100
570,000000	31,309000
569,000000	31,219700
568,000000	31,098200
567,000000	30,991700
566,000000	30,888400
565,000000	30,751600
564,000000	30,595100
563,000000	30,457900
562,000000	30,267900
561,000000	30,099800
560,000000	29,943700
559,000000	29,724900
558,000000	29,495500
557,000000	29,287600
556,000000	29,062500
555,000000	28,843900
554,000000	28,618600
553,000000	28,350300
552,000000	28,089800
551,000000	27,827900
550,000000	27,549400
549,000000	27,249500
548,000000	26,960100
547,000000	26,694200
546,000000	26,367400
545,000000	26,057400
544,000000	25,730900
543,000000	25,384700
542,000000	25,055100
541,000000	24,701200
540,000000	24,344400
539,000000	23,996100
538,000000	23,632600
537,000000	23,271400
536,000000	22,925000
535,000000	22,566400
534,000000	22,180300
533,000000	21,806700
532,000000	21,442100
531,000000	21,080500
530,000000	20,714700
529,000000	20,359300
528,000000	20,008000
527,000000	19,644700
526,000000	19,299000
525,000000	18,951600
524,000000	18,613100
523,000000	18,268100
522,000000	17,937900
521,000000	17,599000
520,000000	17,304800
519,000000	16,998800
518,000000	16,706000
517,000000	16,420500
516,000000	16,142900
515,000000	15,860500
514,000000	15,591000
513,000000	15,346400
512,000000	15,107900
511,000000	14,906800
510,000000	14,666400
509,000000	14,453500
508,000000	14,272900
507,000000	14,074800
506,000000	13,884900
505,000000	13,714800
504,000000	13,569100
503,000000	13,388000
502,000000	13,251500
501,000000	13,117300
500,000000	12,980000
499,000000	12,828400
498,000000	12,709800
497,000000	12,583800
496,000000	12,490500
495,000000	12,373100
494,000000	12,269600
493,000000	12,176700
492,000000	12,061100
491,000000	11,961900
490,000000	11,882300
489,000000	11,791700
488,000000	11,688000
487,000000	11,610800
486,000000	11,518700
485,000000	11,462200
484,000000	11,374900
483,000000	11,289800
482,000000	11,206800
481,000000	11,118400
480,000000	10,999800
479,000000	10,911000
478,000000	10,807400
477,000000	10,728800
476,000000	10,636200
475,000000	10,557600
474,000000	10,448300
473,000000	10,372900
472,000000	10,261700
471,000000	10,190600
470,000000	10,097200
469,000000	9,987700
468,000000	9,905600
467,000000	9,835900
466,000000	9,746600
465,000000	9,659900
464,000000	9,586600
463,000000	9,483900
462,000000	9,408300
461,000000	9,327300
460,000000	9,262200
459,000000	9,172600
458,000000	9,088900
457,000000	9,008200
456,000000	8,930600
455,000000	8,853500
454,000000	8,782600
453,000000	8,692400
452,000000	8,597200
451,000000	8,550900
450,000000	8,458500
449,000000	8,372900
448,000000	8,302900
447,000000	8,215700
446,000000	8,158800
445,000000	8,066400
444,000000	7,980100
443,000000	7,913800
442,000000	7,845900
441,000000	7,755400
440,000000	7,674400
439,000000	7,605800
438,000000	7,521700
437,000000	7,446900
436,000000	7,361600
435,000000	7,309600
434,000000	7,243300
433,000000	7,165800
432,000000	7,079900
431,000000	7,025900
430,000000	6,968500
429,000000	6,897900
428,000000	6,822400
427,000000	6,759700
426,000000	6,718900
425,000000	6,667300
424,000000	6,585300
423,000000	6,531300
422,000000	6,481800
421,000000	6,429800
420,000000	6,365000
419,000000	6,306100
418,000000	6,261300
417,000000	6,197000
416,000000	6,154400
415,000000	6,108300
414,000000	6,033800
413,000000	6,001800
412,000000	5,949100
411,000000	5,912700
410,000000	5,881100
409,000000	5,843700
408,000000	5,797900
407,000000	5,741100
406,000000	5,697000
405,000000	5,680700
404,000000	5,639100
403,000000	5,588700
402,000000	5,573800
401,000000	5,552200
400,000000	5,520000
399,000000	5,470500
398,000000	5,452200
397,000000	5,409400
396,000000	5,392200
395,000000	5,372900
394,000000	5,348700
393,000000	5,315100
392,000000	5,293600
391,000000	5,284500
390,000000	5,257200
389,000000	5,229900
388,000000	5,190900
387,000000	5,179800
386,000000	5,177500
385,000000	5,150500
384,000000	5,129200
383,000000	5,102200
382,000000	5,098100
381,000000	5,084300
380,000000	5,048200
379,000000	5,053600
378,000000	5,071200
377,000000	5,062800
376,000000	5,002900
375,000000	4,707400
374,000000	4,578100
373,000000	4,747500
372,000000	4,417200
371,000000	4,542400
370,000000	4,701600
369,000000	4,685200
368,000000	4,816200
367,000000	4,897900
366,000000	4,796700
365,000000	4,781600
364,000000	4,751000
363,000000	4,901400
362,000000	4,886300
361,000000	4,713100
360,000000	4,943400
359,000000	4,914600
358,000000	4,776500
357,000000	4,735800
356,000000	4,787000
355,000000	4,963500
354,000000	4,973200
353,000000	5,004600
352,000000	5,028300
351,000000	5,080900
350,000000	5,016000
349,000000	4,938900
348,000000	4,884600
347,000000	4,999200
346,000000	4,945700
345,000000	4,950900
344,000000	4,980100
343,000000	4,892100
342,000000	5,073300
341,000000	5,068400
340,000000	4,845700
339,000000	4,793900
338,000000	4,965000
337,000000	4,933000
336,000000	4,962500
335,000000	5,201700
334,000000	5,252100
333,000000	5,329700
332,000000	5,212500
331,000000	5,313900
330,000000	5,357200
329,000000	5,075000
328,000000	5,108000
327,000000	5,247600
326,000000	4,818400
325,000000	4,545600
324,000000	5,070300
323,000000	5,462500
322,000000	5,999700
321,000000	6,225000
320,000000	5,964400
319,000000	5,467900
318,000000	5,504100
317,000000	5,816000
316,000000	5,268100
315,000000	4,872400
314,000000	4,876400
313,000000	4,863200
312,000000	4,910000
311,000000	4,917600
310,000000	4,891800
309,000000	4,887900
308,000000	4,898000
307,000000	4,913300
306,000000	4,909100
305,000000	4,870100
304,000000	4,871700
303,000000	4,893300
302,000000	4,984600
301,000000	4,994000
300,000000	4,935800
299,000000	4,938600
298,000000	4,927300
297,000000	4,936300
296,000000	4,940800
295,000000	4,950900
294,000000	4,954100
293,000000	4,960900
292,000000	4,929000
291,000000	4,941400
290,000000	4,964500
289,000000	4,968400
288,000000	4,941000
287,000000	4,934500
286,000000	4,985800
285,000000	4,978100
284,000000	4,964100
283,000000	4,964800
282,000000	4,998000
281,000000	4,997800
280,000000	4,963900
279,000000	4,993100
278,000000	4,979400
277,000000	4,991400
276,000000	5,004900
275,000000	5,017600
274,000000	5,020900
273,000000	5,041100
272,000000	5,019400
271,000000	5,028000
270,000000	5,052000
269,000000	5,091900
268,000000	5,099900
267,000000	5,106800
266,000000	5,120700
265,000000	5,132300
264,000000	5,176600
263,000000	5,203800
262,000000	5,228300
261,000000	5,252800
260,000000	5,284200
259,000000	5,287500
258,000000	5,305000
257,000000	5,285700
256,000000	5,351800
255,000000	5,339300
254,000000	5,353200
253,000000	5,353800
252,000000	5,362200
251,000000	5,372800
250,000000	5,369500
