PE UV       SUBTECH     SPECTRUM    ASCII       PEDS        4.00        
   -1
CICIMAUCR0245-1.Sample.ASC
24/06/21
14:06:48.00
24/06/21
14:06:48.00
Vinicio Soto Monge
C. resplendens. Ventral. Sex M
250,000000
1
Lambda 1050
1050L1511233
PerkinElmer UV WinLab 6.3.2.0749 / 2.02.05 Lambda 900 UV/VIS/NIR, Aug  7 2015 09:38:08

0
0
3350/servo 860,8/2
0
0
UV/VIS
1
1
1
DoubleDePol,CommonBeamDepol,RBeamAtt,SBeamAtt,60mm sphere, WB InGaAs Detector
0
0
0
0
Program
Program
3350/servo 860,8/2
3350/0,2 860,8/0,2
3350/0,2 860,8/0,2
0
15.00
 
 
 
0
 
860,8
319,2
860,8
Front
100
on
S:100 R:100
0
0
0
0
 
0
 
 
 
0
 
 
0
0
0
0
0
 
 
 
 
0
0


0
0
#HDR
-1
-1
#GR
nm
%R
1.0
0.0
2500,000000
-1,000000
2251
8
53,412200
4,221700
#DATA
2500,000000	5,340200
2499,000000	5,395300
2498,000000	5,203500
2497,000000	5,164000
2496,000000	5,239800
2495,000000	5,212600
2494,000000	5,062900
2493,000000	5,160400
2492,000000	5,128700
2491,000000	5,161000
2490,000000	5,129100
2489,000000	5,081100
2488,000000	5,151600
2487,000000	5,163700
2486,000000	5,052300
2485,000000	5,090600
2484,000000	5,119400
2483,000000	5,035000
2482,000000	5,039300
2481,000000	4,993500
2480,000000	5,017500
2479,000000	5,029700
2478,000000	4,994300
2477,000000	5,046400
2476,000000	4,987200
2475,000000	4,978100
2474,000000	5,025900
2473,000000	5,009100
2472,000000	5,007400
2471,000000	4,970100
2470,000000	4,976700
2469,000000	4,981000
2468,000000	5,024000
2467,000000	4,975900
2466,000000	4,934300
2465,000000	4,968100
2464,000000	5,000600
2463,000000	5,013100
2462,000000	5,004200
2461,000000	4,987300
2460,000000	4,988800
2459,000000	4,990100
2458,000000	5,017000
2457,000000	5,006900
2456,000000	5,020500
2455,000000	5,002500
2454,000000	5,008700
2453,000000	5,019300
2452,000000	5,061600
2451,000000	5,071000
2450,000000	5,103000
2449,000000	5,123100
2448,000000	5,123200
2447,000000	5,131900
2446,000000	5,156100
2445,000000	5,165700
2444,000000	5,168500
2443,000000	5,163100
2442,000000	5,212400
2441,000000	5,213100
2440,000000	5,237000
2439,000000	5,259100
2438,000000	5,282300
2437,000000	5,298000
2436,000000	5,295300
2435,000000	5,314000
2434,000000	5,326500
2433,000000	5,354500
2432,000000	5,366500
2431,000000	5,371800
2430,000000	5,371300
2429,000000	5,403300
2428,000000	5,404800
2427,000000	5,413300
2426,000000	5,443000
2425,000000	5,458600
2424,000000	5,436800
2423,000000	5,449500
2422,000000	5,460600
2421,000000	5,473400
2420,000000	5,482200
2419,000000	5,511900
2418,000000	5,507300
2417,000000	5,510100
2416,000000	5,522100
2415,000000	5,529000
2414,000000	5,551800
2413,000000	5,546900
2412,000000	5,558000
2411,000000	5,568900
2410,000000	5,576800
2409,000000	5,578800
2408,000000	5,609000
2407,000000	5,618100
2406,000000	5,614000
2405,000000	5,621700
2404,000000	5,625100
2403,000000	5,634700
2402,000000	5,640200
2401,000000	5,653600
2400,000000	5,676900
2399,000000	5,671200
2398,000000	5,687900
2397,000000	5,697700
2396,000000	5,708400
2395,000000	5,725500
2394,000000	5,744300
2393,000000	5,746700
2392,000000	5,750100
2391,000000	5,769000
2390,000000	5,777300
2389,000000	5,773000
2388,000000	5,792500
2387,000000	5,795200
2386,000000	5,791200
2385,000000	5,809300
2384,000000	5,802200
2383,000000	5,814800
2382,000000	5,819700
2381,000000	5,815700
2380,000000	5,821400
2379,000000	5,824300
2378,000000	5,819300
2377,000000	5,819100
2376,000000	5,813100
2375,000000	5,817600
2374,000000	5,804000
2373,000000	5,795400
2372,000000	5,797000
2371,000000	5,790300
2370,000000	5,788500
2369,000000	5,783400
2368,000000	5,772700
2367,000000	5,776400
2366,000000	5,772100
2365,000000	5,756000
2364,000000	5,748400
2363,000000	5,725300
2362,000000	5,707900
2361,000000	5,704800
2360,000000	5,697800
2359,000000	5,681100
2358,000000	5,667900
2357,000000	5,654900
2356,000000	5,652300
2355,000000	5,648900
2354,000000	5,629700
2353,000000	5,623600
2352,000000	5,628400
2351,000000	5,632800
2350,000000	5,640700
2349,000000	5,651300
2348,000000	5,659200
2347,000000	5,647800
2346,000000	5,658400
2345,000000	5,677300
2344,000000	5,683700
2343,000000	5,697100
2342,000000	5,696400
2341,000000	5,717100
2340,000000	5,737500
2339,000000	5,731500
2338,000000	5,738000
2337,000000	5,740300
2336,000000	5,744400
2335,000000	5,742200
2334,000000	5,743300
2333,000000	5,752300
2332,000000	5,734300
2331,000000	5,730100
2330,000000	5,719200
2329,000000	5,717800
2328,000000	5,705400
2327,000000	5,679100
2326,000000	5,661900
2325,000000	5,652500
2324,000000	5,635200
2323,000000	5,616000
2322,000000	5,587400
2321,000000	5,571600
2320,000000	5,549200
2319,000000	5,521700
2318,000000	5,509800
2317,000000	5,472400
2316,000000	5,440500
2315,000000	5,434700
2314,000000	5,395100
2313,000000	5,366800
2312,000000	5,350600
2311,000000	5,330300
2310,000000	5,288300
2309,000000	5,278700
2308,000000	5,268100
2307,000000	5,258000
2306,000000	5,244200
2305,000000	5,242600
2304,000000	5,246800
2303,000000	5,256600
2302,000000	5,264400
2301,000000	5,272700
2300,000000	5,294700
2299,000000	5,310600
2298,000000	5,325500
2297,000000	5,350900
2296,000000	5,358900
2295,000000	5,376100
2294,000000	5,414100
2293,000000	5,451300
2292,000000	5,439800
2291,000000	5,445500
2290,000000	5,467100
2289,000000	5,474000
2288,000000	5,472400
2287,000000	5,472900
2286,000000	5,479800
2285,000000	5,467800
2284,000000	5,450900
2283,000000	5,453400
2282,000000	5,453300
2281,000000	5,446100
2280,000000	5,437000
2279,000000	5,423500
2278,000000	5,415600
2277,000000	5,398100
2276,000000	5,379700
2275,000000	5,362200
2274,000000	5,366800
2273,000000	5,364100
2272,000000	5,350300
2271,000000	5,348600
2270,000000	5,357500
2269,000000	5,370200
2268,000000	5,363300
2267,000000	5,377300
2266,000000	5,393400
2265,000000	5,435400
2264,000000	5,457700
2263,000000	5,494500
2262,000000	5,551700
2261,000000	5,594500
2260,000000	5,654400
2259,000000	5,693600
2258,000000	5,782300
2257,000000	5,836500
2256,000000	5,918900
2255,000000	5,960800
2254,000000	6,045800
2253,000000	6,132200
2252,000000	6,203900
2251,000000	6,277600
2250,000000	6,355900
2249,000000	6,423000
2248,000000	6,484600
2247,000000	6,542100
2246,000000	6,584600
2245,000000	6,655200
2244,000000	6,711700
2243,000000	6,774100
2242,000000	6,796000
2241,000000	6,846700
2240,000000	6,915100
2239,000000	6,933800
2238,000000	6,981100
2237,000000	7,006900
2236,000000	7,042700
2235,000000	7,060600
2234,000000	7,091200
2233,000000	7,130300
2232,000000	7,147300
2231,000000	7,164000
2230,000000	7,204600
2229,000000	7,208700
2228,000000	7,203500
2227,000000	7,211800
2226,000000	7,210000
2225,000000	7,209000
2224,000000	7,245700
2223,000000	7,240800
2222,000000	7,213900
2221,000000	7,230800
2220,000000	7,245000
2219,000000	7,230100
2218,000000	7,235000
2217,000000	7,220700
2216,000000	7,226900
2215,000000	7,204200
2214,000000	7,209800
2213,000000	7,190500
2212,000000	7,220100
2211,000000	7,187000
2210,000000	7,167700
2209,000000	7,162800
2208,000000	7,188600
2207,000000	7,164000
2206,000000	7,143100
2205,000000	7,155500
2204,000000	7,144100
2203,000000	7,140800
2202,000000	7,141800
2201,000000	7,148700
2200,000000	7,129500
2199,000000	7,124600
2198,000000	7,139400
2197,000000	7,128500
2196,000000	7,135100
2195,000000	7,144300
2194,000000	7,122100
2193,000000	7,103000
2192,000000	7,118000
2191,000000	7,091800
2190,000000	7,101600
2189,000000	7,091700
2188,000000	7,098300
2187,000000	7,083900
2186,000000	7,076500
2185,000000	7,091300
2184,000000	7,062400
2183,000000	7,070400
2182,000000	7,041300
2181,000000	7,061400
2180,000000	7,050600
2179,000000	7,054300
2178,000000	7,065100
2177,000000	7,035300
2176,000000	7,030700
2175,000000	7,037600
2174,000000	7,036900
2173,000000	7,022000
2172,000000	7,063200
2171,000000	7,054900
2170,000000	7,021700
2169,000000	7,037500
2168,000000	7,046900
2167,000000	7,039200
2166,000000	7,063900
2165,000000	7,054100
2164,000000	7,053400
2163,000000	7,069500
2162,000000	7,061000
2161,000000	7,072600
2160,000000	7,090500
2159,000000	7,082200
2158,000000	7,087600
2157,000000	7,105300
2156,000000	7,116200
2155,000000	7,133600
2154,000000	7,157500
2153,000000	7,161100
2152,000000	7,176300
2151,000000	7,183700
2150,000000	7,194700
2149,000000	7,220400
2148,000000	7,221000
2147,000000	7,228400
2146,000000	7,236100
2145,000000	7,256700
2144,000000	7,273300
2143,000000	7,276400
2142,000000	7,289500
2141,000000	7,299700
2140,000000	7,306900
2139,000000	7,327300
2138,000000	7,325600
2137,000000	7,336200
2136,000000	7,357600
2135,000000	7,355600
2134,000000	7,361800
2133,000000	7,379300
2132,000000	7,385200
2131,000000	7,382900
2130,000000	7,391200
2129,000000	7,385700
2128,000000	7,385200
2127,000000	7,389300
2126,000000	7,371500
2125,000000	7,377200
2124,000000	7,377500
2123,000000	7,383600
2122,000000	7,369800
2121,000000	7,366200
2120,000000	7,373300
2119,000000	7,363100
2118,000000	7,348100
2117,000000	7,339700
2116,000000	7,331500
2115,000000	7,327600
2114,000000	7,322800
2113,000000	7,302800
2112,000000	7,301400
2111,000000	7,300800
2110,000000	7,296100
2109,000000	7,282900
2108,000000	7,257100
2107,000000	7,236900
2106,000000	7,240100
2105,000000	7,235400
2104,000000	7,225300
2103,000000	7,208400
2102,000000	7,202500
2101,000000	7,196500
2100,000000	7,187300
2099,000000	7,185000
2098,000000	7,170700
2097,000000	7,167300
2096,000000	7,169800
2095,000000	7,154300
2094,000000	7,137800
2093,000000	7,133500
2092,000000	7,126200
2091,000000	7,129100
2090,000000	7,130800
2089,000000	7,125100
2088,000000	7,116200
2087,000000	7,118400
2086,000000	7,113500
2085,000000	7,099100
2084,000000	7,098400
2083,000000	7,101800
2082,000000	7,091100
2081,000000	7,075000
2080,000000	7,072300
2079,000000	7,069600
2078,000000	7,054600
2077,000000	7,053100
2076,000000	7,045200
2075,000000	7,028300
2074,000000	7,021900
2073,000000	7,025800
2072,000000	7,014500
2071,000000	6,995400
2070,000000	6,974100
2069,000000	6,947900
2068,000000	6,949500
2067,000000	6,950100
2066,000000	6,938100
2065,000000	6,926400
2064,000000	6,925700
2063,000000	6,912200
2062,000000	6,890900
2061,000000	6,899100
2060,000000	6,888900
2059,000000	6,877900
2058,000000	6,868200
2057,000000	6,853600
2056,000000	6,862900
2055,000000	6,882300
2054,000000	6,885500
2053,000000	6,894000
2052,000000	6,896100
2051,000000	6,908700
2050,000000	6,929600
2049,000000	6,954100
2048,000000	6,987600
2047,000000	7,008800
2046,000000	7,032600
2045,000000	7,062400
2044,000000	7,103800
2043,000000	7,143600
2042,000000	7,170800
2041,000000	7,200600
2040,000000	7,233700
2039,000000	7,276500
2038,000000	7,298700
2037,000000	7,322300
2036,000000	7,348100
2035,000000	7,393500
2034,000000	7,429300
2033,000000	7,450100
2032,000000	7,466600
2031,000000	7,483400
2030,000000	7,507400
2029,000000	7,533100
2028,000000	7,534400
2027,000000	7,552700
2026,000000	7,563100
2025,000000	7,583900
2024,000000	7,597900
2023,000000	7,607700
2022,000000	7,629900
2021,000000	7,651700
2020,000000	7,646600
2019,000000	7,636500
2018,000000	7,640200
2017,000000	7,653700
2016,000000	7,662100
2015,000000	7,661000
2014,000000	7,658900
2013,000000	7,664300
2012,000000	7,681500
2011,000000	7,683600
2010,000000	7,658600
2009,000000	7,644800
2008,000000	7,652300
2007,000000	7,643000
2006,000000	7,628000
2005,000000	7,624100
2004,000000	7,600700
2003,000000	7,590600
2002,000000	7,582100
2001,000000	7,559400
2000,000000	7,538000
1999,000000	7,511700
1998,000000	7,503500
1997,000000	7,490900
1996,000000	7,465300
1995,000000	7,451300
1994,000000	7,417000
1993,000000	7,403500
1992,000000	7,382800
1991,000000	7,352300
1990,000000	7,326500
1989,000000	7,294700
1988,000000	7,264700
1987,000000	7,244800
1986,000000	7,219000
1985,000000	7,200200
1984,000000	7,176000
1983,000000	7,129000
1982,000000	7,126700
1981,000000	7,101400
1980,000000	7,059100
1979,000000	7,023200
1978,000000	7,014900
1977,000000	6,974400
1976,000000	6,950700
1975,000000	6,937500
1974,000000	6,888700
1973,000000	6,863900
1972,000000	6,860600
1971,000000	6,817900
1970,000000	6,810300
1969,000000	6,778500
1968,000000	6,775800
1967,000000	6,719100
1966,000000	6,703200
1965,000000	6,677000
1964,000000	6,655800
1963,000000	6,628700
1962,000000	6,605600
1961,000000	6,591000
1960,000000	6,541800
1959,000000	6,548100
1958,000000	6,524600
1957,000000	6,507300
1956,000000	6,467800
1955,000000	6,464600
1954,000000	6,444300
1953,000000	6,427800
1952,000000	6,414000
1951,000000	6,408500
1950,000000	6,377400
1949,000000	6,366000
1948,000000	6,326500
1947,000000	6,308400
1946,000000	6,307500
1945,000000	6,292600
1944,000000	6,294800
1943,000000	6,274400
1942,000000	6,251900
1941,000000	6,236000
1940,000000	6,242500
1939,000000	6,230000
1938,000000	6,239400
1937,000000	6,230100
1936,000000	6,251100
1935,000000	6,235200
1934,000000	6,238600
1933,000000	6,246300
1932,000000	6,260700
1931,000000	6,291000
1930,000000	6,280100
1929,000000	6,274000
1928,000000	6,308700
1927,000000	6,334400
1926,000000	6,363100
1925,000000	6,385800
1924,000000	6,401200
1923,000000	6,438000
1922,000000	6,481000
1921,000000	6,516900
1920,000000	6,567100
1919,000000	6,633100
1918,000000	6,657500
1917,000000	6,701200
1916,000000	6,758600
1915,000000	6,796500
1914,000000	6,820800
1913,000000	6,906000
1912,000000	6,991300
1911,000000	7,050700
1910,000000	7,136700
1909,000000	7,207800
1908,000000	7,245300
1907,000000	7,308400
1906,000000	7,423200
1905,000000	7,505100
1904,000000	7,606000
1903,000000	7,710800
1902,000000	7,799800
1901,000000	7,877600
1900,000000	7,988300
1899,000000	8,123700
1898,000000	8,274300
1897,000000	8,393200
1896,000000	8,515800
1895,000000	8,603500
1894,000000	8,724600
1893,000000	8,858200
1892,000000	8,975500
1891,000000	9,160800
1890,000000	9,345500
1889,000000	9,508900
1888,000000	9,683100
1887,000000	9,865100
1886,000000	10,067600
1885,000000	10,272000
1884,000000	10,517300
1883,000000	10,817000
1882,000000	11,124500
1881,000000	11,397500
1880,000000	11,703700
1879,000000	11,992000
1878,000000	12,263900
1877,000000	12,582600
1876,000000	12,874600
1875,000000	13,147900
1874,000000	13,416600
1873,000000	13,694200
1872,000000	13,991600
1871,000000	14,257700
1870,000000	14,525500
1869,000000	14,770000
1868,000000	15,029900
1867,000000	15,205000
1866,000000	15,358300
1865,000000	15,480600
1864,000000	15,590600
1863,000000	15,680700
1862,000000	15,745200
1861,000000	15,851400
1860,000000	15,938400
1859,000000	16,017100
1858,000000	16,114000
1857,000000	16,168000
1856,000000	16,197700
1855,000000	16,224700
1854,000000	16,244100
1853,000000	16,281100
1852,000000	16,286200
1851,000000	16,270600
1850,000000	16,254900
1849,000000	16,238300
1848,000000	16,227900
1847,000000	16,236700
1846,000000	16,239700
1845,000000	16,220800
1844,000000	16,168100
1843,000000	16,099300
1842,000000	16,072000
1841,000000	16,091000
1840,000000	16,097900
1839,000000	16,089600
1838,000000	16,062400
1837,000000	16,029500
1836,000000	16,011900
1835,000000	15,995500
1834,000000	15,969400
1833,000000	15,920400
1832,000000	15,847900
1831,000000	15,787900
1830,000000	15,754300
1829,000000	15,722500
1828,000000	15,668800
1827,000000	15,616700
1826,000000	15,573300
1825,000000	15,535300
1824,000000	15,488900
1823,000000	15,445200
1822,000000	15,407700
1821,000000	15,383500
1820,000000	15,388100
1819,000000	15,372900
1818,000000	15,349200
1817,000000	15,323700
1816,000000	15,301600
1815,000000	15,294800
1814,000000	15,307200
1813,000000	15,298900
1812,000000	15,288500
1811,000000	15,267300
1810,000000	15,244900
1809,000000	15,229700
1808,000000	15,202200
1807,000000	15,167100
1806,000000	15,131800
1805,000000	15,108900
1804,000000	15,073000
1803,000000	15,021300
1802,000000	14,990900
1801,000000	14,968500
1800,000000	14,932100
1799,000000	14,894900
1798,000000	14,859800
1797,000000	14,814600
1796,000000	14,776600
1795,000000	14,751700
1794,000000	14,730700
1793,000000	14,688900
1792,000000	14,644600
1791,000000	14,609000
1790,000000	14,563600
1789,000000	14,521900
1788,000000	14,486300
1787,000000	14,438800
1786,000000	14,377600
1785,000000	14,332100
1784,000000	14,296600
1783,000000	14,248500
1782,000000	14,185900
1781,000000	14,132300
1780,000000	14,073200
1779,000000	14,019600
1778,000000	13,973500
1777,000000	13,920300
1776,000000	13,856100
1775,000000	13,785300
1774,000000	13,718900
1773,000000	13,638100
1772,000000	13,550000
1771,000000	13,483800
1770,000000	13,402700
1769,000000	13,319300
1768,000000	13,244700
1767,000000	13,172400
1766,000000	13,102900
1765,000000	13,043200
1764,000000	13,006400
1763,000000	12,981400
1762,000000	12,964400
1761,000000	12,978600
1760,000000	12,992700
1759,000000	13,035100
1758,000000	13,071600
1757,000000	13,119300
1756,000000	13,184400
1755,000000	13,223400
1754,000000	13,249600
1753,000000	13,256100
1752,000000	13,269100
1751,000000	13,294800
1750,000000	13,277000
1749,000000	13,248900
1748,000000	13,231300
1747,000000	13,221000
1746,000000	13,161900
1745,000000	13,096300
1744,000000	13,016300
1743,000000	12,937600
1742,000000	12,831000
1741,000000	12,713100
1740,000000	12,584500
1739,000000	12,448800
1738,000000	12,323700
1737,000000	12,181800
1736,000000	12,074400
1735,000000	11,992400
1734,000000	11,944900
1733,000000	11,895900
1732,000000	11,899200
1731,000000	11,907300
1730,000000	11,921200
1729,000000	11,974600
1728,000000	12,048800
1727,000000	12,121600
1726,000000	12,187800
1725,000000	12,230300
1724,000000	12,289100
1723,000000	12,323500
1722,000000	12,361700
1721,000000	12,363600
1720,000000	12,402600
1719,000000	12,399500
1718,000000	12,439400
1717,000000	12,476300
1716,000000	12,490300
1715,000000	12,531400
1714,000000	12,592700
1713,000000	12,635600
1712,000000	12,665800
1711,000000	12,699000
1710,000000	12,738200
1709,000000	12,751900
1708,000000	12,757200
1707,000000	12,735200
1706,000000	12,718700
1705,000000	12,703900
1704,000000	12,682200
1703,000000	12,640100
1702,000000	12,613500
1701,000000	12,539600
1700,000000	12,448500
1699,000000	12,355600
1698,000000	12,279900
1697,000000	12,191000
1696,000000	12,104100
1695,000000	12,076200
1694,000000	12,066500
1693,000000	12,075300
1692,000000	12,162900
1691,000000	12,228700
1690,000000	12,319500
1689,000000	12,433300
1688,000000	12,511900
1687,000000	12,561800
1686,000000	12,587400
1685,000000	12,622900
1684,000000	12,639900
1683,000000	12,718700
1682,000000	12,827200
1681,000000	13,026600
1680,000000	13,313200
1679,000000	13,600100
1678,000000	13,935600
1677,000000	14,312000
1676,000000	14,660600
1675,000000	14,991500
1674,000000	15,282300
1673,000000	15,532800
1672,000000	15,754100
1671,000000	15,967300
1670,000000	16,130700
1669,000000	16,281500
1668,000000	16,393200
1667,000000	16,529200
1666,000000	16,629500
1665,000000	16,706600
1664,000000	16,783400
1663,000000	16,842800
1662,000000	16,913400
1661,000000	16,961500
1660,000000	17,010000
1659,000000	17,012000
1658,000000	17,063000
1657,000000	17,077700
1656,000000	17,106000
1655,000000	17,124900
1654,000000	17,147800
1653,000000	17,124900
1652,000000	17,122100
1651,000000	17,120500
1650,000000	17,089400
1649,000000	17,073200
1648,000000	17,061500
1647,000000	17,034900
1646,000000	16,999100
1645,000000	16,949400
1644,000000	16,924900
1643,000000	16,869700
1642,000000	16,831500
1641,000000	16,796100
1640,000000	16,750700
1639,000000	16,714500
1638,000000	16,652100
1637,000000	16,615800
1636,000000	16,568000
1635,000000	16,503600
1634,000000	16,441700
1633,000000	16,386500
1632,000000	16,345700
1631,000000	16,298700
1630,000000	16,235600
1629,000000	16,178300
1628,000000	16,104600
1627,000000	16,062000
1626,000000	16,011000
1625,000000	15,939300
1624,000000	15,879100
1623,000000	15,804700
1622,000000	15,743200
1621,000000	15,702400
1620,000000	15,636300
1619,000000	15,574700
1618,000000	15,537400
1617,000000	15,494500
1616,000000	15,429200
1615,000000	15,361600
1614,000000	15,323300
1613,000000	15,268500
1612,000000	15,227400
1611,000000	15,158600
1610,000000	15,125100
1609,000000	15,058000
1608,000000	15,032500
1607,000000	14,975200
1606,000000	14,924700
1605,000000	14,879100
1604,000000	14,837000
1603,000000	14,797000
1602,000000	14,720800
1601,000000	14,666700
1600,000000	14,635500
1599,000000	14,584300
1598,000000	14,527600
1597,000000	14,507700
1596,000000	14,458800
1595,000000	14,387700
1594,000000	14,352700
1593,000000	14,334100
1592,000000	14,279200
1591,000000	14,245300
1590,000000	14,206000
1589,000000	14,174300
1588,000000	14,141700
1587,000000	14,109200
1586,000000	14,078300
1585,000000	14,048300
1584,000000	14,022400
1583,000000	13,992900
1582,000000	13,960800
1581,000000	13,942500
1580,000000	13,923000
1579,000000	13,913100
1578,000000	13,882400
1577,000000	13,883400
1576,000000	13,869900
1575,000000	13,853400
1574,000000	13,848800
1573,000000	13,839300
1572,000000	13,838100
1571,000000	13,842500
1570,000000	13,839300
1569,000000	13,848600
1568,000000	13,849500
1567,000000	13,857600
1566,000000	13,860900
1565,000000	13,865600
1564,000000	13,856800
1563,000000	13,864900
1562,000000	13,875700
1561,000000	13,883300
1560,000000	13,896900
1559,000000	13,902500
1558,000000	13,902700
1557,000000	13,905300
1556,000000	13,889000
1555,000000	13,889200
1554,000000	13,880200
1553,000000	13,879100
1552,000000	13,870900
1551,000000	13,853300
1550,000000	13,845100
1549,000000	13,821900
1548,000000	13,804300
1547,000000	13,805600
1546,000000	13,799700
1545,000000	13,782300
1544,000000	13,767000
1543,000000	13,765800
1542,000000	13,750700
1541,000000	13,733900
1540,000000	13,716000
1539,000000	13,722900
1538,000000	13,728400
1537,000000	13,711900
1536,000000	13,692100
1535,000000	13,692400
1534,000000	13,690500
1533,000000	13,684500
1532,000000	13,654300
1531,000000	13,624200
1530,000000	13,615800
1529,000000	13,603700
1528,000000	13,569700
1527,000000	13,549100
1526,000000	13,533700
1525,000000	13,507700
1524,000000	13,483300
1523,000000	13,444400
1522,000000	13,424600
1521,000000	13,411000
1520,000000	13,388800
1519,000000	13,361100
1518,000000	13,330200
1517,000000	13,301300
1516,000000	13,285700
1515,000000	13,254300
1514,000000	13,214100
1513,000000	13,191900
1512,000000	13,154700
1511,000000	13,118600
1510,000000	13,093300
1509,000000	13,057400
1508,000000	13,018300
1507,000000	12,984000
1506,000000	12,954700
1505,000000	12,919200
1504,000000	12,887400
1503,000000	12,870800
1502,000000	12,833400
1501,000000	12,805300
1500,000000	12,786500
1499,000000	12,749900
1498,000000	12,729200
1497,000000	12,702400
1496,000000	12,666200
1495,000000	12,645700
1494,000000	12,624800
1493,000000	12,607300
1492,000000	12,597100
1491,000000	12,577600
1490,000000	12,556200
1489,000000	12,531700
1488,000000	12,517300
1487,000000	12,505400
1486,000000	12,491100
1485,000000	12,482700
1484,000000	12,466900
1483,000000	12,460200
1482,000000	12,451100
1481,000000	12,438800
1480,000000	12,437000
1479,000000	12,432900
1478,000000	12,428100
1477,000000	12,437100
1476,000000	12,422600
1475,000000	12,419300
1474,000000	12,433800
1473,000000	12,439300
1472,000000	12,438000
1471,000000	12,436600
1470,000000	12,447500
1469,000000	12,463500
1468,000000	12,465100
1467,000000	12,463800
1466,000000	12,471200
1465,000000	12,485200
1464,000000	12,505800
1463,000000	12,517600
1462,000000	12,537500
1461,000000	12,542600
1460,000000	12,573300
1459,000000	12,604700
1458,000000	12,640000
1457,000000	12,666900
1456,000000	12,702400
1455,000000	12,746400
1454,000000	12,785500
1453,000000	12,839200
1452,000000	12,885200
1451,000000	12,939000
1450,000000	13,002800
1449,000000	13,046000
1448,000000	13,076800
1447,000000	13,132200
1446,000000	13,199700
1445,000000	13,295400
1444,000000	13,350800
1443,000000	13,396900
1442,000000	13,460500
1441,000000	13,515600
1440,000000	13,588300
1439,000000	13,656600
1438,000000	13,732200
1437,000000	13,807600
1436,000000	13,879800
1435,000000	13,951100
1434,000000	14,032100
1433,000000	14,123100
1432,000000	14,204600
1431,000000	14,299700
1430,000000	14,387800
1429,000000	14,465900
1428,000000	14,584200
1427,000000	14,676700
1426,000000	14,805000
1425,000000	14,941700
1424,000000	15,081100
1423,000000	15,240000
1422,000000	15,376500
1421,000000	15,518400
1420,000000	15,668800
1419,000000	15,832300
1418,000000	16,036600
1417,000000	16,202600
1416,000000	16,343800
1415,000000	16,530100
1414,000000	16,721400
1413,000000	16,970000
1412,000000	17,160800
1411,000000	17,340900
1410,000000	17,551000
1409,000000	17,836200
1408,000000	18,103600
1407,000000	18,434700
1406,000000	18,711200
1405,000000	19,024200
1404,000000	19,375000
1403,000000	19,703300
1402,000000	20,023600
1401,000000	20,304400
1400,000000	20,697500
1399,000000	21,092600
1398,000000	21,373100
1397,000000	21,555800
1396,000000	21,796400
1395,000000	22,155300
1394,000000	22,476500
1393,000000	22,657700
1392,000000	22,876100
1391,000000	23,155300
1390,000000	23,446100
1389,000000	23,678300
1388,000000	24,001500
1387,000000	24,420600
1386,000000	24,804500
1385,000000	25,200700
1384,000000	25,620700
1383,000000	26,132100
1382,000000	26,674300
1381,000000	27,181700
1380,000000	27,601900
1379,000000	27,886900
1378,000000	28,111900
1377,000000	28,283100
1376,000000	28,471400
1375,000000	28,641300
1374,000000	28,875700
1373,000000	29,120500
1372,000000	29,420300
1371,000000	29,757200
1370,000000	30,135000
1369,000000	30,483100
1368,000000	30,780500
1367,000000	31,083000
1366,000000	31,354100
1365,000000	31,598100
1364,000000	31,806200
1363,000000	32,002200
1362,000000	32,180900
1361,000000	32,359700
1360,000000	32,566600
1359,000000	32,643600
1358,000000	32,725300
1357,000000	32,834200
1356,000000	33,013600
1355,000000	33,234000
1354,000000	33,580100
1353,000000	34,072100
1352,000000	34,495400
1351,000000	35,033100
1350,000000	35,539000
1349,000000	36,036900
1348,000000	36,495500
1347,000000	36,915000
1346,000000	37,325700
1345,000000	37,695700
1344,000000	38,031700
1343,000000	38,398900
1342,000000	38,767100
1341,000000	39,076800
1340,000000	39,421100
1339,000000	39,748100
1338,000000	40,084900
1337,000000	40,390000
1336,000000	40,711300
1335,000000	41,001300
1334,000000	41,305000
1333,000000	41,590700
1332,000000	41,882200
1331,000000	42,151500
1330,000000	42,424900
1329,000000	42,669900
1328,000000	42,920300
1327,000000	43,149700
1326,000000	43,383600
1325,000000	43,601200
1324,000000	43,822400
1323,000000	44,028900
1322,000000	44,207700
1321,000000	44,400900
1320,000000	44,561500
1319,000000	44,724300
1318,000000	44,901200
1317,000000	45,048800
1316,000000	45,221400
1315,000000	45,360500
1314,000000	45,488500
1313,000000	45,625200
1312,000000	45,759900
1311,000000	45,884200
1310,000000	45,986200
1309,000000	46,100300
1308,000000	46,193800
1307,000000	46,287900
1306,000000	46,356900
1305,000000	46,428300
1304,000000	46,497800
1303,000000	46,554600
1302,000000	46,591600
1301,000000	46,643100
1300,000000	46,692700
1299,000000	46,714400
1298,000000	46,739900
1297,000000	46,759800
1296,000000	46,766200
1295,000000	46,789700
1294,000000	46,804300
1293,000000	46,816600
1292,000000	46,828800
1291,000000	46,819100
1290,000000	46,804000
1289,000000	46,793500
1288,000000	46,764200
1287,000000	46,716500
1286,000000	46,682600
1285,000000	46,642600
1284,000000	46,593400
1283,000000	46,538100
1282,000000	46,471400
1281,000000	46,408100
1280,000000	46,344700
1279,000000	46,287500
1278,000000	46,216300
1277,000000	46,148100
1276,000000	46,091100
1275,000000	46,064700
1274,000000	46,009100
1273,000000	45,955200
1272,000000	45,905300
1271,000000	45,855600
1270,000000	45,815500
1269,000000	45,786300
1268,000000	45,734400
1267,000000	45,670600
1266,000000	45,616400
1265,000000	45,560900
1264,000000	45,496300
1263,000000	45,436800
1262,000000	45,387500
1261,000000	45,349100
1260,000000	45,291900
1259,000000	45,230200
1258,000000	45,163200
1257,000000	45,096200
1256,000000	45,045300
1255,000000	44,988700
1254,000000	44,906900
1253,000000	44,815500
1252,000000	44,734400
1251,000000	44,644400
1250,000000	44,571500
1249,000000	44,481400
1248,000000	44,374300
1247,000000	44,272200
1246,000000	44,155500
1245,000000	44,023900
1244,000000	43,898400
1243,000000	43,766800
1242,000000	43,626200
1241,000000	43,485600
1240,000000	43,332900
1239,000000	43,176000
1238,000000	43,026700
1237,000000	42,856000
1236,000000	42,686600
1235,000000	42,518600
1234,000000	42,338400
1233,000000	42,156100
1232,000000	41,963900
1231,000000	41,778500
1230,000000	41,585300
1229,000000	41,385100
1228,000000	41,197900
1227,000000	40,997200
1226,000000	40,785200
1225,000000	40,572200
1224,000000	40,363800
1223,000000	40,162200
1222,000000	39,941600
1221,000000	39,725400
1220,000000	39,521300
1219,000000	39,316500
1218,000000	39,135700
1217,000000	38,952000
1216,000000	38,770300
1215,000000	38,597400
1214,000000	38,425000
1213,000000	38,265000
1212,000000	38,106500
1211,000000	37,955500
1210,000000	37,818600
1209,000000	37,687300
1208,000000	37,564200
1207,000000	37,455600
1206,000000	37,351600
1205,000000	37,272800
1204,000000	37,194100
1203,000000	37,134800
1202,000000	37,114100
1201,000000	37,078700
1200,000000	37,030000
1199,000000	36,970000
1198,000000	36,902500
1197,000000	36,801900
1196,000000	36,656700
1195,000000	36,466200
1194,000000	36,233200
1193,000000	35,942100
1192,000000	35,576400
1191,000000	35,143700
1190,000000	34,708000
1189,000000	34,281900
1188,000000	33,872000
1187,000000	33,569200
1186,000000	33,389000
1185,000000	33,304900
1184,000000	33,345000
1183,000000	33,523000
1182,000000	33,829600
1181,000000	34,268600
1180,000000	34,756700
1179,000000	35,245500
1178,000000	35,771300
1177,000000	36,244000
1176,000000	36,641700
1175,000000	37,003000
1174,000000	37,332700
1173,000000	37,652100
1172,000000	37,984600
1171,000000	38,306000
1170,000000	38,655600
1169,000000	39,006400
1168,000000	39,366300
1167,000000	39,729100
1166,000000	40,101100
1165,000000	40,477500
1164,000000	40,836700
1163,000000	41,241500
1162,000000	41,654200
1161,000000	42,057200
1160,000000	42,446400
1159,000000	42,842600
1158,000000	43,233200
1157,000000	43,600200
1156,000000	43,951600
1155,000000	44,250700
1154,000000	44,517500
1153,000000	44,739400
1152,000000	44,898500
1151,000000	45,027900
1150,000000	45,101900
1149,000000	45,166600
1148,000000	45,227600
1147,000000	45,329400
1146,000000	45,428000
1145,000000	45,581300
1144,000000	45,834900
1143,000000	46,140200
1142,000000	46,484900
1141,000000	46,851300
1140,000000	47,266100
1139,000000	47,678300
1138,000000	48,106700
1137,000000	48,554000
1136,000000	49,004200
1135,000000	49,502700
1134,000000	50,015700
1133,000000	50,505700
1132,000000	50,914800
1131,000000	51,303100
1130,000000	51,640500
1129,000000	51,985600
1128,000000	52,264300
1127,000000	52,496600
1126,000000	52,679900
1125,000000	52,831600
1124,000000	52,931700
1123,000000	53,039300
1122,000000	53,144400
1121,000000	53,233700
1120,000000	53,314900
1119,000000	53,344700
1118,000000	53,377400
1117,000000	53,400600
1116,000000	53,409900
1115,000000	53,412200
1114,000000	53,407100
1113,000000	53,409700
1112,000000	53,397000
1111,000000	53,377400
1110,000000	53,360800
1109,000000	53,339200
1108,000000	53,321300
1107,000000	53,313500
1106,000000	53,284500
1105,000000	53,288100
1104,000000	53,267600
1103,000000	53,253200
1102,000000	53,226700
1101,000000	53,196700
1100,000000	53,170600
1099,000000	53,127300
1098,000000	53,123400
1097,000000	53,077600
1096,000000	53,033600
1095,000000	53,014400
1094,000000	52,946100
1093,000000	52,906400
1092,000000	52,869700
1091,000000	52,797200
1090,000000	52,766500
1089,000000	52,692000
1088,000000	52,639000
1087,000000	52,563100
1086,000000	52,510500
1085,000000	52,474100
1084,000000	52,391100
1083,000000	52,302600
1082,000000	52,224900
1081,000000	52,178500
1080,000000	52,089800
1079,000000	52,030900
1078,000000	51,972500
1077,000000	51,902900
1076,000000	51,857300
1075,000000	51,789300
1074,000000	51,707500
1073,000000	51,638700
1072,000000	51,567800
1071,000000	51,487300
1070,000000	51,421200
1069,000000	51,352200
1068,000000	51,271500
1067,000000	51,218600
1066,000000	51,143500
1065,000000	51,058100
1064,000000	50,982000
1063,000000	50,896000
1062,000000	50,842100
1061,000000	50,775700
1060,000000	50,656500
1059,000000	50,579300
1058,000000	50,497500
1057,000000	50,415800
1056,000000	50,311900
1055,000000	50,234700
1054,000000	50,131600
1053,000000	50,052400
1052,000000	49,965600
1051,000000	49,875600
1050,000000	49,789200
1049,000000	49,727000
1048,000000	49,632100
1047,000000	49,580100
1046,000000	49,501900
1045,000000	49,429300
1044,000000	49,356900
1043,000000	49,287500
1042,000000	49,227200
1041,000000	49,156500
1040,000000	49,064500
1039,000000	49,014600
1038,000000	48,945800
1037,000000	48,870200
1036,000000	48,775900
1035,000000	48,702600
1034,000000	48,615100
1033,000000	48,531600
1032,000000	48,425700
1031,000000	48,338400
1030,000000	48,235200
1029,000000	48,159900
1028,000000	48,086300
1027,000000	47,980200
1026,000000	47,862800
1025,000000	47,759800
1024,000000	47,661800
1023,000000	47,554800
1022,000000	47,456200
1021,000000	47,350000
1020,000000	47,233000
1019,000000	47,139400
1018,000000	47,042000
1017,000000	46,938800
1016,000000	46,867300
1015,000000	46,785700
1014,000000	46,700900
1013,000000	46,626800
1012,000000	46,560900
1011,000000	46,507900
1010,000000	46,455100
1009,000000	46,411400
1008,000000	46,386100
1007,000000	46,361300
1006,000000	46,310700
1005,000000	46,268200
1004,000000	46,236500
1003,000000	46,203300
1002,000000	46,168100
1001,000000	46,115200
1000,000000	46,091200
999,000000	46,074100
998,000000	46,042900
997,000000	46,007600
996,000000	45,966100
995,000000	45,934200
994,000000	45,912800
993,000000	45,882600
992,000000	45,843900
991,000000	45,832600
990,000000	45,799600
989,000000	45,796300
988,000000	45,775200
987,000000	45,752700
986,000000	45,726200
985,000000	45,710000
984,000000	45,693200
983,000000	45,695200
982,000000	45,681400
981,000000	45,655200
980,000000	45,653000
979,000000	45,651200
978,000000	45,632500
977,000000	45,599900
976,000000	45,591200
975,000000	45,589400
974,000000	45,572000
973,000000	45,551900
972,000000	45,534600
971,000000	45,541000
970,000000	45,512800
969,000000	45,493600
968,000000	45,504300
967,000000	45,489600
966,000000	45,460200
965,000000	45,453400
964,000000	45,440300
963,000000	45,438600
962,000000	45,457100
961,000000	45,453800
960,000000	45,449800
959,000000	45,461600
958,000000	45,451500
957,000000	45,452500
956,000000	45,454100
955,000000	45,429900
954,000000	45,431900
953,000000	45,427900
952,000000	45,387700
951,000000	45,374500
950,000000	45,361800
949,000000	45,334400
948,000000	45,337900
947,000000	45,318200
946,000000	45,280900
945,000000	45,262500
944,000000	45,253600
943,000000	45,230800
942,000000	45,182500
941,000000	45,150200
940,000000	45,117800
939,000000	45,061400
938,000000	45,024300
937,000000	45,015100
936,000000	44,980700
935,000000	44,928500
934,000000	44,896600
933,000000	44,876700
932,000000	44,835400
931,000000	44,813400
930,000000	44,790600
929,000000	44,739300
928,000000	44,712600
927,000000	44,659500
926,000000	44,584300
925,000000	44,528500
924,000000	44,471400
923,000000	44,401800
922,000000	44,383200
921,000000	44,346500
920,000000	44,281800
919,000000	44,214100
918,000000	44,163900
917,000000	44,096600
916,000000	44,029300
915,000000	43,961800
914,000000	43,871300
913,000000	43,792700
912,000000	43,701200
911,000000	43,627100
910,000000	43,560300
909,000000	43,511600
908,000000	43,466900
907,000000	43,402000
906,000000	43,354900
905,000000	43,314900
904,000000	43,269400
903,000000	43,227000
902,000000	43,192500
901,000000	43,133100
900,000000	43,099800
899,000000	43,084400
898,000000	43,071400
897,000000	43,052100
896,000000	43,041700
895,000000	42,990500
894,000000	42,912100
893,000000	42,847600
892,000000	42,820600
891,000000	42,739200
890,000000	42,681300
889,000000	42,622800
888,000000	42,572100
887,000000	42,470600
886,000000	42,394300
885,000000	42,311800
884,000000	42,221500
883,000000	42,107600
882,000000	42,019500
881,000000	41,923700
880,000000	41,813100
879,000000	41,679600
878,000000	41,582900
877,000000	41,457700
876,000000	41,287800
875,000000	41,100100
874,000000	40,950500
873,000000	40,770000
872,000000	40,603300
871,000000	40,521400
870,000000	40,517200
869,000000	40,534400
868,000000	40,547200
867,000000	40,566200
866,000000	40,584500
865,000000	40,604700
864,000000	40,612200
863,000000	40,649300
862,000000	40,684800
861,000000	40,688800
860,000000	40,700300
859,000000	40,719900
858,000000	40,753900
857,000000	46,616200
856,000000	47,989300
855,000000	48,190300
854,000000	48,261500
853,000000	48,838500
852,000000	48,062900
851,000000	48,163400
850,000000	48,380300
849,000000	48,376800
848,000000	48,237200
847,000000	48,551500
846,000000	48,574000
845,000000	48,601900
844,000000	48,476800
843,000000	48,464100
842,000000	48,451800
841,000000	48,437900
840,000000	48,416800
839,000000	48,361300
838,000000	48,295700
837,000000	48,364400
836,000000	48,279200
835,000000	48,324200
834,000000	48,324600
833,000000	48,405600
832,000000	48,260500
831,000000	48,238900
830,000000	48,087300
829,000000	48,270600
828,000000	48,180300
827,000000	48,246800
826,000000	48,286800
825,000000	48,153100
824,000000	48,176700
823,000000	48,097300
822,000000	48,163000
821,000000	48,016500
820,000000	48,030100
819,000000	48,217900
818,000000	48,025600
817,000000	47,906800
816,000000	47,876100
815,000000	47,887700
814,000000	47,790200
813,000000	47,654600
812,000000	47,658400
811,000000	47,537200
810,000000	47,624000
809,000000	47,498600
808,000000	47,500000
807,000000	47,436300
806,000000	47,424300
805,000000	47,404000
804,000000	47,319100
803,000000	47,094000
802,000000	47,230500
801,000000	47,118300
800,000000	47,060200
799,000000	47,076100
798,000000	47,020200
797,000000	46,874800
796,000000	46,904800
795,000000	46,666300
794,000000	46,629600
793,000000	46,681800
792,000000	46,621800
791,000000	46,398100
790,000000	46,440400
789,000000	46,335500
788,000000	46,309300
787,000000	46,230300
786,000000	46,154000
785,000000	46,004200
784,000000	46,139700
783,000000	45,940700
782,000000	45,817900
781,000000	45,771500
780,000000	45,630800
779,000000	45,504600
778,000000	45,451900
777,000000	45,433700
776,000000	45,351200
775,000000	45,230300
774,000000	45,001000
773,000000	44,948200
772,000000	44,815800
771,000000	44,862100
770,000000	44,692700
769,000000	44,675700
768,000000	44,524700
767,000000	44,441400
766,000000	44,270800
765,000000	44,151900
764,000000	44,111700
763,000000	44,011800
762,000000	43,824400
761,000000	43,719900
760,000000	43,680500
759,000000	43,613000
758,000000	43,363400
757,000000	43,199400
756,000000	43,094000
755,000000	42,901300
754,000000	42,743200
753,000000	42,709800
752,000000	42,665300
751,000000	42,467500
750,000000	42,312000
749,000000	42,101600
748,000000	42,029500
747,000000	41,912900
746,000000	41,711500
745,000000	41,535700
744,000000	41,290400
743,000000	41,228100
742,000000	41,055100
741,000000	40,863400
740,000000	40,638200
739,000000	40,407200
738,000000	40,234200
737,000000	40,042900
736,000000	39,860600
735,000000	39,692500
734,000000	39,480400
733,000000	39,334200
732,000000	39,105900
731,000000	38,885400
730,000000	38,685700
729,000000	38,521400
728,000000	38,310100
727,000000	38,059800
726,000000	37,853300
725,000000	37,693600
724,000000	37,450700
723,000000	37,203900
722,000000	36,993400
721,000000	36,745700
720,000000	36,508900
719,000000	36,319900
718,000000	36,093900
717,000000	35,882100
716,000000	35,651500
715,000000	35,431200
714,000000	35,248100
713,000000	34,999500
712,000000	34,754100
711,000000	34,530500
710,000000	34,312000
709,000000	34,090200
708,000000	33,864900
707,000000	33,623800
706,000000	33,432000
705,000000	33,243400
704,000000	32,987400
703,000000	32,781100
702,000000	32,596400
701,000000	32,404000
700,000000	32,195600
699,000000	31,984700
698,000000	31,801700
697,000000	31,607500
696,000000	31,390700
695,000000	31,191900
694,000000	31,014400
693,000000	30,810300
692,000000	30,623200
691,000000	30,429800
690,000000	30,268600
689,000000	30,112800
688,000000	29,899300
687,000000	29,750900
686,000000	29,611800
685,000000	29,438300
684,000000	29,269600
683,000000	29,105900
682,000000	28,962700
681,000000	28,800400
680,000000	28,629300
679,000000	28,472200
678,000000	28,322100
677,000000	28,198000
676,000000	28,058200
675,000000	27,906000
674,000000	27,746600
673,000000	27,612400
672,000000	27,477500
671,000000	27,328900
670,000000	27,224200
669,000000	27,096900
668,000000	26,952600
667,000000	26,823800
666,000000	26,725400
665,000000	26,591800
664,000000	26,472200
663,000000	26,380000
662,000000	26,283400
661,000000	26,178700
660,000000	26,083700
659,000000	25,981800
658,000000	25,868300
657,000000	25,784800
656,000000	25,708400
655,000000	25,637900
654,000000	25,567800
653,000000	25,511700
652,000000	25,442100
651,000000	25,362300
650,000000	25,297400
649,000000	25,217700
648,000000	25,202100
647,000000	25,189600
646,000000	25,125000
645,000000	25,058400
644,000000	25,018600
643,000000	24,974900
642,000000	24,928200
641,000000	24,910000
640,000000	24,895100
639,000000	24,880600
638,000000	24,871000
637,000000	24,879000
636,000000	24,894400
635,000000	24,883200
634,000000	24,879300
633,000000	24,883000
632,000000	24,899100
631,000000	24,933500
630,000000	24,957100
629,000000	24,988300
628,000000	25,026500
627,000000	25,058000
626,000000	25,104800
625,000000	25,170500
624,000000	25,254800
623,000000	25,324400
622,000000	25,387600
621,000000	25,466600
620,000000	25,537900
619,000000	25,611300
618,000000	25,705300
617,000000	25,786600
616,000000	25,869000
615,000000	25,988600
614,000000	26,086200
613,000000	26,191800
612,000000	26,291700
611,000000	26,402400
610,000000	26,519600
609,000000	26,651200
608,000000	26,738400
607,000000	26,858300
606,000000	26,957200
605,000000	27,046700
604,000000	27,179700
603,000000	27,284800
602,000000	27,420100
601,000000	27,540300
600,000000	27,649200
599,000000	27,753300
598,000000	27,863000
597,000000	27,966300
596,000000	28,079400
595,000000	28,173500
594,000000	28,257600
593,000000	28,367700
592,000000	28,447500
591,000000	28,515800
590,000000	28,597100
589,000000	28,674200
588,000000	28,725300
587,000000	28,785900
586,000000	28,826000
585,000000	28,863200
584,000000	28,901500
583,000000	28,941000
582,000000	28,975600
581,000000	29,002200
580,000000	28,997200
579,000000	29,015800
578,000000	28,992200
577,000000	28,977500
576,000000	28,972100
575,000000	28,942200
574,000000	28,918200
573,000000	28,874400
572,000000	28,824900
571,000000	28,779400
570,000000	28,728300
569,000000	28,642000
568,000000	28,556200
567,000000	28,489700
566,000000	28,374900
565,000000	28,290800
564,000000	28,171200
563,000000	28,036900
562,000000	27,907000
561,000000	27,779100
560,000000	27,631300
559,000000	27,491100
558,000000	27,355600
557,000000	27,195000
556,000000	27,015800
555,000000	26,846400
554,000000	26,639000
553,000000	26,428300
552,000000	26,205300
551,000000	25,989300
550,000000	25,757400
549,000000	25,531700
548,000000	25,291900
547,000000	25,056900
546,000000	24,808500
545,000000	24,560500
544,000000	24,294900
543,000000	24,014500
542,000000	23,726500
541,000000	23,425200
540,000000	23,165500
539,000000	22,859100
538,000000	22,577000
537,000000	22,296100
536,000000	22,016400
535,000000	21,703900
534,000000	21,428000
533,000000	21,113600
532,000000	20,823500
531,000000	20,534200
530,000000	20,241700
529,000000	19,970000
528,000000	19,692300
527,000000	19,424800
526,000000	19,148600
525,000000	18,887600
524,000000	18,600100
523,000000	18,326000
522,000000	18,076800
521,000000	17,811000
520,000000	17,576500
519,000000	17,339600
518,000000	17,089200
517,000000	16,865900
516,000000	16,619800
515,000000	16,404700
514,000000	16,190200
513,000000	15,982400
512,000000	15,767700
511,000000	15,588300
510,000000	15,404900
509,000000	15,213600
508,000000	15,032500
507,000000	14,884500
506,000000	14,718000
505,000000	14,564600
504,000000	14,433700
503,000000	14,282900
502,000000	14,157800
501,000000	14,008900
500,000000	13,909100
499,000000	13,797000
498,000000	13,683300
497,000000	13,553000
496,000000	13,472500
495,000000	13,377900
494,000000	13,297500
493,000000	13,204300
492,000000	13,120500
491,000000	13,043700
490,000000	12,979900
489,000000	12,912000
488,000000	12,864300
487,000000	12,783200
486,000000	12,713500
485,000000	12,646000
484,000000	12,599700
483,000000	12,514900
482,000000	12,437000
481,000000	12,337200
480,000000	12,239500
479,000000	12,149100
478,000000	12,071200
477,000000	11,986800
476,000000	11,908400
475,000000	11,832300
474,000000	11,751900
473,000000	11,644400
472,000000	11,569400
471,000000	11,470500
470,000000	11,392200
469,000000	11,295900
468,000000	11,230200
467,000000	11,160500
466,000000	11,069600
465,000000	10,991200
464,000000	10,875700
463,000000	10,808900
462,000000	10,720700
461,000000	10,636700
460,000000	10,551200
459,000000	10,478900
458,000000	10,380100
457,000000	10,307900
456,000000	10,200000
455,000000	10,124700
454,000000	10,034700
453,000000	9,942900
452,000000	9,842100
451,000000	9,758900
450,000000	9,658700
449,000000	9,562800
448,000000	9,442500
447,000000	9,358100
446,000000	9,260600
445,000000	9,165000
444,000000	9,084600
443,000000	8,984100
442,000000	8,884200
441,000000	8,785700
440,000000	8,678200
439,000000	8,571200
438,000000	8,482400
437,000000	8,385000
436,000000	8,272600
435,000000	8,174200
434,000000	8,076300
433,000000	7,974800
432,000000	7,885900
431,000000	7,803900
430,000000	7,700900
429,000000	7,618400
428,000000	7,528100
427,000000	7,417100
426,000000	7,333600
425,000000	7,247500
424,000000	7,172700
423,000000	7,093800
422,000000	6,997200
421,000000	6,920400
420,000000	6,831000
419,000000	6,745500
418,000000	6,671000
417,000000	6,590700
416,000000	6,525400
415,000000	6,455200
414,000000	6,384300
413,000000	6,319800
412,000000	6,262300
411,000000	6,183900
410,000000	6,111300
409,000000	6,047600
408,000000	5,988400
407,000000	5,929300
406,000000	5,868000
405,000000	5,823300
404,000000	5,756000
403,000000	5,704000
402,000000	5,654100
401,000000	5,593200
400,000000	5,542000
399,000000	5,510200
398,000000	5,471700
397,000000	5,416900
396,000000	5,357700
395,000000	5,339200
394,000000	5,303100
393,000000	5,237200
392,000000	5,203600
391,000000	5,169200
390,000000	5,142800
389,000000	5,101900
388,000000	5,060900
387,000000	5,011100
386,000000	4,991000
385,000000	4,976400
384,000000	4,965600
383,000000	4,927800
382,000000	4,902500
381,000000	4,883700
380,000000	4,867300
379,000000	4,829900
378,000000	4,799400
377,000000	4,783300
376,000000	4,736500
375,000000	4,560800
374,000000	4,439700
373,000000	4,474300
372,000000	4,548900
371,000000	4,522800
370,000000	4,397900
369,000000	4,389600
368,000000	4,457100
367,000000	4,480800
366,000000	4,550900
365,000000	4,490900
364,000000	4,488200
363,000000	4,526600
362,000000	4,496900
361,000000	4,436400
360,000000	4,481700
359,000000	4,488400
358,000000	4,490500
357,000000	4,483300
356,000000	4,456900
355,000000	4,379900
354,000000	4,410900
353,000000	4,442600
352,000000	4,421100
351,000000	4,345500
350,000000	4,340000
349,000000	4,360700
348,000000	4,372100
347,000000	4,369400
346,000000	4,478500
345,000000	4,489200
344,000000	4,432100
343,000000	4,495100
342,000000	4,553600
341,000000	4,524600
340,000000	4,466400
339,000000	4,550800
338,000000	4,533800
337,000000	4,433600
336,000000	4,470000
335,000000	4,374800
334,000000	4,238200
333,000000	4,432000
332,000000	4,642800
331,000000	4,560900
330,000000	4,346700
329,000000	4,390200
328,000000	4,520500
327,000000	4,435300
326,000000	4,379800
325,000000	4,390200
324,000000	4,461100
323,000000	4,362300
322,000000	4,221700
321,000000	4,435200
320,000000	4,632300
319,000000	4,612900
318,000000	4,402300
317,000000	4,468500
316,000000	4,507900
315,000000	4,398300
314,000000	4,411800
313,000000	4,428100
312,000000	4,416000
311,000000	4,425400
310,000000	4,407500
309,000000	4,383900
308,000000	4,370300
307,000000	4,388200
306,000000	4,430800
305,000000	4,423400
304,000000	4,421900
303,000000	4,430800
302,000000	4,417600
301,000000	4,407400
300,000000	4,415200
299,000000	4,422400
298,000000	4,421000
297,000000	4,431600
296,000000	4,455100
295,000000	4,446100
294,000000	4,434200
293,000000	4,425600
292,000000	4,416300
291,000000	4,428900
290,000000	4,447300
289,000000	4,458600
288,000000	4,444500
287,000000	4,408800
286,000000	4,403500
285,000000	4,418200
284,000000	4,432200
283,000000	4,458700
282,000000	4,434000
281,000000	4,436200
280,000000	4,435200
279,000000	4,441300
278,000000	4,440100
277,000000	4,439600
276,000000	4,472600
275,000000	4,482100
274,000000	4,464500
273,000000	4,472300
272,000000	4,486900
271,000000	4,484100
270,000000	4,514700
269,000000	4,547500
268,000000	4,537700
267,000000	4,601000
266,000000	4,593000
265,000000	4,585300
264,000000	4,594900
263,000000	4,609300
262,000000	4,626800
261,000000	4,676300
260,000000	4,688300
259,000000	4,718900
258,000000	4,702600
257,000000	4,718100
256,000000	4,758500
255,000000	4,716800
254,000000	4,776400
253,000000	4,770500
252,000000	4,759700
251,000000	4,740400
250,000000	4,767600
