PE UV       SUBTECH     SPECTRUM    ASCII       PEDS        4.00        
   -1
CICIMAUCR0210-1.Sample.ASC
24/06/07
13:54:55.00
24/06/07
13:54:55.00
Vinicio Soto Monge
C. resplendens. Sex F. Ventral
250,000000
1
Lambda 1050
1050L1511233
PerkinElmer UV WinLab 6.3.2.0749 / 2.02.05 Lambda 900 UV/VIS/NIR, Aug  7 2015 09:38:08

0
0
3350/servo 860,8/2
0
0
UV/VIS
1
1
1
DoubleDePol,CommonBeamDepol,RBeamAtt,SBeamAtt,60mm sphere, WB InGaAs Detector
0
0
0
0
Program
Program
3350/servo 860,8/2
3350/0,2 860,8/0,2
3350/0,2 860,8/0,2
0
15.00
 
 
 
0
 
860,8
319,2
860,8
Front
100
on
S:100 R:100
0
0
0
0
 
0
 
 
 
0
 
 
0
0
0
0
0
 
 
 
 
0
0


0
0
#HDR
-1
-1
#GR
nm
%R
1.0
0.0
2500,000000
-1,000000
2251
8
55,576300
3,871600
#DATA
2500,000000	4,771600
2499,000000	4,663100
2498,000000	4,603700
2497,000000	4,613600
2496,000000	4,540000
2495,000000	4,552700
2494,000000	4,567200
2493,000000	4,607000
2492,000000	4,526400
2491,000000	4,489300
2490,000000	4,446900
2489,000000	4,456900
2488,000000	4,453200
2487,000000	4,430900
2486,000000	4,541900
2485,000000	4,415900
2484,000000	4,397200
2483,000000	4,463700
2482,000000	4,456700
2481,000000	4,421700
2480,000000	4,378700
2479,000000	4,377900
2478,000000	4,412200
2477,000000	4,363300
2476,000000	4,352000
2475,000000	4,360800
2474,000000	4,364900
2473,000000	4,365600
2472,000000	4,367900
2471,000000	4,402800
2470,000000	4,381100
2469,000000	4,409000
2468,000000	4,356900
2467,000000	4,358400
2466,000000	4,367300
2465,000000	4,385400
2464,000000	4,392200
2463,000000	4,384300
2462,000000	4,406900
2461,000000	4,396300
2460,000000	4,419100
2459,000000	4,427200
2458,000000	4,410900
2457,000000	4,416600
2456,000000	4,411400
2455,000000	4,457700
2454,000000	4,480300
2453,000000	4,498100
2452,000000	4,480000
2451,000000	4,519000
2450,000000	4,548900
2449,000000	4,548200
2448,000000	4,564700
2447,000000	4,589100
2446,000000	4,601200
2445,000000	4,611000
2444,000000	4,613200
2443,000000	4,639700
2442,000000	4,661500
2441,000000	4,682400
2440,000000	4,713700
2439,000000	4,723200
2438,000000	4,738300
2437,000000	4,736100
2436,000000	4,749600
2435,000000	4,791100
2434,000000	4,810300
2433,000000	4,830400
2432,000000	4,863100
2431,000000	4,874600
2430,000000	4,867800
2429,000000	4,879900
2428,000000	4,887600
2427,000000	4,877000
2426,000000	4,899700
2425,000000	4,942500
2424,000000	4,951800
2423,000000	4,957900
2422,000000	4,956800
2421,000000	4,977700
2420,000000	4,987600
2419,000000	4,991800
2418,000000	5,008800
2417,000000	5,027400
2416,000000	5,037400
2415,000000	5,039200
2414,000000	5,057800
2413,000000	5,059300
2412,000000	5,061700
2411,000000	5,057200
2410,000000	5,064700
2409,000000	5,081800
2408,000000	5,095300
2407,000000	5,113800
2406,000000	5,109400
2405,000000	5,112200
2404,000000	5,124300
2403,000000	5,128200
2402,000000	5,141500
2401,000000	5,155700
2400,000000	5,167100
2399,000000	5,195700
2398,000000	5,214000
2397,000000	5,215800
2396,000000	5,219600
2395,000000	5,241700
2394,000000	5,249400
2393,000000	5,254800
2392,000000	5,279500
2391,000000	5,281900
2390,000000	5,288600
2389,000000	5,292100
2388,000000	5,294700
2387,000000	5,307500
2386,000000	5,314100
2385,000000	5,321700
2384,000000	5,315400
2383,000000	5,318000
2382,000000	5,315300
2381,000000	5,329600
2380,000000	5,343000
2379,000000	5,328800
2378,000000	5,322000
2377,000000	5,327300
2376,000000	5,333300
2375,000000	5,332400
2374,000000	5,323000
2373,000000	5,315300
2372,000000	5,317300
2371,000000	5,309900
2370,000000	5,287700
2369,000000	5,269600
2368,000000	5,276300
2367,000000	5,277300
2366,000000	5,265100
2365,000000	5,257300
2364,000000	5,245600
2363,000000	5,226100
2362,000000	5,205300
2361,000000	5,210000
2360,000000	5,208600
2359,000000	5,179700
2358,000000	5,163900
2357,000000	5,159700
2356,000000	5,137200
2355,000000	5,125400
2354,000000	5,134500
2353,000000	5,131700
2352,000000	5,121100
2351,000000	5,123300
2350,000000	5,142200
2349,000000	5,152300
2348,000000	5,143200
2347,000000	5,150300
2346,000000	5,162400
2345,000000	5,182000
2344,000000	5,197900
2343,000000	5,218400
2342,000000	5,227000
2341,000000	5,229000
2340,000000	5,240500
2339,000000	5,243200
2338,000000	5,251400
2337,000000	5,263800
2336,000000	5,289300
2335,000000	5,291500
2334,000000	5,280400
2333,000000	5,278700
2332,000000	5,261400
2331,000000	5,266800
2330,000000	5,266200
2329,000000	5,248700
2328,000000	5,225500
2327,000000	5,211200
2326,000000	5,195600
2325,000000	5,189200
2324,000000	5,168000
2323,000000	5,154300
2322,000000	5,129000
2321,000000	5,094900
2320,000000	5,083300
2319,000000	5,062100
2318,000000	5,040300
2317,000000	5,038200
2316,000000	5,003400
2315,000000	4,960600
2314,000000	4,949500
2313,000000	4,929700
2312,000000	4,917600
2311,000000	4,901100
2310,000000	4,874700
2309,000000	4,851000
2308,000000	4,831300
2307,000000	4,838900
2306,000000	4,820300
2305,000000	4,818100
2304,000000	4,818600
2303,000000	4,825800
2302,000000	4,839700
2301,000000	4,863100
2300,000000	4,894000
2299,000000	4,897600
2298,000000	4,932500
2297,000000	4,955000
2296,000000	4,981300
2295,000000	4,993100
2294,000000	5,021200
2293,000000	5,025800
2292,000000	5,031700
2291,000000	5,045400
2290,000000	5,082400
2289,000000	5,098800
2288,000000	5,090700
2287,000000	5,102500
2286,000000	5,091100
2285,000000	5,100800
2284,000000	5,089400
2283,000000	5,088100
2282,000000	5,079800
2281,000000	5,065300
2280,000000	5,044600
2279,000000	5,038200
2278,000000	5,030300
2277,000000	5,016700
2276,000000	5,008700
2275,000000	5,017700
2274,000000	5,014700
2273,000000	5,005900
2272,000000	5,007600
2271,000000	5,002200
2270,000000	5,019900
2269,000000	5,037000
2268,000000	5,028400
2267,000000	5,056200
2266,000000	5,085400
2265,000000	5,118600
2264,000000	5,140300
2263,000000	5,184900
2262,000000	5,239000
2261,000000	5,288800
2260,000000	5,347300
2259,000000	5,426900
2258,000000	5,487400
2257,000000	5,557500
2256,000000	5,642800
2255,000000	5,706200
2254,000000	5,802200
2253,000000	5,876400
2252,000000	5,966400
2251,000000	6,036400
2250,000000	6,120000
2249,000000	6,177600
2248,000000	6,255200
2247,000000	6,329400
2246,000000	6,380400
2245,000000	6,455500
2244,000000	6,521200
2243,000000	6,580200
2242,000000	6,645700
2241,000000	6,697700
2240,000000	6,725400
2239,000000	6,760800
2238,000000	6,816700
2237,000000	6,838400
2236,000000	6,887500
2235,000000	6,943400
2234,000000	6,972600
2233,000000	6,987300
2232,000000	7,016800
2231,000000	7,052100
2230,000000	7,065800
2229,000000	7,072300
2228,000000	7,082400
2227,000000	7,106900
2226,000000	7,121900
2225,000000	7,109700
2224,000000	7,111700
2223,000000	7,113800
2222,000000	7,113600
2221,000000	7,103900
2220,000000	7,095300
2219,000000	7,083200
2218,000000	7,088000
2217,000000	7,095200
2216,000000	7,077600
2215,000000	7,062900
2214,000000	7,048900
2213,000000	7,068100
2212,000000	7,043400
2211,000000	7,042400
2210,000000	7,010200
2209,000000	6,989400
2208,000000	7,001000
2207,000000	7,002200
2206,000000	6,982800
2205,000000	6,986000
2204,000000	6,989100
2203,000000	6,952900
2202,000000	6,971100
2201,000000	6,948700
2200,000000	6,958700
2199,000000	6,953100
2198,000000	6,944600
2197,000000	6,948100
2196,000000	6,932600
2195,000000	6,942300
2194,000000	6,922500
2193,000000	6,944600
2192,000000	6,927200
2191,000000	6,925100
2190,000000	6,916400
2189,000000	6,909300
2188,000000	6,902800
2187,000000	6,920300
2186,000000	6,914300
2185,000000	6,890700
2184,000000	6,910800
2183,000000	6,890300
2182,000000	6,874500
2181,000000	6,881200
2180,000000	6,885400
2179,000000	6,866600
2178,000000	6,846500
2177,000000	6,842600
2176,000000	6,849300
2175,000000	6,827300
2174,000000	6,845500
2173,000000	6,842800
2172,000000	6,853500
2171,000000	6,845900
2170,000000	6,846800
2169,000000	6,840200
2168,000000	6,849300
2167,000000	6,842700
2166,000000	6,857400
2165,000000	6,861000
2164,000000	6,879800
2163,000000	6,870800
2162,000000	6,887400
2161,000000	6,907700
2160,000000	6,906200
2159,000000	6,921300
2158,000000	6,929900
2157,000000	6,951600
2156,000000	6,951600
2155,000000	6,981000
2154,000000	6,982300
2153,000000	7,005400
2152,000000	7,036800
2151,000000	7,039200
2150,000000	7,052300
2149,000000	7,070100
2148,000000	7,098800
2147,000000	7,128200
2146,000000	7,140600
2145,000000	7,149600
2144,000000	7,166600
2143,000000	7,175300
2142,000000	7,184500
2141,000000	7,205200
2140,000000	7,215000
2139,000000	7,235300
2138,000000	7,239900
2137,000000	7,242200
2136,000000	7,266400
2135,000000	7,277900
2134,000000	7,277100
2133,000000	7,288400
2132,000000	7,298400
2131,000000	7,296200
2130,000000	7,315000
2129,000000	7,334100
2128,000000	7,332400
2127,000000	7,328800
2126,000000	7,333000
2125,000000	7,326500
2124,000000	7,326700
2123,000000	7,326100
2122,000000	7,317400
2121,000000	7,321200
2120,000000	7,322400
2119,000000	7,312400
2118,000000	7,293900
2117,000000	7,290000
2116,000000	7,304700
2115,000000	7,302800
2114,000000	7,274300
2113,000000	7,262000
2112,000000	7,261600
2111,000000	7,257600
2110,000000	7,247300
2109,000000	7,230800
2108,000000	7,221000
2107,000000	7,210800
2106,000000	7,205600
2105,000000	7,204700
2104,000000	7,184400
2103,000000	7,157600
2102,000000	7,148700
2101,000000	7,147700
2100,000000	7,135400
2099,000000	7,132600
2098,000000	7,125300
2097,000000	7,103700
2096,000000	7,091600
2095,000000	7,090700
2094,000000	7,089200
2093,000000	7,068100
2092,000000	7,048800
2091,000000	7,065100
2090,000000	7,065400
2089,000000	7,050100
2088,000000	7,039900
2087,000000	7,023800
2086,000000	7,009700
2085,000000	7,002800
2084,000000	6,996900
2083,000000	6,990700
2082,000000	6,981000
2081,000000	6,968400
2080,000000	6,958800
2079,000000	6,948500
2078,000000	6,937700
2077,000000	6,911700
2076,000000	6,894900
2075,000000	6,889500
2074,000000	6,869500
2073,000000	6,845300
2072,000000	6,826300
2071,000000	6,803700
2070,000000	6,788000
2069,000000	6,772000
2068,000000	6,762500
2067,000000	6,744700
2066,000000	6,703000
2065,000000	6,690100
2064,000000	6,691300
2063,000000	6,670900
2062,000000	6,664100
2061,000000	6,654000
2060,000000	6,638300
2059,000000	6,635300
2058,000000	6,628500
2057,000000	6,630700
2056,000000	6,630400
2055,000000	6,631900
2054,000000	6,644800
2053,000000	6,654300
2052,000000	6,663200
2051,000000	6,675800
2050,000000	6,706000
2049,000000	6,737600
2048,000000	6,769600
2047,000000	6,800200
2046,000000	6,822600
2045,000000	6,855100
2044,000000	6,903700
2043,000000	6,955400
2042,000000	6,970000
2041,000000	7,022800
2040,000000	7,071700
2039,000000	7,098600
2038,000000	7,134500
2037,000000	7,176100
2036,000000	7,214100
2035,000000	7,229700
2034,000000	7,259400
2033,000000	7,298700
2032,000000	7,341900
2031,000000	7,353400
2030,000000	7,374100
2029,000000	7,392100
2028,000000	7,422200
2027,000000	7,441400
2026,000000	7,464800
2025,000000	7,486300
2024,000000	7,497600
2023,000000	7,514400
2022,000000	7,521400
2021,000000	7,511600
2020,000000	7,535900
2019,000000	7,548000
2018,000000	7,555500
2017,000000	7,564400
2016,000000	7,571800
2015,000000	7,560400
2014,000000	7,575000
2013,000000	7,572700
2012,000000	7,568100
2011,000000	7,558300
2010,000000	7,565400
2009,000000	7,561100
2008,000000	7,558700
2007,000000	7,536400
2006,000000	7,517700
2005,000000	7,497800
2004,000000	7,506400
2003,000000	7,484800
2002,000000	7,470300
2001,000000	7,435200
2000,000000	7,430300
1999,000000	7,403100
1998,000000	7,374000
1997,000000	7,376400
1996,000000	7,348500
1995,000000	7,336900
1994,000000	7,291000
1993,000000	7,273500
1992,000000	7,240300
1991,000000	7,214600
1990,000000	7,176300
1989,000000	7,150000
1988,000000	7,127900
1987,000000	7,103300
1986,000000	7,063800
1985,000000	7,015500
1984,000000	7,023900
1983,000000	6,989400
1982,000000	6,961600
1981,000000	6,931900
1980,000000	6,889100
1979,000000	6,858600
1978,000000	6,825500
1977,000000	6,787600
1976,000000	6,771100
1975,000000	6,735300
1974,000000	6,681700
1973,000000	6,665300
1972,000000	6,662400
1971,000000	6,617600
1970,000000	6,593900
1969,000000	6,569900
1968,000000	6,546800
1967,000000	6,526900
1966,000000	6,523200
1965,000000	6,485300
1964,000000	6,436500
1963,000000	6,412800
1962,000000	6,412600
1961,000000	6,395800
1960,000000	6,376900
1959,000000	6,343900
1958,000000	6,316100
1957,000000	6,286700
1956,000000	6,274900
1955,000000	6,273200
1954,000000	6,242700
1953,000000	6,204900
1952,000000	6,177900
1951,000000	6,202500
1950,000000	6,165500
1949,000000	6,133400
1948,000000	6,111100
1947,000000	6,113300
1946,000000	6,081800
1945,000000	6,097700
1944,000000	6,076800
1943,000000	6,063800
1942,000000	6,028700
1941,000000	6,038300
1940,000000	6,042300
1939,000000	6,050200
1938,000000	6,028900
1937,000000	6,023700
1936,000000	6,041800
1935,000000	6,048700
1934,000000	6,054300
1933,000000	6,045800
1932,000000	6,073400
1931,000000	6,078900
1930,000000	6,104800
1929,000000	6,112700
1928,000000	6,143000
1927,000000	6,161800
1926,000000	6,199600
1925,000000	6,211500
1924,000000	6,247400
1923,000000	6,273200
1922,000000	6,316600
1921,000000	6,360600
1920,000000	6,434600
1919,000000	6,457800
1918,000000	6,515700
1917,000000	6,551000
1916,000000	6,601800
1915,000000	6,634300
1914,000000	6,701700
1913,000000	6,799300
1912,000000	6,857700
1911,000000	6,944400
1910,000000	7,007500
1909,000000	7,053800
1908,000000	7,127500
1907,000000	7,206000
1906,000000	7,290700
1905,000000	7,420500
1904,000000	7,525600
1903,000000	7,628900
1902,000000	7,745600
1901,000000	7,850900
1900,000000	7,966400
1899,000000	8,118600
1898,000000	8,260400
1897,000000	8,388600
1896,000000	8,519400
1895,000000	8,642200
1894,000000	8,739300
1893,000000	8,907400
1892,000000	9,077800
1891,000000	9,272500
1890,000000	9,481800
1889,000000	9,667700
1888,000000	9,884500
1887,000000	10,078300
1886,000000	10,286800
1885,000000	10,554100
1884,000000	10,843700
1883,000000	11,187200
1882,000000	11,528900
1881,000000	11,878800
1880,000000	12,200800
1879,000000	12,536300
1878,000000	12,878100
1877,000000	13,219500
1876,000000	13,557600
1875,000000	13,897000
1874,000000	14,234800
1873,000000	14,569200
1872,000000	14,928100
1871,000000	15,242500
1870,000000	15,535200
1869,000000	15,848900
1868,000000	16,111400
1867,000000	16,312500
1866,000000	16,488400
1865,000000	16,630600
1864,000000	16,767000
1863,000000	16,872400
1862,000000	16,969000
1861,000000	17,104600
1860,000000	17,236700
1859,000000	17,350500
1858,000000	17,451600
1857,000000	17,536000
1856,000000	17,594300
1855,000000	17,612600
1854,000000	17,653300
1853,000000	17,680900
1852,000000	17,701300
1851,000000	17,704700
1850,000000	17,691800
1849,000000	17,656000
1848,000000	17,674700
1847,000000	17,705000
1846,000000	17,693800
1845,000000	17,662400
1844,000000	17,610400
1843,000000	17,568100
1842,000000	17,549200
1841,000000	17,553300
1840,000000	17,565800
1839,000000	17,549800
1838,000000	17,533800
1837,000000	17,496100
1836,000000	17,458200
1835,000000	17,441900
1834,000000	17,408800
1833,000000	17,356300
1832,000000	17,283700
1831,000000	17,215800
1830,000000	17,169200
1829,000000	17,126700
1828,000000	17,073400
1827,000000	17,007500
1826,000000	16,948100
1825,000000	16,905100
1824,000000	16,860300
1823,000000	16,796300
1822,000000	16,744200
1821,000000	16,733100
1820,000000	16,730200
1819,000000	16,729900
1818,000000	16,711700
1817,000000	16,678400
1816,000000	16,649800
1815,000000	16,630200
1814,000000	16,627100
1813,000000	16,612600
1812,000000	16,600400
1811,000000	16,575300
1810,000000	16,553500
1809,000000	16,520500
1808,000000	16,482500
1807,000000	16,447800
1806,000000	16,408100
1805,000000	16,368200
1804,000000	16,322100
1803,000000	16,278600
1802,000000	16,232700
1801,000000	16,190300
1800,000000	16,156400
1799,000000	16,122700
1798,000000	16,063800
1797,000000	16,014300
1796,000000	15,986300
1795,000000	15,947100
1794,000000	15,907300
1793,000000	15,871900
1792,000000	15,816700
1791,000000	15,764000
1790,000000	15,733000
1789,000000	15,685300
1788,000000	15,620900
1787,000000	15,580800
1786,000000	15,529900
1785,000000	15,468600
1784,000000	15,416600
1783,000000	15,358000
1782,000000	15,294500
1781,000000	15,225100
1780,000000	15,149700
1779,000000	15,104500
1778,000000	15,046900
1777,000000	14,977300
1776,000000	14,892200
1775,000000	14,809500
1774,000000	14,739200
1773,000000	14,661000
1772,000000	14,565700
1771,000000	14,473000
1770,000000	14,388400
1769,000000	14,285300
1768,000000	14,195300
1767,000000	14,137200
1766,000000	14,074300
1765,000000	13,996900
1764,000000	13,935000
1763,000000	13,904700
1762,000000	13,898100
1761,000000	13,912000
1760,000000	13,933500
1759,000000	13,976700
1758,000000	14,024800
1757,000000	14,093300
1756,000000	14,138800
1755,000000	14,188100
1754,000000	14,219900
1753,000000	14,246800
1752,000000	14,277000
1751,000000	14,273100
1750,000000	14,254400
1749,000000	14,237000
1748,000000	14,198400
1747,000000	14,152600
1746,000000	14,097500
1745,000000	14,027600
1744,000000	13,927700
1743,000000	13,810600
1742,000000	13,692500
1741,000000	13,562100
1740,000000	13,422000
1739,000000	13,247300
1738,000000	13,084200
1737,000000	12,937800
1736,000000	12,814000
1735,000000	12,707800
1734,000000	12,632800
1733,000000	12,589900
1732,000000	12,591700
1731,000000	12,604100
1730,000000	12,662800
1729,000000	12,730300
1728,000000	12,810500
1727,000000	12,892200
1726,000000	12,955500
1725,000000	13,015500
1724,000000	13,079300
1723,000000	13,116900
1722,000000	13,158900
1721,000000	13,177800
1720,000000	13,201400
1719,000000	13,233200
1718,000000	13,267100
1717,000000	13,307900
1716,000000	13,360600
1715,000000	13,400600
1714,000000	13,435700
1713,000000	13,502300
1712,000000	13,559600
1711,000000	13,595200
1710,000000	13,629200
1709,000000	13,646500
1708,000000	13,642400
1707,000000	13,645700
1706,000000	13,609900
1705,000000	13,581100
1704,000000	13,547100
1703,000000	13,490200
1702,000000	13,417300
1701,000000	13,351800
1700,000000	13,250100
1699,000000	13,145900
1698,000000	13,026700
1697,000000	12,909800
1696,000000	12,815700
1695,000000	12,803800
1694,000000	12,774300
1693,000000	12,819700
1692,000000	12,906400
1691,000000	13,008900
1690,000000	13,122300
1689,000000	13,219200
1688,000000	13,318700
1687,000000	13,409400
1686,000000	13,437200
1685,000000	13,472700
1684,000000	13,521100
1683,000000	13,614700
1682,000000	13,802700
1681,000000	14,039700
1680,000000	14,347400
1679,000000	14,729900
1678,000000	15,157800
1677,000000	15,575200
1676,000000	15,983600
1675,000000	16,363100
1674,000000	16,682900
1673,000000	16,992700
1672,000000	17,265300
1671,000000	17,479300
1670,000000	17,666800
1669,000000	17,828500
1668,000000	17,988700
1667,000000	18,137000
1666,000000	18,247100
1665,000000	18,316500
1664,000000	18,382200
1663,000000	18,471100
1662,000000	18,555700
1661,000000	18,602900
1660,000000	18,633900
1659,000000	18,696800
1658,000000	18,717600
1657,000000	18,755200
1656,000000	18,775100
1655,000000	18,786400
1654,000000	18,787900
1653,000000	18,767200
1652,000000	18,757100
1651,000000	18,729000
1650,000000	18,717600
1649,000000	18,687000
1648,000000	18,668700
1647,000000	18,630700
1646,000000	18,586400
1645,000000	18,514000
1644,000000	18,485800
1643,000000	18,454800
1642,000000	18,400100
1641,000000	18,352500
1640,000000	18,317700
1639,000000	18,242500
1638,000000	18,215500
1637,000000	18,138900
1636,000000	18,079000
1635,000000	18,001200
1634,000000	17,950100
1633,000000	17,864900
1632,000000	17,820500
1631,000000	17,725400
1630,000000	17,664600
1629,000000	17,618300
1628,000000	17,538300
1627,000000	17,477200
1626,000000	17,393100
1625,000000	17,310200
1624,000000	17,233800
1623,000000	17,169400
1622,000000	17,090500
1621,000000	17,049000
1620,000000	16,960200
1619,000000	16,892200
1618,000000	16,832000
1617,000000	16,771700
1616,000000	16,712400
1615,000000	16,635000
1614,000000	16,594300
1613,000000	16,548900
1612,000000	16,477600
1611,000000	16,413800
1610,000000	16,345000
1609,000000	16,271500
1608,000000	16,241300
1607,000000	16,171900
1606,000000	16,116900
1605,000000	16,051900
1604,000000	16,003300
1603,000000	15,942400
1602,000000	15,890000
1601,000000	15,821700
1600,000000	15,747600
1599,000000	15,675200
1598,000000	15,637300
1597,000000	15,584200
1596,000000	15,529500
1595,000000	15,464800
1594,000000	15,420200
1593,000000	15,371600
1592,000000	15,335800
1591,000000	15,290900
1590,000000	15,237800
1589,000000	15,178500
1588,000000	15,128100
1587,000000	15,092300
1586,000000	15,060400
1585,000000	15,017200
1584,000000	14,981400
1583,000000	14,945800
1582,000000	14,919500
1581,000000	14,892700
1580,000000	14,864300
1579,000000	14,838900
1578,000000	14,809800
1577,000000	14,778900
1576,000000	14,767100
1575,000000	14,753000
1574,000000	14,738100
1573,000000	14,728500
1572,000000	14,720300
1571,000000	14,703700
1570,000000	14,721600
1569,000000	14,711900
1568,000000	14,720300
1567,000000	14,730500
1566,000000	14,722500
1565,000000	14,730300
1564,000000	14,723500
1563,000000	14,726000
1562,000000	14,736900
1561,000000	14,737400
1560,000000	14,727800
1559,000000	14,726200
1558,000000	14,729700
1557,000000	14,725700
1556,000000	14,707300
1555,000000	14,699500
1554,000000	14,677800
1553,000000	14,672900
1552,000000	14,654600
1551,000000	14,627800
1550,000000	14,607700
1549,000000	14,590600
1548,000000	14,580900
1547,000000	14,564200
1546,000000	14,531100
1545,000000	14,515400
1544,000000	14,497000
1543,000000	14,471700
1542,000000	14,472200
1541,000000	14,472000
1540,000000	14,446900
1539,000000	14,429600
1538,000000	14,418400
1537,000000	14,396000
1536,000000	14,368100
1535,000000	14,356600
1534,000000	14,341400
1533,000000	14,307900
1532,000000	14,278100
1531,000000	14,272500
1530,000000	14,256400
1529,000000	14,212200
1528,000000	14,183000
1527,000000	14,160100
1526,000000	14,133800
1525,000000	14,096200
1524,000000	14,059900
1523,000000	14,027900
1522,000000	13,985300
1521,000000	13,943200
1520,000000	13,912400
1519,000000	13,885400
1518,000000	13,865500
1517,000000	13,816500
1516,000000	13,763400
1515,000000	13,737800
1514,000000	13,704100
1513,000000	13,659900
1512,000000	13,627900
1511,000000	13,585200
1510,000000	13,534200
1509,000000	13,501900
1508,000000	13,473000
1507,000000	13,426300
1506,000000	13,367300
1505,000000	13,321100
1504,000000	13,289000
1503,000000	13,259000
1502,000000	13,224000
1501,000000	13,184900
1500,000000	13,144000
1499,000000	13,100500
1498,000000	13,062400
1497,000000	13,029400
1496,000000	13,004400
1495,000000	12,970800
1494,000000	12,943900
1493,000000	12,920700
1492,000000	12,902600
1491,000000	12,883900
1490,000000	12,858300
1489,000000	12,835900
1488,000000	12,809600
1487,000000	12,803300
1486,000000	12,781800
1485,000000	12,750900
1484,000000	12,738400
1483,000000	12,723300
1482,000000	12,716300
1481,000000	12,711800
1480,000000	12,706200
1479,000000	12,700500
1478,000000	12,695500
1477,000000	12,687200
1476,000000	12,680200
1475,000000	12,667600
1474,000000	12,665100
1473,000000	12,672600
1472,000000	12,678100
1471,000000	12,694700
1470,000000	12,690500
1469,000000	12,698100
1468,000000	12,699600
1467,000000	12,705000
1466,000000	12,715600
1465,000000	12,727400
1464,000000	12,745100
1463,000000	12,751800
1462,000000	12,772300
1461,000000	12,800900
1460,000000	12,825800
1459,000000	12,858600
1458,000000	12,890600
1457,000000	12,927200
1456,000000	12,956800
1455,000000	13,002900
1454,000000	13,048200
1453,000000	13,110400
1452,000000	13,164800
1451,000000	13,211200
1450,000000	13,273400
1449,000000	13,336800
1448,000000	13,373700
1447,000000	13,452400
1446,000000	13,527000
1445,000000	13,583500
1444,000000	13,662000
1443,000000	13,721700
1442,000000	13,783800
1441,000000	13,865600
1440,000000	13,949600
1439,000000	14,030100
1438,000000	14,118200
1437,000000	14,191500
1436,000000	14,284500
1435,000000	14,352000
1434,000000	14,438900
1433,000000	14,536700
1432,000000	14,621000
1431,000000	14,722200
1430,000000	14,827700
1429,000000	14,943100
1428,000000	15,059800
1427,000000	15,195900
1426,000000	15,328700
1425,000000	15,472500
1424,000000	15,614800
1423,000000	15,778200
1422,000000	15,935200
1421,000000	16,085700
1420,000000	16,264500
1419,000000	16,459900
1418,000000	16,694100
1417,000000	16,871300
1416,000000	17,041900
1415,000000	17,234600
1414,000000	17,499800
1413,000000	17,739400
1412,000000	17,985400
1411,000000	18,181700
1410,000000	18,442200
1409,000000	18,740600
1408,000000	19,067000
1407,000000	19,429800
1406,000000	19,725600
1405,000000	20,104200
1404,000000	20,483800
1403,000000	20,860500
1402,000000	21,205100
1401,000000	21,549100
1400,000000	22,002600
1399,000000	22,424900
1398,000000	22,699500
1397,000000	22,957800
1396,000000	23,272200
1395,000000	23,657600
1394,000000	24,017700
1393,000000	24,275900
1392,000000	24,555800
1391,000000	24,898800
1390,000000	25,254900
1389,000000	25,515800
1388,000000	25,953300
1387,000000	26,422300
1386,000000	26,871400
1385,000000	27,373600
1384,000000	27,852100
1383,000000	28,457500
1382,000000	29,026000
1381,000000	29,577500
1380,000000	29,981500
1379,000000	30,296300
1378,000000	30,592300
1377,000000	30,763800
1376,000000	31,003800
1375,000000	31,221700
1374,000000	31,486100
1373,000000	31,750100
1372,000000	32,050900
1371,000000	32,441300
1370,000000	32,834600
1369,000000	33,138000
1368,000000	33,477500
1367,000000	33,814000
1366,000000	34,074100
1365,000000	34,264300
1364,000000	34,530200
1363,000000	34,697000
1362,000000	34,886400
1361,000000	35,082200
1360,000000	35,270400
1359,000000	35,322600
1358,000000	35,449900
1357,000000	35,563300
1356,000000	35,734100
1355,000000	36,008100
1354,000000	36,396400
1353,000000	36,815400
1352,000000	37,291000
1351,000000	37,767600
1350,000000	38,272300
1349,000000	38,745600
1348,000000	39,134700
1347,000000	39,557900
1346,000000	39,958900
1345,000000	40,305200
1344,000000	40,677400
1343,000000	41,043900
1342,000000	41,366800
1341,000000	41,686300
1340,000000	42,021400
1339,000000	42,343300
1338,000000	42,658800
1337,000000	42,955800
1336,000000	43,274500
1335,000000	43,567000
1334,000000	43,850400
1333,000000	44,150200
1332,000000	44,412100
1331,000000	44,681000
1330,000000	44,953600
1329,000000	45,191200
1328,000000	45,447400
1327,000000	45,695200
1326,000000	45,910800
1325,000000	46,120600
1324,000000	46,333800
1323,000000	46,529400
1322,000000	46,724300
1321,000000	46,897300
1320,000000	47,091400
1319,000000	47,245300
1318,000000	47,419400
1317,000000	47,571500
1316,000000	47,719600
1315,000000	47,891700
1314,000000	48,013900
1313,000000	48,143800
1312,000000	48,274500
1311,000000	48,410800
1310,000000	48,511100
1309,000000	48,641400
1308,000000	48,730600
1307,000000	48,823800
1306,000000	48,911700
1305,000000	48,976600
1304,000000	49,036500
1303,000000	49,103400
1302,000000	49,151500
1301,000000	49,218700
1300,000000	49,243900
1299,000000	49,281100
1298,000000	49,311900
1297,000000	49,331600
1296,000000	49,370500
1295,000000	49,398800
1294,000000	49,398300
1293,000000	49,395500
1292,000000	49,417000
1291,000000	49,427600
1290,000000	49,423500
1289,000000	49,397300
1288,000000	49,364500
1287,000000	49,338000
1286,000000	49,299400
1285,000000	49,255800
1284,000000	49,218100
1283,000000	49,177100
1282,000000	49,121400
1281,000000	49,067900
1280,000000	49,019600
1279,000000	48,967700
1278,000000	48,906200
1277,000000	48,854700
1276,000000	48,799400
1275,000000	48,763800
1274,000000	48,713600
1273,000000	48,663700
1272,000000	48,628300
1271,000000	48,596900
1270,000000	48,549300
1269,000000	48,514900
1268,000000	48,474800
1267,000000	48,432300
1266,000000	48,380600
1265,000000	48,333900
1264,000000	48,294000
1263,000000	48,247100
1262,000000	48,201200
1261,000000	48,143000
1260,000000	48,092400
1259,000000	48,045900
1258,000000	47,986800
1257,000000	47,939500
1256,000000	47,873600
1255,000000	47,809800
1254,000000	47,750200
1253,000000	47,680300
1252,000000	47,599000
1251,000000	47,528900
1250,000000	47,452200
1249,000000	47,345300
1248,000000	47,257100
1247,000000	47,158800
1246,000000	47,037600
1245,000000	46,938900
1244,000000	46,826400
1243,000000	46,707900
1242,000000	46,569500
1241,000000	46,422100
1240,000000	46,287900
1239,000000	46,154400
1238,000000	46,008500
1237,000000	45,853200
1236,000000	45,695000
1235,000000	45,534600
1234,000000	45,379800
1233,000000	45,213600
1232,000000	45,042700
1231,000000	44,876800
1230,000000	44,691300
1229,000000	44,508900
1228,000000	44,323700
1227,000000	44,139800
1226,000000	43,956000
1225,000000	43,765500
1224,000000	43,575000
1223,000000	43,373800
1222,000000	43,172900
1221,000000	42,985400
1220,000000	42,790000
1219,000000	42,601200
1218,000000	42,421200
1217,000000	42,242800
1216,000000	42,082900
1215,000000	41,929400
1214,000000	41,766500
1213,000000	41,605900
1212,000000	41,466700
1211,000000	41,339400
1210,000000	41,194900
1209,000000	41,052900
1208,000000	40,938500
1207,000000	40,825700
1206,000000	40,715300
1205,000000	40,634200
1204,000000	40,573400
1203,000000	40,519900
1202,000000	40,475500
1201,000000	40,424300
1200,000000	40,368800
1199,000000	40,303900
1198,000000	40,226400
1197,000000	40,128200
1196,000000	39,983100
1195,000000	39,792300
1194,000000	39,562400
1193,000000	39,261800
1192,000000	38,906700
1191,000000	38,518400
1190,000000	38,083300
1189,000000	37,646900
1188,000000	37,283400
1187,000000	37,002400
1186,000000	36,832200
1185,000000	36,769000
1184,000000	36,848400
1183,000000	37,052100
1182,000000	37,369500
1181,000000	37,799600
1180,000000	38,296100
1179,000000	38,779000
1178,000000	39,247700
1177,000000	39,701300
1176,000000	40,094700
1175,000000	40,428600
1174,000000	40,748800
1173,000000	41,069800
1172,000000	41,385200
1171,000000	41,698100
1170,000000	42,020300
1169,000000	42,350600
1168,000000	42,693100
1167,000000	43,042600
1166,000000	43,371300
1165,000000	43,731800
1164,000000	44,090300
1163,000000	44,464100
1162,000000	44,840800
1161,000000	45,219700
1160,000000	45,592200
1159,000000	45,955500
1158,000000	46,297300
1157,000000	46,620500
1156,000000	46,933000
1155,000000	47,225900
1154,000000	47,481800
1153,000000	47,687200
1152,000000	47,841000
1151,000000	47,950400
1150,000000	48,044600
1149,000000	48,119600
1148,000000	48,194100
1147,000000	48,287400
1146,000000	48,399100
1145,000000	48,575000
1144,000000	48,827300
1143,000000	49,113000
1142,000000	49,448500
1141,000000	49,801400
1140,000000	50,172400
1139,000000	50,559900
1138,000000	50,949800
1137,000000	51,354100
1136,000000	51,775700
1135,000000	52,223800
1134,000000	52,664200
1133,000000	53,098300
1132,000000	53,430800
1131,000000	53,785100
1130,000000	54,104900
1129,000000	54,388500
1128,000000	54,631600
1127,000000	54,816700
1126,000000	54,963700
1125,000000	55,090300
1124,000000	55,198200
1123,000000	55,295100
1122,000000	55,370000
1121,000000	55,420800
1120,000000	55,468000
1119,000000	55,499200
1118,000000	55,534000
1117,000000	55,556300
1116,000000	55,564200
1115,000000	55,576300
1114,000000	55,567800
1113,000000	55,544100
1112,000000	55,519100
1111,000000	55,516200
1110,000000	55,511700
1109,000000	55,475400
1108,000000	55,493700
1107,000000	55,483700
1106,000000	55,444000
1105,000000	55,461200
1104,000000	55,435700
1103,000000	55,410000
1102,000000	55,391700
1101,000000	55,370600
1100,000000	55,348200
1099,000000	55,332400
1098,000000	55,278400
1097,000000	55,266800
1096,000000	55,228200
1095,000000	55,209400
1094,000000	55,176600
1093,000000	55,151500
1092,000000	55,076200
1091,000000	55,052600
1090,000000	55,019800
1089,000000	54,954400
1088,000000	54,898000
1087,000000	54,861300
1086,000000	54,795900
1085,000000	54,732100
1084,000000	54,684300
1083,000000	54,647900
1082,000000	54,574600
1081,000000	54,510800
1080,000000	54,447400
1079,000000	54,395900
1078,000000	54,352300
1077,000000	54,293100
1076,000000	54,220700
1075,000000	54,159700
1074,000000	54,101600
1073,000000	54,054300
1072,000000	53,989400
1071,000000	53,917100
1070,000000	53,851800
1069,000000	53,790600
1068,000000	53,740600
1067,000000	53,682100
1066,000000	53,621500
1065,000000	53,549300
1064,000000	53,484000
1063,000000	53,422600
1062,000000	53,340100
1061,000000	53,276800
1060,000000	53,214500
1059,000000	53,155000
1058,000000	53,081900
1057,000000	52,993900
1056,000000	52,917300
1055,000000	52,856600
1054,000000	52,776200
1053,000000	52,697800
1052,000000	52,619300
1051,000000	52,551900
1050,000000	52,477800
1049,000000	52,413300
1048,000000	52,360300
1047,000000	52,284000
1046,000000	52,236800
1045,000000	52,169300
1044,000000	52,126400
1043,000000	52,052300
1042,000000	51,977300
1041,000000	51,933700
1040,000000	51,875200
1039,000000	51,809800
1038,000000	51,737200
1037,000000	51,664800
1036,000000	51,593300
1035,000000	51,542400
1034,000000	51,450300
1033,000000	51,394200
1032,000000	51,303700
1031,000000	51,244000
1030,000000	51,147400
1029,000000	51,090300
1028,000000	51,012900
1027,000000	50,920500
1026,000000	50,852000
1025,000000	50,756000
1024,000000	50,659000
1023,000000	50,585100
1022,000000	50,493700
1021,000000	50,404400
1020,000000	50,323800
1019,000000	50,244500
1018,000000	50,158900
1017,000000	50,092800
1016,000000	50,025500
1015,000000	49,943600
1014,000000	49,877900
1013,000000	49,815200
1012,000000	49,781700
1011,000000	49,729300
1010,000000	49,686800
1009,000000	49,670000
1008,000000	49,623600
1007,000000	49,594200
1006,000000	49,571400
1005,000000	49,564200
1004,000000	49,549200
1003,000000	49,523100
1002,000000	49,492400
1001,000000	49,473400
1000,000000	49,450300
999,000000	49,445300
998,000000	49,407900
997,000000	49,366500
996,000000	49,360900
995,000000	49,360300
994,000000	49,348600
993,000000	49,324300
992,000000	49,298200
991,000000	49,275600
990,000000	49,266800
989,000000	49,251000
988,000000	49,243900
987,000000	49,233700
986,000000	49,216400
985,000000	49,228800
984,000000	49,241800
983,000000	49,235700
982,000000	49,222300
981,000000	49,232800
980,000000	49,236400
979,000000	49,238000
978,000000	49,235300
977,000000	49,229200
976,000000	49,232500
975,000000	49,238000
974,000000	49,237800
973,000000	49,238200
972,000000	49,253700
971,000000	49,265600
970,000000	49,257700
969,000000	49,248400
968,000000	49,253500
967,000000	49,268800
966,000000	49,274300
965,000000	49,269000
964,000000	49,267500
963,000000	49,292300
962,000000	49,331000
961,000000	49,342900
960,000000	49,345700
959,000000	49,360000
958,000000	49,390600
957,000000	49,419600
956,000000	49,428400
955,000000	49,436100
954,000000	49,434900
953,000000	49,445300
952,000000	49,459900
951,000000	49,473900
950,000000	49,481900
949,000000	49,480300
948,000000	49,488300
947,000000	49,488200
946,000000	49,501500
945,000000	49,504300
944,000000	49,484400
943,000000	49,477700
942,000000	49,487300
941,000000	49,477100
940,000000	49,439100
939,000000	49,425700
938,000000	49,445300
937,000000	49,429300
936,000000	49,384500
935,000000	49,374800
934,000000	49,357200
933,000000	49,357200
932,000000	49,348800
931,000000	49,326300
930,000000	49,300100
929,000000	49,298400
928,000000	49,282200
927,000000	49,247900
926,000000	49,221300
925,000000	49,217300
924,000000	49,199900
923,000000	49,160100
922,000000	49,138500
921,000000	49,117200
920,000000	49,082600
919,000000	49,052700
918,000000	49,021800
917,000000	48,980600
916,000000	48,974600
915,000000	48,931200
914,000000	48,856600
913,000000	48,795900
912,000000	48,756100
911,000000	48,723300
910,000000	48,680800
909,000000	48,644400
908,000000	48,612100
907,000000	48,585100
906,000000	48,559400
905,000000	48,547400
904,000000	48,542900
903,000000	48,551000
902,000000	48,547400
901,000000	48,543200
900,000000	48,527700
899,000000	48,519300
898,000000	48,531200
897,000000	48,556000
896,000000	48,560700
895,000000	48,555800
894,000000	48,525700
893,000000	48,500500
892,000000	48,494000
891,000000	48,452400
890,000000	48,430300
889,000000	48,434100
888,000000	48,401500
887,000000	48,334400
886,000000	48,303400
885,000000	48,237100
884,000000	48,184800
883,000000	48,113500
882,000000	48,059400
881,000000	47,978600
880,000000	47,917000
879,000000	47,832000
878,000000	47,745100
877,000000	47,647200
876,000000	47,500500
875,000000	47,335200
874,000000	47,174400
873,000000	47,034400
872,000000	46,889700
871,000000	46,826700
870,000000	46,828800
869,000000	46,835400
868,000000	46,862100
867,000000	46,882500
866,000000	46,910500
865,000000	46,900500
864,000000	46,905700
863,000000	46,913800
862,000000	46,925400
861,000000	46,925500
860,000000	46,968400
859,000000	46,961500
858,000000	46,958100
857,000000	50,284800
856,000000	51,568000
855,000000	51,195700
854,000000	51,449100
853,000000	51,428200
852,000000	51,281300
851,000000	51,114600
850,000000	51,535800
849,000000	51,208800
848,000000	51,035600
847,000000	51,209600
846,000000	51,176400
845,000000	50,886200
844,000000	50,935200
843,000000	51,054500
842,000000	51,026700
841,000000	51,058100
840,000000	50,964400
839,000000	51,059300
838,000000	50,650300
837,000000	50,919000
836,000000	50,842500
835,000000	50,828200
834,000000	50,586500
833,000000	50,597300
832,000000	50,619200
831,000000	50,460000
830,000000	50,323500
829,000000	50,351100
828,000000	50,320100
827,000000	50,327200
826,000000	50,224300
825,000000	50,199000
824,000000	50,155300
823,000000	49,921900
822,000000	49,837800
821,000000	49,825400
820,000000	49,571800
819,000000	49,691200
818,000000	49,584900
817,000000	49,545600
816,000000	49,412800
815,000000	49,240800
814,000000	49,280900
813,000000	49,088200
812,000000	49,083100
811,000000	49,113800
810,000000	48,947300
809,000000	48,823100
808,000000	48,513600
807,000000	48,589800
806,000000	48,413200
805,000000	48,388100
804,000000	48,269900
803,000000	48,204200
802,000000	48,177700
801,000000	47,957800
800,000000	47,829400
799,000000	47,755600
798,000000	47,558000
797,000000	47,405100
796,000000	47,329200
795,000000	47,296000
794,000000	47,094300
793,000000	46,876200
792,000000	46,747600
791,000000	46,719100
790,000000	46,708600
789,000000	46,554100
788,000000	46,311700
787,000000	46,181700
786,000000	46,092600
785,000000	45,984400
784,000000	45,824000
783,000000	45,625500
782,000000	45,442600
781,000000	45,397400
780,000000	45,255200
779,000000	45,024900
778,000000	44,863800
777,000000	44,593300
776,000000	44,594200
775,000000	44,453500
774,000000	44,241200
773,000000	44,121200
772,000000	44,008100
771,000000	43,849900
770,000000	43,638100
769,000000	43,427600
768,000000	43,359500
767,000000	43,121700
766,000000	43,038300
765,000000	42,844900
764,000000	42,614200
763,000000	42,400300
762,000000	42,232700
761,000000	42,026500
760,000000	41,925000
759,000000	41,690500
758,000000	41,587900
757,000000	41,356900
756,000000	41,168900
755,000000	40,911100
754,000000	40,773100
753,000000	40,582900
752,000000	40,370200
751,000000	40,218900
750,000000	40,022600
749,000000	39,828500
748,000000	39,689300
747,000000	39,485200
746,000000	39,311800
745,000000	39,038400
744,000000	38,840600
743,000000	38,644500
742,000000	38,446000
741,000000	38,178200
740,000000	38,026800
739,000000	37,830500
738,000000	37,658600
737,000000	37,459400
736,000000	37,261500
735,000000	36,992600
734,000000	36,807700
733,000000	36,587400
732,000000	36,443800
731,000000	36,206100
730,000000	35,971000
729,000000	35,756000
728,000000	35,597700
727,000000	35,387600
726,000000	35,180500
725,000000	34,896600
724,000000	34,735800
723,000000	34,507400
722,000000	34,290100
721,000000	34,067500
720,000000	33,830700
719,000000	33,560100
718,000000	33,295200
717,000000	33,135600
716,000000	32,935300
715,000000	32,709100
714,000000	32,506700
713,000000	32,277200
712,000000	32,054200
711,000000	31,849900
710,000000	31,669400
709,000000	31,475900
708,000000	31,185300
707,000000	30,993700
706,000000	30,806000
705,000000	30,608200
704,000000	30,401500
703,000000	30,192100
702,000000	29,992100
701,000000	29,729700
700,000000	29,501400
699,000000	29,324600
698,000000	29,162500
697,000000	28,960600
696,000000	28,740100
695,000000	28,531300
694,000000	28,366500
693,000000	28,145500
692,000000	27,980400
691,000000	27,808500
690,000000	27,658600
689,000000	27,467500
688,000000	27,248700
687,000000	27,086800
686,000000	26,948200
685,000000	26,795800
684,000000	26,623500
683,000000	26,444000
682,000000	26,305000
681,000000	26,142000
680,000000	25,973000
679,000000	25,833500
678,000000	25,716800
677,000000	25,578100
676,000000	25,436700
675,000000	25,315100
674,000000	25,176000
673,000000	25,059800
672,000000	24,918900
671,000000	24,785200
670,000000	24,675900
669,000000	24,562400
668,000000	24,462000
667,000000	24,346200
666,000000	24,234400
665,000000	24,152300
664,000000	24,059900
663,000000	23,965000
662,000000	23,876300
661,000000	23,758000
660,000000	23,664000
659,000000	23,607500
658,000000	23,499000
657,000000	23,387700
656,000000	23,306100
655,000000	23,253600
654,000000	23,159500
653,000000	23,072700
652,000000	23,034600
651,000000	22,975500
650,000000	22,892300
649,000000	22,815900
648,000000	22,762300
647,000000	22,703500
646,000000	22,637900
645,000000	22,563700
644,000000	22,505000
643,000000	22,461400
642,000000	22,408600
641,000000	22,349200
640,000000	22,302100
639,000000	22,261400
638,000000	22,243000
637,000000	22,203000
636,000000	22,160300
635,000000	22,143700
634,000000	22,117100
633,000000	22,091400
632,000000	22,076000
631,000000	22,062700
630,000000	22,036000
629,000000	22,034300
628,000000	22,044300
627,000000	22,045700
626,000000	22,078400
625,000000	22,109000
624,000000	22,122700
623,000000	22,167900
622,000000	22,209800
621,000000	22,240800
620,000000	22,296500
619,000000	22,354000
618,000000	22,397900
617,000000	22,457700
616,000000	22,557000
615,000000	22,634400
614,000000	22,698200
613,000000	22,777800
612,000000	22,870800
611,000000	22,954600
610,000000	23,034600
609,000000	23,125900
608,000000	23,222700
607,000000	23,294400
606,000000	23,378000
605,000000	23,468500
604,000000	23,552300
603,000000	23,636700
602,000000	23,724200
601,000000	23,812000
600,000000	23,885000
599,000000	23,977100
598,000000	24,049300
597,000000	24,118300
596,000000	24,184900
595,000000	24,250200
594,000000	24,313700
593,000000	24,362700
592,000000	24,421000
591,000000	24,474200
590,000000	24,488600
589,000000	24,518600
588,000000	24,558700
587,000000	24,594700
586,000000	24,602000
585,000000	24,611400
584,000000	24,597000
583,000000	24,620500
582,000000	24,618600
581,000000	24,588000
580,000000	24,547600
579,000000	24,523400
578,000000	24,497200
577,000000	24,453300
576,000000	24,395400
575,000000	24,341300
574,000000	24,276500
573,000000	24,211400
572,000000	24,103100
571,000000	24,017200
570,000000	23,929800
569,000000	23,826000
568,000000	23,711900
567,000000	23,584300
566,000000	23,443500
565,000000	23,314500
564,000000	23,173300
563,000000	23,022600
562,000000	22,848900
561,000000	22,682300
560,000000	22,494700
559,000000	22,292400
558,000000	22,099000
557,000000	21,898600
556,000000	21,703200
555,000000	21,479700
554,000000	21,259100
553,000000	21,030700
552,000000	20,790400
551,000000	20,538500
550,000000	20,288000
549,000000	20,023400
548,000000	19,771400
547,000000	19,503000
546,000000	19,239100
545,000000	18,949500
544,000000	18,682600
543,000000	18,391600
542,000000	18,111400
541,000000	17,817000
540,000000	17,529800
539,000000	17,238800
538,000000	16,950300
537,000000	16,663300
536,000000	16,395400
535,000000	16,112100
534,000000	15,822300
533,000000	15,542100
532,000000	15,256200
531,000000	14,979400
530,000000	14,714900
529,000000	14,441800
528,000000	14,176400
527,000000	13,908700
526,000000	13,662500
525,000000	13,399400
524,000000	13,152100
523,000000	12,900100
522,000000	12,661600
521,000000	12,429300
520,000000	12,195800
519,000000	11,976200
518,000000	11,759500
517,000000	11,555300
516,000000	11,347600
515,000000	11,153100
514,000000	10,953600
513,000000	10,772300
512,000000	10,599900
511,000000	10,431700
510,000000	10,266600
509,000000	10,122000
508,000000	9,968600
507,000000	9,819800
506,000000	9,686100
505,000000	9,573000
504,000000	9,433100
503,000000	9,325300
502,000000	9,206800
501,000000	9,106600
500,000000	8,998100
499,000000	8,896600
498,000000	8,789000
497,000000	8,701000
496,000000	8,640400
495,000000	8,538700
494,000000	8,488000
493,000000	8,403900
492,000000	8,332700
491,000000	8,258700
490,000000	8,190100
489,000000	8,142900
488,000000	8,096900
487,000000	8,043900
486,000000	7,978300
485,000000	7,927300
484,000000	7,885300
483,000000	7,828500
482,000000	7,801200
481,000000	7,739200
480,000000	7,680500
479,000000	7,646500
478,000000	7,590600
477,000000	7,533600
476,000000	7,487700
475,000000	7,441900
474,000000	7,378100
473,000000	7,322600
472,000000	7,280700
471,000000	7,239800
470,000000	7,213500
469,000000	7,151200
468,000000	7,100700
467,000000	7,072700
466,000000	7,026600
465,000000	6,995700
464,000000	6,953100
463,000000	6,933200
462,000000	6,885400
461,000000	6,844200
460,000000	6,834100
459,000000	6,786600
458,000000	6,763300
457,000000	6,723700
456,000000	6,697100
455,000000	6,647600
454,000000	6,621000
453,000000	6,606700
452,000000	6,574300
451,000000	6,530900
450,000000	6,495000
449,000000	6,471400
448,000000	6,447400
447,000000	6,423500
446,000000	6,379900
445,000000	6,347300
444,000000	6,317900
443,000000	6,291200
442,000000	6,255400
441,000000	6,221000
440,000000	6,178100
439,000000	6,144900
438,000000	6,110500
437,000000	6,080500
436,000000	6,061800
435,000000	6,016200
434,000000	5,980600
433,000000	5,955800
432,000000	5,920200
431,000000	5,890500
430,000000	5,858300
429,000000	5,825300
428,000000	5,790000
427,000000	5,765400
426,000000	5,756900
425,000000	5,718500
424,000000	5,687600
423,000000	5,645200
422,000000	5,619200
421,000000	5,594800
420,000000	5,573100
419,000000	5,536500
418,000000	5,520100
417,000000	5,480800
416,000000	5,464100
415,000000	5,424100
414,000000	5,404100
413,000000	5,365600
412,000000	5,324800
411,000000	5,301000
410,000000	5,281900
409,000000	5,255600
408,000000	5,235200
407,000000	5,190100
406,000000	5,164200
405,000000	5,138800
404,000000	5,105100
403,000000	5,081100
402,000000	5,045700
401,000000	5,020700
400,000000	4,986300
399,000000	4,947100
398,000000	4,922900
397,000000	4,901600
396,000000	4,861400
395,000000	4,824600
394,000000	4,794400
393,000000	4,767700
392,000000	4,752000
391,000000	4,718100
390,000000	4,685800
389,000000	4,680900
388,000000	4,636000
387,000000	4,597500
386,000000	4,581200
385,000000	4,566100
384,000000	4,532600
383,000000	4,487300
382,000000	4,447200
381,000000	4,431200
380,000000	4,418100
379,000000	4,389400
378,000000	4,366900
377,000000	4,352600
376,000000	4,287100
375,000000	4,186900
374,000000	4,239900
373,000000	4,236100
372,000000	4,189100
371,000000	4,171700
370,000000	4,147500
369,000000	4,093200
368,000000	4,132800
367,000000	4,168600
366,000000	4,082000
365,000000	4,035800
364,000000	4,094500
363,000000	4,133500
362,000000	4,104200
361,000000	4,081500
360,000000	4,052300
359,000000	3,998100
358,000000	4,018600
357,000000	4,013900
356,000000	4,051800
355,000000	4,103200
354,000000	4,061900
353,000000	4,020300
352,000000	4,038600
351,000000	4,006700
350,000000	3,973400
349,000000	4,072100
348,000000	4,048600
347,000000	3,984300
346,000000	3,972700
345,000000	3,983600
344,000000	3,989800
343,000000	4,016100
342,000000	4,010600
341,000000	3,968500
340,000000	3,963200
339,000000	4,005200
338,000000	4,067400
337,000000	4,066700
336,000000	4,013100
335,000000	3,995300
334,000000	3,944300
333,000000	3,968500
332,000000	4,015600
331,000000	4,013700
330,000000	4,042800
329,000000	4,042400
328,000000	4,058800
327,000000	4,102800
326,000000	4,085800
325,000000	4,073300
324,000000	3,984600
323,000000	3,953400
322,000000	3,931800
321,000000	3,928200
320,000000	3,962600
319,000000	4,004800
318,000000	3,887700
317,000000	3,871600
316,000000	3,998600
315,000000	4,026800
314,000000	4,026500
313,000000	4,020500
312,000000	4,029700
311,000000	4,050200
310,000000	4,049900
309,000000	4,039100
308,000000	4,036700
307,000000	4,019900
306,000000	4,026500
305,000000	4,042800
304,000000	4,058200
303,000000	4,071600
302,000000	4,064300
301,000000	4,071200
300,000000	4,066100
299,000000	4,067600
298,000000	4,081300
297,000000	4,059900
296,000000	4,077000
295,000000	4,109400
294,000000	4,094200
293,000000	4,098600
292,000000	4,110200
291,000000	4,107400
290,000000	4,121100
289,000000	4,121300
288,000000	4,109200
287,000000	4,125800
286,000000	4,130200
285,000000	4,145500
284,000000	4,146100
283,000000	4,168500
282,000000	4,182100
281,000000	4,159600
280,000000	4,163400
279,000000	4,174800
278,000000	4,185300
277,000000	4,192400
276,000000	4,206300
275,000000	4,196600
274,000000	4,202500
273,000000	4,228400
272,000000	4,242500
271,000000	4,239200
270,000000	4,249100
269,000000	4,275500
268,000000	4,298000
267,000000	4,312500
266,000000	4,302700
265,000000	4,344400
264,000000	4,319700
263,000000	4,346300
262,000000	4,356600
261,000000	4,401200
260,000000	4,403100
259,000000	4,410100
258,000000	4,429100
257,000000	4,407600
256,000000	4,409800
255,000000	4,455100
254,000000	4,450600
253,000000	4,475700
252,000000	4,488300
251,000000	4,483200
250,000000	4,498500
