PE UV       SUBTECH     SPECTRUM    ASCII       PEDS        4.00        
   -1
CICIMAUCR0252-2.ASC
24/06/27
15:00:36.00
24/06/27
15:00:36.00
Vinicio Soto Monge
C. resplendens. Sex F. Ventral
250,000000
1
Lambda 1050
1050L1511233
PerkinElmer UV WinLab 6.3.2.0749 / 2.02.05 Lambda 900 UV/VIS/NIR, Aug  7 2015 09:38:08

0
0
3350/servo 860,8/2
0
0
UV/VIS
1
1
1
DoubleDePol,CommonBeamDepol,RBeamAtt,SBeamAtt,60mm sphere, WB InGaAs Detector
0
0
0
0
Program
Program
3350/servo 860,8/2
3350/0,2 860,8/0,2
3350/0,2 860,8/0,2
0
15.00
 
 
 
0
 
860,8
319,2
860,8
Front
100
on
S:100 R:100
0
0
0
0
 
0
 
 
 
0
 
 
0
0
0
0
0
 
 
 
 
0
0


0
0
#HDR
-1
-1
#GR
nm
%R
1.0
0.0
2500,000000
-1,000000
2251
8
57,870800
4,373000
#DATA
2500,000000	4,632100
2499,000000	4,588000
2498,000000	4,750500
2497,000000	4,625300
2496,000000	4,652100
2495,000000	4,635500
2494,000000	4,643500
2493,000000	4,616700
2492,000000	4,558100
2491,000000	4,481800
2490,000000	4,528800
2489,000000	4,500500
2488,000000	4,549000
2487,000000	4,538500
2486,000000	4,501600
2485,000000	4,520200
2484,000000	4,532000
2483,000000	4,467800
2482,000000	4,451900
2481,000000	4,428200
2480,000000	4,476200
2479,000000	4,465700
2478,000000	4,429700
2477,000000	4,436800
2476,000000	4,477900
2475,000000	4,447600
2474,000000	4,427400
2473,000000	4,444300
2472,000000	4,386200
2471,000000	4,373000
2470,000000	4,395700
2469,000000	4,422600
2468,000000	4,417200
2467,000000	4,428900
2466,000000	4,392300
2465,000000	4,423300
2464,000000	4,439100
2463,000000	4,429400
2462,000000	4,414800
2461,000000	4,394800
2460,000000	4,388200
2459,000000	4,415200
2458,000000	4,405200
2457,000000	4,404800
2456,000000	4,402700
2455,000000	4,419500
2454,000000	4,382900
2453,000000	4,416600
2452,000000	4,451200
2451,000000	4,405400
2450,000000	4,417300
2449,000000	4,436900
2448,000000	4,444700
2447,000000	4,480900
2446,000000	4,454600
2445,000000	4,458300
2444,000000	4,474200
2443,000000	4,505800
2442,000000	4,512700
2441,000000	4,512900
2440,000000	4,522000
2439,000000	4,519200
2438,000000	4,519400
2437,000000	4,533000
2436,000000	4,549100
2435,000000	4,549900
2434,000000	4,559500
2433,000000	4,562600
2432,000000	4,596300
2431,000000	4,590400
2430,000000	4,587700
2429,000000	4,612600
2428,000000	4,614600
2427,000000	4,618200
2426,000000	4,618200
2425,000000	4,616400
2424,000000	4,629100
2423,000000	4,646900
2422,000000	4,645100
2421,000000	4,674400
2420,000000	4,679400
2419,000000	4,682500
2418,000000	4,684900
2417,000000	4,674600
2416,000000	4,685400
2415,000000	4,696000
2414,000000	4,710400
2413,000000	4,713500
2412,000000	4,710500
2411,000000	4,708500
2410,000000	4,713000
2409,000000	4,714500
2408,000000	4,724400
2407,000000	4,747100
2406,000000	4,752900
2405,000000	4,761000
2404,000000	4,772800
2403,000000	4,793800
2402,000000	4,816800
2401,000000	4,813800
2400,000000	4,829700
2399,000000	4,826700
2398,000000	4,826600
2397,000000	4,839900
2396,000000	4,864900
2395,000000	4,873800
2394,000000	4,885200
2393,000000	4,883900
2392,000000	4,883600
2391,000000	4,895800
2390,000000	4,909200
2389,000000	4,928700
2388,000000	4,925600
2387,000000	4,924900
2386,000000	4,933200
2385,000000	4,938200
2384,000000	4,962000
2383,000000	4,978100
2382,000000	4,973200
2381,000000	4,958400
2380,000000	4,960800
2379,000000	4,971300
2378,000000	4,972800
2377,000000	4,971700
2376,000000	4,972300
2375,000000	4,967300
2374,000000	4,964600
2373,000000	4,970100
2372,000000	4,985800
2371,000000	4,982000
2370,000000	4,970200
2369,000000	4,982000
2368,000000	4,971200
2367,000000	4,958300
2366,000000	4,976200
2365,000000	4,985600
2364,000000	4,973100
2363,000000	4,960700
2362,000000	4,939800
2361,000000	4,930500
2360,000000	4,938900
2359,000000	4,935700
2358,000000	4,930100
2357,000000	4,916600
2356,000000	4,909600
2355,000000	4,910300
2354,000000	4,906600
2353,000000	4,905200
2352,000000	4,896600
2351,000000	4,909700
2350,000000	4,914000
2349,000000	4,909200
2348,000000	4,918700
2347,000000	4,933100
2346,000000	4,937500
2345,000000	4,934900
2344,000000	4,939600
2343,000000	4,943900
2342,000000	4,963800
2341,000000	4,965600
2340,000000	4,959100
2339,000000	4,980100
2338,000000	4,996600
2337,000000	4,992600
2336,000000	5,010800
2335,000000	5,019300
2334,000000	5,011100
2333,000000	5,011600
2332,000000	5,017600
2331,000000	5,012200
2330,000000	5,012200
2329,000000	4,989300
2328,000000	4,982400
2327,000000	4,989300
2326,000000	4,993400
2325,000000	4,975600
2324,000000	4,968600
2323,000000	4,947200
2322,000000	4,941300
2321,000000	4,934400
2320,000000	4,916800
2319,000000	4,905000
2318,000000	4,876500
2317,000000	4,865800
2316,000000	4,863200
2315,000000	4,830000
2314,000000	4,829200
2313,000000	4,818300
2312,000000	4,800400
2311,000000	4,770900
2310,000000	4,756400
2309,000000	4,749500
2308,000000	4,756300
2307,000000	4,744400
2306,000000	4,726100
2305,000000	4,741300
2304,000000	4,734400
2303,000000	4,723900
2302,000000	4,720200
2301,000000	4,729500
2300,000000	4,721400
2299,000000	4,729200
2298,000000	4,746300
2297,000000	4,769900
2296,000000	4,790900
2295,000000	4,810100
2294,000000	4,830900
2293,000000	4,840600
2292,000000	4,838600
2291,000000	4,865600
2290,000000	4,882900
2289,000000	4,883600
2288,000000	4,889400
2287,000000	4,870800
2286,000000	4,885600
2285,000000	4,893200
2284,000000	4,887200
2283,000000	4,890600
2282,000000	4,873300
2281,000000	4,857800
2280,000000	4,854800
2279,000000	4,848900
2278,000000	4,832300
2277,000000	4,828300
2276,000000	4,833700
2275,000000	4,823500
2274,000000	4,823300
2273,000000	4,820000
2272,000000	4,803200
2271,000000	4,811200
2270,000000	4,814600
2269,000000	4,804600
2268,000000	4,824800
2267,000000	4,821900
2266,000000	4,830600
2265,000000	4,849500
2264,000000	4,879800
2263,000000	4,907100
2262,000000	4,938000
2261,000000	4,936000
2260,000000	4,969300
2259,000000	5,010100
2258,000000	5,086400
2257,000000	5,116200
2256,000000	5,163000
2255,000000	5,231600
2254,000000	5,270000
2253,000000	5,333500
2252,000000	5,372300
2251,000000	5,433300
2250,000000	5,471300
2249,000000	5,511400
2248,000000	5,587200
2247,000000	5,639600
2246,000000	5,674500
2245,000000	5,724200
2244,000000	5,758700
2243,000000	5,814200
2242,000000	5,847200
2241,000000	5,875000
2240,000000	5,920100
2239,000000	5,942700
2238,000000	5,972700
2237,000000	5,990700
2236,000000	6,025800
2235,000000	6,056400
2234,000000	6,057700
2233,000000	6,088900
2232,000000	6,115900
2231,000000	6,125500
2230,000000	6,141900
2229,000000	6,151600
2228,000000	6,121400
2227,000000	6,149100
2226,000000	6,160500
2225,000000	6,166800
2224,000000	6,150700
2223,000000	6,160400
2222,000000	6,149900
2221,000000	6,174500
2220,000000	6,149800
2219,000000	6,165900
2218,000000	6,151500
2217,000000	6,160800
2216,000000	6,138800
2215,000000	6,130700
2214,000000	6,120300
2213,000000	6,105900
2212,000000	6,113800
2211,000000	6,119100
2210,000000	6,086100
2209,000000	6,087000
2208,000000	6,085500
2207,000000	6,064100
2206,000000	6,072100
2205,000000	6,064600
2204,000000	6,069500
2203,000000	6,065100
2202,000000	6,064400
2201,000000	6,053600
2200,000000	6,057300
2199,000000	6,056300
2198,000000	6,041400
2197,000000	6,050400
2196,000000	6,032000
2195,000000	6,038100
2194,000000	6,020500
2193,000000	6,028600
2192,000000	6,043700
2191,000000	6,034500
2190,000000	6,029400
2189,000000	6,021400
2188,000000	6,020900
2187,000000	6,029200
2186,000000	6,014500
2185,000000	5,998200
2184,000000	6,007900
2183,000000	5,991600
2182,000000	5,996700
2181,000000	5,981300
2180,000000	5,986500
2179,000000	5,988900
2178,000000	5,986500
2177,000000	5,966800
2176,000000	5,954200
2175,000000	5,972400
2174,000000	5,977000
2173,000000	5,987600
2172,000000	5,968000
2171,000000	5,969200
2170,000000	5,957700
2169,000000	5,961500
2168,000000	5,974800
2167,000000	5,965400
2166,000000	5,973400
2165,000000	5,980700
2164,000000	5,984100
2163,000000	5,986200
2162,000000	5,987000
2161,000000	5,988300
2160,000000	5,990800
2159,000000	6,007500
2158,000000	6,012800
2157,000000	6,020700
2156,000000	6,029800
2155,000000	6,047000
2154,000000	6,048400
2153,000000	6,035400
2152,000000	6,052200
2151,000000	6,079800
2150,000000	6,076500
2149,000000	6,086000
2148,000000	6,094200
2147,000000	6,109300
2146,000000	6,122900
2145,000000	6,127900
2144,000000	6,136100
2143,000000	6,148300
2142,000000	6,153800
2141,000000	6,157000
2140,000000	6,168600
2139,000000	6,188300
2138,000000	6,186000
2137,000000	6,180100
2136,000000	6,205300
2135,000000	6,219800
2134,000000	6,229900
2133,000000	6,215700
2132,000000	6,209800
2131,000000	6,234700
2130,000000	6,229400
2129,000000	6,238900
2128,000000	6,223400
2127,000000	6,231700
2126,000000	6,228600
2125,000000	6,236600
2124,000000	6,252900
2123,000000	6,246400
2122,000000	6,243300
2121,000000	6,238300
2120,000000	6,239500
2119,000000	6,223700
2118,000000	6,231900
2117,000000	6,232800
2116,000000	6,212100
2115,000000	6,209900
2114,000000	6,211300
2113,000000	6,205900
2112,000000	6,192300
2111,000000	6,184500
2110,000000	6,176900
2109,000000	6,181400
2108,000000	6,182900
2107,000000	6,158900
2106,000000	6,152900
2105,000000	6,146900
2104,000000	6,147400
2103,000000	6,145100
2102,000000	6,131100
2101,000000	6,117700
2100,000000	6,115900
2099,000000	6,107900
2098,000000	6,106600
2097,000000	6,097200
2096,000000	6,090600
2095,000000	6,098200
2094,000000	6,094200
2093,000000	6,091800
2092,000000	6,078100
2091,000000	6,069800
2090,000000	6,057500
2089,000000	6,055000
2088,000000	6,066800
2087,000000	6,066300
2086,000000	6,059800
2085,000000	6,046600
2084,000000	6,034800
2083,000000	6,035100
2082,000000	6,036200
2081,000000	6,038900
2080,000000	6,020000
2079,000000	6,009100
2078,000000	6,003200
2077,000000	5,987000
2076,000000	5,975300
2075,000000	5,967100
2074,000000	5,967700
2073,000000	5,959200
2072,000000	5,948300
2071,000000	5,931200
2070,000000	5,913600
2069,000000	5,896700
2068,000000	5,891400
2067,000000	5,888800
2066,000000	5,866400
2065,000000	5,863900
2064,000000	5,860600
2063,000000	5,837800
2062,000000	5,827400
2061,000000	5,815900
2060,000000	5,805400
2059,000000	5,796300
2058,000000	5,787200
2057,000000	5,772000
2056,000000	5,770200
2055,000000	5,776400
2054,000000	5,767200
2053,000000	5,772200
2052,000000	5,782400
2051,000000	5,777200
2050,000000	5,791700
2049,000000	5,806000
2048,000000	5,821300
2047,000000	5,830900
2046,000000	5,840300
2045,000000	5,870100
2044,000000	5,900400
2043,000000	5,912500
2042,000000	5,910500
2041,000000	5,942100
2040,000000	5,968400
2039,000000	5,989200
2038,000000	6,010100
2037,000000	6,016000
2036,000000	6,026100
2035,000000	6,049000
2034,000000	6,057300
2033,000000	6,078200
2032,000000	6,091300
2031,000000	6,101600
2030,000000	6,118400
2029,000000	6,128800
2028,000000	6,128700
2027,000000	6,126200
2026,000000	6,134500
2025,000000	6,145500
2024,000000	6,151400
2023,000000	6,148200
2022,000000	6,158700
2021,000000	6,148900
2020,000000	6,148100
2019,000000	6,162500
2018,000000	6,164800
2017,000000	6,166600
2016,000000	6,159900
2015,000000	6,161700
2014,000000	6,157100
2013,000000	6,160600
2012,000000	6,146800
2011,000000	6,145800
2010,000000	6,140100
2009,000000	6,139100
2008,000000	6,117900
2007,000000	6,115400
2006,000000	6,105300
2005,000000	6,077400
2004,000000	6,073500
2003,000000	6,060100
2002,000000	6,051700
2001,000000	6,048800
2000,000000	6,009600
1999,000000	6,008700
1998,000000	6,000700
1997,000000	5,989700
1996,000000	5,966900
1995,000000	5,943300
1994,000000	5,926900
1993,000000	5,911900
1992,000000	5,900400
1991,000000	5,885100
1990,000000	5,856800
1989,000000	5,845400
1988,000000	5,835400
1987,000000	5,800200
1986,000000	5,780200
1985,000000	5,744000
1984,000000	5,731700
1983,000000	5,727700
1982,000000	5,701000
1981,000000	5,687500
1980,000000	5,675300
1979,000000	5,654800
1978,000000	5,617100
1977,000000	5,616500
1976,000000	5,592500
1975,000000	5,571900
1974,000000	5,549800
1973,000000	5,537700
1972,000000	5,522300
1971,000000	5,524900
1970,000000	5,486700
1969,000000	5,468600
1968,000000	5,457100
1967,000000	5,455500
1966,000000	5,440200
1965,000000	5,388300
1964,000000	5,389300
1963,000000	5,391600
1962,000000	5,377300
1961,000000	5,335800
1960,000000	5,337800
1959,000000	5,329700
1958,000000	5,307600
1957,000000	5,288300
1956,000000	5,290500
1955,000000	5,289400
1954,000000	5,256800
1953,000000	5,259700
1952,000000	5,224000
1951,000000	5,232800
1950,000000	5,218900
1949,000000	5,185400
1948,000000	5,167000
1947,000000	5,191500
1946,000000	5,173700
1945,000000	5,155700
1944,000000	5,136400
1943,000000	5,155300
1942,000000	5,143600
1941,000000	5,117600
1940,000000	5,139100
1939,000000	5,119600
1938,000000	5,124500
1937,000000	5,101400
1936,000000	5,110800
1935,000000	5,101400
1934,000000	5,114600
1933,000000	5,119600
1932,000000	5,120000
1931,000000	5,129900
1930,000000	5,128600
1929,000000	5,136200
1928,000000	5,155000
1927,000000	5,153900
1926,000000	5,180000
1925,000000	5,199600
1924,000000	5,217400
1923,000000	5,219000
1922,000000	5,231400
1921,000000	5,246800
1920,000000	5,293900
1919,000000	5,305600
1918,000000	5,327000
1917,000000	5,394200
1916,000000	5,410900
1915,000000	5,433800
1914,000000	5,451900
1913,000000	5,488700
1912,000000	5,547000
1911,000000	5,588600
1910,000000	5,612900
1909,000000	5,665200
1908,000000	5,704000
1907,000000	5,739800
1906,000000	5,798600
1905,000000	5,853900
1904,000000	5,937000
1903,000000	5,978600
1902,000000	6,058900
1901,000000	6,132200
1900,000000	6,197900
1899,000000	6,280200
1898,000000	6,391400
1897,000000	6,488100
1896,000000	6,568300
1895,000000	6,682100
1894,000000	6,774400
1893,000000	6,858900
1892,000000	6,999100
1891,000000	7,128400
1890,000000	7,280900
1889,000000	7,424500
1888,000000	7,583100
1887,000000	7,731200
1886,000000	7,913400
1885,000000	8,087900
1884,000000	8,281100
1883,000000	8,547800
1882,000000	8,781100
1881,000000	8,998900
1880,000000	9,241800
1879,000000	9,483700
1878,000000	9,737900
1877,000000	9,976200
1876,000000	10,233800
1875,000000	10,468700
1874,000000	10,720500
1873,000000	10,954300
1872,000000	11,207400
1871,000000	11,453600
1870,000000	11,708700
1869,000000	11,947400
1868,000000	12,192800
1867,000000	12,388600
1866,000000	12,581900
1865,000000	12,742800
1864,000000	12,883300
1863,000000	13,023000
1862,000000	13,148700
1861,000000	13,277500
1860,000000	13,396000
1859,000000	13,514700
1858,000000	13,638900
1857,000000	13,723000
1856,000000	13,798700
1855,000000	13,871200
1854,000000	13,935500
1853,000000	13,998300
1852,000000	14,050400
1851,000000	14,084600
1850,000000	14,099900
1849,000000	14,107500
1848,000000	14,116800
1847,000000	14,155400
1846,000000	14,172600
1845,000000	14,176400
1844,000000	14,159300
1843,000000	14,149500
1842,000000	14,157000
1841,000000	14,165200
1840,000000	14,175500
1839,000000	14,158500
1838,000000	14,143400
1837,000000	14,145500
1836,000000	14,137700
1835,000000	14,134200
1834,000000	14,112400
1833,000000	14,084500
1832,000000	14,048200
1831,000000	14,022900
1830,000000	13,998800
1829,000000	13,979200
1828,000000	13,951000
1827,000000	13,903900
1826,000000	13,875800
1825,000000	13,843200
1824,000000	13,814000
1823,000000	13,782100
1822,000000	13,748900
1821,000000	13,734700
1820,000000	13,751100
1819,000000	13,728800
1818,000000	13,691600
1817,000000	13,668300
1816,000000	13,651400
1815,000000	13,640200
1814,000000	13,640100
1813,000000	13,619500
1812,000000	13,598000
1811,000000	13,597400
1810,000000	13,588400
1809,000000	13,560000
1808,000000	13,529700
1807,000000	13,517800
1806,000000	13,490000
1805,000000	13,457700
1804,000000	13,420500
1803,000000	13,376500
1802,000000	13,348600
1801,000000	13,323900
1800,000000	13,306100
1799,000000	13,280100
1798,000000	13,230900
1797,000000	13,189600
1796,000000	13,157900
1795,000000	13,138100
1794,000000	13,127500
1793,000000	13,094300
1792,000000	13,051100
1791,000000	13,018300
1790,000000	12,978800
1789,000000	12,939500
1788,000000	12,908100
1787,000000	12,872900
1786,000000	12,844400
1785,000000	12,815200
1784,000000	12,779700
1783,000000	12,737500
1782,000000	12,694700
1781,000000	12,654800
1780,000000	12,615000
1779,000000	12,587800
1778,000000	12,542600
1777,000000	12,500800
1776,000000	12,449700
1775,000000	12,388800
1774,000000	12,343700
1773,000000	12,294600
1772,000000	12,248800
1771,000000	12,197200
1770,000000	12,142800
1769,000000	12,081300
1768,000000	12,028700
1767,000000	11,979700
1766,000000	11,928600
1765,000000	11,882200
1764,000000	11,845600
1763,000000	11,823000
1762,000000	11,810400
1761,000000	11,806500
1760,000000	11,814600
1759,000000	11,833000
1758,000000	11,881600
1757,000000	11,931000
1756,000000	11,976500
1755,000000	12,024400
1754,000000	12,062300
1753,000000	12,092100
1752,000000	12,112600
1751,000000	12,135700
1750,000000	12,153900
1749,000000	12,157800
1748,000000	12,152300
1747,000000	12,126900
1746,000000	12,088800
1745,000000	12,066000
1744,000000	12,034400
1743,000000	11,975700
1742,000000	11,900000
1741,000000	11,820000
1740,000000	11,744800
1739,000000	11,645700
1738,000000	11,534500
1737,000000	11,440800
1736,000000	11,344500
1735,000000	11,261600
1734,000000	11,204500
1733,000000	11,159900
1732,000000	11,100500
1731,000000	11,106000
1730,000000	11,127100
1729,000000	11,149700
1728,000000	11,202000
1727,000000	11,248800
1726,000000	11,315800
1725,000000	11,356600
1724,000000	11,397200
1723,000000	11,453800
1722,000000	11,482100
1721,000000	11,512200
1720,000000	11,550100
1719,000000	11,572500
1718,000000	11,629900
1717,000000	11,663000
1716,000000	11,702600
1715,000000	11,734900
1714,000000	11,778000
1713,000000	11,847600
1712,000000	11,882200
1711,000000	11,938400
1710,000000	11,981300
1709,000000	12,029300
1708,000000	12,021100
1707,000000	12,034600
1706,000000	12,017400
1705,000000	11,992000
1704,000000	11,985300
1703,000000	11,939400
1702,000000	11,905200
1701,000000	11,846500
1700,000000	11,804500
1699,000000	11,733600
1698,000000	11,666300
1697,000000	11,568100
1696,000000	11,496700
1695,000000	11,440900
1694,000000	11,412300
1693,000000	11,406200
1692,000000	11,444000
1691,000000	11,494600
1690,000000	11,567300
1689,000000	11,662700
1688,000000	11,750900
1687,000000	11,803500
1686,000000	11,861000
1685,000000	11,875900
1684,000000	11,942100
1683,000000	12,002000
1682,000000	12,092400
1681,000000	12,210200
1680,000000	12,409400
1679,000000	12,653700
1678,000000	12,908700
1677,000000	13,219900
1676,000000	13,493300
1675,000000	13,789000
1674,000000	14,037200
1673,000000	14,270500
1672,000000	14,473100
1671,000000	14,654800
1670,000000	14,815200
1669,000000	14,952700
1668,000000	15,068800
1667,000000	15,188500
1666,000000	15,292800
1665,000000	15,385900
1664,000000	15,442800
1663,000000	15,498600
1662,000000	15,541100
1661,000000	15,602500
1660,000000	15,649700
1659,000000	15,668400
1658,000000	15,703200
1657,000000	15,728800
1656,000000	15,725300
1655,000000	15,767300
1654,000000	15,751500
1653,000000	15,736700
1652,000000	15,752700
1651,000000	15,734600
1650,000000	15,714100
1649,000000	15,722400
1648,000000	15,661700
1647,000000	15,651700
1646,000000	15,610500
1645,000000	15,590400
1644,000000	15,550700
1643,000000	15,542100
1642,000000	15,479900
1641,000000	15,449000
1640,000000	15,401300
1639,000000	15,365600
1638,000000	15,326700
1637,000000	15,287200
1636,000000	15,221700
1635,000000	15,188900
1634,000000	15,171300
1633,000000	15,114200
1632,000000	15,047100
1631,000000	14,989600
1630,000000	14,951700
1629,000000	14,883600
1628,000000	14,854700
1627,000000	14,783300
1626,000000	14,744800
1625,000000	14,678900
1624,000000	14,626400
1623,000000	14,561300
1622,000000	14,514900
1621,000000	14,475300
1620,000000	14,404800
1619,000000	14,362400
1618,000000	14,317200
1617,000000	14,268700
1616,000000	14,209800
1615,000000	14,149100
1614,000000	14,121100
1613,000000	14,068000
1612,000000	13,998100
1611,000000	13,971800
1610,000000	13,932000
1609,000000	13,884400
1608,000000	13,839100
1607,000000	13,800900
1606,000000	13,751000
1605,000000	13,703800
1604,000000	13,669000
1603,000000	13,608800
1602,000000	13,557100
1601,000000	13,490600
1600,000000	13,454100
1599,000000	13,410700
1598,000000	13,352300
1597,000000	13,307200
1596,000000	13,270300
1595,000000	13,228500
1594,000000	13,173300
1593,000000	13,130500
1592,000000	13,101800
1591,000000	13,059100
1590,000000	13,003700
1589,000000	12,987300
1588,000000	12,949400
1587,000000	12,898500
1586,000000	12,848000
1585,000000	12,808800
1584,000000	12,785100
1583,000000	12,751600
1582,000000	12,705700
1581,000000	12,673200
1580,000000	12,648000
1579,000000	12,626400
1578,000000	12,588000
1577,000000	12,568000
1576,000000	12,554100
1575,000000	12,535600
1574,000000	12,517000
1573,000000	12,494000
1572,000000	12,473100
1571,000000	12,453900
1570,000000	12,448800
1569,000000	12,443200
1568,000000	12,419900
1567,000000	12,410800
1566,000000	12,407700
1565,000000	12,398300
1564,000000	12,398300
1563,000000	12,380100
1562,000000	12,365400
1561,000000	12,369700
1560,000000	12,368300
1559,000000	12,342600
1558,000000	12,316800
1557,000000	12,325400
1556,000000	12,309900
1555,000000	12,279600
1554,000000	12,279200
1553,000000	12,249500
1552,000000	12,218500
1551,000000	12,204200
1550,000000	12,184200
1549,000000	12,168100
1548,000000	12,138800
1547,000000	12,110500
1546,000000	12,087000
1545,000000	12,066000
1544,000000	12,039000
1543,000000	12,025100
1542,000000	12,001800
1541,000000	11,973700
1540,000000	11,951700
1539,000000	11,919200
1538,000000	11,911300
1537,000000	11,906300
1536,000000	11,886300
1535,000000	11,868600
1534,000000	11,852500
1533,000000	11,826800
1532,000000	11,794000
1531,000000	11,754600
1530,000000	11,710800
1529,000000	11,685400
1528,000000	11,679900
1527,000000	11,658100
1526,000000	11,625600
1525,000000	11,586200
1524,000000	11,564000
1523,000000	11,532500
1522,000000	11,490500
1521,000000	11,458100
1520,000000	11,426200
1519,000000	11,392500
1518,000000	11,345700
1517,000000	11,301300
1516,000000	11,268600
1515,000000	11,232100
1514,000000	11,195700
1513,000000	11,153900
1512,000000	11,110400
1511,000000	11,083700
1510,000000	11,049600
1509,000000	11,010400
1508,000000	10,971700
1507,000000	10,928800
1506,000000	10,887300
1505,000000	10,853100
1504,000000	10,812700
1503,000000	10,768000
1502,000000	10,738500
1501,000000	10,696900
1500,000000	10,656900
1499,000000	10,636000
1498,000000	10,604100
1497,000000	10,561200
1496,000000	10,525000
1495,000000	10,500300
1494,000000	10,467300
1493,000000	10,434400
1492,000000	10,415800
1491,000000	10,375700
1490,000000	10,355200
1489,000000	10,340800
1488,000000	10,311500
1487,000000	10,296500
1486,000000	10,265500
1485,000000	10,239900
1484,000000	10,225900
1483,000000	10,208200
1482,000000	10,194800
1481,000000	10,190700
1480,000000	10,176000
1479,000000	10,155700
1478,000000	10,149000
1477,000000	10,136100
1476,000000	10,112900
1475,000000	10,099000
1474,000000	10,094100
1473,000000	10,088800
1472,000000	10,092700
1471,000000	10,096000
1470,000000	10,093800
1469,000000	10,086400
1468,000000	10,075000
1467,000000	10,071900
1466,000000	10,076700
1465,000000	10,095600
1464,000000	10,106800
1463,000000	10,108200
1462,000000	10,106000
1461,000000	10,122100
1460,000000	10,137100
1459,000000	10,152400
1458,000000	10,175700
1457,000000	10,199100
1456,000000	10,224500
1455,000000	10,224700
1454,000000	10,269100
1453,000000	10,293400
1452,000000	10,327100
1451,000000	10,357100
1450,000000	10,420500
1449,000000	10,447500
1448,000000	10,462300
1447,000000	10,500800
1446,000000	10,556600
1445,000000	10,604100
1444,000000	10,650400
1443,000000	10,690800
1442,000000	10,710100
1441,000000	10,776200
1440,000000	10,827000
1439,000000	10,884500
1438,000000	10,948200
1437,000000	11,004300
1436,000000	11,067100
1435,000000	11,118100
1434,000000	11,164400
1433,000000	11,223500
1432,000000	11,311600
1431,000000	11,388900
1430,000000	11,455100
1429,000000	11,533900
1428,000000	11,628600
1427,000000	11,719200
1426,000000	11,830400
1425,000000	11,913100
1424,000000	12,037100
1423,000000	12,151300
1422,000000	12,286100
1421,000000	12,413400
1420,000000	12,520500
1419,000000	12,638100
1418,000000	12,813200
1417,000000	12,941100
1416,000000	13,105200
1415,000000	13,274000
1414,000000	13,431200
1413,000000	13,648100
1412,000000	13,853800
1411,000000	14,019100
1410,000000	14,217300
1409,000000	14,450700
1408,000000	14,736000
1407,000000	14,997600
1406,000000	15,267600
1405,000000	15,526300
1404,000000	15,852200
1403,000000	16,158900
1402,000000	16,453600
1401,000000	16,742500
1400,000000	17,120500
1399,000000	17,500600
1398,000000	17,820900
1397,000000	18,050000
1396,000000	18,338600
1395,000000	18,753500
1394,000000	19,150300
1393,000000	19,427800
1392,000000	19,733200
1391,000000	20,132100
1390,000000	20,515500
1389,000000	20,868300
1388,000000	21,268300
1387,000000	21,790200
1386,000000	22,273200
1385,000000	22,794000
1384,000000	23,292800
1383,000000	23,847500
1382,000000	24,422100
1381,000000	25,019900
1380,000000	25,515800
1379,000000	25,918700
1378,000000	26,234600
1377,000000	26,494400
1376,000000	26,768900
1375,000000	27,001800
1374,000000	27,249200
1373,000000	27,525000
1372,000000	27,812000
1371,000000	28,130200
1370,000000	28,523900
1369,000000	28,838800
1368,000000	29,145000
1367,000000	29,453100
1366,000000	29,730400
1365,000000	29,943600
1364,000000	30,208800
1363,000000	30,410500
1362,000000	30,588600
1361,000000	30,816200
1360,000000	31,015500
1359,000000	31,168600
1358,000000	31,252600
1357,000000	31,381900
1356,000000	31,526900
1355,000000	31,715200
1354,000000	32,034100
1353,000000	32,366800
1352,000000	32,698700
1351,000000	33,145900
1350,000000	33,589100
1349,000000	34,020000
1348,000000	34,431800
1347,000000	34,837900
1346,000000	35,223600
1345,000000	35,598000
1344,000000	35,942000
1343,000000	36,343600
1342,000000	36,672100
1341,000000	37,034300
1340,000000	37,389500
1339,000000	37,733000
1338,000000	38,087000
1337,000000	38,409700
1336,000000	38,761000
1335,000000	39,117500
1334,000000	39,462700
1333,000000	39,774500
1332,000000	40,130200
1331,000000	40,471900
1330,000000	40,791100
1329,000000	41,094900
1328,000000	41,413000
1327,000000	41,733700
1326,000000	42,031200
1325,000000	42,298700
1324,000000	42,581800
1323,000000	42,839300
1322,000000	43,117600
1321,000000	43,373600
1320,000000	43,616400
1319,000000	43,851600
1318,000000	44,081500
1317,000000	44,320400
1316,000000	44,527900
1315,000000	44,736500
1314,000000	44,951500
1313,000000	45,162700
1312,000000	45,329500
1311,000000	45,512600
1310,000000	45,689500
1309,000000	45,845100
1308,000000	46,007700
1307,000000	46,155900
1306,000000	46,285000
1305,000000	46,412600
1304,000000	46,533700
1303,000000	46,645700
1302,000000	46,742500
1301,000000	46,839200
1300,000000	46,922800
1299,000000	46,988800
1298,000000	47,069400
1297,000000	47,138100
1296,000000	47,185400
1295,000000	47,239900
1294,000000	47,296800
1293,000000	47,328800
1292,000000	47,365700
1291,000000	47,394300
1290,000000	47,422600
1289,000000	47,427500
1288,000000	47,437100
1287,000000	47,428300
1286,000000	47,441200
1285,000000	47,426600
1284,000000	47,402000
1283,000000	47,379000
1282,000000	47,331000
1281,000000	47,288400
1280,000000	47,264000
1279,000000	47,218000
1278,000000	47,169000
1277,000000	47,123600
1276,000000	47,089300
1275,000000	47,055700
1274,000000	47,018700
1273,000000	46,976000
1272,000000	46,939500
1271,000000	46,920500
1270,000000	46,898000
1269,000000	46,863800
1268,000000	46,820300
1267,000000	46,785400
1266,000000	46,753300
1265,000000	46,706600
1264,000000	46,668100
1263,000000	46,621200
1262,000000	46,569700
1261,000000	46,519800
1260,000000	46,470400
1259,000000	46,418400
1258,000000	46,373300
1257,000000	46,316500
1256,000000	46,246400
1255,000000	46,195600
1254,000000	46,117600
1253,000000	46,031200
1252,000000	45,957100
1251,000000	45,895300
1250,000000	45,807600
1249,000000	45,712100
1248,000000	45,623900
1247,000000	45,517800
1246,000000	45,428700
1245,000000	45,317800
1244,000000	45,193700
1243,000000	45,082700
1242,000000	44,962600
1241,000000	44,823100
1240,000000	44,694000
1239,000000	44,565700
1238,000000	44,428200
1237,000000	44,299900
1236,000000	44,161700
1235,000000	44,017400
1234,000000	43,868200
1233,000000	43,706300
1232,000000	43,544500
1231,000000	43,383100
1230,000000	43,206500
1229,000000	43,030100
1228,000000	42,864000
1227,000000	42,684800
1226,000000	42,496800
1225,000000	42,316700
1224,000000	42,121600
1223,000000	41,919100
1222,000000	41,726600
1221,000000	41,538300
1220,000000	41,340800
1219,000000	41,137600
1218,000000	40,955900
1217,000000	40,777700
1216,000000	40,595700
1215,000000	40,417400
1214,000000	40,258000
1213,000000	40,102500
1212,000000	39,940900
1211,000000	39,786800
1210,000000	39,631200
1209,000000	39,492500
1208,000000	39,364900
1207,000000	39,227300
1206,000000	39,123600
1205,000000	39,020900
1204,000000	38,930700
1203,000000	38,857700
1202,000000	38,797300
1201,000000	38,751800
1200,000000	38,703200
1199,000000	38,644400
1198,000000	38,578600
1197,000000	38,501000
1196,000000	38,397700
1195,000000	38,233700
1194,000000	38,070300
1193,000000	37,855500
1192,000000	37,577600
1191,000000	37,259100
1190,000000	36,899600
1189,000000	36,540300
1188,000000	36,199200
1187,000000	35,886300
1186,000000	35,683100
1185,000000	35,574200
1184,000000	35,565100
1183,000000	35,676900
1182,000000	35,914700
1181,000000	36,257400
1180,000000	36,678500
1179,000000	37,132100
1178,000000	37,601400
1177,000000	38,042500
1176,000000	38,457600
1175,000000	38,830000
1174,000000	39,161100
1173,000000	39,492600
1172,000000	39,792500
1171,000000	40,106600
1170,000000	40,429500
1169,000000	40,762400
1168,000000	41,094500
1167,000000	41,435000
1166,000000	41,770800
1165,000000	42,119800
1164,000000	42,498200
1163,000000	42,879300
1162,000000	43,268800
1161,000000	43,662600
1160,000000	44,059000
1159,000000	44,474300
1158,000000	44,876400
1157,000000	45,257700
1156,000000	45,641300
1155,000000	45,990100
1154,000000	46,327200
1153,000000	46,606500
1152,000000	46,852000
1151,000000	47,079900
1150,000000	47,279800
1149,000000	47,452400
1148,000000	47,634500
1147,000000	47,810900
1146,000000	48,010000
1145,000000	48,235900
1144,000000	48,551700
1143,000000	48,894600
1142,000000	49,291900
1141,000000	49,741500
1140,000000	50,191900
1139,000000	50,684700
1138,000000	51,170900
1137,000000	51,689200
1136,000000	52,236800
1135,000000	52,809800
1134,000000	53,431300
1133,000000	54,024800
1132,000000	54,539300
1131,000000	55,008700
1130,000000	55,453600
1129,000000	55,867500
1128,000000	56,211300
1127,000000	56,517000
1126,000000	56,757500
1125,000000	56,958500
1124,000000	57,106500
1123,000000	57,273500
1122,000000	57,401600
1121,000000	57,510500
1120,000000	57,590300
1119,000000	57,661200
1118,000000	57,721900
1117,000000	57,796300
1116,000000	57,805800
1115,000000	57,837600
1114,000000	57,847700
1113,000000	57,862100
1112,000000	57,857100
1111,000000	57,870700
1110,000000	57,862700
1109,000000	57,869800
1108,000000	57,870800
1107,000000	57,860200
1106,000000	57,856200
1105,000000	57,856500
1104,000000	57,866800
1103,000000	57,857100
1102,000000	57,866800
1101,000000	57,853200
1100,000000	57,845900
1099,000000	57,822300
1098,000000	57,837900
1097,000000	57,825300
1096,000000	57,791600
1095,000000	57,784200
1094,000000	57,762700
1093,000000	57,735600
1092,000000	57,692700
1091,000000	57,669800
1090,000000	57,623000
1089,000000	57,560900
1088,000000	57,553500
1087,000000	57,496400
1086,000000	57,457100
1085,000000	57,391900
1084,000000	57,337000
1083,000000	57,295400
1082,000000	57,225000
1081,000000	57,163100
1080,000000	57,100800
1079,000000	57,065300
1078,000000	57,002700
1077,000000	56,959600
1076,000000	56,897400
1075,000000	56,800200
1074,000000	56,757600
1073,000000	56,689300
1072,000000	56,633600
1071,000000	56,560000
1070,000000	56,505700
1069,000000	56,437300
1068,000000	56,362200
1067,000000	56,301700
1066,000000	56,208000
1065,000000	56,129000
1064,000000	56,069100
1063,000000	55,979800
1062,000000	55,887600
1061,000000	55,815500
1060,000000	55,741000
1059,000000	55,660900
1058,000000	55,557800
1057,000000	55,487400
1056,000000	55,405300
1055,000000	55,311700
1054,000000	55,239500
1053,000000	55,135300
1052,000000	55,049400
1051,000000	54,965000
1050,000000	54,877500
1049,000000	54,791600
1048,000000	54,726000
1047,000000	54,646600
1046,000000	54,551100
1045,000000	54,461800
1044,000000	54,386900
1043,000000	54,318300
1042,000000	54,257900
1041,000000	54,174100
1040,000000	54,087700
1039,000000	54,022400
1038,000000	53,919400
1037,000000	53,852600
1036,000000	53,766900
1035,000000	53,686200
1034,000000	53,602100
1033,000000	53,524900
1032,000000	53,425800
1031,000000	53,318900
1030,000000	53,230600
1029,000000	53,144900
1028,000000	53,040100
1027,000000	52,924800
1026,000000	52,846600
1025,000000	52,749700
1024,000000	52,633900
1023,000000	52,534900
1022,000000	52,416400
1021,000000	52,327600
1020,000000	52,241800
1019,000000	52,144300
1018,000000	52,020800
1017,000000	51,944700
1016,000000	51,847800
1015,000000	51,762300
1014,000000	51,697700
1013,000000	51,622600
1012,000000	51,565100
1011,000000	51,516800
1010,000000	51,470400
1009,000000	51,402200
1008,000000	51,361400
1007,000000	51,334700
1006,000000	51,310600
1005,000000	51,285500
1004,000000	51,230600
1003,000000	51,198500
1002,000000	51,177900
1001,000000	51,135300
1000,000000	51,105500
999,000000	51,100400
998,000000	51,066800
997,000000	51,040900
996,000000	51,029100
995,000000	51,013100
994,000000	50,994200
993,000000	50,989400
992,000000	50,963300
991,000000	50,955700
990,000000	50,948300
989,000000	50,931200
988,000000	50,916100
987,000000	50,920100
986,000000	50,929500
985,000000	50,933700
984,000000	50,939500
983,000000	50,948100
982,000000	50,954600
981,000000	50,972800
980,000000	50,986700
979,000000	51,007600
978,000000	51,006000
977,000000	51,024300
976,000000	51,065300
975,000000	51,075600
974,000000	51,082200
973,000000	51,108000
972,000000	51,121200
971,000000	51,143300
970,000000	51,184200
969,000000	51,209900
968,000000	51,233800
967,000000	51,250500
966,000000	51,283900
965,000000	51,339900
964,000000	51,376000
963,000000	51,411400
962,000000	51,449100
961,000000	51,480400
960,000000	51,546800
959,000000	51,595900
958,000000	51,640300
957,000000	51,683300
956,000000	51,727200
955,000000	51,775100
954,000000	51,830400
953,000000	51,879400
952,000000	51,911900
951,000000	51,959000
950,000000	52,011100
949,000000	52,060100
948,000000	52,113100
947,000000	52,151800
946,000000	52,172800
945,000000	52,196300
944,000000	52,203300
943,000000	52,237900
942,000000	52,280800
941,000000	52,288400
940,000000	52,273300
939,000000	52,268800
938,000000	52,267900
937,000000	52,240800
936,000000	52,266100
935,000000	52,286600
934,000000	52,272800
933,000000	52,270500
932,000000	52,256800
931,000000	52,269400
930,000000	52,270600
929,000000	52,229700
928,000000	52,192500
927,000000	52,211700
926,000000	52,201000
925,000000	52,166800
924,000000	52,132700
923,000000	52,080500
922,000000	52,081400
921,000000	52,064500
920,000000	52,018000
919,000000	51,980400
918,000000	51,942100
917,000000	51,890700
916,000000	51,846500
915,000000	51,790800
914,000000	51,740500
913,000000	51,672100
912,000000	51,613500
911,000000	51,559700
910,000000	51,494100
909,000000	51,446400
908,000000	51,403200
907,000000	51,356800
906,000000	51,303300
905,000000	51,262400
904,000000	51,223100
903,000000	51,208100
902,000000	51,164600
901,000000	51,130400
900,000000	51,123900
899,000000	51,111800
898,000000	51,099900
897,000000	51,081000
896,000000	51,054900
895,000000	51,011400
894,000000	50,973700
893,000000	50,952800
892,000000	50,916100
891,000000	50,843800
890,000000	50,783700
889,000000	50,713300
888,000000	50,634700
887,000000	50,569600
886,000000	50,512000
885,000000	50,403100
884,000000	50,305200
883,000000	50,197100
882,000000	50,094900
881,000000	49,965700
880,000000	49,870700
879,000000	49,737700
878,000000	49,614100
877,000000	49,458600
876,000000	49,313600
875,000000	49,130000
874,000000	48,889000
873,000000	48,641300
872,000000	48,373800
871,000000	48,128800
870,000000	47,951400
869,000000	47,926300
868,000000	47,942700
867,000000	47,976200
866,000000	48,005800
865,000000	48,028500
864,000000	48,042300
863,000000	48,064400
862,000000	48,071000
861,000000	48,078000
860,000000	48,096000
859,000000	48,093400
858,000000	48,105300
857,000000	55,003500
856,000000	56,019400
855,000000	55,941100
854,000000	56,145500
853,000000	55,822900
852,000000	55,476100
851,000000	55,847400
850,000000	55,775900
849,000000	55,861600
848,000000	55,758000
847,000000	55,948000
846,000000	56,057900
845,000000	55,697800
844,000000	55,843900
843,000000	55,978700
842,000000	55,909000
841,000000	56,016700
840,000000	55,626400
839,000000	55,407300
838,000000	55,666000
837,000000	55,851000
836,000000	55,787100
835,000000	55,652400
834,000000	55,556900
833,000000	55,624700
832,000000	55,512400
831,000000	55,474100
830,000000	55,430800
829,000000	55,055500
828,000000	55,418900
827,000000	55,404100
826,000000	55,231800
825,000000	55,246300
824,000000	55,084800
823,000000	55,039100
822,000000	54,995000
821,000000	54,945700
820,000000	54,947600
819,000000	54,865800
818,000000	54,777500
817,000000	54,650000
816,000000	54,515900
815,000000	54,399000
814,000000	54,409600
813,000000	54,520000
812,000000	54,382900
811,000000	54,377800
810,000000	54,341700
809,000000	54,171100
808,000000	53,981600
807,000000	53,906400
806,000000	53,966500
805,000000	53,902000
804,000000	53,794700
803,000000	53,854800
802,000000	53,652000
801,000000	53,442800
800,000000	53,339700
799,000000	53,421500
798,000000	53,316100
797,000000	53,161700
796,000000	53,175600
795,000000	52,960000
794,000000	52,796300
793,000000	52,929000
792,000000	52,828900
791,000000	52,758200
790,000000	52,606600
789,000000	52,409900
788,000000	52,378300
787,000000	52,275400
786,000000	52,239900
785,000000	52,118600
784,000000	52,001100
783,000000	51,949000
782,000000	51,891700
781,000000	51,809700
780,000000	51,671500
779,000000	51,511600
778,000000	51,407100
777,000000	51,212400
776,000000	51,066000
775,000000	51,028700
774,000000	50,886000
773,000000	50,679300
772,000000	50,525300
771,000000	50,443700
770,000000	50,329800
769,000000	50,204300
768,000000	50,126400
767,000000	50,050800
766,000000	49,801800
765,000000	49,787000
764,000000	49,637100
763,000000	49,543700
762,000000	49,398200
761,000000	49,240700
760,000000	49,169000
759,000000	48,956800
758,000000	48,807500
757,000000	48,666300
756,000000	48,500700
755,000000	48,355400
754,000000	48,217400
753,000000	47,939800
752,000000	47,778100
751,000000	47,588700
750,000000	47,562200
749,000000	47,449900
748,000000	47,229900
747,000000	47,096300
746,000000	46,967900
745,000000	46,759200
744,000000	46,580500
743,000000	46,423200
742,000000	46,173200
741,000000	46,040500
740,000000	45,802600
739,000000	45,646000
738,000000	45,470300
737,000000	45,200400
736,000000	44,976600
735,000000	44,816300
734,000000	44,622700
733,000000	44,428500
732,000000	44,139000
731,000000	43,978900
730,000000	43,698700
729,000000	43,522500
728,000000	43,280100
727,000000	43,027300
726,000000	42,781900
725,000000	42,535400
724,000000	42,293600
723,000000	42,045100
722,000000	41,787600
721,000000	41,537000
720,000000	41,277100
719,000000	41,032900
718,000000	40,730000
717,000000	40,436100
716,000000	40,227400
715,000000	39,942800
714,000000	39,660100
713,000000	39,387800
712,000000	39,131300
711,000000	38,872800
710,000000	38,625200
709,000000	38,322300
708,000000	38,059100
707,000000	37,807700
706,000000	37,487600
705,000000	37,274100
704,000000	37,017600
703,000000	36,744200
702,000000	36,505800
701,000000	36,258400
700,000000	35,946500
699,000000	35,718600
698,000000	35,478500
697,000000	35,218700
696,000000	34,972000
695,000000	34,737000
694,000000	34,535800
693,000000	34,272800
692,000000	34,015000
691,000000	33,824100
690,000000	33,600000
689,000000	33,393800
688,000000	33,156300
687,000000	32,958900
686,000000	32,783000
685,000000	32,586800
684,000000	32,376200
683,000000	32,183400
682,000000	31,997100
681,000000	31,800700
680,000000	31,602200
679,000000	31,414600
678,000000	31,220700
677,000000	31,038300
676,000000	30,875100
675,000000	30,698200
674,000000	30,557300
673,000000	30,395000
672,000000	30,207000
671,000000	30,038100
670,000000	29,900800
669,000000	29,748600
668,000000	29,572300
667,000000	29,428900
666,000000	29,306900
665,000000	29,178400
664,000000	29,014600
663,000000	28,855600
662,000000	28,726700
661,000000	28,599400
660,000000	28,473000
659,000000	28,347000
658,000000	28,210100
657,000000	28,107200
656,000000	27,997800
655,000000	27,897700
654,000000	27,765700
653,000000	27,663300
652,000000	27,574700
651,000000	27,462500
650,000000	27,365200
649,000000	27,278400
648,000000	27,197800
647,000000	27,099500
646,000000	27,009500
645,000000	26,945600
644,000000	26,891100
643,000000	26,810300
642,000000	26,729800
641,000000	26,674400
640,000000	26,616900
639,000000	26,555700
638,000000	26,524800
637,000000	26,477200
636,000000	26,430700
635,000000	26,415600
634,000000	26,382200
633,000000	26,348000
632,000000	26,330300
631,000000	26,324700
630,000000	26,310700
629,000000	26,304100
628,000000	26,309000
627,000000	26,302100
626,000000	26,313100
625,000000	26,353800
624,000000	26,379700
623,000000	26,401300
622,000000	26,417200
621,000000	26,443200
620,000000	26,487200
619,000000	26,551100
618,000000	26,605400
617,000000	26,651900
616,000000	26,737800
615,000000	26,798800
614,000000	26,865700
613,000000	26,951700
612,000000	27,032300
611,000000	27,114500
610,000000	27,192400
609,000000	27,283900
608,000000	27,383500
607,000000	27,481100
606,000000	27,575100
605,000000	27,662600
604,000000	27,768200
603,000000	27,863300
602,000000	27,978100
601,000000	28,073000
600,000000	28,184000
599,000000	28,292100
598,000000	28,372500
597,000000	28,457400
596,000000	28,548900
595,000000	28,662800
594,000000	28,762500
593,000000	28,856200
592,000000	28,925200
591,000000	29,007500
590,000000	29,095700
589,000000	29,151400
588,000000	29,221000
587,000000	29,295800
586,000000	29,356100
585,000000	29,413300
584,000000	29,466600
583,000000	29,523800
582,000000	29,550400
581,000000	29,599300
580,000000	29,637200
579,000000	29,659600
578,000000	29,688800
577,000000	29,699100
576,000000	29,693600
575,000000	29,682200
574,000000	29,674100
573,000000	29,663400
572,000000	29,648500
571,000000	29,624200
570,000000	29,575400
569,000000	29,545100
568,000000	29,495300
567,000000	29,441900
566,000000	29,382000
565,000000	29,309700
564,000000	29,220000
563,000000	29,125500
562,000000	29,055500
561,000000	28,955900
560,000000	28,833100
559,000000	28,726400
558,000000	28,616800
557,000000	28,492000
556,000000	28,364700
555,000000	28,217500
554,000000	28,086500
553,000000	27,920400
552,000000	27,753200
551,000000	27,602000
550,000000	27,423700
549,000000	27,231400
548,000000	27,030300
547,000000	26,840100
546,000000	26,644000
545,000000	26,447900
544,000000	26,216300
543,000000	25,997100
542,000000	25,752100
541,000000	25,518300
540,000000	25,272900
539,000000	25,012900
538,000000	24,761300
537,000000	24,503000
536,000000	24,228200
535,000000	23,962000
534,000000	23,667200
533,000000	23,404100
532,000000	23,109100
531,000000	22,812200
530,000000	22,519200
529,000000	22,224700
528,000000	21,910200
527,000000	21,607100
526,000000	21,312800
525,000000	21,006300
524,000000	20,707600
523,000000	20,401400
522,000000	20,075300
521,000000	19,782700
520,000000	19,469000
519,000000	19,166500
518,000000	18,863000
517,000000	18,565900
516,000000	18,266600
515,000000	18,002700
514,000000	17,709000
513,000000	17,441400
512,000000	17,173500
511,000000	16,907200
510,000000	16,661200
509,000000	16,392800
508,000000	16,186100
507,000000	15,951000
506,000000	15,694800
505,000000	15,514700
504,000000	15,289800
503,000000	15,106500
502,000000	14,908500
501,000000	14,723700
500,000000	14,565400
499,000000	14,392000
498,000000	14,229500
497,000000	14,061100
496,000000	13,925500
495,000000	13,795500
494,000000	13,664900
493,000000	13,527100
492,000000	13,383400
491,000000	13,290700
490,000000	13,178600
489,000000	13,060700
488,000000	12,970100
487,000000	12,879700
486,000000	12,768700
485,000000	12,704300
484,000000	12,605300
483,000000	12,511100
482,000000	12,405000
481,000000	12,321700
480,000000	12,213800
479,000000	12,123100
478,000000	12,014800
477,000000	11,924700
476,000000	11,852500
475,000000	11,750200
474,000000	11,661500
473,000000	11,582800
472,000000	11,485100
471,000000	11,409500
470,000000	11,350000
469,000000	11,251100
468,000000	11,188000
467,000000	11,110100
466,000000	11,021100
465,000000	10,965400
464,000000	10,890800
463,000000	10,826300
462,000000	10,762700
461,000000	10,697000
460,000000	10,627900
459,000000	10,568200
458,000000	10,523400
457,000000	10,448600
456,000000	10,398100
455,000000	10,339100
454,000000	10,293600
453,000000	10,248300
452,000000	10,178300
451,000000	10,168200
450,000000	10,095600
449,000000	10,034800
448,000000	9,988300
447,000000	9,949500
446,000000	9,901700
445,000000	9,854700
444,000000	9,809400
443,000000	9,738800
442,000000	9,704500
441,000000	9,651600
440,000000	9,585800
439,000000	9,554200
438,000000	9,505000
437,000000	9,449100
436,000000	9,400400
435,000000	9,346800
434,000000	9,290300
433,000000	9,240800
432,000000	9,209900
431,000000	9,161700
430,000000	9,123100
429,000000	9,082400
428,000000	9,016200
427,000000	8,974700
426,000000	8,927300
425,000000	8,868100
424,000000	8,832300
423,000000	8,793000
422,000000	8,756700
421,000000	8,688000
420,000000	8,652300
419,000000	8,585100
418,000000	8,533200
417,000000	8,489900
416,000000	8,438300
415,000000	8,387300
414,000000	8,341100
413,000000	8,265900
412,000000	8,207000
411,000000	8,145000
410,000000	8,078600
409,000000	8,002600
408,000000	7,942100
407,000000	7,894900
406,000000	7,830300
405,000000	7,781100
404,000000	7,675700
403,000000	7,614700
402,000000	7,553500
401,000000	7,484800
400,000000	7,413800
399,000000	7,347400
398,000000	7,274300
397,000000	7,190700
396,000000	7,102400
395,000000	7,023900
394,000000	6,956500
393,000000	6,873100
392,000000	6,781100
391,000000	6,705100
390,000000	6,610100
389,000000	6,547200
388,000000	6,472200
387,000000	6,376600
386,000000	6,303700
385,000000	6,246800
384,000000	6,171000
383,000000	6,101100
382,000000	6,035800
381,000000	5,955200
380,000000	5,886200
379,000000	5,806200
378,000000	5,750800
377,000000	5,690900
376,000000	5,631900
375,000000	5,377500
374,000000	5,112100
373,000000	5,168400
372,000000	5,037700
371,000000	5,121900
370,000000	5,153500
369,000000	5,174800
368,000000	5,126100
367,000000	5,031300
366,000000	5,128700
365,000000	5,174200
364,000000	5,012000
363,000000	4,944700
362,000000	4,856500
361,000000	4,927900
360,000000	4,978400
359,000000	4,787500
358,000000	4,854400
357,000000	5,127700
356,000000	4,971800
355,000000	4,962300
354,000000	5,039600
353,000000	4,864100
352,000000	4,896800
351,000000	4,990200
350,000000	5,207700
349,000000	5,065000
348,000000	4,931900
347,000000	5,017400
346,000000	4,822300
345,000000	4,818300
344,000000	5,051900
343,000000	5,056100
342,000000	4,956300
341,000000	4,991600
340,000000	4,952400
339,000000	4,908900
338,000000	4,974800
337,000000	5,164900
336,000000	5,197700
335,000000	4,913500
334,000000	4,890300
333,000000	4,970800
332,000000	5,100700
331,000000	5,150500
330,000000	5,116200
329,000000	5,311600
328,000000	5,335700
327,000000	5,011000
326,000000	4,899400
325,000000	5,229200
324,000000	5,670500
323,000000	5,534300
322,000000	5,580200
321,000000	5,952700
320,000000	6,166600
319,000000	6,379800
318,000000	5,919900
317,000000	5,619700
316,000000	5,215600
315,000000	4,799600
314,000000	4,814300
313,000000	4,789900
312,000000	4,796600
311,000000	4,864900
310,000000	4,831800
309,000000	4,814400
308,000000	4,835900
307,000000	4,813000
306,000000	4,774400
305,000000	4,830000
304,000000	4,830000
303,000000	4,813900
302,000000	4,787900
301,000000	4,831400
300,000000	4,881400
299,000000	4,839600
298,000000	4,848000
297,000000	4,846500
296,000000	4,887900
295,000000	4,885700
294,000000	4,881100
293,000000	4,851300
292,000000	4,860500
291,000000	4,897400
290,000000	4,890400
289,000000	4,859900
288,000000	4,885700
287,000000	4,851700
286,000000	4,862600
285,000000	4,892300
284,000000	4,913000
283,000000	4,939100
282,000000	4,918700
281,000000	4,951500
280,000000	4,901300
279,000000	4,881600
278,000000	4,920000
277,000000	4,979600
276,000000	4,989000
275,000000	5,024100
274,000000	4,984800
273,000000	4,979300
272,000000	4,997400
271,000000	5,004400
270,000000	5,025800
269,000000	5,039200
268,000000	5,069100
267,000000	5,039400
266,000000	5,078900
265,000000	5,098700
264,000000	5,091300
263,000000	5,107200
262,000000	5,199600
261,000000	5,229600
260,000000	5,219100
259,000000	5,206900
258,000000	5,235000
257,000000	5,246600
256,000000	5,297900
255,000000	5,292400
254,000000	5,291200
253,000000	5,333100
252,000000	5,360200
251,000000	5,367700
250,000000	5,323200
