PE UV       SUBTECH     SPECTRUM    ASCII       PEDS        4.00        
   -1
CICIMAUCR0212-3.Sample.ASC
24/06/12
14:09:41.00
24/06/12
14:09:41.00
Vinicio Soto Monge
C. resplendens. Sex F. Ventral
250,000000
1
Lambda 1050
1050L1511233
PerkinElmer UV WinLab 6.3.2.0749 / 2.02.05 Lambda 900 UV/VIS/NIR, Aug  7 2015 09:38:08

0
0
3350/servo 860,8/2
0
0
UV/VIS
1
1
1
DoubleDePol,CommonBeamDepol,RBeamAtt,SBeamAtt,60mm sphere, WB InGaAs Detector
0
0
0
0
Program
Program
3350/servo 860,8/2
3350/0,2 860,8/0,2
3350/0,2 860,8/0,2
0
15.00
 
 
 
0
 
860,8
319,2
860,8
Front
100
on
S:100 R:100
0
0
0
0
 
0
 
 
 
0
 
 
0
0
0
0
0
 
 
 
 
0
0


0
0
#HDR
-1
-1
#GR
nm
%R
1.0
0.0
2500,000000
-1,000000
2251
8
63,644600
3,723400
#DATA
2500,000000	6,144600
2499,000000	6,222900
2498,000000	6,611500
2497,000000	6,139500
2496,000000	6,287300
2495,000000	6,071600
2494,000000	6,207500
2493,000000	6,037400
2492,000000	6,213900
2491,000000	6,170600
2490,000000	6,270800
2489,000000	6,022800
2488,000000	6,164700
2487,000000	5,806400
2486,000000	6,081300
2485,000000	6,045000
2484,000000	6,008900
2483,000000	5,931200
2482,000000	5,806600
2481,000000	5,941000
2480,000000	5,962600
2479,000000	5,877600
2478,000000	5,892000
2477,000000	5,964300
2476,000000	5,912100
2475,000000	5,875300
2474,000000	5,918700
2473,000000	5,933300
2472,000000	5,923900
2471,000000	5,930300
2470,000000	5,878000
2469,000000	5,897400
2468,000000	5,983700
2467,000000	5,956600
2466,000000	5,970800
2465,000000	5,801500
2464,000000	5,906700
2463,000000	5,912900
2462,000000	5,926400
2461,000000	5,943500
2460,000000	5,919200
2459,000000	5,935000
2458,000000	5,972200
2457,000000	6,024200
2456,000000	6,058600
2455,000000	6,007200
2454,000000	6,041500
2453,000000	6,060400
2452,000000	6,056100
2451,000000	6,136700
2450,000000	6,178100
2449,000000	6,183200
2448,000000	6,189300
2447,000000	6,239700
2446,000000	6,232900
2445,000000	6,322500
2444,000000	6,359700
2443,000000	6,411000
2442,000000	6,411600
2441,000000	6,425800
2440,000000	6,478200
2439,000000	6,536500
2438,000000	6,588600
2437,000000	6,608300
2436,000000	6,609500
2435,000000	6,649500
2434,000000	6,681300
2433,000000	6,688200
2432,000000	6,732600
2431,000000	6,714100
2430,000000	6,797700
2429,000000	6,793900
2428,000000	6,825900
2427,000000	6,843200
2426,000000	6,885000
2425,000000	6,922700
2424,000000	6,946900
2423,000000	6,988100
2422,000000	6,991300
2421,000000	7,001000
2420,000000	7,020000
2419,000000	7,034300
2418,000000	7,065500
2417,000000	7,111700
2416,000000	7,152100
2415,000000	7,148100
2414,000000	7,140700
2413,000000	7,176300
2412,000000	7,200300
2411,000000	7,212500
2410,000000	7,250400
2409,000000	7,255100
2408,000000	7,244500
2407,000000	7,275900
2406,000000	7,286200
2405,000000	7,306200
2404,000000	7,326900
2403,000000	7,340100
2402,000000	7,351200
2401,000000	7,376800
2400,000000	7,388400
2399,000000	7,370600
2398,000000	7,386900
2397,000000	7,419800
2396,000000	7,449900
2395,000000	7,479700
2394,000000	7,481400
2393,000000	7,500100
2392,000000	7,526300
2391,000000	7,534000
2390,000000	7,542700
2389,000000	7,564700
2388,000000	7,574700
2387,000000	7,567400
2386,000000	7,576000
2385,000000	7,592500
2384,000000	7,592200
2383,000000	7,592800
2382,000000	7,601600
2381,000000	7,601800
2380,000000	7,603200
2379,000000	7,610000
2378,000000	7,610100
2377,000000	7,611100
2376,000000	7,620500
2375,000000	7,620200
2374,000000	7,608300
2373,000000	7,614600
2372,000000	7,610900
2371,000000	7,590200
2370,000000	7,592500
2369,000000	7,608300
2368,000000	7,588700
2367,000000	7,590800
2366,000000	7,605100
2365,000000	7,599500
2364,000000	7,595700
2363,000000	7,549200
2362,000000	7,526200
2361,000000	7,532500
2360,000000	7,508600
2359,000000	7,486700
2358,000000	7,475300
2357,000000	7,455500
2356,000000	7,437700
2355,000000	7,419300
2354,000000	7,395400
2353,000000	7,392700
2352,000000	7,398500
2351,000000	7,410100
2350,000000	7,404600
2349,000000	7,399200
2348,000000	7,405900
2347,000000	7,420100
2346,000000	7,438400
2345,000000	7,459600
2344,000000	7,480800
2343,000000	7,490200
2342,000000	7,516100
2341,000000	7,538100
2340,000000	7,559100
2339,000000	7,548100
2338,000000	7,572800
2337,000000	7,597300
2336,000000	7,589600
2335,000000	7,612200
2334,000000	7,609600
2333,000000	7,590100
2332,000000	7,593400
2331,000000	7,592200
2330,000000	7,575200
2329,000000	7,567300
2328,000000	7,558900
2327,000000	7,545400
2326,000000	7,530000
2325,000000	7,517600
2324,000000	7,506000
2323,000000	7,485500
2322,000000	7,456500
2321,000000	7,412100
2320,000000	7,377300
2319,000000	7,352400
2318,000000	7,320600
2317,000000	7,268000
2316,000000	7,227400
2315,000000	7,188200
2314,000000	7,147200
2313,000000	7,117000
2312,000000	7,073200
2311,000000	7,032100
2310,000000	6,982700
2309,000000	6,944800
2308,000000	6,926600
2307,000000	6,899900
2306,000000	6,899600
2305,000000	6,883400
2304,000000	6,869300
2303,000000	6,872800
2302,000000	6,885900
2301,000000	6,903000
2300,000000	6,931100
2299,000000	6,935100
2298,000000	6,989500
2297,000000	7,007800
2296,000000	7,034600
2295,000000	7,088700
2294,000000	7,140600
2293,000000	7,164300
2292,000000	7,198600
2291,000000	7,217100
2290,000000	7,243100
2289,000000	7,257500
2288,000000	7,279800
2287,000000	7,294200
2286,000000	7,289700
2285,000000	7,295100
2284,000000	7,306500
2283,000000	7,307800
2282,000000	7,293600
2281,000000	7,285700
2280,000000	7,266300
2279,000000	7,264200
2278,000000	7,234700
2277,000000	7,232300
2276,000000	7,236500
2275,000000	7,215100
2274,000000	7,197200
2273,000000	7,167500
2272,000000	7,185400
2271,000000	7,185600
2270,000000	7,181900
2269,000000	7,180000
2268,000000	7,201700
2267,000000	7,225900
2266,000000	7,265200
2265,000000	7,296300
2264,000000	7,362900
2263,000000	7,410000
2262,000000	7,488400
2261,000000	7,575800
2260,000000	7,662800
2259,000000	7,775600
2258,000000	7,878900
2257,000000	7,961200
2256,000000	8,092700
2255,000000	8,193900
2254,000000	8,335800
2253,000000	8,437000
2252,000000	8,566300
2251,000000	8,673400
2250,000000	8,779000
2249,000000	8,902800
2248,000000	9,010500
2247,000000	9,098300
2246,000000	9,192700
2245,000000	9,308200
2244,000000	9,382300
2243,000000	9,451300
2242,000000	9,516700
2241,000000	9,592800
2240,000000	9,653800
2239,000000	9,709200
2238,000000	9,761500
2237,000000	9,798100
2236,000000	9,866900
2235,000000	9,901700
2234,000000	9,931500
2233,000000	9,963600
2232,000000	10,001500
2231,000000	9,994200
2230,000000	10,013700
2229,000000	10,039700
2228,000000	10,057600
2227,000000	10,051300
2226,000000	10,062700
2225,000000	10,049800
2224,000000	10,040200
2223,000000	10,043400
2222,000000	10,037800
2221,000000	10,030300
2220,000000	10,007400
2219,000000	9,994100
2218,000000	9,955700
2217,000000	9,950000
2216,000000	9,916900
2215,000000	9,923400
2214,000000	9,900800
2213,000000	9,862700
2212,000000	9,841900
2211,000000	9,808600
2210,000000	9,802700
2209,000000	9,786100
2208,000000	9,779700
2207,000000	9,758100
2206,000000	9,744800
2205,000000	9,728500
2204,000000	9,722000
2203,000000	9,717000
2202,000000	9,704800
2201,000000	9,690700
2200,000000	9,671000
2199,000000	9,688500
2198,000000	9,645300
2197,000000	9,631900
2196,000000	9,643700
2195,000000	9,617500
2194,000000	9,625700
2193,000000	9,630600
2192,000000	9,614100
2191,000000	9,599600
2190,000000	9,591800
2189,000000	9,580600
2188,000000	9,584600
2187,000000	9,562700
2186,000000	9,555800
2185,000000	9,554000
2184,000000	9,529300
2183,000000	9,537200
2182,000000	9,491800
2181,000000	9,490800
2180,000000	9,488300
2179,000000	9,482300
2178,000000	9,477400
2177,000000	9,452400
2176,000000	9,436900
2175,000000	9,431100
2174,000000	9,414800
2173,000000	9,422200
2172,000000	9,427000
2171,000000	9,425100
2170,000000	9,422600
2169,000000	9,432100
2168,000000	9,423300
2167,000000	9,423000
2166,000000	9,428700
2165,000000	9,427400
2164,000000	9,439400
2163,000000	9,451200
2162,000000	9,437500
2161,000000	9,478800
2160,000000	9,487100
2159,000000	9,494500
2158,000000	9,519500
2157,000000	9,529600
2156,000000	9,542900
2155,000000	9,572900
2154,000000	9,593000
2153,000000	9,624000
2152,000000	9,642400
2151,000000	9,667100
2150,000000	9,678000
2149,000000	9,696800
2148,000000	9,724900
2147,000000	9,747300
2146,000000	9,782800
2145,000000	9,804500
2144,000000	9,817100
2143,000000	9,853100
2142,000000	9,873000
2141,000000	9,908400
2140,000000	9,922500
2139,000000	9,927000
2138,000000	9,950800
2137,000000	9,964400
2136,000000	9,981400
2135,000000	10,013600
2134,000000	10,024500
2133,000000	10,038400
2132,000000	10,042400
2131,000000	10,066500
2130,000000	10,077400
2129,000000	10,081000
2128,000000	10,103400
2127,000000	10,119800
2126,000000	10,110400
2125,000000	10,109200
2124,000000	10,116000
2123,000000	10,122900
2122,000000	10,117500
2121,000000	10,102700
2120,000000	10,104200
2119,000000	10,105900
2118,000000	10,102100
2117,000000	10,095000
2116,000000	10,091000
2115,000000	10,081600
2114,000000	10,076100
2113,000000	10,067900
2112,000000	10,072000
2111,000000	10,064100
2110,000000	10,037100
2109,000000	10,029800
2108,000000	10,022200
2107,000000	10,005400
2106,000000	9,992900
2105,000000	9,962700
2104,000000	9,956100
2103,000000	9,960100
2102,000000	9,954000
2101,000000	9,926200
2100,000000	9,924700
2099,000000	9,922500
2098,000000	9,893100
2097,000000	9,877000
2096,000000	9,848600
2095,000000	9,847200
2094,000000	9,841600
2093,000000	9,833200
2092,000000	9,824400
2091,000000	9,812100
2090,000000	9,788200
2089,000000	9,773400
2088,000000	9,780400
2087,000000	9,774500
2086,000000	9,759600
2085,000000	9,745800
2084,000000	9,732200
2083,000000	9,721000
2082,000000	9,698000
2081,000000	9,678800
2080,000000	9,652300
2079,000000	9,622000
2078,000000	9,596400
2077,000000	9,578200
2076,000000	9,572800
2075,000000	9,537700
2074,000000	9,503300
2073,000000	9,477200
2072,000000	9,448800
2071,000000	9,412000
2070,000000	9,359000
2069,000000	9,329900
2068,000000	9,306000
2067,000000	9,271100
2066,000000	9,237200
2065,000000	9,202500
2064,000000	9,165500
2063,000000	9,137000
2062,000000	9,105700
2061,000000	9,070700
2060,000000	9,055500
2059,000000	9,045900
2058,000000	9,019900
2057,000000	8,988500
2056,000000	8,973700
2055,000000	8,959600
2054,000000	8,952900
2053,000000	8,948400
2052,000000	8,966700
2051,000000	8,986500
2050,000000	9,007900
2049,000000	9,032500
2048,000000	9,044500
2047,000000	9,054100
2046,000000	9,094900
2045,000000	9,144300
2044,000000	9,164000
2043,000000	9,212700
2042,000000	9,242000
2041,000000	9,280800
2040,000000	9,323700
2039,000000	9,371200
2038,000000	9,402800
2037,000000	9,414900
2036,000000	9,442700
2035,000000	9,471600
2034,000000	9,486200
2033,000000	9,527500
2032,000000	9,538900
2031,000000	9,564900
2030,000000	9,564800
2029,000000	9,576000
2028,000000	9,590500
2027,000000	9,594600
2026,000000	9,619900
2025,000000	9,628800
2024,000000	9,634900
2023,000000	9,627200
2022,000000	9,638500
2021,000000	9,640800
2020,000000	9,636300
2019,000000	9,627500
2018,000000	9,628700
2017,000000	9,620800
2016,000000	9,612400
2015,000000	9,613600
2014,000000	9,602100
2013,000000	9,573800
2012,000000	9,575800
2011,000000	9,549100
2010,000000	9,530900
2009,000000	9,511800
2008,000000	9,502800
2007,000000	9,477800
2006,000000	9,463200
2005,000000	9,440700
2004,000000	9,401500
2003,000000	9,380800
2002,000000	9,344900
2001,000000	9,318300
2000,000000	9,284200
1999,000000	9,245200
1998,000000	9,221200
1997,000000	9,182900
1996,000000	9,138800
1995,000000	9,091200
1994,000000	9,067500
1993,000000	9,014800
1992,000000	8,994600
1991,000000	8,944000
1990,000000	8,897400
1989,000000	8,862900
1988,000000	8,829700
1987,000000	8,773100
1986,000000	8,725900
1985,000000	8,680600
1984,000000	8,643400
1983,000000	8,601300
1982,000000	8,547600
1981,000000	8,517200
1980,000000	8,485800
1979,000000	8,423600
1978,000000	8,390300
1977,000000	8,345600
1976,000000	8,306300
1975,000000	8,258500
1974,000000	8,231100
1973,000000	8,201800
1972,000000	8,146800
1971,000000	8,130400
1970,000000	8,077400
1969,000000	8,013000
1968,000000	7,995400
1967,000000	7,974700
1966,000000	7,930200
1965,000000	7,889600
1964,000000	7,870400
1963,000000	7,820700
1962,000000	7,794200
1961,000000	7,768900
1960,000000	7,709900
1959,000000	7,695700
1958,000000	7,674600
1957,000000	7,640200
1956,000000	7,617300
1955,000000	7,564300
1954,000000	7,543300
1953,000000	7,518000
1952,000000	7,481800
1951,000000	7,453600
1950,000000	7,430100
1949,000000	7,417000
1948,000000	7,370200
1947,000000	7,369500
1946,000000	7,323600
1945,000000	7,318100
1944,000000	7,309400
1943,000000	7,284200
1942,000000	7,256700
1941,000000	7,243200
1940,000000	7,248200
1939,000000	7,235600
1938,000000	7,218900
1937,000000	7,227100
1936,000000	7,216700
1935,000000	7,236000
1934,000000	7,233900
1933,000000	7,230500
1932,000000	7,261300
1931,000000	7,281700
1930,000000	7,302700
1929,000000	7,316200
1928,000000	7,340600
1927,000000	7,375300
1926,000000	7,384300
1925,000000	7,441700
1924,000000	7,474400
1923,000000	7,533000
1922,000000	7,555200
1921,000000	7,612700
1920,000000	7,679600
1919,000000	7,749900
1918,000000	7,801200
1917,000000	7,875200
1916,000000	7,959500
1915,000000	7,992900
1914,000000	8,089900
1913,000000	8,183100
1912,000000	8,277200
1911,000000	8,388400
1910,000000	8,481100
1909,000000	8,572300
1908,000000	8,655000
1907,000000	8,778300
1906,000000	8,914800
1905,000000	9,038400
1904,000000	9,202000
1903,000000	9,350800
1902,000000	9,484700
1901,000000	9,662100
1900,000000	9,831600
1899,000000	10,005600
1898,000000	10,209600
1897,000000	10,428700
1896,000000	10,647500
1895,000000	10,835100
1894,000000	11,034300
1893,000000	11,268200
1892,000000	11,506700
1891,000000	11,806500
1890,000000	12,088400
1889,000000	12,373700
1888,000000	12,682300
1887,000000	13,004100
1886,000000	13,313100
1885,000000	13,671400
1884,000000	14,045300
1883,000000	14,436900
1882,000000	14,824100
1881,000000	15,228100
1880,000000	15,631600
1879,000000	16,017200
1878,000000	16,371600
1877,000000	16,781000
1876,000000	17,153600
1875,000000	17,534500
1874,000000	17,903000
1873,000000	18,284900
1872,000000	18,685300
1871,000000	19,049200
1870,000000	19,430000
1869,000000	19,774100
1868,000000	20,132500
1867,000000	20,383400
1866,000000	20,628900
1865,000000	20,819800
1864,000000	21,007500
1863,000000	21,158200
1862,000000	21,314400
1861,000000	21,518000
1860,000000	21,686000
1859,000000	21,853500
1858,000000	22,036100
1857,000000	22,162400
1856,000000	22,261700
1855,000000	22,346600
1854,000000	22,443600
1853,000000	22,542600
1852,000000	22,594300
1851,000000	22,619100
1850,000000	22,659900
1849,000000	22,670700
1848,000000	22,736400
1847,000000	22,822300
1846,000000	22,869900
1845,000000	22,846500
1844,000000	22,803300
1843,000000	22,758800
1842,000000	22,761100
1841,000000	22,803100
1840,000000	22,836500
1839,000000	22,832600
1838,000000	22,825600
1837,000000	22,788100
1836,000000	22,794800
1835,000000	22,810300
1834,000000	22,773000
1833,000000	22,703600
1832,000000	22,647000
1831,000000	22,603400
1830,000000	22,582700
1829,000000	22,540400
1828,000000	22,500700
1827,000000	22,456800
1826,000000	22,407400
1825,000000	22,374300
1824,000000	22,323600
1823,000000	22,264400
1822,000000	22,222600
1821,000000	22,218200
1820,000000	22,229200
1819,000000	22,216400
1818,000000	22,190500
1817,000000	22,130900
1816,000000	22,102700
1815,000000	22,109200
1814,000000	22,096500
1813,000000	22,070400
1812,000000	22,043500
1811,000000	22,026000
1810,000000	22,000500
1809,000000	21,963600
1808,000000	21,916100
1807,000000	21,879000
1806,000000	21,858100
1805,000000	21,812400
1804,000000	21,762300
1803,000000	21,725500
1802,000000	21,686900
1801,000000	21,644300
1800,000000	21,610100
1799,000000	21,571500
1798,000000	21,516500
1797,000000	21,466900
1796,000000	21,422800
1795,000000	21,390100
1794,000000	21,343800
1793,000000	21,298700
1792,000000	21,260200
1791,000000	21,211400
1790,000000	21,173600
1789,000000	21,126600
1788,000000	21,086600
1787,000000	21,046500
1786,000000	21,008200
1785,000000	20,969400
1784,000000	20,929700
1783,000000	20,872900
1782,000000	20,820000
1781,000000	20,774700
1780,000000	20,716700
1779,000000	20,669200
1778,000000	20,623500
1777,000000	20,577600
1776,000000	20,526900
1775,000000	20,468700
1774,000000	20,408700
1773,000000	20,341300
1772,000000	20,273000
1771,000000	20,202800
1770,000000	20,143400
1769,000000	20,072300
1768,000000	19,996600
1767,000000	19,924400
1766,000000	19,877000
1765,000000	19,831800
1764,000000	19,782100
1763,000000	19,752900
1762,000000	19,742500
1761,000000	19,763000
1760,000000	19,783100
1759,000000	19,802400
1758,000000	19,849800
1757,000000	19,915500
1756,000000	19,961900
1755,000000	20,004900
1754,000000	20,067800
1753,000000	20,113400
1752,000000	20,133300
1751,000000	20,139000
1750,000000	20,152400
1749,000000	20,172000
1748,000000	20,152500
1747,000000	20,122300
1746,000000	20,087600
1745,000000	20,048800
1744,000000	19,999700
1743,000000	19,909500
1742,000000	19,809700
1741,000000	19,725900
1740,000000	19,619200
1739,000000	19,463600
1738,000000	19,346900
1737,000000	19,207800
1736,000000	19,085300
1735,000000	18,970700
1734,000000	18,899900
1733,000000	18,830000
1732,000000	18,802600
1731,000000	18,807300
1730,000000	18,835800
1729,000000	18,870600
1728,000000	18,923500
1727,000000	18,989300
1726,000000	19,044700
1725,000000	19,116700
1724,000000	19,195800
1723,000000	19,242300
1722,000000	19,293400
1721,000000	19,343400
1720,000000	19,418700
1719,000000	19,485100
1718,000000	19,540300
1717,000000	19,614400
1716,000000	19,686000
1715,000000	19,754300
1714,000000	19,856500
1713,000000	19,954900
1712,000000	20,022500
1711,000000	20,080000
1710,000000	20,141700
1709,000000	20,187500
1708,000000	20,210200
1707,000000	20,211800
1706,000000	20,184900
1705,000000	20,176200
1704,000000	20,140200
1703,000000	20,086900
1702,000000	20,016800
1701,000000	19,961100
1700,000000	19,864200
1699,000000	19,763600
1698,000000	19,686100
1697,000000	19,560200
1696,000000	19,464100
1695,000000	19,403200
1694,000000	19,349400
1693,000000	19,346500
1692,000000	19,395000
1691,000000	19,444300
1690,000000	19,545700
1689,000000	19,632600
1688,000000	19,716500
1687,000000	19,795400
1686,000000	19,900500
1685,000000	19,949800
1684,000000	20,029400
1683,000000	20,137700
1682,000000	20,257000
1681,000000	20,469100
1680,000000	20,724300
1679,000000	21,034000
1678,000000	21,390300
1677,000000	21,761700
1676,000000	22,122000
1675,000000	22,444900
1674,000000	22,772600
1673,000000	23,069100
1672,000000	23,298900
1671,000000	23,517700
1670,000000	23,716500
1669,000000	23,868500
1668,000000	24,051500
1667,000000	24,159200
1666,000000	24,264800
1665,000000	24,346100
1664,000000	24,472300
1663,000000	24,539200
1662,000000	24,609600
1661,000000	24,645000
1660,000000	24,707500
1659,000000	24,745900
1658,000000	24,770600
1657,000000	24,811000
1656,000000	24,824900
1655,000000	24,851500
1654,000000	24,839800
1653,000000	24,827300
1652,000000	24,836300
1651,000000	24,820200
1650,000000	24,782900
1649,000000	24,747600
1648,000000	24,721200
1647,000000	24,678100
1646,000000	24,650000
1645,000000	24,612100
1644,000000	24,562800
1643,000000	24,506300
1642,000000	24,470200
1641,000000	24,428200
1640,000000	24,358800
1639,000000	24,306600
1638,000000	24,269300
1637,000000	24,198000
1636,000000	24,163400
1635,000000	24,087100
1634,000000	24,030600
1633,000000	23,962700
1632,000000	23,912500
1631,000000	23,842600
1630,000000	23,775200
1629,000000	23,691300
1628,000000	23,612400
1627,000000	23,541300
1626,000000	23,470000
1625,000000	23,402400
1624,000000	23,329600
1623,000000	23,274400
1622,000000	23,190500
1621,000000	23,133300
1620,000000	23,059200
1619,000000	22,993100
1618,000000	22,923900
1617,000000	22,863100
1616,000000	22,784700
1615,000000	22,722800
1614,000000	22,655300
1613,000000	22,590400
1612,000000	22,536300
1611,000000	22,473000
1610,000000	22,393600
1609,000000	22,327200
1608,000000	22,243900
1607,000000	22,198300
1606,000000	22,137300
1605,000000	22,083200
1604,000000	22,004800
1603,000000	21,918300
1602,000000	21,847900
1601,000000	21,779900
1600,000000	21,725400
1599,000000	21,646200
1598,000000	21,575400
1597,000000	21,500000
1596,000000	21,438100
1595,000000	21,359600
1594,000000	21,328800
1593,000000	21,248000
1592,000000	21,171700
1591,000000	21,104500
1590,000000	21,049600
1589,000000	20,993400
1588,000000	20,944000
1587,000000	20,884500
1586,000000	20,826100
1585,000000	20,766000
1584,000000	20,732100
1583,000000	20,665000
1582,000000	20,596100
1581,000000	20,547400
1580,000000	20,506600
1579,000000	20,468600
1578,000000	20,425500
1577,000000	20,388100
1576,000000	20,346600
1575,000000	20,303900
1574,000000	20,272400
1573,000000	20,237600
1572,000000	20,220500
1571,000000	20,206200
1570,000000	20,177600
1569,000000	20,129200
1568,000000	20,122400
1567,000000	20,118200
1566,000000	20,094400
1565,000000	20,073300
1564,000000	20,060100
1563,000000	20,034300
1562,000000	19,998200
1561,000000	19,988800
1560,000000	19,973300
1559,000000	19,944700
1558,000000	19,919700
1557,000000	19,879600
1556,000000	19,846900
1555,000000	19,798700
1554,000000	19,765700
1553,000000	19,728500
1552,000000	19,680200
1551,000000	19,639200
1550,000000	19,602600
1549,000000	19,552300
1548,000000	19,495500
1547,000000	19,448600
1546,000000	19,404500
1545,000000	19,363500
1544,000000	19,320900
1543,000000	19,274900
1542,000000	19,241400
1541,000000	19,202800
1540,000000	19,166100
1539,000000	19,121200
1538,000000	19,093400
1537,000000	19,061300
1536,000000	19,017900
1535,000000	18,981300
1534,000000	18,943600
1533,000000	18,901000
1532,000000	18,848500
1531,000000	18,799200
1530,000000	18,753500
1529,000000	18,712100
1528,000000	18,660500
1527,000000	18,612900
1526,000000	18,560600
1525,000000	18,503000
1524,000000	18,445600
1523,000000	18,389400
1522,000000	18,329500
1521,000000	18,275700
1520,000000	18,224500
1519,000000	18,156700
1518,000000	18,093800
1517,000000	18,036900
1516,000000	17,981400
1515,000000	17,924600
1514,000000	17,860800
1513,000000	17,803100
1512,000000	17,743200
1511,000000	17,680200
1510,000000	17,611900
1509,000000	17,547800
1508,000000	17,493600
1507,000000	17,423200
1506,000000	17,351500
1505,000000	17,295500
1504,000000	17,232700
1503,000000	17,173400
1502,000000	17,110300
1501,000000	17,040200
1500,000000	16,993700
1499,000000	16,929200
1498,000000	16,863500
1497,000000	16,822700
1496,000000	16,769200
1495,000000	16,711200
1494,000000	16,664500
1493,000000	16,630000
1492,000000	16,600100
1491,000000	16,548100
1490,000000	16,508900
1489,000000	16,474400
1488,000000	16,431600
1487,000000	16,383000
1486,000000	16,345300
1485,000000	16,306300
1484,000000	16,277700
1483,000000	16,257500
1482,000000	16,235400
1481,000000	16,207600
1480,000000	16,176900
1479,000000	16,144400
1478,000000	16,132300
1477,000000	16,112000
1476,000000	16,095800
1475,000000	16,074100
1474,000000	16,054100
1473,000000	16,046400
1472,000000	16,053400
1471,000000	16,047800
1470,000000	16,052400
1469,000000	16,049700
1468,000000	16,031300
1467,000000	16,022300
1466,000000	16,023600
1465,000000	16,039600
1464,000000	16,034600
1463,000000	16,050900
1462,000000	16,062500
1461,000000	16,075100
1460,000000	16,089200
1459,000000	16,138100
1458,000000	16,150100
1457,000000	16,182700
1456,000000	16,232600
1455,000000	16,264500
1454,000000	16,292800
1453,000000	16,348400
1452,000000	16,393200
1451,000000	16,439500
1450,000000	16,493800
1449,000000	16,541800
1448,000000	16,582200
1447,000000	16,641900
1446,000000	16,708500
1445,000000	16,774300
1444,000000	16,838700
1443,000000	16,885300
1442,000000	16,957100
1441,000000	17,032700
1440,000000	17,100700
1439,000000	17,191800
1438,000000	17,272500
1437,000000	17,349200
1436,000000	17,430000
1435,000000	17,522500
1434,000000	17,617000
1433,000000	17,710100
1432,000000	17,821400
1431,000000	17,942400
1430,000000	18,036400
1429,000000	18,147700
1428,000000	18,262100
1427,000000	18,413400
1426,000000	18,556000
1425,000000	18,701700
1424,000000	18,875300
1423,000000	19,032700
1422,000000	19,190200
1421,000000	19,360600
1420,000000	19,539800
1419,000000	19,770200
1418,000000	20,001400
1417,000000	20,196800
1416,000000	20,380100
1415,000000	20,616600
1414,000000	20,885000
1413,000000	21,161800
1412,000000	21,440400
1411,000000	21,662200
1410,000000	21,962000
1409,000000	22,303700
1408,000000	22,646700
1407,000000	23,019100
1406,000000	23,346700
1405,000000	23,734200
1404,000000	24,123800
1403,000000	24,524100
1402,000000	24,891100
1401,000000	25,255200
1400,000000	25,749200
1399,000000	26,243500
1398,000000	26,582900
1397,000000	26,903000
1396,000000	27,317200
1395,000000	27,821300
1394,000000	28,322900
1393,000000	28,674000
1392,000000	29,090200
1391,000000	29,584300
1390,000000	30,073200
1389,000000	30,480400
1388,000000	31,029200
1387,000000	31,653800
1386,000000	32,215500
1385,000000	32,791900
1384,000000	33,349900
1383,000000	33,981200
1382,000000	34,598200
1381,000000	35,245500
1380,000000	35,727200
1379,000000	36,105000
1378,000000	36,445000
1377,000000	36,692500
1376,000000	36,980700
1375,000000	37,222300
1374,000000	37,492100
1373,000000	37,742800
1372,000000	38,039400
1371,000000	38,378300
1370,000000	38,722100
1369,000000	39,048400
1368,000000	39,341900
1367,000000	39,669500
1366,000000	39,908600
1365,000000	40,117000
1364,000000	40,350900
1363,000000	40,529500
1362,000000	40,720500
1361,000000	40,937600
1360,000000	41,151500
1359,000000	41,225000
1358,000000	41,343600
1357,000000	41,451800
1356,000000	41,606800
1355,000000	41,782800
1354,000000	42,062000
1353,000000	42,399200
1352,000000	42,684400
1351,000000	43,094000
1350,000000	43,506100
1349,000000	43,873600
1348,000000	44,215600
1347,000000	44,604300
1346,000000	44,947300
1345,000000	45,295100
1344,000000	45,632100
1343,000000	45,945000
1342,000000	46,261800
1341,000000	46,568900
1340,000000	46,893500
1339,000000	47,204000
1338,000000	47,511500
1337,000000	47,808600
1336,000000	48,134600
1335,000000	48,447100
1334,000000	48,737000
1333,000000	49,027800
1332,000000	49,315500
1331,000000	49,603500
1330,000000	49,878800
1329,000000	50,173100
1328,000000	50,426600
1327,000000	50,677600
1326,000000	50,925300
1325,000000	51,173700
1324,000000	51,414300
1323,000000	51,633100
1322,000000	51,858800
1321,000000	52,069100
1320,000000	52,270300
1319,000000	52,487800
1318,000000	52,676500
1317,000000	52,857300
1316,000000	53,032300
1315,000000	53,217400
1314,000000	53,395700
1313,000000	53,553200
1312,000000	53,707000
1311,000000	53,869300
1310,000000	54,011100
1309,000000	54,138500
1308,000000	54,294000
1307,000000	54,409200
1306,000000	54,517600
1305,000000	54,621200
1304,000000	54,723600
1303,000000	54,817800
1302,000000	54,883100
1301,000000	54,971000
1300,000000	55,050200
1299,000000	55,109200
1298,000000	55,165800
1297,000000	55,229000
1296,000000	55,285100
1295,000000	55,325700
1294,000000	55,369900
1293,000000	55,398500
1292,000000	55,431000
1291,000000	55,451300
1290,000000	55,469000
1289,000000	55,480700
1288,000000	55,485500
1287,000000	55,478700
1286,000000	55,482400
1285,000000	55,455400
1284,000000	55,445400
1283,000000	55,422900
1282,000000	55,399600
1281,000000	55,370800
1280,000000	55,330800
1279,000000	55,306000
1278,000000	55,278600
1277,000000	55,247000
1276,000000	55,219200
1275,000000	55,182400
1274,000000	55,156300
1273,000000	55,131000
1272,000000	55,101900
1271,000000	55,072400
1270,000000	55,052600
1269,000000	55,035400
1268,000000	55,005100
1267,000000	54,976000
1266,000000	54,945600
1265,000000	54,918300
1264,000000	54,888200
1263,000000	54,852500
1262,000000	54,805500
1261,000000	54,765700
1260,000000	54,720800
1259,000000	54,681400
1258,000000	54,639200
1257,000000	54,598600
1256,000000	54,557400
1255,000000	54,503200
1254,000000	54,451100
1253,000000	54,401800
1252,000000	54,350600
1251,000000	54,281000
1250,000000	54,205900
1249,000000	54,138700
1248,000000	54,064500
1247,000000	53,978000
1246,000000	53,880100
1245,000000	53,784400
1244,000000	53,685700
1243,000000	53,582700
1242,000000	53,481800
1241,000000	53,377700
1240,000000	53,278600
1239,000000	53,173200
1238,000000	53,057200
1237,000000	52,950600
1236,000000	52,838300
1235,000000	52,721100
1234,000000	52,603200
1233,000000	52,479800
1232,000000	52,348600
1231,000000	52,226400
1230,000000	52,091900
1229,000000	51,953100
1228,000000	51,806700
1227,000000	51,655100
1226,000000	51,510500
1225,000000	51,357100
1224,000000	51,212800
1223,000000	51,065300
1222,000000	50,905500
1221,000000	50,747100
1220,000000	50,597700
1219,000000	50,452700
1218,000000	50,300100
1217,000000	50,153300
1216,000000	50,012700
1215,000000	49,874400
1214,000000	49,728700
1213,000000	49,580700
1212,000000	49,454500
1211,000000	49,323100
1210,000000	49,189200
1209,000000	49,057100
1208,000000	48,923300
1207,000000	48,807400
1206,000000	48,688700
1205,000000	48,584800
1204,000000	48,492800
1203,000000	48,420600
1202,000000	48,356900
1201,000000	48,286100
1200,000000	48,231400
1199,000000	48,168000
1198,000000	48,094200
1197,000000	47,994900
1196,000000	47,878600
1195,000000	47,747900
1194,000000	47,575400
1193,000000	47,374200
1192,000000	47,122200
1191,000000	46,823000
1190,000000	46,498000
1189,000000	46,177300
1188,000000	45,873400
1187,000000	45,621600
1186,000000	45,456400
1185,000000	45,374000
1184,000000	45,381100
1183,000000	45,490000
1182,000000	45,685900
1181,000000	45,983200
1180,000000	46,348500
1179,000000	46,741900
1178,000000	47,134600
1177,000000	47,520500
1176,000000	47,882500
1175,000000	48,175500
1174,000000	48,456600
1173,000000	48,741400
1172,000000	49,010700
1171,000000	49,276600
1170,000000	49,566000
1169,000000	49,831900
1168,000000	50,111500
1167,000000	50,404200
1166,000000	50,709200
1165,000000	51,026900
1164,000000	51,314500
1163,000000	51,659400
1162,000000	51,999500
1161,000000	52,338700
1160,000000	52,670600
1159,000000	52,993700
1158,000000	53,319500
1157,000000	53,653500
1156,000000	53,964300
1155,000000	54,256200
1154,000000	54,527600
1153,000000	54,768500
1152,000000	54,985700
1151,000000	55,168000
1150,000000	55,334600
1149,000000	55,483100
1148,000000	55,648700
1147,000000	55,809300
1146,000000	55,994100
1145,000000	56,213700
1144,000000	56,471200
1143,000000	56,744000
1142,000000	57,064500
1141,000000	57,439900
1140,000000	57,810400
1139,000000	58,218900
1138,000000	58,632600
1137,000000	59,049500
1136,000000	59,472700
1135,000000	59,945100
1134,000000	60,436000
1133,000000	60,886400
1132,000000	61,266800
1131,000000	61,596700
1130,000000	61,938400
1129,000000	62,229200
1128,000000	62,504100
1127,000000	62,716200
1126,000000	62,891100
1125,000000	63,044100
1124,000000	63,159100
1123,000000	63,271500
1122,000000	63,357300
1121,000000	63,431700
1120,000000	63,489000
1119,000000	63,522100
1118,000000	63,571300
1117,000000	63,595700
1116,000000	63,606800
1115,000000	63,629000
1114,000000	63,644600
1113,000000	63,625400
1112,000000	63,612400
1111,000000	63,630600
1110,000000	63,626600
1109,000000	63,612000
1108,000000	63,631700
1107,000000	63,638200
1106,000000	63,627300
1105,000000	63,634300
1104,000000	63,623000
1103,000000	63,629900
1102,000000	63,620100
1101,000000	63,620800
1100,000000	63,609800
1099,000000	63,614000
1098,000000	63,604700
1097,000000	63,602100
1096,000000	63,584600
1095,000000	63,576400
1094,000000	63,537000
1093,000000	63,525700
1092,000000	63,515500
1091,000000	63,470900
1090,000000	63,404200
1089,000000	63,410400
1088,000000	63,382300
1087,000000	63,334200
1086,000000	63,302100
1085,000000	63,248700
1084,000000	63,213600
1083,000000	63,189100
1082,000000	63,139300
1081,000000	63,089000
1080,000000	63,043100
1079,000000	62,995700
1078,000000	62,953500
1077,000000	62,909500
1076,000000	62,847800
1075,000000	62,815500
1074,000000	62,749600
1073,000000	62,701700
1072,000000	62,654700
1071,000000	62,578900
1070,000000	62,538700
1069,000000	62,480300
1068,000000	62,429300
1067,000000	62,375800
1066,000000	62,321600
1065,000000	62,250000
1064,000000	62,196700
1063,000000	62,134600
1062,000000	62,070500
1061,000000	62,006400
1060,000000	61,948100
1059,000000	61,864000
1058,000000	61,787400
1057,000000	61,719300
1056,000000	61,660900
1055,000000	61,581200
1054,000000	61,509700
1053,000000	61,440900
1052,000000	61,357600
1051,000000	61,286700
1050,000000	61,228900
1049,000000	61,175500
1048,000000	61,089900
1047,000000	61,006500
1046,000000	60,966800
1045,000000	60,896200
1044,000000	60,831000
1043,000000	60,759000
1042,000000	60,697800
1041,000000	60,645900
1040,000000	60,566900
1039,000000	60,494300
1038,000000	60,441700
1037,000000	60,368600
1036,000000	60,304700
1035,000000	60,211900
1034,000000	60,145700
1033,000000	60,073100
1032,000000	59,986200
1031,000000	59,890600
1030,000000	59,833100
1029,000000	59,747600
1028,000000	59,661300
1027,000000	59,585200
1026,000000	59,490500
1025,000000	59,393800
1024,000000	59,314400
1023,000000	59,231100
1022,000000	59,136900
1021,000000	59,053900
1020,000000	58,972400
1019,000000	58,876600
1018,000000	58,792800
1017,000000	58,721400
1016,000000	58,635500
1015,000000	58,570800
1014,000000	58,507900
1013,000000	58,441000
1012,000000	58,379800
1011,000000	58,334900
1010,000000	58,295400
1009,000000	58,254400
1008,000000	58,214500
1007,000000	58,180900
1006,000000	58,134200
1005,000000	58,120900
1004,000000	58,074600
1003,000000	58,036400
1002,000000	58,009800
1001,000000	57,981900
1000,000000	57,950400
999,000000	57,917400
998,000000	57,893200
997,000000	57,862400
996,000000	57,838100
995,000000	57,814800
994,000000	57,785700
993,000000	57,762300
992,000000	57,743000
991,000000	57,733900
990,000000	57,721900
989,000000	57,697800
988,000000	57,685200
987,000000	57,675600
986,000000	57,673000
985,000000	57,658700
984,000000	57,649800
983,000000	57,644000
982,000000	57,648700
981,000000	57,659500
980,000000	57,666500
979,000000	57,659900
978,000000	57,645800
977,000000	57,650800
976,000000	57,646300
975,000000	57,665200
974,000000	57,676700
973,000000	57,670100
972,000000	57,690300
971,000000	57,709300
970,000000	57,708400
969,000000	57,699200
968,000000	57,707800
967,000000	57,725300
966,000000	57,736200
965,000000	57,756700
964,000000	57,784400
963,000000	57,790100
962,000000	57,795400
961,000000	57,811600
960,000000	57,836700
959,000000	57,868700
958,000000	57,877900
957,000000	57,907400
956,000000	57,943800
955,000000	57,966200
954,000000	57,988100
953,000000	58,004500
952,000000	58,027300
951,000000	58,057800
950,000000	58,084600
949,000000	58,117800
948,000000	58,136300
947,000000	58,139700
946,000000	58,161300
945,000000	58,175100
944,000000	58,162100
943,000000	58,152200
942,000000	58,167500
941,000000	58,158700
940,000000	58,116500
939,000000	58,082500
938,000000	58,079400
937,000000	58,065600
936,000000	58,033500
935,000000	58,012400
934,000000	57,987200
933,000000	57,969400
932,000000	57,937200
931,000000	57,879200
930,000000	57,828500
929,000000	57,809200
928,000000	57,750300
927,000000	57,683700
926,000000	57,645900
925,000000	57,584500
924,000000	57,546600
923,000000	57,501300
922,000000	57,434600
921,000000	57,361400
920,000000	57,287900
919,000000	57,216300
918,000000	57,147600
917,000000	57,072800
916,000000	56,988000
915,000000	56,907000
914,000000	56,859600
913,000000	56,787400
912,000000	56,693400
911,000000	56,592900
910,000000	56,500900
909,000000	56,426800
908,000000	56,353900
907,000000	56,277800
906,000000	56,199400
905,000000	56,126000
904,000000	56,075900
903,000000	56,024400
902,000000	55,966400
901,000000	55,911100
900,000000	55,874600
899,000000	55,821400
898,000000	55,763100
897,000000	55,718000
896,000000	55,671200
895,000000	55,665700
894,000000	55,663900
893,000000	55,652900
892,000000	55,661300
891,000000	55,651700
890,000000	55,637300
889,000000	55,627500
888,000000	55,581600
887,000000	55,567100
886,000000	55,534900
885,000000	55,509500
884,000000	55,495300
883,000000	55,463600
882,000000	55,418600
881,000000	55,384300
880,000000	55,350300
879,000000	55,295300
878,000000	55,259700
877,000000	55,222500
876,000000	55,192300
875,000000	55,150900
874,000000	55,080900
873,000000	55,029500
872,000000	54,997600
871,000000	54,959500
870,000000	54,916500
869,000000	54,863300
868,000000	54,828200
867,000000	54,753100
866,000000	54,706200
865,000000	54,651300
864,000000	54,612800
863,000000	54,553100
862,000000	54,502700
861,000000	54,433700
860,000000	54,395600
859,000000	54,338200
858,000000	54,272000
857,000000	56,155400
856,000000	56,726800
855,000000	57,376400
854,000000	56,292100
853,000000	56,656700
852,000000	56,667200
851,000000	56,140900
850,000000	56,730200
849,000000	56,832800
848,000000	56,487400
847,000000	55,969100
846,000000	55,950800
845,000000	55,914200
844,000000	55,847400
843,000000	55,633700
842,000000	55,683800
841,000000	55,859300
840,000000	55,388400
839,000000	55,323900
838,000000	55,505200
837,000000	55,275700
836,000000	55,168600
835,000000	55,220900
834,000000	54,852900
833,000000	55,041600
832,000000	54,781100
831,000000	54,199000
830,000000	54,016200
829,000000	54,229400
828,000000	54,313500
827,000000	54,232200
826,000000	53,825300
825,000000	53,754300
824,000000	54,077800
823,000000	53,829100
822,000000	53,475100
821,000000	53,066200
820,000000	53,297000
819,000000	52,883600
818,000000	52,840500
817,000000	52,639800
816,000000	52,453300
815,000000	52,859700
814,000000	52,438700
813,000000	52,270400
812,000000	52,176900
811,000000	52,144400
810,000000	51,770900
809,000000	52,092200
808,000000	51,442500
807,000000	51,588500
806,000000	51,582700
805,000000	51,227800
804,000000	50,847300
803,000000	50,873900
802,000000	50,963900
801,000000	50,465400
800,000000	50,378100
799,000000	50,378900
798,000000	50,132700
797,000000	49,891900
796,000000	49,849900
795,000000	49,647400
794,000000	49,475400
793,000000	49,534900
792,000000	49,475300
791,000000	49,296900
790,000000	48,969700
789,000000	48,867400
788,000000	49,049700
787,000000	48,804200
786,000000	48,367000
785,000000	48,114200
784,000000	48,313700
783,000000	48,060800
782,000000	48,092000
781,000000	47,570700
780,000000	47,632300
779,000000	47,541200
778,000000	47,248100
777,000000	47,122700
776,000000	47,052400
775,000000	46,752700
774,000000	46,743900
773,000000	46,651600
772,000000	46,391600
771,000000	46,217400
770,000000	46,183500
769,000000	45,981400
768,000000	45,822700
767,000000	45,818200
766,000000	45,705900
765,000000	45,380500
764,000000	45,250300
763,000000	45,137800
762,000000	44,975800
761,000000	44,851700
760,000000	44,689000
759,000000	44,438500
758,000000	44,199100
757,000000	44,235500
756,000000	44,029700
755,000000	43,972200
754,000000	43,768200
753,000000	43,605400
752,000000	43,435000
751,000000	43,197300
750,000000	43,127600
749,000000	42,945300
748,000000	42,849500
747,000000	42,725600
746,000000	42,621500
745,000000	42,425600
744,000000	42,184800
743,000000	42,076000
742,000000	41,917500
741,000000	41,564700
740,000000	41,511700
739,000000	41,341200
738,000000	41,215700
737,000000	40,998600
736,000000	40,931700
735,000000	40,796900
734,000000	40,611500
733,000000	40,430200
732,000000	40,264000
731,000000	40,083900
730,000000	39,991300
729,000000	39,876900
728,000000	39,585700
727,000000	39,574000
726,000000	39,380200
725,000000	39,121600
724,000000	38,921400
723,000000	38,753800
722,000000	38,549500
721,000000	38,444700
720,000000	38,161300
719,000000	37,979400
718,000000	37,761200
717,000000	37,601700
716,000000	37,453600
715,000000	37,227900
714,000000	37,108800
713,000000	37,009400
712,000000	36,829100
711,000000	36,560600
710,000000	36,438000
709,000000	36,243800
708,000000	35,967900
707,000000	35,738100
706,000000	35,593300
705,000000	35,397900
704,000000	35,157000
703,000000	34,941400
702,000000	34,712300
701,000000	34,513000
700,000000	34,347400
699,000000	34,146200
698,000000	33,940300
697,000000	33,686500
696,000000	33,530900
695,000000	33,366200
694,000000	33,099300
693,000000	32,898500
692,000000	32,621100
691,000000	32,432600
690,000000	32,219000
689,000000	32,004400
688,000000	31,786500
687,000000	31,506300
686,000000	31,305000
685,000000	31,079600
684,000000	30,944000
683,000000	30,772600
682,000000	30,533200
681,000000	30,317200
680,000000	30,130500
679,000000	29,927400
678,000000	29,718500
677,000000	29,493300
676,000000	29,310400
675,000000	29,084800
674,000000	28,849100
673,000000	28,698000
672,000000	28,514700
671,000000	28,302400
670,000000	28,092500
669,000000	27,938900
668,000000	27,801500
667,000000	27,614300
666,000000	27,428200
665,000000	27,304900
664,000000	27,157400
663,000000	26,994100
662,000000	26,792500
661,000000	26,604500
660,000000	26,450600
659,000000	26,267100
658,000000	26,083600
657,000000	25,921600
656,000000	25,783200
655,000000	25,684900
654,000000	25,549000
653,000000	25,377400
652,000000	25,212800
651,000000	25,074800
650,000000	24,949100
649,000000	24,809500
648,000000	24,692800
647,000000	24,543400
646,000000	24,393300
645,000000	24,304400
644,000000	24,178100
643,000000	24,057200
642,000000	23,956900
641,000000	23,824200
640,000000	23,722700
639,000000	23,616200
638,000000	23,511700
637,000000	23,419600
636,000000	23,321900
635,000000	23,257600
634,000000	23,158700
633,000000	23,018500
632,000000	22,930300
631,000000	22,856000
630,000000	22,739600
629,000000	22,638000
628,000000	22,549000
627,000000	22,474800
626,000000	22,400100
625,000000	22,305700
624,000000	22,223900
623,000000	22,161000
622,000000	22,104000
621,000000	22,030000
620,000000	21,979300
619,000000	21,899600
618,000000	21,804700
617,000000	21,756100
616,000000	21,671000
615,000000	21,617700
614,000000	21,559000
613,000000	21,513300
612,000000	21,470200
611,000000	21,393900
610,000000	21,313400
609,000000	21,262400
608,000000	21,203100
607,000000	21,140100
606,000000	21,063200
605,000000	21,024700
604,000000	21,011600
603,000000	20,957500
602,000000	20,904900
601,000000	20,900800
600,000000	20,810700
599,000000	20,736300
598,000000	20,693500
597,000000	20,654600
596,000000	20,619400
595,000000	20,564800
594,000000	20,506100
593,000000	20,446200
592,000000	20,395300
591,000000	20,349500
590,000000	20,285900
589,000000	20,232400
588,000000	20,200300
587,000000	20,110900
586,000000	20,086700
585,000000	20,035300
584,000000	19,963700
583,000000	19,925700
582,000000	19,883300
581,000000	19,813800
580,000000	19,723600
579,000000	19,687000
578,000000	19,640400
577,000000	19,585000
576,000000	19,520100
575,000000	19,439600
574,000000	19,399300
573,000000	19,301500
572,000000	19,246700
571,000000	19,198900
570,000000	19,123300
569,000000	19,055000
568,000000	18,987400
567,000000	18,908000
566,000000	18,841300
565,000000	18,766200
564,000000	18,692400
563,000000	18,603600
562,000000	18,537300
561,000000	18,440800
560,000000	18,350200
559,000000	18,224700
558,000000	18,124300
557,000000	18,059700
556,000000	17,969100
555,000000	17,863900
554,000000	17,768500
553,000000	17,661400
552,000000	17,581500
551,000000	17,461100
550,000000	17,349900
549,000000	17,228500
548,000000	17,139600
547,000000	17,029700
546,000000	16,937300
545,000000	16,821000
544,000000	16,700600
543,000000	16,582500
542,000000	16,429000
541,000000	16,323000
540,000000	16,188900
539,000000	16,059300
538,000000	15,933400
537,000000	15,797800
536,000000	15,677200
535,000000	15,545200
534,000000	15,390800
533,000000	15,243000
532,000000	15,113700
531,000000	14,982000
530,000000	14,824400
529,000000	14,678200
528,000000	14,538500
527,000000	14,401900
526,000000	14,245700
525,000000	14,073900
524,000000	13,913500
523,000000	13,755000
522,000000	13,604200
521,000000	13,450500
520,000000	13,300200
519,000000	13,144300
518,000000	12,968400
517,000000	12,795300
516,000000	12,652200
515,000000	12,478500
514,000000	12,337500
513,000000	12,198400
512,000000	12,048400
511,000000	11,857700
510,000000	11,722700
509,000000	11,583100
508,000000	11,477800
507,000000	11,326900
506,000000	11,186300
505,000000	11,043000
504,000000	10,959100
503,000000	10,829600
502,000000	10,706200
501,000000	10,560400
500,000000	10,486000
499,000000	10,359400
498,000000	10,242800
497,000000	10,154900
496,000000	10,053600
495,000000	9,963700
494,000000	9,903400
493,000000	9,777900
492,000000	9,722900
491,000000	9,642900
490,000000	9,535200
489,000000	9,476100
488,000000	9,399900
487,000000	9,332600
486,000000	9,254400
485,000000	9,192700
484,000000	9,137200
483,000000	9,085100
482,000000	9,006000
481,000000	8,932300
480,000000	8,853900
479,000000	8,815400
478,000000	8,740300
477,000000	8,667000
476,000000	8,600500
475,000000	8,556200
474,000000	8,499600
473,000000	8,434300
472,000000	8,361600
471,000000	8,317500
470,000000	8,229400
469,000000	8,181100
468,000000	8,130300
467,000000	8,089000
466,000000	8,039100
465,000000	8,013400
464,000000	7,970300
463,000000	7,915300
462,000000	7,857700
461,000000	7,842900
460,000000	7,780000
459,000000	7,768400
458,000000	7,724200
457,000000	7,715800
456,000000	7,628100
455,000000	7,636300
454,000000	7,589800
453,000000	7,548100
452,000000	7,523100
451,000000	7,505100
450,000000	7,473100
449,000000	7,428100
448,000000	7,417400
447,000000	7,372900
446,000000	7,337200
445,000000	7,303700
444,000000	7,262000
443,000000	7,253600
442,000000	7,217300
441,000000	7,168600
440,000000	7,150900
439,000000	7,100300
438,000000	7,087900
437,000000	7,040200
436,000000	7,028600
435,000000	6,998500
434,000000	6,951400
433,000000	6,910000
432,000000	6,888200
431,000000	6,855700
430,000000	6,842800
429,000000	6,765300
428,000000	6,756500
427,000000	6,722800
426,000000	6,704400
425,000000	6,689700
424,000000	6,648400
423,000000	6,592700
422,000000	6,607400
421,000000	6,567400
420,000000	6,523700
419,000000	6,508600
418,000000	6,471100
417,000000	6,447000
416,000000	6,388000
415,000000	6,363400
414,000000	6,324800
413,000000	6,305700
412,000000	6,259500
411,000000	6,229700
410,000000	6,203800
409,000000	6,140300
408,000000	6,108500
407,000000	6,092100
406,000000	6,022300
405,000000	5,991000
404,000000	5,961900
403,000000	5,929000
402,000000	5,892300
401,000000	5,845700
400,000000	5,791300
399,000000	5,735600
398,000000	5,698800
397,000000	5,646500
396,000000	5,606700
395,000000	5,564100
394,000000	5,529900
393,000000	5,484400
392,000000	5,436600
391,000000	5,381800
390,000000	5,325000
389,000000	5,263700
388,000000	5,188500
387,000000	5,137000
386,000000	5,108500
385,000000	5,063500
384,000000	5,006900
383,000000	4,953300
382,000000	4,953000
381,000000	4,959000
380,000000	4,877800
379,000000	4,827500
378,000000	4,761400
377,000000	4,723300
376,000000	4,725000
375,000000	4,587600
374,000000	4,393900
373,000000	4,559000
372,000000	4,193700
371,000000	4,081800
370,000000	4,202500
369,000000	4,053300
368,000000	4,174000
367,000000	4,211500
366,000000	4,164600
365,000000	3,943300
364,000000	4,111300
363,000000	4,286300
362,000000	4,286000
361,000000	3,967900
360,000000	4,054100
359,000000	4,109800
358,000000	4,162600
357,000000	4,338900
356,000000	4,227400
355,000000	4,196400
354,000000	4,331400
353,000000	4,057200
352,000000	4,218500
351,000000	4,103000
350,000000	4,051800
349,000000	4,339000
348,000000	4,022100
347,000000	3,855000
346,000000	3,895200
345,000000	3,985400
344,000000	4,306800
343,000000	3,865000
342,000000	3,794400
341,000000	4,142500
340,000000	4,075300
339,000000	4,331300
338,000000	4,212700
337,000000	3,723400
336,000000	3,901600
335,000000	4,291800
334,000000	3,968500
333,000000	3,854700
332,000000	4,028600
331,000000	4,396600
330,000000	4,411900
329,000000	4,000900
328,000000	4,527700
327,000000	4,527400
326,000000	4,081900
325,000000	4,133700
324,000000	4,506500
323,000000	4,061500
322,000000	4,129600
321,000000	4,663200
320,000000	4,356700
319,000000	4,641900
318,000000	4,639800
317,000000	4,473900
316,000000	4,179200
315,000000	3,923500
314,000000	3,969300
313,000000	3,984800
312,000000	3,963900
311,000000	3,911800
310,000000	3,961000
309,000000	4,006200
308,000000	4,023300
307,000000	4,001000
306,000000	3,942900
305,000000	3,948300
304,000000	3,940900
303,000000	3,971400
302,000000	4,060200
301,000000	4,127300
300,000000	4,056500
299,000000	4,042300
298,000000	4,068500
297,000000	4,007900
296,000000	3,969100
295,000000	3,948400
294,000000	4,016300
293,000000	4,125900
292,000000	4,092100
291,000000	4,035700
290,000000	4,013800
289,000000	4,021400
288,000000	3,997000
287,000000	3,972200
286,000000	4,054900
285,000000	4,007000
284,000000	4,013500
283,000000	4,048500
282,000000	4,082600
281,000000	4,064200
280,000000	4,123500
279,000000	4,112000
278,000000	4,060700
277,000000	4,095100
276,000000	4,126100
275,000000	4,042000
274,000000	4,090000
273,000000	4,149500
272,000000	4,160400
271,000000	4,148900
270,000000	4,142000
269,000000	4,195700
268,000000	4,196500
267,000000	4,136400
266,000000	4,109400
265,000000	4,172800
264,000000	4,329700
263,000000	4,345600
262,000000	4,304800
261,000000	4,324100
260,000000	4,335700
259,000000	4,301300
258,000000	4,291900
257,000000	4,257100
256,000000	4,318800
255,000000	4,375200
254,000000	4,355100
253,000000	4,372200
252,000000	4,392100
251,000000	4,379900
250,000000	4,395200
