PE UV       SUBTECH     SPECTRUM    ASCII       PEDS        4.00        
   -1
CICIMAUCR0234-3.Sample.ASC
24/06/19
15:05:53.00
24/06/19
15:05:53.00
Vinicio Soto Monge
C. resplendens. Sex M. Ventral 
250,000000
1
Lambda 1050
1050L1511233
PerkinElmer UV WinLab 6.3.2.0749 / 2.02.05 Lambda 900 UV/VIS/NIR, Aug  7 2015 09:38:08

0
0
3350/servo 860,8/2
0
0
UV/VIS
1
1
1
DoubleDePol,CommonBeamDepol,RBeamAtt,SBeamAtt,60mm sphere, WB InGaAs Detector
0
0
0
0
Program
Program
3350/servo 860,8/2
3350/0,2 860,8/0,2
3350/0,2 860,8/0,2
0
15.00
 
 
 
0
 
860,8
319,2
860,8
Front
100
on
S:100 R:100
0
0
0
0
 
0
 
 
 
0
 
 
0
0
0
0
0
 
 
 
 
0
0


0
0
#HDR
-1
-1
#GR
nm
%R
1.0
0.0
2500,000000
-1,000000
2251
8
62,610300
4,484000
#DATA
2500,000000	7,571000
2499,000000	7,585900
2498,000000	7,527800
2497,000000	7,500400
2496,000000	7,402600
2495,000000	7,397900
2494,000000	7,393700
2493,000000	7,248400
2492,000000	7,385000
2491,000000	7,327400
2490,000000	7,298700
2489,000000	7,369400
2488,000000	7,261500
2487,000000	7,299500
2486,000000	7,336800
2485,000000	7,180500
2484,000000	7,208500
2483,000000	7,293100
2482,000000	7,294100
2481,000000	7,245100
2480,000000	7,197600
2479,000000	7,215500
2478,000000	7,236300
2477,000000	7,207800
2476,000000	7,276400
2475,000000	7,253300
2474,000000	7,213500
2473,000000	7,262700
2472,000000	7,230600
2471,000000	7,231900
2470,000000	7,252900
2469,000000	7,268500
2468,000000	7,216200
2467,000000	7,237800
2466,000000	7,258000
2465,000000	7,303900
2464,000000	7,309300
2463,000000	7,311500
2462,000000	7,324500
2461,000000	7,365100
2460,000000	7,368800
2459,000000	7,380600
2458,000000	7,432800
2457,000000	7,459500
2456,000000	7,486700
2455,000000	7,523500
2454,000000	7,586900
2453,000000	7,592800
2452,000000	7,614700
2451,000000	7,638200
2450,000000	7,703800
2449,000000	7,761200
2448,000000	7,779900
2447,000000	7,824800
2446,000000	7,870200
2445,000000	7,938800
2444,000000	7,955200
2443,000000	7,974300
2442,000000	8,041900
2441,000000	8,093200
2440,000000	8,144000
2439,000000	8,163200
2438,000000	8,206400
2437,000000	8,270000
2436,000000	8,300300
2435,000000	8,341500
2434,000000	8,384500
2433,000000	8,408300
2432,000000	8,455800
2431,000000	8,486800
2430,000000	8,519500
2429,000000	8,555300
2428,000000	8,573300
2427,000000	8,621700
2426,000000	8,646000
2425,000000	8,667900
2424,000000	8,697200
2423,000000	8,733600
2422,000000	8,760400
2421,000000	8,791600
2420,000000	8,820800
2419,000000	8,852600
2418,000000	8,883300
2417,000000	8,899000
2416,000000	8,935400
2415,000000	8,944800
2414,000000	8,975600
2413,000000	8,997300
2412,000000	9,019600
2411,000000	9,042200
2410,000000	9,058500
2409,000000	9,090000
2408,000000	9,115400
2407,000000	9,122400
2406,000000	9,156900
2405,000000	9,185400
2404,000000	9,183900
2403,000000	9,208100
2402,000000	9,231700
2401,000000	9,264500
2400,000000	9,279400
2399,000000	9,302200
2398,000000	9,321800
2397,000000	9,329000
2396,000000	9,347800
2395,000000	9,365800
2394,000000	9,379400
2393,000000	9,403100
2392,000000	9,414400
2391,000000	9,431500
2390,000000	9,439800
2389,000000	9,455200
2388,000000	9,470900
2387,000000	9,481600
2386,000000	9,495600
2385,000000	9,502100
2384,000000	9,493300
2383,000000	9,496800
2382,000000	9,509800
2381,000000	9,503900
2380,000000	9,500400
2379,000000	9,504200
2378,000000	9,500100
2377,000000	9,488400
2376,000000	9,494100
2375,000000	9,493500
2374,000000	9,474300
2373,000000	9,455000
2372,000000	9,442100
2371,000000	9,430000
2370,000000	9,430600
2369,000000	9,415900
2368,000000	9,387300
2367,000000	9,363600
2366,000000	9,343000
2365,000000	9,329900
2364,000000	9,310100
2363,000000	9,279400
2362,000000	9,263900
2361,000000	9,245300
2360,000000	9,211600
2359,000000	9,187200
2358,000000	9,171300
2357,000000	9,147800
2356,000000	9,110900
2355,000000	9,094400
2354,000000	9,094500
2353,000000	9,083900
2352,000000	9,082500
2351,000000	9,069500
2350,000000	9,075200
2349,000000	9,087800
2348,000000	9,088000
2347,000000	9,111600
2346,000000	9,121700
2345,000000	9,134900
2344,000000	9,170500
2343,000000	9,192000
2342,000000	9,204700
2341,000000	9,226100
2340,000000	9,239700
2339,000000	9,247600
2338,000000	9,252300
2337,000000	9,267900
2336,000000	9,270700
2335,000000	9,261400
2334,000000	9,267800
2333,000000	9,253000
2332,000000	9,243300
2331,000000	9,241100
2330,000000	9,236500
2329,000000	9,208900
2328,000000	9,178600
2327,000000	9,151300
2326,000000	9,132700
2325,000000	9,100900
2324,000000	9,072800
2323,000000	9,036700
2322,000000	8,985800
2321,000000	8,932800
2320,000000	8,886300
2319,000000	8,847300
2318,000000	8,783600
2317,000000	8,731300
2316,000000	8,681900
2315,000000	8,622700
2314,000000	8,558800
2313,000000	8,497300
2312,000000	8,445500
2311,000000	8,397700
2310,000000	8,367000
2309,000000	8,322000
2308,000000	8,282700
2307,000000	8,255300
2306,000000	8,258200
2305,000000	8,238500
2304,000000	8,226900
2303,000000	8,251000
2302,000000	8,273800
2301,000000	8,295900
2300,000000	8,325300
2299,000000	8,352800
2298,000000	8,389800
2297,000000	8,431700
2296,000000	8,484700
2295,000000	8,537900
2294,000000	8,568900
2293,000000	8,603900
2292,000000	8,643000
2291,000000	8,674800
2290,000000	8,691600
2289,000000	8,698400
2288,000000	8,729400
2287,000000	8,759800
2286,000000	8,754000
2285,000000	8,748000
2284,000000	8,731900
2283,000000	8,715000
2282,000000	8,697500
2281,000000	8,685400
2280,000000	8,659700
2279,000000	8,655700
2278,000000	8,624500
2277,000000	8,602400
2276,000000	8,576300
2275,000000	8,555700
2274,000000	8,529000
2273,000000	8,530200
2272,000000	8,517800
2271,000000	8,508200
2270,000000	8,507200
2269,000000	8,518500
2268,000000	8,548600
2267,000000	8,591400
2266,000000	8,638900
2265,000000	8,696300
2264,000000	8,768300
2263,000000	8,847800
2262,000000	8,946000
2261,000000	9,039500
2260,000000	9,160900
2259,000000	9,269000
2258,000000	9,407000
2257,000000	9,545900
2256,000000	9,679400
2255,000000	9,813700
2254,000000	9,979900
2253,000000	10,124000
2252,000000	10,264700
2251,000000	10,406500
2250,000000	10,544200
2249,000000	10,663900
2248,000000	10,780900
2247,000000	10,895600
2246,000000	11,037000
2245,000000	11,134100
2244,000000	11,241300
2243,000000	11,316400
2242,000000	11,402800
2241,000000	11,483700
2240,000000	11,555600
2239,000000	11,635900
2238,000000	11,677600
2237,000000	11,724000
2236,000000	11,800200
2235,000000	11,837200
2234,000000	11,866500
2233,000000	11,917000
2232,000000	11,923000
2231,000000	11,960800
2230,000000	11,977700
2229,000000	11,984800
2228,000000	12,000500
2227,000000	11,990600
2226,000000	12,006100
2225,000000	11,988800
2224,000000	11,980600
2223,000000	11,954300
2222,000000	11,942200
2221,000000	11,912000
2220,000000	11,887800
2219,000000	11,878500
2218,000000	11,838400
2217,000000	11,821700
2216,000000	11,797700
2215,000000	11,786800
2214,000000	11,761700
2213,000000	11,713600
2212,000000	11,677000
2211,000000	11,670300
2210,000000	11,648500
2209,000000	11,624500
2208,000000	11,614300
2207,000000	11,593700
2206,000000	11,562200
2205,000000	11,564900
2204,000000	11,534800
2203,000000	11,519900
2202,000000	11,506700
2201,000000	11,513100
2200,000000	11,511000
2199,000000	11,466700
2198,000000	11,476000
2197,000000	11,467700
2196,000000	11,454300
2195,000000	11,445500
2194,000000	11,427800
2193,000000	11,433100
2192,000000	11,422100
2191,000000	11,419800
2190,000000	11,387400
2189,000000	11,403800
2188,000000	11,389100
2187,000000	11,382800
2186,000000	11,362000
2185,000000	11,382300
2184,000000	11,356800
2183,000000	11,339800
2182,000000	11,339100
2181,000000	11,326100
2180,000000	11,314500
2179,000000	11,290300
2178,000000	11,288200
2177,000000	11,287800
2176,000000	11,277600
2175,000000	11,292800
2174,000000	11,275900
2173,000000	11,277700
2172,000000	11,277200
2171,000000	11,277000
2170,000000	11,285100
2169,000000	11,296400
2168,000000	11,291700
2167,000000	11,298000
2166,000000	11,323200
2165,000000	11,323100
2164,000000	11,336100
2163,000000	11,357500
2162,000000	11,369900
2161,000000	11,386800
2160,000000	11,402000
2159,000000	11,444300
2158,000000	11,457100
2157,000000	11,484200
2156,000000	11,517700
2155,000000	11,546000
2154,000000	11,584300
2153,000000	11,612300
2152,000000	11,649300
2151,000000	11,686500
2150,000000	11,721600
2149,000000	11,743200
2148,000000	11,768900
2147,000000	11,805300
2146,000000	11,839100
2145,000000	11,877000
2144,000000	11,903800
2143,000000	11,946600
2142,000000	11,986500
2141,000000	12,014300
2140,000000	12,037100
2139,000000	12,061100
2138,000000	12,064700
2137,000000	12,105100
2136,000000	12,155200
2135,000000	12,184400
2134,000000	12,205500
2133,000000	12,222700
2132,000000	12,239400
2131,000000	12,254400
2130,000000	12,265000
2129,000000	12,276400
2128,000000	12,273600
2127,000000	12,276900
2126,000000	12,290400
2125,000000	12,297600
2124,000000	12,296100
2123,000000	12,288600
2122,000000	12,291400
2121,000000	12,295000
2120,000000	12,287600
2119,000000	12,280400
2118,000000	12,268600
2117,000000	12,255000
2116,000000	12,249800
2115,000000	12,235400
2114,000000	12,217300
2113,000000	12,207700
2112,000000	12,208400
2111,000000	12,180800
2110,000000	12,157400
2109,000000	12,148800
2108,000000	12,137500
2107,000000	12,119100
2106,000000	12,100400
2105,000000	12,077300
2104,000000	12,074600
2103,000000	12,052500
2102,000000	12,028200
2101,000000	12,019900
2100,000000	12,001000
2099,000000	11,985800
2098,000000	11,959400
2097,000000	11,945700
2096,000000	11,924800
2095,000000	11,907400
2094,000000	11,907700
2093,000000	11,887300
2092,000000	11,882500
2091,000000	11,865100
2090,000000	11,843000
2089,000000	11,842900
2088,000000	11,825600
2087,000000	11,809100
2086,000000	11,802500
2085,000000	11,778900
2084,000000	11,752800
2083,000000	11,739500
2082,000000	11,725800
2081,000000	11,707500
2080,000000	11,684300
2079,000000	11,651200
2078,000000	11,607900
2077,000000	11,575200
2076,000000	11,550700
2075,000000	11,513600
2074,000000	11,478000
2073,000000	11,446100
2072,000000	11,397300
2071,000000	11,370500
2070,000000	11,336000
2069,000000	11,292900
2068,000000	11,258700
2067,000000	11,205700
2066,000000	11,161800
2065,000000	11,120200
2064,000000	11,085900
2063,000000	11,049400
2062,000000	11,021000
2061,000000	10,983400
2060,000000	10,945400
2059,000000	10,917600
2058,000000	10,884900
2057,000000	10,868200
2056,000000	10,855200
2055,000000	10,840700
2054,000000	10,849400
2053,000000	10,862200
2052,000000	10,872400
2051,000000	10,904200
2050,000000	10,937500
2049,000000	10,971600
2048,000000	11,013200
2047,000000	11,060700
2046,000000	11,109500
2045,000000	11,169100
2044,000000	11,229100
2043,000000	11,279800
2042,000000	11,356000
2041,000000	11,433300
2040,000000	11,469900
2039,000000	11,519500
2038,000000	11,581000
2037,000000	11,636000
2036,000000	11,688000
2035,000000	11,725100
2034,000000	11,758300
2033,000000	11,799600
2032,000000	11,846900
2031,000000	11,879900
2030,000000	11,910600
2029,000000	11,932100
2028,000000	11,951800
2027,000000	11,981900
2026,000000	11,983900
2025,000000	12,006700
2024,000000	12,037600
2023,000000	12,039100
2022,000000	12,045700
2021,000000	12,061100
2020,000000	12,061900
2019,000000	12,056400
2018,000000	12,064900
2017,000000	12,072600
2016,000000	12,062100
2015,000000	12,057300
2014,000000	12,048700
2013,000000	12,069500
2012,000000	12,043400
2011,000000	12,028700
2010,000000	12,005400
2009,000000	12,007100
2008,000000	11,979900
2007,000000	11,958800
2006,000000	11,941100
2005,000000	11,903800
2004,000000	11,870400
2003,000000	11,844300
2002,000000	11,812200
2001,000000	11,769100
2000,000000	11,730200
1999,000000	11,707800
1998,000000	11,650200
1997,000000	11,606300
1996,000000	11,569400
1995,000000	11,524600
1994,000000	11,453500
1993,000000	11,432000
1992,000000	11,366700
1991,000000	11,325600
1990,000000	11,275500
1989,000000	11,229700
1988,000000	11,185400
1987,000000	11,127100
1986,000000	11,060800
1985,000000	11,015400
1984,000000	10,950000
1983,000000	10,882400
1982,000000	10,843000
1981,000000	10,782800
1980,000000	10,726600
1979,000000	10,655600
1978,000000	10,595200
1977,000000	10,542600
1976,000000	10,506700
1975,000000	10,445300
1974,000000	10,396300
1973,000000	10,354500
1972,000000	10,300300
1971,000000	10,244100
1970,000000	10,192500
1969,000000	10,126000
1968,000000	10,094600
1967,000000	10,048700
1966,000000	10,005800
1965,000000	9,964300
1964,000000	9,902300
1963,000000	9,855700
1962,000000	9,827100
1961,000000	9,769200
1960,000000	9,736700
1959,000000	9,675500
1958,000000	9,637700
1957,000000	9,602400
1956,000000	9,561700
1955,000000	9,526300
1954,000000	9,481900
1953,000000	9,439800
1952,000000	9,410800
1951,000000	9,351500
1950,000000	9,319000
1949,000000	9,276500
1948,000000	9,243400
1947,000000	9,215000
1946,000000	9,190800
1945,000000	9,163400
1944,000000	9,122300
1943,000000	9,091800
1942,000000	9,107900
1941,000000	9,076200
1940,000000	9,083800
1939,000000	9,071500
1938,000000	9,060700
1937,000000	9,058200
1936,000000	9,039600
1935,000000	9,060300
1934,000000	9,060500
1933,000000	9,101100
1932,000000	9,113200
1931,000000	9,098000
1930,000000	9,158300
1929,000000	9,160600
1928,000000	9,208700
1927,000000	9,262700
1926,000000	9,315100
1925,000000	9,367400
1924,000000	9,410400
1923,000000	9,496800
1922,000000	9,515300
1921,000000	9,613000
1920,000000	9,712500
1919,000000	9,799400
1918,000000	9,869600
1917,000000	9,967000
1916,000000	10,065300
1915,000000	10,161700
1914,000000	10,256900
1913,000000	10,366800
1912,000000	10,547300
1911,000000	10,668400
1910,000000	10,798900
1909,000000	10,945500
1908,000000	11,064900
1907,000000	11,202200
1906,000000	11,379700
1905,000000	11,580800
1904,000000	11,782300
1903,000000	11,967000
1902,000000	12,170500
1901,000000	12,389500
1900,000000	12,620800
1899,000000	12,863200
1898,000000	13,154400
1897,000000	13,413600
1896,000000	13,649500
1895,000000	13,893200
1894,000000	14,130800
1893,000000	14,430400
1892,000000	14,733900
1891,000000	15,102500
1890,000000	15,479900
1889,000000	15,815900
1888,000000	16,192600
1887,000000	16,564600
1886,000000	16,934900
1885,000000	17,354400
1884,000000	17,818700
1883,000000	18,306600
1882,000000	18,788600
1881,000000	19,263700
1880,000000	19,751200
1879,000000	20,176000
1878,000000	20,597300
1877,000000	21,027600
1876,000000	21,461800
1875,000000	21,862900
1874,000000	22,264000
1873,000000	22,669500
1872,000000	23,081800
1871,000000	23,450100
1870,000000	23,817800
1869,000000	24,167200
1868,000000	24,511500
1867,000000	24,773500
1866,000000	24,994500
1865,000000	25,172300
1864,000000	25,342500
1863,000000	25,485400
1862,000000	25,605300
1861,000000	25,763800
1860,000000	25,933000
1859,000000	26,080700
1858,000000	26,222900
1857,000000	26,346600
1856,000000	26,426000
1855,000000	26,482800
1854,000000	26,558800
1853,000000	26,631600
1852,000000	26,659800
1851,000000	26,689100
1850,000000	26,713700
1849,000000	26,707900
1848,000000	26,722700
1847,000000	26,779200
1846,000000	26,800000
1845,000000	26,782300
1844,000000	26,738600
1843,000000	26,676000
1842,000000	26,661700
1841,000000	26,688800
1840,000000	26,710000
1839,000000	26,697600
1838,000000	26,660100
1837,000000	26,647700
1836,000000	26,627700
1835,000000	26,611000
1834,000000	26,567300
1833,000000	26,513000
1832,000000	26,439500
1831,000000	26,372100
1830,000000	26,334100
1829,000000	26,308500
1828,000000	26,259100
1827,000000	26,189000
1826,000000	26,144400
1825,000000	26,109700
1824,000000	26,055500
1823,000000	26,005800
1822,000000	25,957500
1821,000000	25,949000
1820,000000	25,970900
1819,000000	25,968000
1818,000000	25,925500
1817,000000	25,882900
1816,000000	25,858300
1815,000000	25,839300
1814,000000	25,819000
1813,000000	25,801600
1812,000000	25,783400
1811,000000	25,767400
1810,000000	25,744200
1809,000000	25,695500
1808,000000	25,647000
1807,000000	25,619400
1806,000000	25,595000
1805,000000	25,552500
1804,000000	25,497400
1803,000000	25,452500
1802,000000	25,414400
1801,000000	25,374200
1800,000000	25,323300
1799,000000	25,276600
1798,000000	25,234100
1797,000000	25,184500
1796,000000	25,149300
1795,000000	25,120600
1794,000000	25,072700
1793,000000	25,024500
1792,000000	24,981800
1791,000000	24,938100
1790,000000	24,886200
1789,000000	24,836700
1788,000000	24,791200
1787,000000	24,738900
1786,000000	24,695500
1785,000000	24,668900
1784,000000	24,616800
1783,000000	24,551800
1782,000000	24,499000
1781,000000	24,436800
1780,000000	24,381300
1779,000000	24,322400
1778,000000	24,260200
1777,000000	24,196900
1776,000000	24,135200
1775,000000	24,066700
1774,000000	23,981900
1773,000000	23,892900
1772,000000	23,795500
1771,000000	23,704000
1770,000000	23,624400
1769,000000	23,536800
1768,000000	23,428600
1767,000000	23,329300
1766,000000	23,260300
1765,000000	23,190600
1764,000000	23,128800
1763,000000	23,101100
1762,000000	23,085100
1761,000000	23,079000
1760,000000	23,106700
1759,000000	23,144900
1758,000000	23,197500
1757,000000	23,242200
1756,000000	23,287900
1755,000000	23,342900
1754,000000	23,374000
1753,000000	23,392000
1752,000000	23,428700
1751,000000	23,460000
1750,000000	23,452800
1749,000000	23,447300
1748,000000	23,414900
1747,000000	23,377100
1746,000000	23,310900
1745,000000	23,249400
1744,000000	23,182900
1743,000000	23,074800
1742,000000	22,950000
1741,000000	22,824900
1740,000000	22,677700
1739,000000	22,529100
1738,000000	22,362500
1737,000000	22,198800
1736,000000	22,052800
1735,000000	21,929900
1734,000000	21,853800
1733,000000	21,790200
1732,000000	21,767900
1731,000000	21,783600
1730,000000	21,796700
1729,000000	21,838700
1728,000000	21,893500
1727,000000	21,972200
1726,000000	22,032900
1725,000000	22,094300
1724,000000	22,130100
1723,000000	22,197300
1722,000000	22,248700
1721,000000	22,307300
1720,000000	22,358400
1719,000000	22,436200
1718,000000	22,479900
1717,000000	22,563000
1716,000000	22,641300
1715,000000	22,751300
1714,000000	22,841100
1713,000000	22,913900
1712,000000	23,004400
1711,000000	23,085100
1710,000000	23,133200
1709,000000	23,181900
1708,000000	23,227700
1707,000000	23,236400
1706,000000	23,220900
1705,000000	23,202500
1704,000000	23,195600
1703,000000	23,146600
1702,000000	23,076500
1701,000000	22,999100
1700,000000	22,930300
1699,000000	22,830400
1698,000000	22,711600
1697,000000	22,609600
1696,000000	22,524800
1695,000000	22,481500
1694,000000	22,449500
1693,000000	22,469200
1692,000000	22,524800
1691,000000	22,628700
1690,000000	22,737500
1689,000000	22,854800
1688,000000	22,957600
1687,000000	23,067200
1686,000000	23,133100
1685,000000	23,211000
1684,000000	23,302800
1683,000000	23,449500
1682,000000	23,621600
1681,000000	23,896300
1680,000000	24,235500
1679,000000	24,613300
1678,000000	25,029900
1677,000000	25,468000
1676,000000	25,857500
1675,000000	26,266800
1674,000000	26,594000
1673,000000	26,938500
1672,000000	27,168100
1671,000000	27,435200
1670,000000	27,629400
1669,000000	27,840800
1668,000000	27,986000
1667,000000	28,152500
1666,000000	28,275500
1665,000000	28,408200
1664,000000	28,529500
1663,000000	28,621500
1662,000000	28,711800
1661,000000	28,771700
1660,000000	28,840300
1659,000000	28,885100
1658,000000	28,940700
1657,000000	28,980100
1656,000000	29,006100
1655,000000	29,047100
1654,000000	29,050400
1653,000000	29,056200
1652,000000	29,059600
1651,000000	29,034500
1650,000000	29,023900
1649,000000	28,990900
1648,000000	28,976500
1647,000000	28,924200
1646,000000	28,885300
1645,000000	28,860000
1644,000000	28,818100
1643,000000	28,780100
1642,000000	28,718800
1641,000000	28,664100
1640,000000	28,630000
1639,000000	28,590300
1638,000000	28,503900
1637,000000	28,476900
1636,000000	28,414900
1635,000000	28,346300
1634,000000	28,290200
1633,000000	28,245800
1632,000000	28,173500
1631,000000	28,104400
1630,000000	28,020400
1629,000000	27,959200
1628,000000	27,894600
1627,000000	27,790100
1626,000000	27,725700
1625,000000	27,648000
1624,000000	27,568400
1623,000000	27,479500
1622,000000	27,414200
1621,000000	27,345900
1620,000000	27,272800
1619,000000	27,198600
1618,000000	27,133100
1617,000000	27,080600
1616,000000	27,004700
1615,000000	26,918200
1614,000000	26,864100
1613,000000	26,780900
1612,000000	26,722100
1611,000000	26,644900
1610,000000	26,565800
1609,000000	26,516200
1608,000000	26,438000
1607,000000	26,365100
1606,000000	26,286600
1605,000000	26,218200
1604,000000	26,133500
1603,000000	26,076700
1602,000000	25,996600
1601,000000	25,902500
1600,000000	25,829200
1599,000000	25,763000
1598,000000	25,677200
1597,000000	25,605600
1596,000000	25,525600
1595,000000	25,459000
1594,000000	25,389600
1593,000000	25,322700
1592,000000	25,251800
1591,000000	25,197400
1590,000000	25,128200
1589,000000	25,070700
1588,000000	25,012300
1587,000000	24,961100
1586,000000	24,894100
1585,000000	24,839400
1584,000000	24,788400
1583,000000	24,726900
1582,000000	24,685600
1581,000000	24,637900
1580,000000	24,584100
1579,000000	24,532800
1578,000000	24,501800
1577,000000	24,463200
1576,000000	24,426200
1575,000000	24,409600
1574,000000	24,383700
1573,000000	24,374600
1572,000000	24,358300
1571,000000	24,328000
1570,000000	24,317400
1569,000000	24,322400
1568,000000	24,310500
1567,000000	24,306200
1566,000000	24,314100
1565,000000	24,303100
1564,000000	24,296600
1563,000000	24,304300
1562,000000	24,290700
1561,000000	24,267500
1560,000000	24,269200
1559,000000	24,243300
1558,000000	24,229700
1557,000000	24,195000
1556,000000	24,158600
1555,000000	24,138800
1554,000000	24,113400
1553,000000	24,059100
1552,000000	24,018000
1551,000000	23,986100
1550,000000	23,948600
1549,000000	23,884100
1548,000000	23,843300
1547,000000	23,807000
1546,000000	23,750300
1545,000000	23,698900
1544,000000	23,659700
1543,000000	23,628100
1542,000000	23,601100
1541,000000	23,567500
1540,000000	23,531600
1539,000000	23,509900
1538,000000	23,487700
1537,000000	23,459900
1536,000000	23,422600
1535,000000	23,389100
1534,000000	23,355700
1533,000000	23,313300
1532,000000	23,270000
1531,000000	23,239500
1530,000000	23,210900
1529,000000	23,162800
1528,000000	23,103600
1527,000000	23,061300
1526,000000	23,014300
1525,000000	22,953200
1524,000000	22,897700
1523,000000	22,855100
1522,000000	22,804200
1521,000000	22,755800
1520,000000	22,705700
1519,000000	22,643700
1518,000000	22,567400
1517,000000	22,506200
1516,000000	22,468300
1515,000000	22,419900
1514,000000	22,350100
1513,000000	22,284900
1512,000000	22,234500
1511,000000	22,180900
1510,000000	22,103900
1509,000000	22,034000
1508,000000	21,976600
1507,000000	21,905900
1506,000000	21,847400
1505,000000	21,772800
1504,000000	21,709600
1503,000000	21,668600
1502,000000	21,601300
1501,000000	21,531800
1500,000000	21,464300
1499,000000	21,415800
1498,000000	21,364100
1497,000000	21,308300
1496,000000	21,253200
1495,000000	21,200100
1494,000000	21,158400
1493,000000	21,120400
1492,000000	21,082600
1491,000000	21,051400
1490,000000	21,008700
1489,000000	20,958000
1488,000000	20,923600
1487,000000	20,900900
1486,000000	20,871700
1485,000000	20,847900
1484,000000	20,821100
1483,000000	20,784600
1482,000000	20,752200
1481,000000	20,733500
1480,000000	20,720100
1479,000000	20,695700
1478,000000	20,672900
1477,000000	20,669800
1476,000000	20,664000
1475,000000	20,651700
1474,000000	20,635100
1473,000000	20,639900
1472,000000	20,659300
1471,000000	20,648200
1470,000000	20,647700
1469,000000	20,662300
1468,000000	20,666400
1467,000000	20,681400
1466,000000	20,679300
1465,000000	20,698400
1464,000000	20,734900
1463,000000	20,755100
1462,000000	20,768500
1461,000000	20,787800
1460,000000	20,826000
1459,000000	20,875300
1458,000000	20,928500
1457,000000	20,971200
1456,000000	21,026500
1455,000000	21,083800
1454,000000	21,145600
1453,000000	21,205400
1452,000000	21,263800
1451,000000	21,343800
1450,000000	21,421100
1449,000000	21,491200
1448,000000	21,546900
1447,000000	21,625100
1446,000000	21,724200
1445,000000	21,826400
1444,000000	21,908500
1443,000000	21,986900
1442,000000	22,070800
1441,000000	22,162000
1440,000000	22,260800
1439,000000	22,363100
1438,000000	22,475700
1437,000000	22,592200
1436,000000	22,680700
1435,000000	22,797700
1434,000000	22,927300
1433,000000	23,056900
1432,000000	23,186500
1431,000000	23,325800
1430,000000	23,446700
1429,000000	23,599100
1428,000000	23,763100
1427,000000	23,931900
1426,000000	24,115100
1425,000000	24,279000
1424,000000	24,475700
1423,000000	24,691400
1422,000000	24,924500
1421,000000	25,123300
1420,000000	25,344200
1419,000000	25,617000
1418,000000	25,866900
1417,000000	26,114100
1416,000000	26,357500
1415,000000	26,622900
1414,000000	26,931100
1413,000000	27,270000
1412,000000	27,581900
1411,000000	27,858000
1410,000000	28,181700
1409,000000	28,577600
1408,000000	28,987300
1407,000000	29,402500
1406,000000	29,789300
1405,000000	30,189700
1404,000000	30,637900
1403,000000	31,063300
1402,000000	31,477700
1401,000000	31,897300
1400,000000	32,400800
1399,000000	32,910900
1398,000000	33,265100
1397,000000	33,555800
1396,000000	33,935200
1395,000000	34,435800
1394,000000	34,899900
1393,000000	35,247100
1392,000000	35,598500
1391,000000	36,047800
1390,000000	36,487200
1389,000000	36,860400
1388,000000	37,366900
1387,000000	37,925400
1386,000000	38,433700
1385,000000	38,967100
1384,000000	39,511800
1383,000000	40,091700
1382,000000	40,663500
1381,000000	41,200300
1380,000000	41,653600
1379,000000	41,967600
1378,000000	42,247300
1377,000000	42,445200
1376,000000	42,683600
1375,000000	42,906400
1374,000000	43,153500
1373,000000	43,378300
1372,000000	43,668600
1371,000000	43,995500
1370,000000	44,341500
1369,000000	44,633400
1368,000000	44,878800
1367,000000	45,194500
1366,000000	45,419900
1365,000000	45,617900
1364,000000	45,829500
1363,000000	46,022900
1362,000000	46,192000
1361,000000	46,364300
1360,000000	46,565900
1359,000000	46,668400
1358,000000	46,720400
1357,000000	46,852700
1356,000000	46,982000
1355,000000	47,183600
1354,000000	47,482800
1353,000000	47,809500
1352,000000	48,085400
1351,000000	48,497200
1350,000000	48,885200
1349,000000	49,248400
1348,000000	49,623400
1347,000000	49,947300
1346,000000	50,312000
1345,000000	50,581200
1344,000000	50,880600
1343,000000	51,197500
1342,000000	51,487900
1341,000000	51,757500
1340,000000	52,038400
1339,000000	52,314500
1338,000000	52,582000
1337,000000	52,858500
1336,000000	53,104800
1335,000000	53,361500
1334,000000	53,602900
1333,000000	53,861200
1332,000000	54,097700
1331,000000	54,327200
1330,000000	54,551400
1329,000000	54,765600
1328,000000	54,984300
1327,000000	55,165600
1326,000000	55,357800
1325,000000	55,534200
1324,000000	55,710200
1323,000000	55,902400
1322,000000	56,081000
1321,000000	56,225100
1320,000000	56,373700
1319,000000	56,532400
1318,000000	56,685000
1317,000000	56,816400
1316,000000	56,939400
1315,000000	57,085200
1314,000000	57,211100
1313,000000	57,323400
1312,000000	57,423200
1311,000000	57,536300
1310,000000	57,641800
1309,000000	57,753300
1308,000000	57,829700
1307,000000	57,899700
1306,000000	57,976200
1305,000000	58,044600
1304,000000	58,099600
1303,000000	58,171200
1302,000000	58,217800
1301,000000	58,265100
1300,000000	58,299400
1299,000000	58,338000
1298,000000	58,368700
1297,000000	58,386200
1296,000000	58,407600
1295,000000	58,425100
1294,000000	58,449000
1293,000000	58,462500
1292,000000	58,457900
1291,000000	58,474700
1290,000000	58,489200
1289,000000	58,449800
1288,000000	58,440900
1287,000000	58,437700
1286,000000	58,408500
1285,000000	58,373600
1284,000000	58,350700
1283,000000	58,311600
1282,000000	58,277400
1281,000000	58,241200
1280,000000	58,200600
1279,000000	58,152300
1278,000000	58,101300
1277,000000	58,062600
1276,000000	58,038400
1275,000000	58,006800
1274,000000	57,970500
1273,000000	57,948500
1272,000000	57,925200
1271,000000	57,911500
1270,000000	57,889000
1269,000000	57,871400
1268,000000	57,844000
1267,000000	57,827400
1266,000000	57,801600
1265,000000	57,774700
1264,000000	57,761700
1263,000000	57,720200
1262,000000	57,683400
1261,000000	57,651500
1260,000000	57,612300
1259,000000	57,580400
1258,000000	57,540800
1257,000000	57,512600
1256,000000	57,466400
1255,000000	57,409300
1254,000000	57,351800
1253,000000	57,308400
1252,000000	57,250100
1251,000000	57,181100
1250,000000	57,118900
1249,000000	57,039700
1248,000000	56,938500
1247,000000	56,861900
1246,000000	56,778800
1245,000000	56,688000
1244,000000	56,597100
1243,000000	56,496600
1242,000000	56,395500
1241,000000	56,285300
1240,000000	56,182700
1239,000000	56,080900
1238,000000	55,964600
1237,000000	55,856900
1236,000000	55,755700
1235,000000	55,645500
1234,000000	55,543800
1233,000000	55,430900
1232,000000	55,295300
1231,000000	55,162300
1230,000000	55,035200
1229,000000	54,906500
1228,000000	54,776000
1227,000000	54,637200
1226,000000	54,498600
1225,000000	54,356200
1224,000000	54,194300
1223,000000	54,047200
1222,000000	53,896300
1221,000000	53,742800
1220,000000	53,591900
1219,000000	53,432600
1218,000000	53,287000
1217,000000	53,136700
1216,000000	52,985900
1215,000000	52,860500
1214,000000	52,731700
1213,000000	52,589500
1212,000000	52,459900
1211,000000	52,339200
1210,000000	52,212800
1209,000000	52,085600
1208,000000	51,960600
1207,000000	51,845900
1206,000000	51,755700
1205,000000	51,655800
1204,000000	51,579900
1203,000000	51,528600
1202,000000	51,451900
1201,000000	51,378400
1200,000000	51,310200
1199,000000	51,239100
1198,000000	51,159700
1197,000000	51,067500
1196,000000	50,961700
1195,000000	50,819600
1194,000000	50,641700
1193,000000	50,421900
1192,000000	50,172700
1191,000000	49,888900
1190,000000	49,599300
1189,000000	49,309000
1188,000000	49,038500
1187,000000	48,824900
1186,000000	48,703800
1185,000000	48,648300
1184,000000	48,666000
1183,000000	48,793700
1182,000000	49,003500
1181,000000	49,278000
1180,000000	49,590700
1179,000000	49,962100
1178,000000	50,297700
1177,000000	50,614400
1176,000000	50,905100
1175,000000	51,150800
1174,000000	51,398100
1173,000000	51,617500
1172,000000	51,846900
1171,000000	52,060600
1170,000000	52,310600
1169,000000	52,558200
1168,000000	52,794900
1167,000000	53,050200
1166,000000	53,306000
1165,000000	53,572200
1164,000000	53,853300
1163,000000	54,129300
1162,000000	54,410500
1161,000000	54,699700
1160,000000	54,956000
1159,000000	55,229900
1158,000000	55,514100
1157,000000	55,789600
1156,000000	56,042500
1155,000000	56,252200
1154,000000	56,458700
1153,000000	56,642700
1152,000000	56,779500
1151,000000	56,917100
1150,000000	57,021200
1149,000000	57,116600
1148,000000	57,212100
1147,000000	57,325900
1146,000000	57,447600
1145,000000	57,594300
1144,000000	57,786500
1143,000000	57,993800
1142,000000	58,228300
1141,000000	58,484300
1140,000000	58,743800
1139,000000	59,033000
1138,000000	59,319900
1137,000000	59,621000
1136,000000	59,922900
1135,000000	60,263000
1134,000000	60,619400
1133,000000	60,922100
1132,000000	61,156500
1131,000000	61,403000
1130,000000	61,625600
1129,000000	61,834800
1128,000000	61,997600
1127,000000	62,157800
1126,000000	62,253600
1125,000000	62,348500
1124,000000	62,402100
1123,000000	62,477100
1122,000000	62,527400
1121,000000	62,568600
1120,000000	62,566000
1119,000000	62,592200
1118,000000	62,610300
1117,000000	62,600400
1116,000000	62,583300
1115,000000	62,559900
1114,000000	62,543800
1113,000000	62,502300
1112,000000	62,485400
1111,000000	62,450600
1110,000000	62,450700
1109,000000	62,393200
1108,000000	62,379000
1107,000000	62,355400
1106,000000	62,333200
1105,000000	62,304200
1104,000000	62,264000
1103,000000	62,220400
1102,000000	62,205900
1101,000000	62,169400
1100,000000	62,138400
1099,000000	62,099700
1098,000000	62,070700
1097,000000	62,036900
1096,000000	61,994400
1095,000000	61,961100
1094,000000	61,891800
1093,000000	61,831200
1092,000000	61,788000
1091,000000	61,746300
1090,000000	61,686500
1089,000000	61,611100
1088,000000	61,576900
1087,000000	61,515300
1086,000000	61,449100
1085,000000	61,393100
1084,000000	61,304900
1083,000000	61,259500
1082,000000	61,204600
1081,000000	61,121000
1080,000000	61,056600
1079,000000	60,961100
1078,000000	60,915000
1077,000000	60,856300
1076,000000	60,793700
1075,000000	60,690600
1074,000000	60,638300
1073,000000	60,575000
1072,000000	60,506500
1071,000000	60,432200
1070,000000	60,346400
1069,000000	60,276300
1068,000000	60,200500
1067,000000	60,138100
1066,000000	60,067200
1065,000000	59,994500
1064,000000	59,910900
1063,000000	59,821800
1062,000000	59,740500
1061,000000	59,668000
1060,000000	59,594300
1059,000000	59,512200
1058,000000	59,425400
1057,000000	59,340100
1056,000000	59,254600
1055,000000	59,180400
1054,000000	59,098400
1053,000000	58,988800
1052,000000	58,927100
1051,000000	58,842300
1050,000000	58,753500
1049,000000	58,682200
1048,000000	58,608000
1047,000000	58,540700
1046,000000	58,465900
1045,000000	58,389100
1044,000000	58,319900
1043,000000	58,249700
1042,000000	58,170100
1041,000000	58,098300
1040,000000	58,023600
1039,000000	57,956700
1038,000000	57,895700
1037,000000	57,811800
1036,000000	57,750300
1035,000000	57,680500
1034,000000	57,589100
1033,000000	57,513800
1032,000000	57,432900
1031,000000	57,359400
1030,000000	57,291800
1029,000000	57,203800
1028,000000	57,121500
1027,000000	57,031100
1026,000000	56,960300
1025,000000	56,880900
1024,000000	56,790900
1023,000000	56,725200
1022,000000	56,631700
1021,000000	56,535900
1020,000000	56,468800
1019,000000	56,396500
1018,000000	56,316600
1017,000000	56,242000
1016,000000	56,177300
1015,000000	56,111700
1014,000000	56,054600
1013,000000	55,980100
1012,000000	55,951500
1011,000000	55,896600
1010,000000	55,818600
1009,000000	55,797900
1008,000000	55,753800
1007,000000	55,710900
1006,000000	55,677600
1005,000000	55,652500
1004,000000	55,636300
1003,000000	55,583900
1002,000000	55,537400
1001,000000	55,516200
1000,000000	55,492900
999,000000	55,467400
998,000000	55,427200
997,000000	55,380900
996,000000	55,351500
995,000000	55,331600
994,000000	55,319900
993,000000	55,294700
992,000000	55,259800
991,000000	55,245400
990,000000	55,220000
989,000000	55,205200
988,000000	55,198200
987,000000	55,178700
986,000000	55,143300
985,000000	55,136300
984,000000	55,148800
983,000000	55,121400
982,000000	55,089900
981,000000	55,086600
980,000000	55,063800
979,000000	55,060800
978,000000	55,060400
977,000000	55,046500
976,000000	55,018800
975,000000	55,010400
974,000000	55,003200
973,000000	54,982900
972,000000	54,967700
971,000000	54,961700
970,000000	54,950200
969,000000	54,931400
968,000000	54,935000
967,000000	54,906800
966,000000	54,907500
965,000000	54,940300
964,000000	54,936300
963,000000	54,907300
962,000000	54,897600
961,000000	54,911800
960,000000	54,922400
959,000000	54,923900
958,000000	54,927500
957,000000	54,921700
956,000000	54,941200
955,000000	54,946300
954,000000	54,918400
953,000000	54,925300
952,000000	54,926500
951,000000	54,897600
950,000000	54,902200
949,000000	54,901400
948,000000	54,870900
947,000000	54,860700
946,000000	54,849800
945,000000	54,820500
944,000000	54,806200
943,000000	54,803300
942,000000	54,777200
941,000000	54,737800
940,000000	54,705800
939,000000	54,693700
938,000000	54,671700
937,000000	54,628000
936,000000	54,598900
935,000000	54,594300
934,000000	54,571400
933,000000	54,527600
932,000000	54,506100
931,000000	54,481300
930,000000	54,475000
929,000000	54,450200
928,000000	54,404000
927,000000	54,349500
926,000000	54,325300
925,000000	54,286900
924,000000	54,221500
923,000000	54,168400
922,000000	54,116500
921,000000	54,062400
920,000000	54,052300
919,000000	54,020100
918,000000	53,944300
917,000000	53,877500
916,000000	53,810700
915,000000	53,758900
914,000000	53,699700
913,000000	53,640000
912,000000	53,586600
911,000000	53,531100
910,000000	53,488500
909,000000	53,448800
908,000000	53,388100
907,000000	53,348900
906,000000	53,322700
905,000000	53,286200
904,000000	53,253300
903,000000	53,196000
902,000000	53,157200
901,000000	53,134500
900,000000	53,115000
899,000000	53,093100
898,000000	53,049700
897,000000	53,029000
896,000000	52,976500
895,000000	52,922700
894,000000	52,893100
893,000000	52,850000
892,000000	52,802200
891,000000	52,734600
890,000000	52,661600
889,000000	52,584500
888,000000	52,523100
887,000000	52,472000
886,000000	52,415300
885,000000	52,320000
884,000000	52,230500
883,000000	52,138600
882,000000	52,056400
881,000000	51,953700
880,000000	51,872700
879,000000	51,723900
878,000000	51,587100
877,000000	51,471800
876,000000	51,310900
875,000000	51,124100
874,000000	50,946100
873,000000	50,721700
872,000000	50,472400
871,000000	50,320400
870,000000	50,300200
869,000000	50,313900
868,000000	50,344400
867,000000	50,359000
866,000000	50,378400
865,000000	50,396600
864,000000	50,401000
863,000000	50,408900
862,000000	50,437600
861,000000	50,469900
860,000000	50,469500
859,000000	50,492800
858,000000	50,520700
857,000000	56,298300
856,000000	57,580400
855,000000	57,268700
854,000000	57,103200
853,000000	57,331200
852,000000	57,281100
851,000000	57,363800
850,000000	57,560200
849,000000	57,836400
848,000000	57,396200
847,000000	57,563700
846,000000	57,386700
845,000000	57,636700
844,000000	57,207100
843,000000	57,428600
842,000000	57,524900
841,000000	57,470400
840,000000	57,316200
839,000000	57,303100
838,000000	57,135800
837,000000	57,043200
836,000000	57,271500
835,000000	57,239000
834,000000	57,346000
833,000000	56,983500
832,000000	56,984300
831,000000	56,996200
830,000000	57,066400
829,000000	56,839900
828,000000	56,852900
827,000000	56,755900
826,000000	56,866900
825,000000	56,618000
824,000000	56,550200
823,000000	56,407400
822,000000	56,266500
821,000000	56,302800
820,000000	56,222600
819,000000	56,139100
818,000000	55,969400
817,000000	55,859600
816,000000	55,849300
815,000000	55,804500
814,000000	55,721900
813,000000	55,606100
812,000000	55,393700
811,000000	55,412400
810,000000	55,247100
809,000000	55,186100
808,000000	55,084100
807,000000	55,008700
806,000000	54,846200
805,000000	54,870200
804,000000	54,556200
803,000000	54,538500
802,000000	54,364900
801,000000	54,165500
800,000000	54,195700
799,000000	53,892000
798,000000	53,812900
797,000000	53,703900
796,000000	53,607900
795,000000	53,493000
794,000000	53,196800
793,000000	53,010600
792,000000	53,033200
791,000000	52,860700
790,000000	52,578100
789,000000	52,535000
788,000000	52,228600
787,000000	52,209000
786,000000	51,935900
785,000000	51,594000
784,000000	51,495100
783,000000	51,365800
782,000000	51,115700
781,000000	50,871800
780,000000	50,595700
779,000000	50,377400
778,000000	50,240000
777,000000	50,070500
776,000000	49,662900
775,000000	49,501300
774,000000	49,265800
773,000000	49,042000
772,000000	48,708000
771,000000	48,409500
770,000000	48,145100
769,000000	47,931200
768,000000	47,617300
767,000000	47,420300
766,000000	47,053900
765,000000	46,795000
764,000000	46,494600
763,000000	46,175800
762,000000	45,897400
761,000000	45,542600
760,000000	45,182700
759,000000	44,966400
758,000000	44,669200
757,000000	44,272500
756,000000	44,088900
755,000000	43,748500
754,000000	43,412800
753,000000	43,067100
752,000000	42,795900
751,000000	42,515600
750,000000	42,231600
749,000000	41,852300
748,000000	41,567100
747,000000	41,233400
746,000000	40,885400
745,000000	40,656400
744,000000	40,379200
743,000000	39,985900
742,000000	39,695000
741,000000	39,471000
740,000000	39,117000
739,000000	38,804300
738,000000	38,531100
737,000000	38,294100
736,000000	38,047900
735,000000	37,709500
734,000000	37,432200
733,000000	37,162100
732,000000	36,884700
731,000000	36,688500
730,000000	36,389900
729,000000	36,119600
728,000000	35,855800
727,000000	35,602300
726,000000	35,349700
725,000000	35,127700
724,000000	34,917200
723,000000	34,615300
722,000000	34,387100
721,000000	34,179700
720,000000	33,963300
719,000000	33,730700
718,000000	33,499200
717,000000	33,322900
716,000000	33,120800
715,000000	32,910800
714,000000	32,748100
713,000000	32,555200
712,000000	32,301600
711,000000	32,132800
710,000000	31,971000
709,000000	31,783000
708,000000	31,569700
707,000000	31,378500
706,000000	31,188000
705,000000	31,042100
704,000000	30,909100
703,000000	30,734900
702,000000	30,525700
701,000000	30,348500
700,000000	30,202600
699,000000	30,062900
698,000000	29,866700
697,000000	29,744200
696,000000	29,600800
695,000000	29,506100
694,000000	29,344400
693,000000	29,174100
692,000000	29,055300
691,000000	28,916700
690,000000	28,765200
689,000000	28,653700
688,000000	28,541300
687,000000	28,411800
686,000000	28,304500
685,000000	28,191800
684,000000	28,069700
683,000000	27,959900
682,000000	27,857400
681,000000	27,768800
680,000000	27,663000
679,000000	27,564500
678,000000	27,475300
677,000000	27,392000
676,000000	27,304200
675,000000	27,209200
674,000000	27,150800
673,000000	27,054700
672,000000	26,962500
671,000000	26,903500
670,000000	26,837700
669,000000	26,791500
668,000000	26,691400
667,000000	26,662000
666,000000	26,643400
665,000000	26,569600
664,000000	26,509600
663,000000	26,454300
662,000000	26,403900
661,000000	26,369100
660,000000	26,329200
659,000000	26,291400
658,000000	26,274200
657,000000	26,249700
656,000000	26,209700
655,000000	26,183500
654,000000	26,156300
653,000000	26,145700
652,000000	26,133300
651,000000	26,116900
650,000000	26,132000
649,000000	26,138400
648,000000	26,128000
647,000000	26,127700
646,000000	26,129800
645,000000	26,135000
644,000000	26,150300
643,000000	26,171600
642,000000	26,193900
641,000000	26,197700
640,000000	26,226700
639,000000	26,263800
638,000000	26,300900
637,000000	26,369700
636,000000	26,425300
635,000000	26,469100
634,000000	26,532300
633,000000	26,593000
632,000000	26,651300
631,000000	26,714500
630,000000	26,790800
629,000000	26,874500
628,000000	26,950900
627,000000	27,029000
626,000000	27,119200
625,000000	27,213000
624,000000	27,303800
623,000000	27,380500
622,000000	27,467600
621,000000	27,569400
620,000000	27,664600
619,000000	27,751300
618,000000	27,834800
617,000000	27,931000
616,000000	28,019200
615,000000	28,127900
614,000000	28,216600
613,000000	28,308200
612,000000	28,401900
611,000000	28,486700
610,000000	28,587300
609,000000	28,652200
608,000000	28,715700
607,000000	28,797600
606,000000	28,879900
605,000000	28,957200
604,000000	29,044300
603,000000	29,092200
602,000000	29,119900
601,000000	29,181900
600,000000	29,234900
599,000000	29,277900
598,000000	29,312700
597,000000	29,340500
596,000000	29,363400
595,000000	29,376900
594,000000	29,392500
593,000000	29,406500
592,000000	29,420300
591,000000	29,421600
590,000000	29,403100
589,000000	29,388700
588,000000	29,373600
587,000000	29,328300
586,000000	29,309600
585,000000	29,274400
584,000000	29,239100
583,000000	29,190000
582,000000	29,127800
581,000000	29,049700
580,000000	28,969200
579,000000	28,896500
578,000000	28,831700
577,000000	28,728000
576,000000	28,641800
575,000000	28,544800
574,000000	28,423300
573,000000	28,294700
572,000000	28,195700
571,000000	28,068200
570,000000	27,917400
569,000000	27,792800
568,000000	27,653500
567,000000	27,496900
566,000000	27,338800
565,000000	27,152800
564,000000	27,003200
563,000000	26,815200
562,000000	26,639900
561,000000	26,460400
560,000000	26,259300
559,000000	26,078900
558,000000	25,903100
557,000000	25,692700
556,000000	25,493700
555,000000	25,278400
554,000000	25,079600
553,000000	24,856200
552,000000	24,623000
551,000000	24,390500
550,000000	24,148000
549,000000	23,909100
548,000000	23,681800
547,000000	23,450200
546,000000	23,191600
545,000000	22,961200
544,000000	22,711200
543,000000	22,469300
542,000000	22,224100
541,000000	21,946800
540,000000	21,700400
539,000000	21,443900
538,000000	21,186900
537,000000	20,929300
536,000000	20,671500
535,000000	20,421400
534,000000	20,153400
533,000000	19,902700
532,000000	19,622200
531,000000	19,386000
530,000000	19,116000
529,000000	18,877600
528,000000	18,626500
527,000000	18,371500
526,000000	18,134500
525,000000	17,876000
524,000000	17,629000
523,000000	17,382300
522,000000	17,141200
521,000000	16,910900
520,000000	16,686600
519,000000	16,451400
518,000000	16,247200
517,000000	16,023900
516,000000	15,801000
515,000000	15,580800
514,000000	15,381300
513,000000	15,182800
512,000000	14,974700
511,000000	14,808800
510,000000	14,621800
509,000000	14,443600
508,000000	14,261800
507,000000	14,098400
506,000000	13,921700
505,000000	13,749300
504,000000	13,627200
503,000000	13,465500
502,000000	13,326300
501,000000	13,193200
500,000000	13,083300
499,000000	12,936800
498,000000	12,821500
497,000000	12,687100
496,000000	12,581400
495,000000	12,469600
494,000000	12,374100
493,000000	12,270900
492,000000	12,168600
491,000000	12,073000
490,000000	11,956200
489,000000	11,895700
488,000000	11,786700
487,000000	11,727800
486,000000	11,639500
485,000000	11,574200
484,000000	11,485600
483,000000	11,402100
482,000000	11,318800
481,000000	11,220500
480,000000	11,112400
479,000000	11,047000
478,000000	10,950300
477,000000	10,847900
476,000000	10,783400
475,000000	10,707200
474,000000	10,605700
473,000000	10,521900
472,000000	10,418200
471,000000	10,352800
470,000000	10,267600
469,000000	10,164100
468,000000	10,105600
467,000000	10,032500
466,000000	9,947700
465,000000	9,871100
464,000000	9,786000
463,000000	9,723500
462,000000	9,642700
461,000000	9,577700
460,000000	9,496900
459,000000	9,415900
458,000000	9,364200
457,000000	9,265600
456,000000	9,183600
455,000000	9,115400
454,000000	9,066200
453,000000	8,987900
452,000000	8,901000
451,000000	8,834000
450,000000	8,752500
449,000000	8,680400
448,000000	8,609300
447,000000	8,550300
446,000000	8,477800
445,000000	8,382800
444,000000	8,312200
443,000000	8,232000
442,000000	8,157800
441,000000	8,059300
440,000000	8,014900
439,000000	7,916600
438,000000	7,845500
437,000000	7,760600
436,000000	7,676200
435,000000	7,619100
434,000000	7,538000
433,000000	7,479700
432,000000	7,390600
431,000000	7,339900
430,000000	7,243500
429,000000	7,203600
428,000000	7,135800
427,000000	7,056900
426,000000	7,001800
425,000000	6,931400
424,000000	6,866700
423,000000	6,816800
422,000000	6,745500
421,000000	6,677700
420,000000	6,629900
419,000000	6,576400
418,000000	6,526400
417,000000	6,464600
416,000000	6,405600
415,000000	6,350100
414,000000	6,291500
413,000000	6,247400
412,000000	6,187400
411,000000	6,139700
410,000000	6,094900
409,000000	6,039100
408,000000	5,994700
407,000000	5,931400
406,000000	5,870200
405,000000	5,843700
404,000000	5,795300
403,000000	5,757600
402,000000	5,699800
401,000000	5,665400
400,000000	5,629900
399,000000	5,563700
398,000000	5,518400
397,000000	5,483700
396,000000	5,455100
395,000000	5,411000
394,000000	5,398100
393,000000	5,365400
392,000000	5,316600
391,000000	5,271600
390,000000	5,239400
389,000000	5,216900
388,000000	5,182700
387,000000	5,158600
386,000000	5,127200
385,000000	5,098000
384,000000	5,092900
383,000000	5,061800
382,000000	5,020000
381,000000	4,981900
380,000000	4,965900
379,000000	4,958200
378,000000	4,930800
377,000000	4,907800
376,000000	4,905300
375,000000	4,734100
374,000000	4,484000
373,000000	4,591100
372,000000	4,622100
371,000000	4,659300
370,000000	4,655700
369,000000	4,597400
368,000000	4,583200
367,000000	4,650300
366,000000	4,773900
365,000000	4,680800
364,000000	4,560600
363,000000	4,572800
362,000000	4,643800
361,000000	4,524300
360,000000	4,583100
359,000000	4,662800
358,000000	4,715700
357,000000	4,691400
356,000000	4,623300
355,000000	4,650500
354,000000	4,669600
353,000000	4,713700
352,000000	4,824800
351,000000	4,837400
350,000000	4,695000
349,000000	4,706700
348,000000	4,725400
347,000000	4,683900
346,000000	4,748900
345,000000	4,676100
344,000000	4,591700
343,000000	4,599700
342,000000	4,619500
341,000000	4,672000
340,000000	4,732100
339,000000	4,785700
338,000000	4,718000
337,000000	4,489500
336,000000	4,520000
335,000000	4,673000
334,000000	4,810500
333,000000	4,976100
332,000000	5,040000
331,000000	5,034600
330,000000	4,858600
329,000000	4,943900
328,000000	5,037000
327,000000	4,819100
326,000000	4,879400
325,000000	5,063600
324,000000	5,366900
323,000000	5,376300
322,000000	5,228800
321,000000	5,271800
320,000000	5,045100
319,000000	5,178100
318,000000	5,230900
317,000000	5,188400
316,000000	4,927100
315,000000	4,650400
314,000000	4,676900
313,000000	4,703300
312,000000	4,692700
311,000000	4,704700
310,000000	4,709300
309,000000	4,683700
308,000000	4,666500
307,000000	4,716500
306,000000	4,694500
305,000000	4,685000
304,000000	4,705900
303,000000	4,682300
302,000000	4,692000
301,000000	4,735900
300,000000	4,732300
299,000000	4,745800
298,000000	4,717500
297,000000	4,721700
296,000000	4,744800
295,000000	4,756300
294,000000	4,746600
293,000000	4,775600
292,000000	4,801400
291,000000	4,793300
290,000000	4,792000
289,000000	4,790800
288,000000	4,780200
287,000000	4,820800
286,000000	4,818600
285,000000	4,833800
284,000000	4,820200
283,000000	4,837500
282,000000	4,840700
281,000000	4,857400
280,000000	4,898500
279,000000	4,875500
278,000000	4,864300
277,000000	4,919200
276,000000	4,916600
275,000000	4,910900
274,000000	4,965200
273,000000	4,942100
272,000000	4,955700
271,000000	4,984700
270,000000	4,992200
269,000000	5,002900
268,000000	4,995000
267,000000	5,020700
266,000000	5,057200
265,000000	5,089600
264,000000	5,080300
263,000000	5,099600
262,000000	5,137700
261,000000	5,145000
260,000000	5,168200
259,000000	5,164200
258,000000	5,204100
257,000000	5,239700
256,000000	5,215300
255,000000	5,250800
254,000000	5,288100
253,000000	5,282500
252,000000	5,287800
251,000000	5,326700
250,000000	5,310800
