Time1=100ms:Average1=5:Objective=10X:Aperture=1: (11/28/2018 9:42:06 AM)
11/28/2018 9:42:06 AM
Reflectance
10X
Ap#: 1
Avg1: 5.000000
Avg2: 0.000000
Int.Time1:100.000000

420.190645	5.573553
420.624620	5.577709
421.058582	5.581111
421.492531	5.591002
421.926468	5.608310
422.360391	5.635408
422.794301	5.670189
423.228199	5.714858
423.662083	5.766011
424.095955	5.828733
424.529813	5.888234
424.963658	5.944128
425.397491	6.000681
425.831310	6.049687
426.265116	6.090729
426.698909	6.130845
427.132689	6.174327
427.566455	6.215678
428.000209	6.263638
428.433949	6.323416
428.867676	6.386397
429.301389	6.448472
429.735090	6.504774
430.168777	6.543444
430.602451	6.577320
431.036111	6.601828
431.469759	6.621428
431.903392	6.641352
432.337013	6.660115
432.770620	6.682248
433.204213	6.716624
433.637794	6.755792
434.071360	6.800733
434.504914	6.860451
434.938453	6.925321
435.371979	6.994370
435.805492	7.065619
436.238991	7.132371
436.672477	7.194919
437.105949	7.246958
437.539407	7.288802
437.972852	7.328875
438.406283	7.364474
438.839700	7.399015
439.273104	7.440277
439.706494	7.489376
440.139871	7.546913
440.573233	7.600787
441.006582	7.653770
441.439917	7.698162
441.873238	7.727989
442.306546	7.751551
442.739839	7.766386
443.173119	7.777179
443.606385	7.789378
444.039636	7.800850
444.472874	7.814739
444.906099	7.836583
445.339309	7.862007
445.772505	7.894716
446.205687	7.929489
446.638855	7.968820
447.072009	8.011815
447.505149	8.059392
447.938275	8.099676
448.371387	8.138794
448.804485	8.170696
449.237569	8.192387
449.670638	8.208224
450.103694	8.216902
450.536735	8.219519
450.969762	8.221911
451.402774	8.229268
451.835773	8.239266
452.268757	8.253093
452.701727	8.267895
453.134683	8.283014
453.567624	8.290429
454.000551	8.297618
454.433464	8.299319
454.866362	8.296776
455.299246	8.291847
455.732116	8.282166
456.164971	8.271232
456.597811	8.262236
457.030638	8.251233
457.463449	8.244166
457.896246	8.233863
458.329029	8.222392
458.761797	8.210841
459.194551	8.196881
459.627290	8.188062
460.060014	8.177274
460.492724	8.168871
460.925419	8.159377
461.358099	8.150060
461.790765	8.141215
462.223416	8.126995
462.656052	8.112547
463.088674	8.095799
463.521281	8.080336
463.953873	8.067892
464.386450	8.057969
464.819012	8.048144
465.251560	8.043233
465.684093	8.039274
466.116611	8.038159
466.549114	8.045042
466.981602	8.056734
467.414075	8.074088
467.846533	8.092152
468.278977	8.111867
468.711405	8.135745
469.143818	8.160211
469.576216	8.186119
470.008600	8.207476
470.440968	8.231164
470.873321	8.253325
471.305659	8.276903
471.737982	8.303098
472.170289	8.332767
472.602582	8.368707
473.034859	8.405588
473.467122	8.445070
473.899369	8.490133
474.331600	8.541887
474.763817	8.601761
475.196018	8.671261
475.628204	8.754096
476.060375	8.843954
476.492530	8.942605
476.924670	9.043424
477.356795	9.142688
477.788904	9.236226
478.220998	9.324323
478.653076	9.408298
479.085139	9.493389
479.517186	9.579603
479.949219	9.664016
480.381235	9.757035
480.813236	9.850717
481.245221	9.952935
481.677191	10.060742
482.109146	10.170022
482.541084	10.279396
482.973008	10.387872
483.404915	10.491584
483.836807	10.587244
484.268683	10.674080
484.700544	10.755941
485.132388	10.825520
485.564217	10.884874
485.996031	10.933325
486.427828	10.975262
486.859610	11.016399
487.291376	11.052121
487.723126	11.080588
488.154860	11.112289
488.586579	11.140133
489.018281	11.168284
489.449968	11.207672
489.881639	11.252518
490.313293	11.307100
490.744932	11.369737
491.176555	11.440193
491.608162	11.511873
492.039753	11.581214
492.471328	11.640678
492.902886	11.686885
493.334429	11.716135
493.765956	11.731541
494.197466	11.738629
494.628960	11.739347
495.060439	11.741924
495.491901	11.747437
495.923347	11.763902
496.354776	11.789700
496.786190	11.830235
497.217587	11.879465
497.648968	11.937185
498.080332	11.998022
498.511681	12.060159
498.943013	12.123411
499.374328	12.181322
499.805628	12.228589
500.236911	12.265855
500.668177	12.294071
501.099427	12.316201
501.530661	12.326074
501.961878	12.330371
502.393079	12.329430
502.824264	12.318697
503.255431	12.307727
503.686583	12.294983
504.117717	12.285798
504.548835	12.285840
504.979937	12.300141
505.411022	12.325665
505.842090	12.369765
506.273142	12.430760
506.704177	12.512914
507.135195	12.602401
507.566197	12.697895
507.997182	12.794708
508.428150	12.883204
508.859102	12.965394
509.290036	13.031540
509.720954	13.087721
510.151855	13.131670
510.582739	13.173031
511.013607	13.213557
511.444457	13.256553
511.875291	13.313271
512.306107	13.383326
512.736907	13.470331
513.167690	13.576636
513.598456	13.695692
514.029205	13.824490
514.459936	13.959871
514.890651	14.095330
515.321349	14.227370
515.752030	14.353266
516.182693	14.470709
516.613340	14.570483
517.043969	14.656580
517.474582	14.727375
517.905177	14.779461
518.335755	14.812377
518.766315	14.835334
519.196859	14.842347
519.627385	14.839374
520.057894	14.825716
520.488386	14.812834
520.918860	14.797761
521.349318	14.788274
521.779757	14.790843
522.210180	14.803021
522.640585	14.833831
523.070973	14.876815
523.501343	14.936465
523.931696	15.007741
524.362031	15.086778
524.792349	15.169064
525.222650	15.238513
525.652933	15.300977
526.083198	15.345725
526.513446	15.372893
526.943677	15.383058
527.373890	15.379830
527.804085	15.366106
528.234262	15.343493
528.664422	15.320498
529.094565	15.300585
529.524689	15.286778
529.954796	15.286689
530.384885	15.296689
530.814957	15.318091
531.245011	15.353679
531.675047	15.402216
532.105065	15.453211
532.535065	15.506550
532.965048	15.555889
533.395013	15.600463
533.824959	15.633597
534.254888	15.659336
534.684799	15.666777
535.114693	15.660590
535.544568	15.641810
535.974425	15.601842
536.404264	15.550246
536.834086	15.480900
537.263889	15.401632
537.693674	15.311919
538.123441	15.219993
538.553190	15.130972
538.982921	15.042458
539.412634	14.963942
539.842329	14.898179
540.272006	14.847143
540.701664	14.809714
541.131304	14.790833
541.560926	14.793713
541.990530	14.807954
542.420116	14.833407
542.849683	14.867533
543.279232	14.908234
543.708763	14.950007
544.138275	14.989645
544.567769	15.019646
544.997245	15.042457
545.426702	15.054768
545.856141	15.059016
546.285562	15.055621
546.714964	15.043461
547.144347	15.028897
547.573713	15.011843
548.003059	14.999359
548.432387	14.987864
548.861697	14.978559
549.290988	14.981445
549.720260	14.990145
550.149514	15.011631
550.578750	15.039049
551.007966	15.072611
551.437164	15.106692
551.866344	15.143717
552.295504	15.176180
552.724646	15.206000
553.153769	15.225566
553.582874	15.234500
554.011960	15.229253
554.441027	15.205864
554.870075	15.159803
555.299104	15.096008
555.728115	15.014016
556.157106	14.919724
556.586079	14.806965
557.015033	14.688251
557.443968	14.566095
557.872884	14.443166
558.301781	14.321930
558.730659	14.211381
559.159518	14.111312
559.588358	14.023615
560.017180	13.951419
560.445982	13.892953
560.874765	13.849780
561.303528	13.821675
561.732273	13.805170
562.160999	13.800699
562.589705	13.802591
563.018393	13.813360
563.447061	13.827567
563.875710	13.844037
564.304340	13.862540
564.732950	13.879832
565.161542	13.897608
565.590114	13.914301
566.018666	13.922962
566.447200	13.927041
566.875714	13.926817
567.304208	13.923527
567.732684	13.915544
568.161140	13.905387
568.589576	13.893882
569.017993	13.882984
569.446391	13.869990
569.874769	13.860646
570.303128	13.849649
570.731467	13.843914
571.159787	13.842740
571.588087	13.843957
572.016368	13.846670
572.444629	13.849802
572.872870	13.855215
573.301092	13.856779
573.729294	13.853638
574.157476	13.842391
574.585639	13.819181
575.013782	13.785248
575.441906	13.737914
575.870009	13.677145
576.298093	13.598899
576.726157	13.510444
577.154202	13.410899
577.582226	13.301153
578.010231	13.187801
578.438216	13.070639
578.866181	12.954616
579.294126	12.844749
579.722051	12.742327
580.149957	12.649397
580.577842	12.564514
581.005707	12.489865
581.433553	12.423061
581.861378	12.370676
582.289184	12.325345
582.716969	12.289890
583.144734	12.261371
583.572479	12.244960
584.000205	12.231934
584.427910	12.227637
584.855594	12.228756
585.283259	12.235737
585.710904	12.248497
586.138528	12.266726
586.566132	12.288515
586.993716	12.315962
587.421280	12.345866
587.848823	12.377905
588.276346	12.411387
588.703849	12.445216
589.131332	12.479958
589.558794	12.514226
589.986236	12.543351
590.413657	12.571416
590.841058	12.596788
591.268438	12.617789
591.695799	12.636704
592.123138	12.654884
592.550458	12.673718
592.977756	12.691546
593.405034	12.708946
593.832292	12.729255
594.259529	12.748884
594.686746	12.773858
595.113942	12.796236
595.541117	12.819399
595.968272	12.840392
596.395406	12.860692
596.822519	12.872255
597.249612	12.875294
597.676684	12.863914
598.103735	12.842849
598.530766	12.806815
598.957775	12.759384
599.384764	12.697629
599.811733	12.626841
600.238680	12.544386
600.665606	12.455127
601.092512	12.361147
601.519397	12.263401
601.946261	12.168781
602.373104	12.075489
602.799926	11.987279
603.226727	11.903436
603.653507	11.825324
604.080266	11.755598
604.507004	11.692735
604.933721	11.636188
605.360417	11.585191
605.787092	11.534912
606.213746	11.489456
606.640379	11.446721
607.066991	11.407093
607.493581	11.372183
607.920150	11.339774
608.346699	11.310241
608.773226	11.286883
609.199731	11.268000
609.626216	11.254231
610.052679	11.247075
610.479121	11.248699
610.905542	11.259693
611.331941	11.277284
611.758319	11.304720
612.184676	11.337857
612.611011	11.375683
613.037325	11.416565
613.463617	11.460394
613.889888	11.502680
614.316138	11.545242
614.742366	11.585953
615.168573	11.621798
615.594758	11.653494
616.020921	11.682902
616.447063	11.709153
616.873184	11.731402
617.299283	11.751218
617.725360	11.768836
618.151416	11.786108
618.577450	11.801894
619.003462	11.818969
619.429453	11.835489
619.855422	11.851162
620.281369	11.865722
620.707295	11.879461
621.133199	11.888613
621.559081	11.893565
621.984941	11.890987
622.410779	11.880515
622.836596	11.859334
623.262391	11.830254
623.688163	11.791960
624.113914	11.744521
624.539644	11.686823
624.965351	11.620369
625.391036	11.546808
625.816699	11.470466
626.242340	11.390505
626.667960	11.309608
627.093557	11.231405
627.519132	11.154453
627.944685	11.083465
628.370216	11.017955
628.795725	10.958548
629.221212	10.902110
629.646677	10.854034
630.072119	10.809403
630.497540	10.769237
630.922938	10.734233
631.348314	10.700788
631.773668	10.669648
632.198999	10.642199
632.624308	10.617655
633.049595	10.598598
633.474860	10.583106
633.900102	10.571272
634.325322	10.566528
634.750520	10.569741
635.175695	10.581345
635.600848	10.601817
636.025978	10.633165
636.451086	10.672950
636.876171	10.723022
637.301234	10.782968
637.726275	10.853502
638.151293	10.931689
638.576288	11.018460
639.001261	11.107459
639.426211	11.200275
639.851139	11.293845
640.276044	11.387372
640.700927	11.479224
641.125787	11.566532
641.550624	11.648602
641.975438	11.723192
642.400230	11.791046
642.824999	11.849671
643.249745	11.901517
643.674469	11.945689
644.099169	11.984127
644.523847	12.016364
644.948502	12.044972
645.373135	12.070064
645.797744	12.091510
646.222330	12.107500
646.646894	12.122362
647.071435	12.133608
647.495953	12.140987
647.920447	12.146286
648.344919	12.146261
648.769368	12.143200
649.193794	12.136158
649.618197	12.124807
650.042576	12.108508
650.466933	12.088035
650.891267	12.061681
651.315577	12.032669
651.739864	11.999199
652.164129	11.965060
652.588370	11.929581
653.012587	11.893673
653.436782	11.856097
653.860953	11.820248
654.285102	11.787606
654.709226	11.756755
655.133328	11.731343
655.557406	11.710274
655.981461	11.694856
656.405493	11.684165
656.829501	11.676498
657.253486	11.670294
657.677448	11.664878
658.101386	11.659683
658.525301	11.650307
658.949192	11.641366
659.373060	11.628416
659.796904	11.610849
660.220725	11.591020
660.644522	11.570257
661.068296	11.542828
661.492046	11.513881
661.915772	11.483290
662.339475	11.450230
662.763154	11.417114
663.186810	11.385369
663.610442	11.355841
664.034050	11.331223
664.457635	11.313412
664.881196	11.300936
665.304733	11.295966
665.728247	11.299661
666.151736	11.311582
666.575202	11.335456
666.998644	11.368063
667.422062	11.405696
667.845457	11.450657
668.268827	11.499549
668.692174	11.552492
669.115496	11.606928
669.538795	11.661710
669.962070	11.715966
670.385321	11.766779
670.808547	11.816145
671.231750	11.860928
671.654929	11.903372
672.078084	11.937670
672.501214	11.968194
672.924321	11.993661
673.347404	12.013039
673.770462	12.024844
674.193496	12.036649
674.616506	12.044772
675.039492	12.049283
675.462454	12.054132
675.885391	12.058242
676.308305	12.064223
676.731194	12.070489
677.154058	12.076343
677.576899	12.081718
677.999715	12.088485
678.422507	12.095332
678.845274	12.101754
679.268017	12.107346
679.690736	12.111026
680.113430	12.114964
680.536100	12.118234
680.958746	12.120446
681.381367	12.121163
681.803963	12.121122
682.226535	12.121497
682.649083	12.121247
683.071605	12.122530
683.494104	12.126069
683.916578	12.130831
684.339027	12.138216
684.761451	12.147092
685.183851	12.158569
685.606227	12.173217
686.028577	12.188098
686.450903	12.205763
686.873204	12.224281
687.295481	12.240024
687.717733	12.254816
688.139959	12.267503
688.562162	12.276489
688.984339	12.281744
689.406492	12.279977
689.828619	12.272889
690.250722	12.258869
690.672800	12.237724
691.094853	12.210144
691.516881	12.174669
691.938884	12.133585
692.360863	12.086429
692.782816	12.034721
693.204744	11.979513
693.626647	11.923184
694.048526	11.865841
694.470379	11.812232
694.892207	11.760653
695.314010	11.711417
695.735788	11.667501
696.157540	11.629709
696.579268	11.598992
697.000970	11.574708
697.422648	11.558641
697.844300	11.551317
698.265926	11.553782
698.687528	11.563421
699.109104	11.581646
699.530655	11.605068
699.952181	11.636264
