PE UV       SUBTECH     SPECTRUM    ASCII       PEDS        4.00        
   -1
INBUCR0431-4.Sample.ASC
24/02/09
14:51:43.00
24/02/09
14:51:43.00
Vinicio Soto Monge
Chrysina aurigans. Det: A. Solís. COSTA RICA. Prov. Alajuela, Upala, Bijagua. P.N. Volcán Tenorio. Alberg. Heliconias. Send. Heliconias. 700 m. 13 NOV 2001. A. López. T. de Luz #65610. INB00033997038. Tiene únicamente la parte superior del élitro derecho.
250,000000
1
Lambda 1050
1050L1511233
PerkinElmer UV WinLab 6.3.2.0749 / 2.02.05 Lambda 900 UV/VIS/NIR, Aug  7 2015 09:38:08

0
0
3350/servo 860,8/2
0
0
UV/VIS
1
1
1
DoubleDePol,CommonBeamDepol,RBeamAtt,SBeamAtt,60mm sphere, WB InGaAs Detector
0
0
0
0
Program
Program
3350/servo 860,8/2
3350/0,2 860,8/0,2
3350/0,2 860,8/0,2
0
15.00
 
 
 
0
 
860,8
319,2
860,8
Front
100
on
S:100 R:100
0
0
0
0
 
0
 
 
 
0
 
 
0
0
0
0
0
 
 
 
 
0
0


0
0
#HDR
-1
-1
#GR
nm
%R
1.0
0.0
2500,000000
-1,000000
2251
8
17,518000
1,050100
#DATA

250.000000	4.788210
251.000000	4.784601
252.000000	4.786537
253.000000	4.790021
254.000000	4.793354
255.000000	4.795096
256.000000	4.786082
257.000000	4.788576
258.000000	4.790309
259.000000	4.794043
260.000000	4.799379
261.000000	4.799473
262.000000	4.798052
263.000000	4.798017
264.000000	4.798385
265.000000	4.792822
266.000000	4.810051
267.000000	4.809060
268.000000	4.809994
269.000000	4.805995
270.000000	4.810269
271.000000	4.807020
272.000000	4.816611
273.000000	4.808065
274.000000	4.809266
275.000000	4.805703
276.000000	4.807393
277.000000	4.814727
278.000000	4.821676
279.000000	4.824278
280.000000	4.818304
281.000000	4.817579
282.000000	4.822989
283.000000	4.819722
284.000000	4.822668
285.000000	4.831136
286.000000	4.826191
287.000000	4.822018
288.000000	4.828985
289.000000	4.817652
290.000000	4.829463
291.000000	4.814192
292.000000	4.826480
293.000000	4.819165
294.000000	4.828633
295.000000	4.817456
296.000000	4.819450
297.000000	4.829115
298.000000	4.835287
299.000000	4.829520
300.000000	4.830151
301.000000	4.828108
302.000000	4.832385
303.000000	4.833449
304.000000	4.822588
305.000000	4.839961
306.000000	4.820346
307.000000	4.838598
308.000000	4.839040
309.000000	4.833520
310.000000	4.831012
311.000000	4.828561
312.000000	4.831212
313.000000	4.839240
314.000000	4.845644
315.000000	4.836099
316.000000	4.824427
317.000000	4.683489
318.000000	4.676104
319.000000	4.725312
320.000000	4.741733
321.000000	4.792962
322.000000	4.767908
323.000000	4.785391
324.000000	4.758280
325.000000	4.749925
326.000000	4.808877
327.000000	4.739424
328.000000	4.785982
329.000000	4.815924
330.000000	4.808334
331.000000	4.793110
332.000000	4.820200
333.000000	4.802414
334.000000	4.791813
335.000000	4.758102
336.000000	4.765439
337.000000	4.812838
338.000000	4.806399
339.000000	4.794980
340.000000	4.812701
341.000000	4.820283
342.000000	4.808796
343.000000	4.815913
344.000000	4.848220
345.000000	4.808204
346.000000	4.819070
347.000000	4.808308
348.000000	4.827072
349.000000	4.837172
350.000000	4.818568
351.000000	4.820710
352.000000	4.822227
353.000000	4.816244
354.000000	4.840321
355.000000	4.833146
356.000000	4.838505
357.000000	4.820157
358.000000	4.798023
359.000000	4.816431
360.000000	4.818496
361.000000	4.835853
362.000000	4.835287
363.000000	4.835812
364.000000	4.848327
365.000000	4.850394
366.000000	4.835139
367.000000	4.844574
368.000000	4.852106
369.000000	4.848481
370.000000	4.840340
371.000000	4.846411
372.000000	4.861832
373.000000	4.884076
374.000000	4.883735
375.000000	4.867526
376.000000	4.862968
377.000000	4.908705
378.000000	5.519874
379.000000	5.520560
380.000000	5.522444
381.000000	5.521007
382.000000	5.518757
383.000000	5.516826
384.000000	5.517116
385.000000	5.519256
386.000000	5.517163
387.000000	5.517022
388.000000	5.516709
389.000000	5.515865
390.000000	5.516503
391.000000	5.515705
392.000000	5.513272
393.000000	5.513654
394.000000	5.512148
395.000000	5.512807
396.000000	5.511150
397.000000	5.510337
398.000000	5.511721
399.000000	5.509262
400.000000	5.507892
401.000000	5.507315
402.000000	5.508199
403.000000	5.508165
404.000000	5.506711
405.000000	5.504065
406.000000	5.503828
407.000000	5.504147
408.000000	5.503308
409.000000	5.502734
410.000000	5.501227
411.000000	5.500511
412.000000	5.499567
413.000000	5.498233
414.000000	5.497467
415.000000	5.497148
416.000000	5.495274
417.000000	5.494429
418.000000	5.493323
419.000000	5.491745
420.000000	5.489219
421.000000	6.101756
422.000000	6.100728
423.000000	6.098863
424.000000	6.097544
425.000000	6.095652
426.000000	6.092808
427.000000	6.091610
428.000000	6.091190
429.000000	6.089069
430.000000	6.086037
431.000000	6.084842
432.000000	6.085072
433.000000	6.083665
434.000000	6.080152
435.000000	6.077112
436.000000	6.075170
437.000000	6.073319
438.000000	6.072246
439.000000	6.069398
440.000000	6.066916
441.000000	6.065459
442.000000	6.062245
443.000000	6.059521
444.000000	6.058381
445.000000	6.057159
446.000000	6.053340
447.000000	6.050378
448.000000	6.048280
449.000000	6.044650
450.000000	6.042485
451.000000	6.040047
452.000000	6.649046
453.000000	6.646596
454.000000	6.644237
455.000000	6.640674
456.000000	6.636897
457.000000	6.633633
458.000000	6.631131
459.000000	6.627864
460.000000	6.623242
461.000000	6.618212
462.000000	6.614297
463.000000	6.610794
464.000000	6.607369
465.000000	6.602563
466.000000	6.598713
467.000000	6.594761
468.000000	6.590524
469.000000	6.586637
470.000000	6.583125
471.000000	6.579683
472.000000	6.574755
473.000000	6.570051
474.000000	6.565888
475.000000	6.561430
476.000000	6.556817
477.000000	7.165798
478.000000	7.161217
479.000000	7.156560
480.000000	7.153602
481.000000	7.150003
482.000000	7.145787
483.000000	7.139205
484.000000	7.130572
485.000000	7.120296
486.000000	7.722527
487.000000	7.712886
488.000000	7.701752
489.000000	7.689963
490.000000	7.676406
491.000000	7.662761
492.000000	8.261009
493.000000	8.243417
494.000000	8.224139
495.000000	8.202935
496.000000	8.179868
497.000000	8.154173
498.000000	8.734944
499.000000	8.695430
500.000000	8.650130
501.000000	8.596142
502.000000	8.529208
503.000000	9.062189
504.000000	8.970152
505.000000	8.863814
506.000000	8.745480
507.000000	8.614982
508.000000	9.083532
509.000000	8.938255
510.000000	8.792275
511.000000	8.653578
512.000000	8.528465
513.000000	8.418661
514.000000	8.923401
515.000000	8.841949
516.000000	8.774223
517.000000	8.715443
518.000000	8.662234
519.000000	8.615684
520.000000	8.572913
521.000000	9.132428
522.000000	9.092579
523.000000	9.054272
524.000000	9.016648
525.000000	8.983502
526.000000	8.956267
527.000000	8.931865
528.000000	8.908131
529.000000	8.885675
530.000000	9.465643
531.000000	9.446251
532.000000	9.425533
533.000000	9.404175
534.000000	9.381835
535.000000	9.364063
536.000000	9.348303
537.000000	9.328173
538.000000	9.312615
539.000000	9.296534
540.000000	9.282177
541.000000	9.268175
542.000000	9.250849
543.000000	9.237658
544.000000	9.223911
545.000000	9.208505
546.000000	9.194280
547.000000	9.182977
548.000000	9.769795
549.000000	9.755807
550.000000	9.738942
551.000000	9.724939
552.000000	9.715673
553.000000	9.704112
554.000000	9.695044
555.000000	9.688129
556.000000	9.681485
557.000000	9.673549
558.000000	9.668424
559.000000	9.667603
560.000000	9.743289
561.000000	9.755267
562.000000	9.759452
563.000000	9.758779
564.000000	9.761782
565.000000	9.758584
566.000000	9.758317
567.000000	9.747107
568.000000	9.738366
569.000000	9.727298
570.000000	9.721652
571.000000	9.720980
572.000000	9.719053
573.000000	9.727433
574.000000	9.734967
575.000000	9.745801
576.000000	9.754012
577.000000	9.763168
578.000000	9.764519
579.000000	9.766653
580.000000	9.761719
581.000000	9.749214
582.000000	9.739171
583.000000	9.733461
584.000000	9.730525
585.000000	9.729427
586.000000	9.740980
587.000000	9.751031
588.000000	9.761965
589.000000	9.774259
590.000000	9.782574
591.000000	9.784124
592.000000	9.784342
593.000000	9.780760
594.000000	9.763626
595.000000	9.751173
596.000000	9.739061
597.000000	9.731379
598.000000	9.728030
599.000000	9.734978
600.000000	9.752300
601.000000	9.768650
602.000000	9.790150
603.000000	9.810369
604.000000	9.826691
605.000000	9.834994
606.000000	9.834333
607.000000	9.824539
608.000000	9.811621
609.000000	9.796286
610.000000	9.783092
611.000000	9.776602
612.000000	9.777652
613.000000	10.395017
614.000000	10.405236
615.000000	10.427437
616.000000	10.445018
617.000000	10.458115
618.000000	10.471043
619.000000	10.468980
620.000000	10.463603
621.000000	10.459069
622.000000	10.441939
623.000000	10.426143
624.000000	10.409765
625.000000	10.403214
626.000000	10.406074
627.000000	10.410311
628.000000	10.421185
629.000000	10.437680
630.000000	10.446608
631.000000	10.459307
632.000000	10.462358
633.000000	10.459966
634.000000	10.450507
635.000000	10.436059
636.000000	10.423160
637.000000	10.408991
638.000000	10.398525
639.000000	10.392403
640.000000	10.395666
641.000000	10.399176
642.000000	10.408953
643.000000	10.414848
644.000000	10.419197
645.000000	10.420146
646.000000	10.420854
647.000000	10.415040
648.000000	10.402403
649.000000	10.387933
650.000000	10.377942
651.000000	10.368886
652.000000	10.359074
653.000000	10.349933
654.000000	10.343180
655.000000	10.335655
656.000000	10.335660
657.000000	10.940283
658.000000	10.934896
659.000000	10.932183
660.000000	10.932465
661.000000	10.919737
662.000000	10.908896
663.000000	10.891549
664.000000	10.880571
665.000000	10.869768
666.000000	10.859352
667.000000	10.849560
668.000000	10.843014
669.000000	10.830876
670.000000	10.825808
671.000000	10.814169
672.000000	10.802167
673.000000	10.793062
674.000000	10.782457
675.000000	10.767844
676.000000	10.751340
677.000000	10.737445
678.000000	10.726074
679.000000	10.712234
680.000000	10.706217
681.000000	10.698837
682.000000	10.686839
683.000000	10.669840
684.000000	10.652568
685.000000	10.640432
686.000000	11.231544
687.000000	11.213695
688.000000	11.203446
689.000000	11.186597
690.000000	11.172187
691.000000	11.158874
692.000000	11.147238
693.000000	11.137422
694.000000	11.133582
695.000000	11.124395
696.000000	11.106388
697.000000	11.090940
698.000000	11.080249
699.000000	11.063474
700.000000	11.049483
701.000000	11.035008
702.000000	11.023932
703.000000	11.012036
704.000000	10.995465
705.000000	10.990583
706.000000	10.980497
707.000000	10.973375
708.000000	10.964712
709.000000	10.954637
710.000000	10.941658
711.000000	10.931367
712.000000	10.924967
713.000000	10.913812
714.000000	10.903381
715.000000	11.496324
716.000000	11.487472
717.000000	11.480415
718.000000	11.474171
719.000000	11.466830
720.000000	11.458339
721.000000	11.447571
722.000000	11.439403
723.000000	11.428578
724.000000	11.418590
725.000000	11.411997
726.000000	11.408772
727.000000	11.397805
728.000000	11.385981
729.000000	11.378537
730.000000	11.373791
731.000000	11.366081
732.000000	11.353558
733.000000	11.343716
734.000000	11.336805
735.000000	11.335892
736.000000	11.329629
737.000000	11.311681
738.000000	11.301517
739.000000	11.297043
740.000000	11.289882
741.000000	11.894060
742.000000	11.885330
743.000000	11.873241
744.000000	11.861200
745.000000	11.850732
746.000000	11.843580
747.000000	11.832655
748.000000	11.823105
749.000000	11.815424
750.000000	11.804021
751.000000	11.791641
752.000000	11.775752
753.000000	11.762857
754.000000	11.755654
755.000000	11.755690
756.000000	11.742962
757.000000	11.728487
758.000000	11.728838
759.000000	11.718371
760.000000	11.691828
761.000000	11.679744
762.000000	12.283295
763.000000	12.268563
764.000000	12.255158
765.000000	12.244902
766.000000	12.230193
767.000000	12.210374
768.000000	12.206146
769.000000	12.203344
770.000000	12.184701
771.000000	12.173180
772.000000	12.159257
773.000000	12.144568
774.000000	12.131351
775.000000	12.122301
776.000000	12.107978
777.000000	12.090291
778.000000	12.075367
779.000000	12.063447
780.000000	12.055706
781.000000	12.653034
782.000000	12.639137
783.000000	12.625360
784.000000	12.601938
785.000000	12.591823
786.000000	12.585990
787.000000	12.566323
788.000000	12.550365
789.000000	12.528928
790.000000	12.515810
791.000000	12.504234
792.000000	12.484456
793.000000	12.482826
794.000000	12.477382
795.000000	12.460026
796.000000	12.437965
797.000000	12.423131
798.000000	12.407848
799.000000	12.392380
800.000000	12.369747
801.000000	12.975969
802.000000	12.958499
803.000000	12.931881
804.000000	12.919971
805.000000	12.907849
806.000000	12.891362
807.000000	12.886789
808.000000	12.863928
809.000000	12.855740
810.000000	12.829033
811.000000	12.808267
812.000000	12.782540
813.000000	12.767763
814.000000	12.759001
815.000000	12.756079
816.000000	12.745768
817.000000	12.728370
818.000000	12.719671
819.000000	12.698239
820.000000	12.698373
821.000000	12.690384
822.000000	12.674711
823.000000	12.676892
824.000000	12.667818
825.000000	12.652797
826.000000	12.647023
827.000000	13.247555
828.000000	13.234416
829.000000	13.224033
830.000000	13.225089
831.000000	13.224902
832.000000	13.230830
833.000000	13.203572
834.000000	13.206726
835.000000	13.213062
836.000000	13.182393
837.000000	13.187149
838.000000	13.164925
839.000000	13.187796
840.000000	13.204790
841.000000	13.163914
842.000000	13.158750
843.000000	13.187101
844.000000	13.157920
845.000000	13.182482
846.000000	13.151904
847.000000	13.166582
848.000000	13.179868
849.000000	13.139722
850.000000	13.178226
851.000000	13.119059
852.000000	13.196093
853.000000	13.160624
854.000000	13.182406
855.000000	13.216613
856.000000	13.212140
857.000000	13.063928
858.000000	17.950131
859.000000	12.938458
860.000000	13.421478
861.000000	12.902354
862.000000	12.378721
863.000000	12.348854
864.000000	12.826900
865.000000	13.307419
866.000000	12.790395
867.000000	13.279561
868.000000	13.258894
869.000000	12.751253
870.000000	12.239107
871.000000	12.222967
872.000000	11.707918
873.000000	12.196055
874.000000	12.189820
875.000000	12.178853
876.000000	12.170009
877.000000	11.661410
878.000000	12.147579
879.000000	12.142325
880.000000	11.622630
881.000000	12.114429
882.000000	11.612997
883.000000	11.608980
884.000000	11.597415
885.000000	11.584519
886.000000	11.578995
887.000000	11.066148
888.000000	11.568155
889.000000	11.557064
890.000000	11.054279
891.000000	11.546357
892.000000	11.040907
893.000000	11.041926
894.000000	11.035073
895.000000	11.032941
896.000000	11.016763
897.000000	11.010523
898.000000	11.008780
899.000000	11.004040
900.000000	10.996863
901.000000	10.990030
902.000000	10.977854
903.000000	10.977378
904.000000	10.971688
905.000000	10.464149
906.000000	10.957006
907.000000	10.449600
908.000000	10.942325
909.000000	10.445263
910.000000	10.448340
911.000000	10.438096
912.000000	10.425207
913.000000	10.412000
914.000000	10.400727
915.000000	10.399665
916.000000	10.394485
917.000000	10.383497
918.000000	10.375993
919.000000	10.371425
920.000000	10.368768
921.000000	10.357475
922.000000	10.359938
923.000000	10.370485
924.000000	10.354423
925.000000	10.362554
926.000000	10.360320
927.000000	10.353466
928.000000	10.356155
929.000000	10.352766
930.000000	10.347405
931.000000	10.341001
932.000000	10.336753
933.000000	10.328098
934.000000	10.324936
935.000000	10.313930
936.000000	10.308837
937.000000	10.305700
938.000000	10.308634
939.000000	10.306321
940.000000	10.311588
941.000000	10.314121
942.000000	10.312667
943.000000	10.315907
944.000000	10.310409
945.000000	10.307185
946.000000	10.304845
947.000000	10.301356
948.000000	10.295008
949.000000	10.285238
950.000000	10.279527
951.000000	10.280614
952.000000	10.272431
953.000000	10.275044
954.000000	10.265961
955.000000	10.260108
956.000000	10.263152
957.000000	10.259176
958.000000	10.262520
959.000000	10.257725
960.000000	10.257650
961.000000	10.260361
962.000000	10.255639
963.000000	10.244371
964.000000	10.238127
965.000000	10.233022
966.000000	10.233302
967.000000	10.229325
968.000000	10.222673
969.000000	10.222537
970.000000	10.217375
971.000000	10.216086
972.000000	10.208013
973.000000	10.204507
974.000000	10.202052
975.000000	10.200279
976.000000	10.199954
977.000000	10.193211
978.000000	10.186361
979.000000	10.187653
980.000000	10.186630
981.000000	10.179045
982.000000	10.177352
983.000000	10.176139
984.000000	10.168451
985.000000	10.162397
986.000000	10.160521
987.000000	10.160505
988.000000	10.153258
989.000000	10.144816
990.000000	10.142050
991.000000	10.137648
992.000000	10.128612
993.000000	10.127979
994.000000	10.124583
995.000000	10.116342
996.000000	10.112991
997.000000	10.110031
998.000000	10.103770
999.000000	10.101365
1000.000000	10.099983
1001.000000	10.093302
1002.000000	10.086844
1003.000000	10.082194
1004.000000	10.075801
1005.000000	10.572320
1006.000000	10.569493
1007.000000	10.561215
1008.000000	10.552598
1009.000000	10.551594
1010.000000	10.552301
1011.000000	10.548502
1012.000000	10.544070
1013.000000	10.538230
1014.000000	10.532566
1015.000000	10.527011
1016.000000	10.525224
1017.000000	10.517740
1018.000000	10.509972
1019.000000	10.505429
1020.000000	10.494944
1021.000000	10.490262
1022.000000	10.488475
1023.000000	10.482396
1024.000000	10.474992
1025.000000	10.466084
1026.000000	10.458651
1027.000000	10.451203
1028.000000	10.445322
1029.000000	10.437496
1030.000000	10.431683
1031.000000	10.429823
1032.000000	10.419701
1033.000000	10.407371
1034.000000	10.399961
1035.000000	10.395149
1036.000000	10.390518
1037.000000	10.382965
1038.000000	10.376519
1039.000000	10.371686
1040.000000	10.368214
1041.000000	10.365926
1042.000000	10.361487
1043.000000	10.350602
1044.000000	10.339798
1045.000000	10.335951
1046.000000	10.330862
1047.000000	10.325068
1048.000000	10.320399
1049.000000	10.314409
1050.000000	10.307830
1051.000000	10.301323
1052.000000	10.298048
1053.000000	10.290137
1054.000000	10.281150
1055.000000	10.776461
1056.000000	10.773556
1057.000000	10.764881
1058.000000	10.758890
1059.000000	10.755144
1060.000000	10.750913
1061.000000	10.742486
1062.000000	10.730471
1063.000000	10.727696
1064.000000	10.725197
1065.000000	10.718499
1066.000000	10.711091
1067.000000	10.704873
1068.000000	10.696755
1069.000000	10.690334
1070.000000	10.682686
1071.000000	10.673247
1072.000000	10.668676
1073.000000	10.658400
1074.000000	10.653705
1075.000000	10.647933
1076.000000	10.640416
1077.000000	10.637537
1078.000000	10.636128
1079.000000	10.626726
1080.000000	10.618705
1081.000000	10.613079
1082.000000	10.604195
1083.000000	10.592455
1084.000000	10.593385
1085.000000	10.584576
1086.000000	10.577077
1087.000000	10.577281
1088.000000	10.567348
1089.000000	10.558900
1090.000000	10.550958
1091.000000	10.551298
1092.000000	10.552846
1093.000000	10.546676
1094.000000	10.543612
1095.000000	10.543499
1096.000000	10.541190
1097.000000	10.528531
1098.000000	10.520883
1099.000000	10.522090
1100.000000	10.518284
1101.000000	10.514994
1102.000000	10.510415
1103.000000	10.504070
1104.000000	10.500943
1105.000000	10.495736
1106.000000	10.489789
1107.000000	10.492055
1108.000000	10.489801
1109.000000	10.482395
1110.000000	10.476259
1111.000000	10.973166
1112.000000	10.974052
1113.000000	10.969943
1114.000000	10.966558
1115.000000	10.968628
1116.000000	10.966750
1117.000000	10.958365
1118.000000	10.952202
1119.000000	10.956196
1120.000000	10.956616
1121.000000	10.954922
1122.000000	10.948621
1123.000000	10.946341
1124.000000	10.949148
1125.000000	10.955568
1126.000000	10.959751
1127.000000	10.960921
1128.000000	10.958819
1129.000000	10.461717
1130.000000	10.470209
1131.000000	10.487772
1132.000000	10.501516
1133.000000	10.508519
1134.000000	10.496070
1135.000000	10.491231
1136.000000	10.507946
1137.000000	10.517746
1138.000000	10.527247
1139.000000	10.536338
1140.000000	10.543612
1141.000000	10.547109
1142.000000	10.559619
1143.000000	10.560443
1144.000000	10.559746
1145.000000	10.559586
1146.000000	10.562511
1147.000000	10.565624
1148.000000	10.568967
1149.000000	10.577444
1150.000000	10.582807
1151.000000	10.582884
1152.000000	10.575702
1153.000000	10.591435
1154.000000	10.595086
1155.000000	10.609707
1156.000000	10.621127
1157.000000	10.626083
1158.000000	10.646243
1159.000000	10.163575
1160.000000	10.175023
1161.000000	10.195419
1162.000000	10.209975
1163.000000	10.225334
1164.000000	10.238253
1165.000000	10.262967
1166.000000	10.273167
1167.000000	10.285414
1168.000000	10.297155
1169.000000	10.299795
1170.000000	10.312710
1171.000000	10.318347
1172.000000	10.334252
1173.000000	10.334489
1174.000000	10.339000
1175.000000	10.340055
1176.000000	10.348170
1177.000000	10.348404
1178.000000	10.351913
1179.000000	10.364735
1180.000000	10.361349
1181.000000	10.373999
1182.000000	10.371356
1183.000000	10.371791
1184.000000	10.366337
1185.000000	10.362696
1186.000000	10.361271
1187.000000	10.355435
1188.000000	10.355627
1189.000000	10.342648
1190.000000	10.340165
1191.000000	10.328060
1192.000000	10.322994
1193.000000	10.317601
1194.000000	10.306332
1195.000000	10.294021
1196.000000	10.284642
1197.000000	10.278267
1198.000000	10.265673
1199.000000	10.261291
1200.000000	10.250771
1201.000000	10.241898
1202.000000	10.235668
1203.000000	10.236854
1204.000000	10.227513
1205.000000	10.225993
1206.000000	10.214154
1207.000000	10.706968
1208.000000	10.695428
1209.000000	10.691664
1210.000000	10.680443
1211.000000	10.673206
1212.000000	10.662189
1213.000000	10.655702
1214.000000	10.653215
1215.000000	10.654553
1216.000000	10.648759
1217.000000	10.644731
1218.000000	10.645057
1219.000000	10.641273
1220.000000	10.637124
1221.000000	10.639509
1222.000000	10.640041
1223.000000	10.632962
1224.000000	10.633645
1225.000000	10.625359
1226.000000	10.624873
1227.000000	10.622340
1228.000000	10.622356
1229.000000	10.616529
1230.000000	10.616248
1231.000000	10.616985
1232.000000	10.617755
1233.000000	10.611320
1234.000000	10.611089
1235.000000	10.609813
1236.000000	10.601950
1237.000000	10.603901
1238.000000	10.602811
1239.000000	10.597118
1240.000000	10.591877
1241.000000	10.589877
1242.000000	10.582771
1243.000000	10.578418
1244.000000	11.066347
1245.000000	11.062097
1246.000000	11.052224
1247.000000	11.044699
1248.000000	11.033366
1249.000000	11.023973
1250.000000	11.016572
1251.000000	11.009335
1252.000000	11.003355
1253.000000	11.003466
1254.000000	10.998645
1255.000000	10.993953
1256.000000	10.987179
1257.000000	10.978106
1258.000000	10.972010
1259.000000	10.965703
1260.000000	10.964634
1261.000000	10.962962
1262.000000	10.958082
1263.000000	10.956960
1264.000000	10.951045
1265.000000	10.946767
1266.000000	10.942199
1267.000000	10.941451
1268.000000	10.945004
1269.000000	10.940795
1270.000000	10.937135
1271.000000	10.938068
1272.000000	10.935908
1273.000000	10.932367
1274.000000	10.935083
1275.000000	10.933230
1276.000000	10.928340
1277.000000	10.929505
1278.000000	10.928766
1279.000000	10.922014
1280.000000	10.919278
1281.000000	10.914051
1282.000000	10.906210
1283.000000	10.900371
1284.000000	10.898777
1285.000000	10.896458
1286.000000	10.891368
1287.000000	10.883885
1288.000000	10.880278
1289.000000	10.880013
1290.000000	10.876991
1291.000000	10.870896
1292.000000	10.865881
1293.000000	10.854950
1294.000000	10.845966
1295.000000	10.846844
1296.000000	10.847067
1297.000000	10.841285
1298.000000	10.837773
1299.000000	10.834111
1300.000000	10.830337
1301.000000	10.828675
1302.000000	10.831011
1303.000000	10.832036
1304.000000	10.831161
1305.000000	10.830413
1306.000000	10.828925
1307.000000	10.826672
1308.000000	10.826856
1309.000000	10.832249
1310.000000	10.837337
1311.000000	10.840482
1312.000000	10.839638
1313.000000	10.841928
1314.000000	10.844566
1315.000000	10.847903
1316.000000	10.859624
1317.000000	10.869500
1318.000000	10.875030
1319.000000	10.881351
1320.000000	10.885923
1321.000000	10.892043
1322.000000	10.898893
1323.000000	10.908939
1324.000000	10.917002
1325.000000	10.922298
1326.000000	10.930637
1327.000000	10.936885
1328.000000	10.945854
1329.000000	10.958271
1330.000000	10.970103
1331.000000	10.985017
1332.000000	10.997041
1333.000000	11.009960
1334.000000	10.528273
1335.000000	10.538809
1336.000000	10.556903
1337.000000	10.571928
1338.000000	10.588567
1339.000000	10.604287
1340.000000	10.626080
1341.000000	10.649640
1342.000000	10.665994
1343.000000	10.683838
1344.000000	10.710327
1345.000000	10.741051
1346.000000	10.270622
1347.000000	10.287040
1348.000000	10.314996
1349.000000	10.351923
1350.000000	10.381651
1351.000000	10.408392
1352.000000	10.437217
1353.000000	10.456055
1354.000000	10.455615
1355.000000	10.461416
1356.000000	10.478010
1357.000000	10.505567
1358.000000	10.026728
1359.000000	10.057951
1360.000000	10.054706
1361.000000	10.008995
1362.000000	10.022435
1363.000000	10.058202
1364.000000	10.059942
1365.000000	10.079363
1366.000000	10.121601
1367.000000	9.638010
1368.000000	9.658652
1369.000000	9.706659
1370.000000	9.739564
1371.000000	9.774529
1372.000000	9.330107
1373.000000	9.411579
1374.000000	9.477141
1375.000000	9.547570
1376.000000	9.624863
1377.000000	9.195999
1378.000000	9.284075
1379.000000	9.350019
1380.000000	9.393266
1381.000000	9.387815
1382.000000	9.392402
1383.000000	8.901297
1384.000000	8.941551
1385.000000	8.970162
1386.000000	8.983941
1387.000000	8.979131
1388.000000	8.978220
1389.000000	9.008247
1390.000000	9.042406
1391.000000	9.040580
1392.000000	9.046200
1393.000000	9.067253
1394.000000	8.587020
1395.000000	8.546546
1396.000000	8.549554
1397.000000	8.618904
1398.000000	8.669115
1399.000000	8.660031
1400.000000	8.628833
1401.000000	8.662608
1402.000000	8.740812
1403.000000	8.786501
1404.000000	8.801513
1405.000000	8.337222
1406.000000	8.377866
1407.000000	8.418731
1408.000000	8.453640
1409.000000	8.478671
1410.000000	8.533439
1411.000000	8.583793
1412.000000	8.626461
1413.000000	8.152128
1414.000000	8.168578
1415.000000	8.220953
1416.000000	8.274260
1417.000000	8.303332
1418.000000	8.318920
1419.000000	8.343176
1420.000000	8.381514
1421.000000	8.421339
1422.000000	8.442719
1423.000000	7.965964
1424.000000	7.997105
1425.000000	8.034654
1426.000000	8.055413
1427.000000	8.074263
1428.000000	8.093387
1429.000000	8.118329
1430.000000	8.138579
1431.000000	8.154447
1432.000000	8.157022
1433.000000	8.183042
1434.000000	8.202734
1435.000000	8.219516
1436.000000	7.748910
1437.000000	7.752335
1438.000000	7.766663
1439.000000	7.782154
1440.000000	7.796124
1441.000000	7.807019
1442.000000	7.821544
1443.000000	7.835889
1444.000000	7.843655
1445.000000	7.849348
1446.000000	7.858396
1447.000000	7.873365
1448.000000	7.894933
1449.000000	7.898737
1450.000000	7.908167
1451.000000	7.913529
1452.000000	7.934328
1453.000000	7.950724
1454.000000	7.961174
1455.000000	7.477717
1456.000000	7.493276
1457.000000	7.505756
1458.000000	7.520492
1459.000000	7.532734
1460.000000	7.545287
1461.000000	7.562203
1462.000000	7.574846
1463.000000	7.588497
1464.000000	7.602152
1465.000000	7.615991
1466.000000	7.623058
1467.000000	7.638731
1468.000000	7.660669
1469.000000	7.669504
1470.000000	7.675212
1471.000000	7.678640
1472.000000	7.690376
1473.000000	7.699448
1474.000000	7.719823
1475.000000	7.726623
1476.000000	7.730433
1477.000000	7.731628
1478.000000	7.748752
1479.000000	7.748833
1480.000000	7.261737
1481.000000	7.267064
1482.000000	7.273702
1483.000000	7.280117
1484.000000	7.279907
1485.000000	7.276135
1486.000000	7.286199
1487.000000	7.293646
1488.000000	7.293053
1489.000000	7.299660
1490.000000	7.296001
1491.000000	7.299661
1492.000000	7.297176
1493.000000	7.295993
1494.000000	7.298451
1495.000000	7.297356
1496.000000	7.292446
1497.000000	7.284047
1498.000000	7.276576
1499.000000	7.269208
1500.000000	7.264813
1501.000000	7.260408
1502.000000	7.249211
1503.000000	7.237855
1504.000000	7.232634
1505.000000	7.714343
1506.000000	7.703011
1507.000000	7.690769
1508.000000	7.679231
1509.000000	7.662765
1510.000000	7.653273
1511.000000	7.637903
1512.000000	7.626248
1513.000000	7.619203
1514.000000	7.598553
1515.000000	7.585582
1516.000000	7.575309
1517.000000	7.562615
1518.000000	7.551857
1519.000000	7.543006
1520.000000	7.531816
1521.000000	7.514680
1522.000000	7.510856
1523.000000	7.504680
1524.000000	7.496727
1525.000000	7.488281
1526.000000	7.482750
1527.000000	7.464999
1528.000000	7.455655
1529.000000	7.445276
1530.000000	7.436977
1531.000000	7.426687
1532.000000	7.421444
1533.000000	7.412631
1534.000000	7.403411
1535.000000	7.396410
1536.000000	7.889281
1537.000000	7.881379
1538.000000	7.872456
1539.000000	7.871502
1540.000000	7.868783
1541.000000	7.859175
1542.000000	7.854102
1543.000000	7.851813
1544.000000	7.836450
1545.000000	7.829166
1546.000000	7.822669
1547.000000	7.808360
1548.000000	7.795144
1549.000000	7.779164
1550.000000	7.768915
1551.000000	7.762857
1552.000000	7.754490
1553.000000	7.744562
1554.000000	7.738676
1555.000000	7.729877
1556.000000	7.722619
1557.000000	7.722444
1558.000000	7.721764
1559.000000	7.717586
1560.000000	7.714735
1561.000000	7.715912
1562.000000	7.718650
1563.000000	7.720194
1564.000000	7.721321
1565.000000	7.725186
1566.000000	7.727979
1567.000000	7.728266
1568.000000	7.734119
1569.000000	7.737837
1570.000000	7.736636
1571.000000	7.734927
1572.000000	7.737136
1573.000000	7.741654
1574.000000	7.741176
1575.000000	7.740599
1576.000000	7.737904
1577.000000	7.735461
1578.000000	7.730029
1579.000000	7.722686
1580.000000	7.722809
1581.000000	7.716435
1582.000000	7.707592
1583.000000	7.702236
1584.000000	7.696028
1585.000000	7.688213
1586.000000	7.681069
1587.000000	7.672952
1588.000000	7.666556
1589.000000	8.153854
1590.000000	8.151077
1591.000000	8.140198
1592.000000	8.131128
1593.000000	8.125943
1594.000000	8.116520
1595.000000	8.111779
1596.000000	8.104798
1597.000000	8.087342
1598.000000	8.076074
1599.000000	8.066648
1600.000000	8.051237
1601.000000	8.037341
1602.000000	8.023503
1603.000000	8.015006
1604.000000	8.007104
1605.000000	7.992390
1606.000000	7.979884
1607.000000	7.972966
1608.000000	7.962585
1609.000000	7.949573
1610.000000	7.941165
1611.000000	7.930047
1612.000000	7.925365
1613.000000	7.924188
1614.000000	7.914147
1615.000000	7.911905
1616.000000	7.905033
1617.000000	8.386348
1618.000000	8.375747
1619.000000	8.372591
1620.000000	8.369476
1621.000000	8.363595
1622.000000	8.357178
1623.000000	8.352266
1624.000000	8.345603
1625.000000	8.337809
1626.000000	8.328990
1627.000000	8.325061
1628.000000	8.317556
1629.000000	8.310228
1630.000000	8.312666
1631.000000	8.306720
1632.000000	8.301609
1633.000000	8.298180
1634.000000	8.298493
1635.000000	8.286337
1636.000000	8.291785
1637.000000	8.289399
1638.000000	8.289301
1639.000000	8.287595
1640.000000	8.285812
1641.000000	8.277704
1642.000000	8.279246
1643.000000	8.280821
1644.000000	8.279881
1645.000000	8.281979
1646.000000	8.280490
1647.000000	8.280464
1648.000000	8.282149
1649.000000	8.281701
1650.000000	8.289012
1651.000000	8.283746
1652.000000	8.289352
1653.000000	8.298410
1654.000000	8.308604
1655.000000	8.315566
1656.000000	8.321819
1657.000000	8.339657
1658.000000	8.349091
1659.000000	8.356784
1660.000000	7.878749
1661.000000	7.897992
1662.000000	7.922470
1663.000000	7.939308
1664.000000	7.963644
1665.000000	7.990220
1666.000000	8.007250
1667.000000	8.030056
1668.000000	8.078053
1669.000000	8.102614
1670.000000	8.132166
1671.000000	8.163042
1672.000000	7.695968
1673.000000	7.720419
1674.000000	7.745130
1675.000000	7.764129
1676.000000	7.791428
1677.000000	7.813709
1678.000000	7.841350
1679.000000	7.873619
1680.000000	7.901892
1681.000000	7.943379
1682.000000	7.973553
1683.000000	7.506438
1684.000000	7.534799
1685.000000	7.557843
1686.000000	7.568563
1687.000000	7.572883
1688.000000	7.567630
1689.000000	7.560647
1690.000000	7.538882
1691.000000	7.523106
1692.000000	7.508316
1693.000000	7.486363
1694.000000	7.477771
1695.000000	7.468588
1696.000000	7.456149
1697.000000	7.456586
1698.000000	7.449678
1699.000000	7.445718
1700.000000	7.451601
1701.000000	7.458464
1702.000000	7.464796
1703.000000	7.470888
1704.000000	7.474094
1705.000000	7.484053
1706.000000	7.501582
1707.000000	7.519895
1708.000000	7.534665
1709.000000	7.552686
1710.000000	7.576286
1711.000000	7.604175
1712.000000	7.134723
1713.000000	7.163772
1714.000000	7.195106
1715.000000	7.229004
1716.000000	7.272023
1717.000000	7.304809
1718.000000	7.335203
1719.000000	7.370675
1720.000000	7.388611
1721.000000	7.410186
1722.000000	7.418646
1723.000000	7.418366
1724.000000	7.414874
1725.000000	7.408107
1726.000000	7.397755
1727.000000	7.388870
1728.000000	7.388214
1729.000000	7.373018
1730.000000	7.362761
1731.000000	7.349264
1732.000000	7.338893
1733.000000	7.324991
1734.000000	7.314887
1735.000000	7.302461
1736.000000	7.292070
1737.000000	7.273086
1738.000000	7.261507
1739.000000	7.244074
1740.000000	7.230058
1741.000000	7.215235
1742.000000	7.202592
1743.000000	7.187473
1744.000000	7.168859
1745.000000	7.157159
1746.000000	7.150680
1747.000000	7.140600
1748.000000	7.132167
1749.000000	7.124568
1750.000000	7.117972
1751.000000	7.119280
1752.000000	7.125304
1753.000000	7.618231
1754.000000	7.618571
1755.000000	7.623476
1756.000000	7.617853
1757.000000	7.619546
1758.000000	7.615876
1759.000000	7.619047
1760.000000	7.615890
1761.000000	7.610244
1762.000000	7.614703
1763.000000	7.614476
1764.000000	7.610939
1765.000000	7.602638
1766.000000	7.596141
1767.000000	7.594095
1768.000000	7.593292
1769.000000	7.586872
1770.000000	7.575086
1771.000000	7.568971
1772.000000	7.563493
1773.000000	7.555224
1774.000000	7.553444
1775.000000	7.540682
1776.000000	7.530470
1777.000000	7.520299
1778.000000	7.513880
1779.000000	7.509134
1780.000000	7.503533
1781.000000	7.498388
1782.000000	7.497321
1783.000000	7.502559
1784.000000	7.499438
1785.000000	7.492955
1786.000000	7.494559
1787.000000	7.491194
1788.000000	7.497831
1789.000000	7.500635
1790.000000	7.499457
1791.000000	7.497412
1792.000000	7.492859
1793.000000	7.490103
1794.000000	7.484602
1795.000000	7.482841
1796.000000	7.481842
1797.000000	7.485377
1798.000000	7.486009
1799.000000	7.480399
1800.000000	7.474969
1801.000000	7.463529
1802.000000	7.460399
1803.000000	7.470869
1804.000000	7.474550
1805.000000	7.461902
1806.000000	7.449281
1807.000000	7.451932
1808.000000	7.464652
1809.000000	7.468209
1810.000000	7.462443
1811.000000	7.447293
1812.000000	7.446269
1813.000000	7.450320
1814.000000	7.449554
1815.000000	7.438246
1816.000000	7.447659
1817.000000	7.479621
1818.000000	7.991513
1819.000000	7.977167
1820.000000	7.928821
1821.000000	7.895935
1822.000000	7.912136
1823.000000	7.952708
1824.000000	7.983672
1825.000000	7.992872
1826.000000	7.977451
1827.000000	7.961393
1828.000000	7.957390
1829.000000	7.949852
1830.000000	7.929686
1831.000000	7.926987
1832.000000	7.954633
1833.000000	7.986366
1834.000000	7.993957
1835.000000	7.977110
1836.000000	7.947859
1837.000000	7.929631
1838.000000	7.932038
1839.000000	7.923602
1840.000000	7.892550
1841.000000	7.843846
1842.000000	7.829628
1843.000000	7.874688
1844.000000	7.946307
1845.000000	7.991572
1846.000000	7.961929
1847.000000	7.877679
1848.000000	7.813276
1849.000000	7.822249
1850.000000	7.875244
1851.000000	7.916947
1852.000000	7.923318
1853.000000	7.912388
1854.000000	7.899246
1855.000000	7.904234
1856.000000	7.937146
1857.000000	7.957634
1858.000000	7.941086
1859.000000	7.918264
1860.000000	7.915399
1861.000000	7.926605
1862.000000	7.952135
1863.000000	8.005807
1864.000000	8.053143
1865.000000	8.088710
1866.000000	7.630803
1867.000000	7.661261
1868.000000	7.684156
1869.000000	7.675376
1870.000000	7.645056
1871.000000	7.646475
1872.000000	7.642979
1873.000000	7.650524
1874.000000	7.677578
1875.000000	7.696994
1876.000000	7.241150
1877.000000	7.281617
1878.000000	7.328333
1879.000000	7.387305
1880.000000	7.450947
1881.000000	7.024580
1882.000000	7.072783
1883.000000	7.108029
1884.000000	7.152265
1885.000000	7.203883
1886.000000	6.784662
1887.000000	6.868524
1888.000000	6.946993
1889.000000	7.012262
1890.000000	7.070317
1891.000000	6.629452
1892.000000	6.691527
1893.000000	6.767507
1894.000000	6.849357
1895.000000	6.940627
1896.000000	6.540488
1897.000000	6.609820
1898.000000	6.667521
1899.000000	6.711547
1900.000000	6.762029
1901.000000	6.333749
1902.000000	6.401445
1903.000000	6.459398
1904.000000	6.493695
1905.000000	6.513501
1906.000000	6.058468
1907.000000	6.101020
1908.000000	6.155799
1909.000000	6.211553
1910.000000	6.255817
1911.000000	6.285407
1912.000000	6.297354
1913.000000	5.813503
1914.000000	5.838271
1915.000000	5.863332
1916.000000	5.901965
1917.000000	5.932854
1918.000000	5.955066
1919.000000	5.964416
1920.000000	5.969981
1921.000000	5.964912
1922.000000	5.977101
1923.000000	5.992657
1924.000000	5.517167
1925.000000	5.535810
1926.000000	5.531255
1927.000000	5.539570
1928.000000	5.540160
1929.000000	5.534155
1930.000000	5.536804
1931.000000	5.539150
1932.000000	5.547528
1933.000000	5.551520
1934.000000	5.548089
1935.000000	5.551676
1936.000000	5.548710
1937.000000	5.543398
1938.000000	5.534068
1939.000000	5.521957
1940.000000	5.517786
1941.000000	5.517099
1942.000000	5.517556
1943.000000	5.514000
1944.000000	5.504293
1945.000000	5.494066
1946.000000	5.481668
1947.000000	5.480965
1948.000000	5.468620
1949.000000	5.459178
1950.000000	5.461875
1951.000000	5.447123
1952.000000	5.439222
1953.000000	5.425843
1954.000000	5.412840
1955.000000	5.408521
1956.000000	5.886456
1957.000000	5.875506
1958.000000	5.868898
1959.000000	5.856762
1960.000000	5.849032
1961.000000	5.840992
1962.000000	5.834841
1963.000000	5.818402
1964.000000	5.816294
1965.000000	5.805628
1966.000000	5.794160
1967.000000	5.793212
1968.000000	5.790405
1969.000000	5.783060
1970.000000	5.767539
1971.000000	5.757706
1972.000000	5.744357
1973.000000	5.748438
1974.000000	5.740448
1975.000000	5.727770
1976.000000	5.719582
1977.000000	5.715661
1978.000000	5.698180
1979.000000	5.699382
1980.000000	5.682734
1981.000000	5.673956
1982.000000	5.659244
1983.000000	6.142945
1984.000000	5.644399
1985.000000	5.638771
1986.000000	5.629718
1987.000000	6.110265
1988.000000	6.095363
1989.000000	6.090259
1990.000000	6.079178
1991.000000	6.071363
1992.000000	6.063410
1993.000000	6.057794
1994.000000	6.055895
1995.000000	6.044979
1996.000000	6.037525
1997.000000	6.035710
1998.000000	6.027804
1999.000000	6.030365
2000.000000	6.021753
2001.000000	6.011542
2002.000000	6.013696
2003.000000	6.009378
2004.000000	6.008649
2005.000000	6.010166
2006.000000	6.009002
2007.000000	6.005759
2008.000000	6.008973
2009.000000	6.015572
2010.000000	6.015144
2011.000000	6.022461
2012.000000	6.020477
2013.000000	6.028668
2014.000000	6.033736
2015.000000	6.045304
2016.000000	6.052300
2017.000000	6.056729
2018.000000	6.064414
2019.000000	6.076819
2020.000000	6.077905
2021.000000	6.090447
2022.000000	6.104646
2023.000000	6.113923
2024.000000	6.130671
2025.000000	6.142119
2026.000000	6.153050
2027.000000	6.167065
2028.000000	6.180440
2029.000000	6.199470
2030.000000	6.211806
2031.000000	6.230139
2032.000000	6.244779
2033.000000	6.258565
2034.000000	6.278675
2035.000000	6.287445
2036.000000	6.310983
2037.000000	6.331987
2038.000000	6.344228
2039.000000	6.367277
2040.000000	6.388373
2041.000000	6.409542
2042.000000	5.943241
2043.000000	5.958044
2044.000000	5.972660
2045.000000	5.990750
2046.000000	6.002218
2047.000000	6.017696
2048.000000	6.030063
2049.000000	6.042755
2050.000000	6.042931
2051.000000	6.050964
2052.000000	6.056085
2053.000000	6.054018
2054.000000	6.051163
2055.000000	6.535989
2056.000000	6.529368
2057.000000	6.034821
2058.000000	6.027478
2059.000000	6.019830
2060.000000	6.009790
2061.000000	5.994137
2062.000000	6.468227
2063.000000	5.967937
2064.000000	6.447677
2065.000000	6.436503
2066.000000	6.423865
2067.000000	6.410450
2068.000000	6.399107
2069.000000	6.393095
2070.000000	6.381645
2071.000000	6.375906
2072.000000	6.369202
2073.000000	6.357025
2074.000000	6.352021
2075.000000	6.349859
2076.000000	6.345141
2077.000000	6.339021
2078.000000	6.334859
2079.000000	6.821228
2080.000000	6.330399
2081.000000	6.329138
2082.000000	6.818329
2083.000000	6.333969
2084.000000	6.339701
2085.000000	6.339234
2086.000000	6.832764
2087.000000	6.838137
2088.000000	6.840010
2089.000000	6.846805
2090.000000	6.853653
2091.000000	6.854218
2092.000000	6.856003
2093.000000	6.860868
2094.000000	6.374653
2095.000000	6.866588
2096.000000	6.867299
2097.000000	6.870467
2098.000000	6.876904
2099.000000	6.875682
2100.000000	6.873357
2101.000000	6.875683
2102.000000	6.872768
2103.000000	6.872605
2104.000000	6.880791
2105.000000	6.881944
2106.000000	6.881194
2107.000000	6.882804
2108.000000	6.887469
2109.000000	6.888371
2110.000000	6.886571
2111.000000	6.891926
2112.000000	6.897338
2113.000000	6.895955
2114.000000	6.898219
2115.000000	6.902734
2116.000000	6.903311
2117.000000	6.907883
2118.000000	6.913620
2119.000000	6.920351
2120.000000	6.921089
2121.000000	6.925152
2122.000000	6.932613
2123.000000	6.934887
2124.000000	6.943501
2125.000000	6.950375
2126.000000	6.955925
2127.000000	6.965199
2128.000000	6.977122
2129.000000	6.981682
2130.000000	6.984487
2131.000000	6.992420
2132.000000	7.006837
2133.000000	7.013918
2134.000000	7.019380
2135.000000	7.027629
2136.000000	7.037826
2137.000000	7.049619
2138.000000	7.065307
2139.000000	7.073398
2140.000000	7.079485
2141.000000	7.090672
2142.000000	7.100487
2143.000000	7.112522
2144.000000	7.123228
2145.000000	6.645886
2146.000000	7.147262
2147.000000	6.667530
2148.000000	6.680202
2149.000000	6.692837
2150.000000	6.703298
2151.000000	6.713299
2152.000000	6.722247
2153.000000	6.728106
2154.000000	6.735970
2155.000000	6.747453
2156.000000	6.264973
2157.000000	6.761327
2158.000000	6.769103
2159.000000	6.774950
2160.000000	6.781326
2161.000000	6.786700
2162.000000	6.789921
2163.000000	6.794293
2164.000000	6.803316
2165.000000	6.806059
2166.000000	6.316374
2167.000000	6.810080
2168.000000	6.816887
2169.000000	6.325290
2170.000000	6.332606
2171.000000	6.335142
2172.000000	6.339505
2173.000000	6.343614
2174.000000	6.344847
2175.000000	5.857277
2176.000000	6.356450
2177.000000	6.352895
2178.000000	6.354155
2179.000000	6.364582
2180.000000	6.364129
2181.000000	6.369105
2182.000000	6.377537
2183.000000	6.379845
2184.000000	6.394207
2185.000000	5.907307
2186.000000	5.917525
2187.000000	5.922748
2188.000000	5.937341
2189.000000	5.946930
2190.000000	5.963963
2191.000000	5.487209
2192.000000	5.505987
2193.000000	5.518348
2194.000000	5.534802
2195.000000	6.049307
2196.000000	5.571411
2197.000000	5.597086
2198.000000	5.613327
2199.000000	5.629816
2200.000000	5.148547
2201.000000	5.651038
2202.000000	5.174383
2203.000000	5.684163
2204.000000	5.197038
2205.000000	5.201107
2206.000000	5.205398
2207.000000	5.211539
2208.000000	5.205791
2209.000000	5.204343
2210.000000	5.196612
2211.000000	5.194331
2212.000000	5.183104
2213.000000	5.181702
2214.000000	5.163440
2215.000000	5.155973
2216.000000	5.146520
2217.000000	5.131107
2218.000000	5.118332
2219.000000	5.109276
2220.000000	5.092122
2221.000000	5.576359
2222.000000	5.568546
2223.000000	5.553582
2224.000000	5.542691
2225.000000	5.533996
2226.000000	5.531294
2227.000000	5.520074
2228.000000	5.515472
2229.000000	5.512279
2230.000000	5.510387
2231.000000	5.519991
2232.000000	5.508758
2233.000000	5.500834
2234.000000	5.506146
2235.000000	5.508816
2236.000000	5.515568
2237.000000	5.515085
2238.000000	5.519551
2239.000000	5.521157
2240.000000	5.526266
2241.000000	5.527817
2242.000000	5.544282
2243.000000	5.548815
2244.000000	6.050754
2245.000000	6.060764
2246.000000	5.571393
2247.000000	5.582652
2248.000000	6.085826
2249.000000	5.601044
2250.000000	6.100329
2251.000000	6.119441
2252.000000	5.630343
2253.000000	5.632817
2254.000000	5.654261
2255.000000	5.654309
2256.000000	5.663163
2257.000000	5.669863
2258.000000	5.675770
2259.000000	6.170988
2260.000000	6.174907
2261.000000	5.688463
2262.000000	5.694255
2263.000000	5.696608
2264.000000	5.687536
2265.000000	5.683184
2266.000000	5.686364
2267.000000	6.181127
2268.000000	6.181821
2269.000000	6.169183
2270.000000	6.170318
2271.000000	6.171542
2272.000000	6.162150
2273.000000	6.165070
2274.000000	5.672691
2275.000000	6.155818
2276.000000	6.157769
2277.000000	6.647415
2278.000000	6.153308
2279.000000	6.147061
2280.000000	6.152180
2281.000000	6.152356
2282.000000	6.155248
2283.000000	6.638010
2284.000000	6.144748
2285.000000	6.146644
2286.000000	6.638185
2287.000000	6.639272
2288.000000	6.634679
2289.000000	6.640570
2290.000000	6.145972
2291.000000	6.632535
2292.000000	6.625775
2293.000000	6.632018
2294.000000	6.628942
2295.000000	6.627542
2296.000000	6.625884
2297.000000	6.623662
2298.000000	6.628499
2299.000000	6.623247
2300.000000	6.618033
2301.000000	7.105771
2302.000000	6.610615
2303.000000	7.098738
2304.000000	7.098642
2305.000000	7.091056
2306.000000	7.086710
2307.000000	7.080597
2308.000000	7.080950
2309.000000	7.077271
2310.000000	7.071898
2311.000000	7.065497
2312.000000	7.065123
2313.000000	7.065342
2314.000000	7.060416
2315.000000	7.053402
2316.000000	7.056531
2317.000000	7.551905
2318.000000	7.057473
2319.000000	7.548336
2320.000000	7.550960
2321.000000	7.556553
2322.000000	7.557847
2323.000000	7.558581
2324.000000	7.558468
2325.000000	7.561743
2326.000000	7.568500
2327.000000	7.570028
2328.000000	7.569796
2329.000000	7.568398
2330.000000	7.572338
2331.000000	7.569893
2332.000000	7.568062
2333.000000	7.570577
2334.000000	7.569926
2335.000000	7.569346
2336.000000	8.061874
2337.000000	8.059638
2338.000000	7.564091
2339.000000	7.562707
2340.000000	8.053288
2341.000000	8.052074
2342.000000	7.557998
2343.000000	7.557418
2344.000000	7.553294
2345.000000	8.041020
2346.000000	7.548353
2347.000000	8.040718
2348.000000	8.036464
2349.000000	8.031011
2350.000000	8.034154
2351.000000	8.033818
2352.000000	7.535967
2353.000000	8.023260
2354.000000	8.516088
2355.000000	8.025948
2356.000000	8.023234
2357.000000	8.021805
2358.000000	8.025114
2359.000000	8.024311
2360.000000	8.020752
2361.000000	8.514749
2362.000000	8.020365
2363.000000	8.022001
2364.000000	8.022529
2365.000000	8.021996
2366.000000	8.020830
2367.000000	8.514680
2368.000000	8.517402
2369.000000	8.516585
2370.000000	8.512580
2371.000000	8.510742
2372.000000	8.014872
2373.000000	8.013657
2374.000000	8.014359
2375.000000	8.010913
2376.000000	8.499094
2377.000000	8.500871
2378.000000	8.011064
2379.000000	8.505760
2380.000000	8.504645
2381.000000	8.506788
2382.000000	8.012135
2383.000000	8.505950
2384.000000	9.000781
2385.000000	8.510935
2386.000000	9.005703
2387.000000	9.007572
2388.000000	8.517880
2389.000000	8.516491
2390.000000	8.026957
2391.000000	8.521002
2392.000000	8.026739
2393.000000	8.525362
2394.000000	9.023713
2395.000000	9.027169
2396.000000	9.029408
2397.000000	9.032727
2398.000000	9.034267
2399.000000	9.040621
2400.000000	9.046623
2401.000000	9.050385
2402.000000	9.053946
2403.000000	9.056775
2404.000000	9.062247
2405.000000	9.065703
2406.000000	8.578564
2407.000000	8.583173
2408.000000	9.081539
2409.000000	9.090302
2410.000000	9.097932
2411.000000	9.104945
2412.000000	9.110402
2413.000000	8.622711
2414.000000	8.622148
2415.000000	8.634315
2416.000000	9.134828
2417.000000	9.639415
2418.000000	9.156583
2419.000000	9.166904
2420.000000	9.172828
2421.000000	9.681892
2422.000000	9.692640
2423.000000	9.201604
2424.000000	9.210925
2425.000000	9.226404
2426.000000	9.734266
2427.000000	9.241287
2428.000000	9.254219
2429.000000	9.260985
2430.000000	9.269169
2431.000000	9.276412
2432.000000	9.786775
2433.000000	9.295752
2434.000000	9.304956
2435.000000	9.316009
2436.000000	10.313523
2437.000000	9.826947
2438.000000	10.333036
2439.000000	9.850142
2440.000000	9.363651
2441.000000	9.870706
2442.000000	10.373137
2443.000000	10.372258
2444.000000	9.389492
2445.000000	9.402432
2446.000000	9.903853
2447.000000	10.409925
2448.000000	10.416333
2449.000000	11.416225
2450.000000	10.932931
2451.000000	10.430513
2452.000000	10.934545
2453.000000	11.441436
2454.000000	11.456790
2455.000000	10.954500
2456.000000	10.462602
2457.000000	11.961745
2458.000000	11.468450
2459.000000	12.972729
2460.000000	11.978383
2461.000000	11.986311
2462.000000	12.987811
2463.000000	11.991096
2464.000000	12.987459
2465.000000	13.489445
2466.000000	14.487787
2467.000000	12.996960
2468.000000	13.999121
2469.000000	13.004627
2470.000000	13.505460
2471.000000	13.512649
2472.000000	15.007928
2473.000000	14.501869
2474.000000	14.507360
2475.000000	14.011613
2476.000000	15.505674
2477.000000	14.496984
2478.000000	16.008190
2479.000000	15.017783
2480.000000	16.513460
2481.000000	16.493541
2482.000000	16.004598
2483.000000	16.011816
2484.000000	17.501525
2485.000000	18.986180
2486.000000	18.499874
2487.000000	18.498645
2488.000000	19.481274
2489.000000	19.981604
2490.000000	19.454163
2491.000000	18.986266
2492.000000	19.454552
2493.000000	20.468354
2494.000000	20.951362
2495.000000	21.438571
2496.000000	21.463702
2497.000000	22.459783
2498.000000	22.966769
2499.000000	22.436497
2500.000000	21.434506
2501.000000	nan
2502.000000	nan
2503.000000	nan
2504.000000	nan
2505.000000	nan
2506.000000	nan
2507.000000	nan
2508.000000	nan
2509.000000	nan
2510.000000	nan
2511.000000	nan
2512.000000	nan
2513.000000	nan
2514.000000	nan
2515.000000	nan
2516.000000	nan
2517.000000	nan
2518.000000	nan
2519.000000	nan
2520.000000	nan
2521.000000	nan
2522.000000	nan
2523.000000	nan
2524.000000	nan
2525.000000	nan
2526.000000	nan
2527.000000	nan
2528.000000	nan
2529.000000	nan
2530.000000	nan
2531.000000	nan
2532.000000	nan
2533.000000	nan
2534.000000	nan
2535.000000	nan
2536.000000	nan
2537.000000	nan
2538.000000	nan
2539.000000	nan
2540.000000	nan
2541.000000	nan
2542.000000	nan
2543.000000	nan
2544.000000	nan
2545.000000	nan
2546.000000	nan
2547.000000	nan
2548.000000	nan
2549.000000	nan
2550.000000	nan
2551.000000	nan
2552.000000	nan
2553.000000	nan
2554.000000	nan
2555.000000	nan
2556.000000	nan
2557.000000	nan
2558.000000	nan
2559.000000	nan
2560.000000	nan
2561.000000	nan
2562.000000	nan
2563.000000	nan
2564.000000	nan
2565.000000	nan
2566.000000	nan
2567.000000	nan
2568.000000	nan
2569.000000	nan
2570.000000	nan
2571.000000	nan
2572.000000	nan
2573.000000	nan
2574.000000	nan
2575.000000	nan
2576.000000	nan
2577.000000	nan
2578.000000	nan
2579.000000	nan
2580.000000	nan
2581.000000	nan
2582.000000	nan
2583.000000	nan
2584.000000	nan
2585.000000	nan
2586.000000	nan
2587.000000	nan
2588.000000	nan
2589.000000	nan
2590.000000	nan
2591.000000	nan
2592.000000	nan
2593.000000	nan
2594.000000	nan
2595.000000	nan
2596.000000	nan
2597.000000	nan
2598.000000	nan
2599.000000	nan
2600.000000	nan
2601.000000	nan
2602.000000	nan
2603.000000	nan
2604.000000	nan
2605.000000	nan
2606.000000	nan
2607.000000	nan
2608.000000	nan
2609.000000	nan
2610.000000	nan
2611.000000	nan
2612.000000	nan
2613.000000	nan
2614.000000	nan
2615.000000	nan
2616.000000	nan
2617.000000	nan
2618.000000	nan
2619.000000	nan
2620.000000	nan
2621.000000	nan
2622.000000	nan
2623.000000	nan
2624.000000	nan
2625.000000	nan
2626.000000	nan
2627.000000	nan
2628.000000	nan
2629.000000	nan
2630.000000	nan
2631.000000	nan
2632.000000	nan
2633.000000	nan
2634.000000	nan
2635.000000	nan
2636.000000	nan
2637.000000	nan
2638.000000	nan
2639.000000	nan
2640.000000	nan
2641.000000	nan
2642.000000	nan
2643.000000	nan
2644.000000	nan
2645.000000	nan
2646.000000	nan
2647.000000	nan
2648.000000	nan
2649.000000	nan
2650.000000	nan
2651.000000	nan
2652.000000	nan
2653.000000	nan
2654.000000	nan
2655.000000	nan
2656.000000	nan
2657.000000	nan
2658.000000	nan
2659.000000	nan
2660.000000	nan
2661.000000	nan
2662.000000	nan
2663.000000	nan
2664.000000	nan
2665.000000	nan
2666.000000	nan
2667.000000	nan
2668.000000	nan
2669.000000	nan
2670.000000	nan
2671.000000	nan
2672.000000	nan
2673.000000	nan
2674.000000	nan
2675.000000	nan
2676.000000	nan
2677.000000	nan
2678.000000	nan
2679.000000	nan
2680.000000	nan
2681.000000	nan
2682.000000	nan
2683.000000	nan
2684.000000	nan
2685.000000	nan
2686.000000	nan
2687.000000	nan
2688.000000	nan
2689.000000	nan
2690.000000	nan
2691.000000	nan
2692.000000	nan
2693.000000	nan
2694.000000	nan
2695.000000	nan
2696.000000	nan
2697.000000	nan
2698.000000	nan
2699.000000	nan
2700.000000	nan
2701.000000	nan
2702.000000	nan
2703.000000	nan
2704.000000	nan
2705.000000	nan
2706.000000	nan
2707.000000	nan
2708.000000	nan
2709.000000	nan
2710.000000	nan
2711.000000	nan
2712.000000	nan
2713.000000	nan
2714.000000	nan
2715.000000	nan
2716.000000	nan
2717.000000	nan
2718.000000	nan
2719.000000	nan
2720.000000	nan
2721.000000	nan
2722.000000	nan
2723.000000	nan
2724.000000	nan
2725.000000	nan
2726.000000	nan
2727.000000	nan
2728.000000	nan
2729.000000	nan
2730.000000	nan
2731.000000	nan
2732.000000	nan
2733.000000	nan
2734.000000	nan
2735.000000	nan
2736.000000	nan
2737.000000	nan
2738.000000	nan
2739.000000	nan
2740.000000	nan
2741.000000	nan
2742.000000	nan
2743.000000	nan
2744.000000	nan
2745.000000	nan
2746.000000	nan
2747.000000	nan
2748.000000	nan
2749.000000	nan
2750.000000	nan
2751.000000	nan
2752.000000	nan
2753.000000	nan
2754.000000	nan
2755.000000	nan
2756.000000	nan
2757.000000	nan
2758.000000	nan
2759.000000	nan
2760.000000	nan
2761.000000	nan
2762.000000	nan
2763.000000	nan
2764.000000	nan
2765.000000	nan
2766.000000	nan
2767.000000	nan
2768.000000	nan
2769.000000	nan
2770.000000	nan
2771.000000	nan
2772.000000	nan
2773.000000	nan
2774.000000	nan
2775.000000	nan
2776.000000	nan
2777.000000	nan
2778.000000	nan
2779.000000	nan
2780.000000	nan
2781.000000	nan
2782.000000	nan
2783.000000	nan
2784.000000	nan
2785.000000	nan
2786.000000	nan
2787.000000	nan
2788.000000	nan
2789.000000	nan
2790.000000	nan
2791.000000	nan
2792.000000	nan
2793.000000	nan
2794.000000	nan
2795.000000	nan
2796.000000	nan
2797.000000	nan
2798.000000	nan
2799.000000	nan
2800.000000	nan
2801.000000	nan
2802.000000	nan
2803.000000	nan
2804.000000	nan
2805.000000	nan
2806.000000	nan
2807.000000	nan
2808.000000	nan
2809.000000	nan
2810.000000	nan
2811.000000	nan
2812.000000	nan
2813.000000	nan
2814.000000	nan
2815.000000	nan
2816.000000	nan
2817.000000	nan
2818.000000	nan
2819.000000	nan
2820.000000	nan
2821.000000	nan
2822.000000	nan
2823.000000	nan
2824.000000	nan
2825.000000	nan
2826.000000	nan
2827.000000	nan
2828.000000	nan
2829.000000	nan
2830.000000	nan
2831.000000	nan
2832.000000	nan
2833.000000	nan
2834.000000	nan
2835.000000	nan
2836.000000	nan
2837.000000	nan
2838.000000	nan
2839.000000	nan
2840.000000	nan
2841.000000	nan
2842.000000	nan
2843.000000	nan
2844.000000	nan
2845.000000	nan
2846.000000	nan
2847.000000	nan
2848.000000	nan
2849.000000	nan
2850.000000	nan
2851.000000	nan
2852.000000	nan
2853.000000	nan
2854.000000	nan
2855.000000	nan
2856.000000	nan
2857.000000	nan
2858.000000	nan
2859.000000	nan
2860.000000	nan
2861.000000	nan
2862.000000	nan
2863.000000	nan
2864.000000	nan
2865.000000	nan
2866.000000	nan
2867.000000	nan
2868.000000	nan
2869.000000	nan
2870.000000	nan
2871.000000	nan
2872.000000	nan
2873.000000	nan
2874.000000	nan
2875.000000	nan
2876.000000	nan
2877.000000	nan
2878.000000	nan
2879.000000	nan
2880.000000	nan
2881.000000	nan
2882.000000	nan
2883.000000	nan
2884.000000	nan
2885.000000	nan
2886.000000	nan
2887.000000	nan
2888.000000	nan
2889.000000	nan
2890.000000	nan
2891.000000	nan
2892.000000	nan
2893.000000	nan
2894.000000	nan
2895.000000	nan
2896.000000	nan
2897.000000	nan
2898.000000	nan
2899.000000	nan
2900.000000	nan
2901.000000	nan
2902.000000	nan
2903.000000	nan
2904.000000	nan
2905.000000	nan
2906.000000	nan
2907.000000	nan
2908.000000	nan
2909.000000	nan
2910.000000	nan
2911.000000	nan
2912.000000	nan
2913.000000	nan
2914.000000	nan
2915.000000	nan
2916.000000	nan
2917.000000	nan
2918.000000	nan
2919.000000	nan
2920.000000	nan
2921.000000	nan
2922.000000	nan
2923.000000	nan
2924.000000	nan
2925.000000	nan
2926.000000	nan
2927.000000	nan
2928.000000	nan
2929.000000	nan
2930.000000	nan
2931.000000	nan
2932.000000	nan
2933.000000	nan
2934.000000	nan
2935.000000	nan
2936.000000	nan
2937.000000	nan
2938.000000	nan
2939.000000	nan
2940.000000	nan
2941.000000	nan
2942.000000	nan
2943.000000	nan
2944.000000	nan
2945.000000	nan
2946.000000	nan
2947.000000	nan
2948.000000	nan
2949.000000	nan
2950.000000	nan
2951.000000	nan
2952.000000	nan
2953.000000	nan
2954.000000	nan
2955.000000	nan
2956.000000	nan
2957.000000	nan
2958.000000	nan
2959.000000	nan
2960.000000	nan
2961.000000	nan
2962.000000	nan
2963.000000	nan
2964.000000	nan
2965.000000	nan
2966.000000	nan
2967.000000	nan
2968.000000	nan
2969.000000	nan
2970.000000	nan
2971.000000	nan
2972.000000	nan
2973.000000	nan
2974.000000	nan
2975.000000	nan
2976.000000	nan
2977.000000	nan
2978.000000	nan
2979.000000	nan
2980.000000	nan
2981.000000	nan
2982.000000	nan
2983.000000	nan
2984.000000	nan
2985.000000	nan
2986.000000	nan
2987.000000	nan
2988.000000	nan
2989.000000	nan
2990.000000	nan
2991.000000	nan
2992.000000	nan
2993.000000	nan
2994.000000	nan
2995.000000	nan
2996.000000	nan
2997.000000	nan
2998.000000	nan
2999.000000	nan
3000.000000	nan
