PE UV       SUBTECH     SPECTRUM    ASCII       PEDS        4.00        
   -1
INBUCR0216-4.Sample.ASC
24/02/08
09:52:45.00
24/02/08
09:52:45.00
Vinicio Soto Monge
Coopelares, Sector Las Pailas, Prov Guanacaste. COSTA RICA. 1600 m. 24 JUN-10 JUL 1995. K. Taylor L_N_311400_389400 #6199. INBIOCRI002426713.
250,000000
1
Lambda 1050
1050L1511233
PerkinElmer UV WinLab 6.3.2.0749 / 2.02.05 Lambda 900 UV/VIS/NIR, Aug  7 2015 09:38:08

0
0
3350/servo 860,8/2
0
0
UV/VIS
1
1
1
DoubleDePol,CommonBeamDepol,RBeamAtt,SBeamAtt,60mm sphere, WB InGaAs Detector
0
0
0
0
Program
Program
3350/servo 860,8/2
3350/0,2 860,8/0,2
3350/0,2 860,8/0,2
0
15.00
 
 
 
0
 
860,8
319,2
860,8
Front
100
on
S:100 R:100
0
0
0
0
 
0
 
 
 
0
 
 
0
0
0
0
0
 
 
 
 
0
0


0
0
#HDR
-1
-1
#GR
nm
%R
1.0
0.0
2500,000000
-1,000000
2251
8
14,336900
1,328200
#DATA

250.000000	2.927236
251.000000	2.922590
252.000000	2.898398
253.000000	2.867287
254.000000	2.899584
255.000000	2.885497
256.000000	2.882191
257.000000	2.868948
258.000000	2.870419
259.000000	2.844065
260.000000	2.805403
261.000000	2.807356
262.000000	2.779284
263.000000	2.782523
264.000000	2.756624
265.000000	2.743241
266.000000	2.741674
267.000000	2.720837
268.000000	2.711010
269.000000	2.720116
270.000000	2.696796
271.000000	2.661859
272.000000	2.666386
273.000000	2.679699
274.000000	2.662201
275.000000	2.670979
276.000000	2.655048
277.000000	2.664786
278.000000	2.617268
279.000000	2.637096
280.000000	2.627333
281.000000	2.645488
282.000000	2.614369
283.000000	2.634957
284.000000	2.635366
285.000000	2.623106
286.000000	2.593861
287.000000	2.607709
288.000000	2.623280
289.000000	2.634055
290.000000	2.626061
291.000000	2.627733
292.000000	2.632311
293.000000	2.610411
294.000000	2.641918
295.000000	2.603988
296.000000	2.608407
297.000000	2.617115
298.000000	2.620479
299.000000	2.631615
300.000000	2.630584
301.000000	2.603358
302.000000	2.624008
303.000000	2.632221
304.000000	2.614769
305.000000	2.595891
306.000000	2.597839
307.000000	2.568149
308.000000	2.599780
309.000000	2.595728
310.000000	2.599853
311.000000	2.586335
312.000000	2.603250
313.000000	2.584794
314.000000	2.604797
315.000000	2.583105
316.000000	2.582285
317.000000	2.562062
318.000000	2.549669
319.000000	2.647565
320.000000	2.656491
321.000000	2.637712
322.000000	2.630716
323.000000	2.568662
324.000000	2.617908
325.000000	2.594638
326.000000	2.621950
327.000000	2.625481
328.000000	2.550863
329.000000	2.596014
330.000000	2.614116
331.000000	2.555149
332.000000	2.556857
333.000000	2.615822
334.000000	2.643484
335.000000	2.604257
336.000000	2.605522
337.000000	2.597586
338.000000	2.561098
339.000000	2.555435
340.000000	2.638746
341.000000	2.631463
342.000000	2.633428
343.000000	2.636125
344.000000	2.658918
345.000000	2.626455
346.000000	2.638002
347.000000	2.645111
348.000000	2.637888
349.000000	2.618021
350.000000	2.619669
351.000000	2.651745
352.000000	2.634499
353.000000	2.633168
354.000000	2.634829
355.000000	2.629540
356.000000	2.660309
357.000000	2.654594
358.000000	2.632482
359.000000	2.684500
360.000000	2.650425
361.000000	2.678705
362.000000	2.658470
363.000000	2.656767
364.000000	2.680595
365.000000	2.666277
366.000000	2.660459
367.000000	2.697103
368.000000	2.684526
369.000000	2.670957
370.000000	2.693930
371.000000	2.696242
372.000000	2.710491
373.000000	2.697556
374.000000	2.712317
375.000000	2.727737
376.000000	2.767859
377.000000	2.781653
378.000000	2.783592
379.000000	2.779284
380.000000	2.781873
381.000000	2.785581
382.000000	2.785592
383.000000	2.791138
384.000000	2.792435
385.000000	2.797536
386.000000	2.797716
387.000000	2.800884
388.000000	2.804983
389.000000	2.807733
390.000000	2.804971
391.000000	2.809084
392.000000	2.816692
393.000000	2.816824
394.000000	2.819314
395.000000	2.821111
396.000000	2.826645
397.000000	2.832008
398.000000	2.833243
399.000000	2.833968
400.000000	2.838161
401.000000	2.841328
402.000000	2.845554
403.000000	2.843214
404.000000	2.840974
405.000000	2.845968
406.000000	2.847464
407.000000	2.849628
408.000000	2.854905
409.000000	2.858588
410.000000	2.861069
411.000000	2.867093
412.000000	2.874571
413.000000	2.871690
414.000000	2.874820
415.000000	2.881440
416.000000	2.887941
417.000000	2.895574
418.000000	2.899217
419.000000	2.901184
420.000000	2.904769
421.000000	2.909511
422.000000	2.912275
423.000000	2.916404
424.000000	2.926151
425.000000	2.932732
426.000000	2.932562
427.000000	2.936949
428.000000	2.945617
429.000000	2.954617
430.000000	2.959241
431.000000	2.963155
432.000000	2.969260
433.000000	2.973143
434.000000	2.980603
435.000000	2.989217
436.000000	2.993581
437.000000	3.000109
438.000000	3.010765
439.000000	3.017880
440.000000	3.023747
441.000000	3.029618
442.000000	3.034262
443.000000	3.044645
444.000000	3.053949
445.000000	3.059816
446.000000	3.070445
447.000000	3.074674
448.000000	3.075733
449.000000	3.083433
450.000000	3.091870
451.000000	3.102568
452.000000	3.111281
453.000000	3.116826
454.000000	3.125488
455.000000	3.137782
456.000000	3.145484
457.000000	3.156475
458.000000	3.161652
459.000000	3.169977
460.000000	3.180302
461.000000	3.192775
462.000000	3.201887
463.000000	3.211127
464.000000	3.226629
465.000000	3.234642
466.000000	3.250089
467.000000	3.269201
468.000000	3.286682
469.000000	3.303390
470.000000	3.318143
471.000000	3.336514
472.000000	3.359819
473.000000	3.378524
474.000000	3.400504
475.000000	3.427608
476.000000	3.455043
477.000000	3.481060
478.000000	3.507851
479.000000	3.541315
480.000000	3.578353
481.000000	3.617275
482.000000	3.656259
483.000000	3.699807
484.000000	3.745081
485.000000	3.797475
486.000000	3.845146
487.000000	3.901147
488.000000	3.965089
489.000000	4.031348
490.000000	4.107269
491.000000	4.193401
492.000000	4.283337
493.000000	4.387207
494.000000	4.503606
495.000000	4.633422
496.000000	4.770482
497.000000	4.932078
498.000000	5.110795
499.000000	5.303888
500.000000	5.529631
501.000000	5.786150
502.000000	6.065310
503.000000	6.379146
504.000000	6.721437
505.000000	7.100959
506.000000	7.530239
507.000000	7.998373
508.000000	8.504301
509.000000	9.050162
510.000000	9.635256
511.000000	10.237635
512.000000	10.839495
513.000000	11.439999
514.000000	12.029573
515.000000	12.608924
516.000000	13.159893
517.000000	13.708883
518.000000	14.254188
519.000000	14.816656
520.000000	15.390400
521.000000	15.964397
522.000000	16.539695
523.000000	17.068225
524.000000	17.530388
525.000000	17.908593
526.000000	18.216521
527.000000	18.457915
528.000000	18.649268
529.000000	18.782447
530.000000	18.895447
531.000000	18.977696
532.000000	19.049685
533.000000	19.097846
534.000000	19.145274
535.000000	19.183940
536.000000	19.214192
537.000000	19.241643
538.000000	19.282233
539.000000	19.296976
540.000000	19.322990
541.000000	19.350066
542.000000	19.367286
543.000000	19.388946
544.000000	19.405955
545.000000	19.437100
546.000000	19.464777
547.000000	19.481328
548.000000	19.508141
549.000000	19.521553
550.000000	19.537285
551.000000	19.552088
552.000000	19.577993
553.000000	19.589661
554.000000	19.619877
555.000000	19.620593
556.000000	19.640053
557.000000	19.637722
558.000000	19.640446
559.000000	19.634816
560.000000	19.714988
561.000000	19.748360
562.000000	19.740512
563.000000	19.762107
564.000000	19.750571
565.000000	19.727577
566.000000	19.727343
567.000000	19.712797
568.000000	19.695797
569.000000	19.660463
570.000000	19.626813
571.000000	19.602351
572.000000	19.569565
573.000000	19.534429
574.000000	19.493653
575.000000	19.450018
576.000000	19.388206
577.000000	19.327587
578.000000	19.232949
579.000000	19.192388
580.000000	19.127932
581.000000	19.068980
582.000000	19.015869
583.000000	18.955263
584.000000	18.877023
585.000000	18.770904
586.000000	18.636175
587.000000	18.480898
588.000000	18.293053
589.000000	18.144469
590.000000	18.072629
591.000000	18.083137
592.000000	18.167137
593.000000	18.287271
594.000000	18.381009
595.000000	18.420593
596.000000	18.396237
597.000000	18.313109
598.000000	18.204109
599.000000	18.051674
600.000000	17.853047
601.000000	17.614990
602.000000	17.298201
603.000000	16.965675
604.000000	16.634104
605.000000	16.421551
606.000000	16.384033
607.000000	16.529252
608.000000	16.788276
609.000000	17.076877
610.000000	17.338423
611.000000	17.492807
612.000000	17.549262
613.000000	17.517833
614.000000	17.425367
615.000000	17.264882
616.000000	17.049746
617.000000	16.787661
618.000000	16.479672
619.000000	16.172214
620.000000	15.906095
621.000000	15.744104
622.000000	15.715760
623.000000	15.811926
624.000000	16.053572
625.000000	16.353040
626.000000	16.656585
627.000000	16.895298
628.000000	17.068297
629.000000	17.146879
630.000000	17.140063
631.000000	17.093002
632.000000	16.981804
633.000000	16.802698
634.000000	16.591352
635.000000	16.377413
636.000000	16.139636
637.000000	15.941085
638.000000	15.841251
639.000000	15.830668
640.000000	15.907299
641.000000	16.118783
642.000000	16.388218
643.000000	16.685780
644.000000	16.948654
645.000000	17.135948
646.000000	17.270837
647.000000	17.308846
648.000000	17.304578
649.000000	17.247780
650.000000	17.148162
651.000000	17.016921
652.000000	16.873575
653.000000	16.713790
654.000000	16.573633
655.000000	16.477888
656.000000	16.428199
657.000000	16.475659
658.000000	16.559403
659.000000	16.714968
660.000000	16.933238
661.000000	17.160640
662.000000	17.369905
663.000000	17.563082
664.000000	17.705021
665.000000	17.797580
666.000000	17.860681
667.000000	17.858655
668.000000	17.846011
669.000000	17.807695
670.000000	17.749323
671.000000	17.689490
672.000000	17.638763
673.000000	17.607044
674.000000	17.603217
675.000000	17.607896
676.000000	17.655623
677.000000	17.722272
678.000000	17.850326
679.000000	18.007675
680.000000	18.192105
681.000000	18.379681
682.000000	18.567123
683.000000	18.745952
684.000000	18.883244
685.000000	18.967634
686.000000	19.031026
687.000000	19.069321
688.000000	19.090753
689.000000	19.121942
690.000000	19.131587
691.000000	19.136300
692.000000	19.169249
693.000000	19.192605
694.000000	19.224416
695.000000	19.275987
696.000000	19.339821
697.000000	19.434217
698.000000	19.536782
699.000000	19.660654
700.000000	19.822868
701.000000	19.958320
702.000000	20.090841
703.000000	20.245385
704.000000	20.376611
705.000000	20.467358
706.000000	20.544151
707.000000	20.616870
708.000000	20.681680
709.000000	20.722159
710.000000	20.755562
711.000000	20.812242
712.000000	20.878913
713.000000	20.924695
714.000000	20.983137
715.000000	21.049493
716.000000	21.111978
717.000000	21.189673
718.000000	21.268746
719.000000	21.322340
720.000000	21.378173
721.000000	21.459857
722.000000	21.541776
723.000000	21.641038
724.000000	21.731151
725.000000	21.803892
726.000000	21.896426
727.000000	21.993665
728.000000	22.071388
729.000000	22.134427
730.000000	22.192383
731.000000	22.255301
732.000000	22.320513
733.000000	22.375264
734.000000	22.440212
735.000000	22.495668
736.000000	22.545469
737.000000	22.572213
738.000000	22.623452
739.000000	22.655095
740.000000	22.692606
741.000000	22.745549
742.000000	22.808633
743.000000	22.879379
744.000000	22.939270
745.000000	23.010337
746.000000	23.108868
747.000000	23.192571
748.000000	23.265142
749.000000	23.346069
750.000000	23.399349
751.000000	23.448917
752.000000	23.512465
753.000000	23.577859
754.000000	23.615426
755.000000	23.661713
756.000000	23.673811
757.000000	23.684897
758.000000	23.710947
759.000000	23.766218
760.000000	23.803026
761.000000	23.823389
762.000000	23.906493
763.000000	23.974086
764.000000	24.034888
765.000000	24.113874
766.000000	24.184315
767.000000	24.282910
768.000000	24.364445
769.000000	24.432972
770.000000	24.478299
771.000000	24.528126
772.000000	24.578485
773.000000	24.633981
774.000000	24.705321
775.000000	24.756675
776.000000	24.772393
777.000000	24.804904
778.000000	24.849417
779.000000	24.878476
780.000000	24.927081
781.000000	24.988209
782.000000	24.992008
783.000000	25.057271
784.000000	25.145484
785.000000	25.205749
786.000000	25.257342
787.000000	25.295327
788.000000	25.374930
789.000000	25.417475
790.000000	25.489503
791.000000	25.503976
792.000000	25.562250
793.000000	25.597566
794.000000	25.654230
795.000000	25.687768
796.000000	25.745004
797.000000	25.773462
798.000000	25.819951
799.000000	25.839415
800.000000	25.887351
801.000000	25.920567
802.000000	25.987434
803.000000	26.011474
804.000000	26.077101
805.000000	26.132548
806.000000	26.180601
807.000000	26.277153
808.000000	26.290844
809.000000	26.365288
810.000000	26.433164
811.000000	26.455560
812.000000	26.549789
813.000000	26.591223
814.000000	26.670391
815.000000	26.757049
816.000000	26.814838
817.000000	26.886593
818.000000	26.951382
819.000000	26.962862
820.000000	27.043603
821.000000	27.103754
822.000000	27.168144
823.000000	27.235789
824.000000	27.294940
825.000000	27.343461
826.000000	27.449903
827.000000	27.507177
828.000000	27.544758
829.000000	27.618790
830.000000	27.720145
831.000000	27.781416
832.000000	27.873048
833.000000	27.846693
834.000000	27.927041
835.000000	27.995248
836.000000	28.097299
837.000000	28.030952
838.000000	28.076568
839.000000	28.181543
840.000000	28.206181
841.000000	28.313776
842.000000	28.383772
843.000000	28.444698
844.000000	28.446459
845.000000	28.542569
846.000000	28.427824
847.000000	28.425700
848.000000	28.522747
849.000000	28.672693
850.000000	28.574725
851.000000	28.656477
852.000000	28.756475
853.000000	28.953765
854.000000	28.900839
855.000000	28.846047
856.000000	28.850090
857.000000	28.783707
858.000000	26.909567
859.000000	29.364478
860.000000	29.289457
861.000000	29.411144
862.000000	29.748455
863.000000	29.462335
864.000000	29.536670
865.000000	29.653091
866.000000	29.727280
867.000000	29.482295
868.000000	29.381422
869.000000	29.315630
870.000000	29.113074
871.000000	29.342284
872.000000	29.275284
873.000000	29.271085
874.000000	29.092142
875.000000	29.230890
876.000000	29.200994
877.000000	29.036682
878.000000	29.004804
879.000000	29.086932
880.000000	29.048529
881.000000	29.143785
882.000000	29.023409
883.000000	28.846986
884.000000	28.777256
885.000000	28.828836
886.000000	28.792666
887.000000	28.716975
888.000000	28.798362
889.000000	28.771249
890.000000	28.707781
891.000000	28.770784
892.000000	28.776622
893.000000	28.651680
894.000000	28.556166
895.000000	28.495031
896.000000	28.453620
897.000000	28.408965
898.000000	28.379656
899.000000	28.452549
900.000000	28.535518
901.000000	28.438095
902.000000	28.361219
903.000000	28.218491
904.000000	28.177980
905.000000	28.225915
906.000000	28.174168
907.000000	28.087935
908.000000	28.019236
909.000000	27.916057
910.000000	27.886397
911.000000	27.836795
912.000000	27.798634
913.000000	27.790458
914.000000	27.851268
915.000000	27.696890
916.000000	27.623540
917.000000	27.514522
918.000000	27.581035
919.000000	27.569005
920.000000	27.489904
921.000000	27.428881
922.000000	27.416483
923.000000	27.345860
924.000000	27.316095
925.000000	27.288286
926.000000	27.241474
927.000000	27.162432
928.000000	27.109723
929.000000	27.093257
930.000000	27.050492
931.000000	27.024914
932.000000	26.954046
933.000000	26.892642
934.000000	26.833487
935.000000	26.778713
936.000000	26.679653
937.000000	26.629035
938.000000	26.610924
939.000000	26.643072
940.000000	26.571703
941.000000	26.499179
942.000000	26.466209
943.000000	26.388746
944.000000	26.353056
945.000000	26.329871
946.000000	26.301039
947.000000	26.284321
948.000000	26.223609
949.000000	26.179129
950.000000	26.133603
951.000000	26.068967
952.000000	26.049782
953.000000	26.036593
954.000000	26.015208
955.000000	25.982405
956.000000	25.951088
957.000000	25.913457
958.000000	25.857540
959.000000	25.822790
960.000000	25.827855
961.000000	25.828741
962.000000	25.822562
963.000000	25.797895
964.000000	25.757961
965.000000	25.746138
966.000000	25.728827
967.000000	25.709310
968.000000	25.673448
969.000000	25.649145
970.000000	25.648665
971.000000	25.624123
972.000000	25.595494
973.000000	25.573911
974.000000	25.549988
975.000000	25.545584
976.000000	25.532459
977.000000	25.535165
978.000000	25.531693
979.000000	25.515488
980.000000	25.524034
981.000000	25.529348
982.000000	25.511121
983.000000	25.483030
984.000000	25.479459
985.000000	25.504352
986.000000	25.501552
987.000000	25.499770
988.000000	25.495063
989.000000	25.490500
990.000000	25.480812
991.000000	25.470839
992.000000	25.463177
993.000000	25.484490
994.000000	25.499329
995.000000	25.510578
996.000000	25.503004
997.000000	25.494036
998.000000	25.490418
999.000000	25.479586
1000.000000	25.498906
1001.000000	25.513554
1002.000000	25.529772
1003.000000	25.555116
1004.000000	25.557547
1005.000000	25.555743
1006.000000	25.563862
1007.000000	25.566532
1008.000000	25.577759
1009.000000	25.593998
1010.000000	25.608167
1011.000000	25.609919
1012.000000	25.611778
1013.000000	25.621784
1014.000000	25.624713
1015.000000	25.631934
1016.000000	25.648069
1017.000000	25.675513
1018.000000	25.692500
1019.000000	25.702328
1020.000000	25.712793
1021.000000	25.725418
1022.000000	25.737779
1023.000000	25.754151
1024.000000	25.777883
1025.000000	25.795427
1026.000000	25.818002
1027.000000	25.833184
1028.000000	25.843546
1029.000000	25.862213
1030.000000	25.880236
1031.000000	25.884305
1032.000000	25.909282
1033.000000	25.933112
1034.000000	25.956078
1035.000000	25.969175
1036.000000	25.986809
1037.000000	25.998343
1038.000000	26.007009
1039.000000	26.019853
1040.000000	26.033314
1041.000000	26.047698
1042.000000	26.079255
1043.000000	26.095926
1044.000000	26.102268
1045.000000	26.106402
1046.000000	26.116790
1047.000000	26.134661
1048.000000	26.150053
1049.000000	26.177456
1050.000000	26.207279
1051.000000	26.234222
1052.000000	26.258828
1053.000000	26.254720
1054.000000	26.265777
1055.000000	26.294278
1056.000000	26.312125
1057.000000	26.335700
1058.000000	26.362717
1059.000000	26.390416
1060.000000	26.395998
1061.000000	26.398660
1062.000000	26.416645
1063.000000	26.445204
1064.000000	26.470796
1065.000000	26.491816
1066.000000	26.513913
1067.000000	26.529305
1068.000000	26.539659
1069.000000	26.540600
1070.000000	26.552760
1071.000000	26.569905
1072.000000	26.597570
1073.000000	26.621768
1074.000000	26.645179
1075.000000	26.655367
1076.000000	26.673313
1077.000000	26.680132
1078.000000	26.683989
1079.000000	26.708520
1080.000000	26.735025
1081.000000	26.743039
1082.000000	26.757116
1083.000000	26.769635
1084.000000	26.766477
1085.000000	26.778274
1086.000000	26.807394
1087.000000	26.818789
1088.000000	26.827076
1089.000000	26.849815
1090.000000	26.868656
1091.000000	26.881019
1092.000000	26.891334
1093.000000	26.911242
1094.000000	26.903246
1095.000000	26.928769
1096.000000	26.950786
1097.000000	26.962147
1098.000000	26.973604
1099.000000	26.990508
1100.000000	27.021597
1101.000000	27.032861
1102.000000	27.038216
1103.000000	27.050417
1104.000000	27.076751
1105.000000	27.102253
1106.000000	27.115547
1107.000000	27.134187
1108.000000	27.137842
1109.000000	27.131866
1110.000000	27.146666
1111.000000	27.181778
1112.000000	27.193645
1113.000000	27.210492
1114.000000	27.240052
1115.000000	27.250140
1116.000000	27.237595
1117.000000	27.239564
1118.000000	27.266608
1119.000000	27.265000
1120.000000	27.281773
1121.000000	27.281955
1122.000000	27.278142
1123.000000	27.290832
1124.000000	27.276785
1125.000000	27.282455
1126.000000	27.268790
1127.000000	27.262539
1128.000000	27.264017
1129.000000	27.256910
1130.000000	27.237535
1131.000000	27.234796
1132.000000	27.250973
1133.000000	27.254347
1134.000000	27.219643
1135.000000	27.207112
1136.000000	27.190283
1137.000000	27.172369
1138.000000	27.160305
1139.000000	27.162719
1140.000000	27.151046
1141.000000	27.124500
1142.000000	27.134893
1143.000000	27.149321
1144.000000	27.122155
1145.000000	27.111439
1146.000000	27.110745
1147.000000	27.100284
1148.000000	27.080795
1149.000000	27.073691
1150.000000	27.059324
1151.000000	27.053375
1152.000000	27.046594
1153.000000	27.029405
1154.000000	27.000736
1155.000000	26.987040
1156.000000	26.956010
1157.000000	26.940927
1158.000000	26.916024
1159.000000	26.903453
1160.000000	26.875595
1161.000000	26.850419
1162.000000	26.825743
1163.000000	26.809818
1164.000000	26.788764
1165.000000	26.777368
1166.000000	26.749042
1167.000000	26.740530
1168.000000	26.722354
1169.000000	26.682890
1170.000000	26.677780
1171.000000	26.657320
1172.000000	26.633512
1173.000000	26.627066
1174.000000	26.630946
1175.000000	26.627726
1176.000000	26.610598
1177.000000	26.596905
1178.000000	26.595104
1179.000000	26.590380
1180.000000	26.583856
1181.000000	26.589256
1182.000000	26.592796
1183.000000	26.610837
1184.000000	26.600604
1185.000000	26.597306
1186.000000	26.614704
1187.000000	26.633439
1188.000000	26.665419
1189.000000	26.683573
1190.000000	26.708375
1191.000000	26.727858
1192.000000	26.746205
1193.000000	26.783224
1194.000000	26.805459
1195.000000	26.828824
1196.000000	26.846147
1197.000000	26.853009
1198.000000	26.865499
1199.000000	26.896040
1200.000000	26.912505
1201.000000	26.923842
1202.000000	26.948399
1203.000000	26.975939
1204.000000	27.000990
1205.000000	27.012552
1206.000000	27.031485
1207.000000	27.045713
1208.000000	27.060506
1209.000000	27.088458
1210.000000	27.104672
1211.000000	27.114629
1212.000000	27.126680
1213.000000	27.145865
1214.000000	27.166874
1215.000000	27.187292
1216.000000	27.200565
1217.000000	27.235501
1218.000000	27.249480
1219.000000	27.267430
1220.000000	27.288121
1221.000000	27.300123
1222.000000	27.325163
1223.000000	27.351155
1224.000000	27.375312
1225.000000	27.395823
1226.000000	27.409715
1227.000000	27.430465
1228.000000	27.449386
1229.000000	27.465969
1230.000000	27.482712
1231.000000	27.500087
1232.000000	27.522114
1233.000000	27.537384
1234.000000	27.545268
1235.000000	27.560120
1236.000000	27.575043
1237.000000	27.588724
1238.000000	27.601585
1239.000000	27.603944
1240.000000	27.616283
1241.000000	27.629755
1242.000000	27.634893
1243.000000	27.652289
1244.000000	27.667931
1245.000000	27.681891
1246.000000	27.695372
1247.000000	27.702759
1248.000000	27.714918
1249.000000	27.719785
1250.000000	27.731961
1251.000000	27.748439
1252.000000	27.760277
1253.000000	27.771120
1254.000000	27.791742
1255.000000	27.808185
1256.000000	27.814430
1257.000000	27.821524
1258.000000	27.827944
1259.000000	27.846770
1260.000000	27.865255
1261.000000	27.873622
1262.000000	27.876694
1263.000000	27.889248
1264.000000	27.901980
1265.000000	27.919649
1266.000000	27.932384
1267.000000	27.946031
1268.000000	27.960152
1269.000000	27.967937
1270.000000	27.974870
1271.000000	27.982237
1272.000000	27.995459
1273.000000	28.009238
1274.000000	28.015688
1275.000000	28.024480
1276.000000	28.043699
1277.000000	28.053342
1278.000000	28.065884
1279.000000	28.083536
1280.000000	28.091877
1281.000000	28.097947
1282.000000	28.109682
1283.000000	28.114605
1284.000000	28.119326
1285.000000	28.129579
1286.000000	28.141455
1287.000000	28.155939
1288.000000	28.165116
1289.000000	28.170553
1290.000000	28.178393
1291.000000	28.185611
1292.000000	28.193729
1293.000000	28.206814
1294.000000	28.215075
1295.000000	28.224825
1296.000000	28.227898
1297.000000	28.233880
1298.000000	28.238134
1299.000000	28.239013
1300.000000	28.249065
1301.000000	28.255896
1302.000000	28.263690
1303.000000	28.284667
1304.000000	28.296880
1305.000000	28.291178
1306.000000	28.284964
1307.000000	28.290535
1308.000000	28.294124
1309.000000	28.299721
1310.000000	28.300791
1311.000000	28.305922
1312.000000	28.310418
1313.000000	28.313392
1314.000000	28.308716
1315.000000	28.299789
1316.000000	28.298831
1317.000000	28.294738
1318.000000	28.289471
1319.000000	28.287371
1320.000000	28.271367
1321.000000	28.254833
1322.000000	28.251688
1323.000000	28.241839
1324.000000	28.225422
1325.000000	28.210366
1326.000000	28.193617
1327.000000	28.164233
1328.000000	28.145406
1329.000000	28.127704
1330.000000	28.110825
1331.000000	28.086559
1332.000000	28.063632
1333.000000	28.035263
1334.000000	28.003469
1335.000000	27.981023
1336.000000	27.964247
1337.000000	27.929292
1338.000000	27.894133
1339.000000	27.861828
1340.000000	27.850047
1341.000000	27.820654
1342.000000	27.785236
1343.000000	27.753964
1344.000000	27.728953
1345.000000	27.706111
1346.000000	27.687135
1347.000000	27.644172
1348.000000	27.604496
1349.000000	27.567817
1350.000000	27.538952
1351.000000	27.515008
1352.000000	27.491484
1353.000000	27.465197
1354.000000	27.393092
1355.000000	27.330122
1356.000000	27.310240
1357.000000	27.283171
1358.000000	27.251626
1359.000000	27.257544
1360.000000	27.209754
1361.000000	27.107754
1362.000000	27.027248
1363.000000	27.008430
1364.000000	26.962573
1365.000000	26.904441
1366.000000	26.900538
1367.000000	26.871437
1368.000000	26.820467
1369.000000	26.779137
1370.000000	26.735032
1371.000000	26.655742
1372.000000	26.594882
1373.000000	26.553309
1374.000000	26.490311
1375.000000	26.423499
1376.000000	26.361656
1377.000000	26.303482
1378.000000	26.274677
1379.000000	26.231286
1380.000000	26.184020
1381.000000	26.077465
1382.000000	25.972572
1383.000000	25.869546
1384.000000	25.812983
1385.000000	25.745188
1386.000000	25.689495
1387.000000	25.599944
1388.000000	25.487869
1389.000000	25.421420
1390.000000	25.381679
1391.000000	25.314582
1392.000000	25.212780
1393.000000	25.144618
1394.000000	25.075138
1395.000000	24.941248
1396.000000	24.794572
1397.000000	24.716592
1398.000000	24.670442
1399.000000	24.579961
1400.000000	24.416818
1401.000000	24.268675
1402.000000	24.179597
1403.000000	24.082323
1404.000000	23.951029
1405.000000	23.826944
1406.000000	23.693161
1407.000000	23.575690
1408.000000	23.436526
1409.000000	23.295856
1410.000000	23.149617
1411.000000	23.036126
1412.000000	22.926415
1413.000000	22.814339
1414.000000	22.681575
1415.000000	22.544271
1416.000000	22.450883
1417.000000	22.364699
1418.000000	22.238296
1419.000000	22.106352
1420.000000	22.008300
1421.000000	21.925998
1422.000000	21.833211
1423.000000	21.741732
1424.000000	21.642730
1425.000000	21.554220
1426.000000	21.471705
1427.000000	21.386903
1428.000000	21.325666
1429.000000	21.234547
1430.000000	21.172158
1431.000000	21.107418
1432.000000	21.025276
1433.000000	20.958059
1434.000000	20.896897
1435.000000	20.840165
1436.000000	20.801696
1437.000000	20.735205
1438.000000	20.662784
1439.000000	20.616776
1440.000000	20.559001
1441.000000	20.498808
1442.000000	20.437622
1443.000000	20.405348
1444.000000	20.351595
1445.000000	20.299670
1446.000000	20.246771
1447.000000	20.207448
1448.000000	20.171832
1449.000000	20.135060
1450.000000	20.075496
1451.000000	20.035544
1452.000000	19.986874
1453.000000	19.948935
1454.000000	19.909720
1455.000000	19.871391
1456.000000	19.838217
1457.000000	19.786110
1458.000000	19.758258
1459.000000	19.717790
1460.000000	19.680169
1461.000000	19.632661
1462.000000	19.595195
1463.000000	19.562042
1464.000000	19.529609
1465.000000	19.493361
1466.000000	19.456327
1467.000000	19.412906
1468.000000	19.379855
1469.000000	19.336960
1470.000000	19.307760
1471.000000	19.276150
1472.000000	19.236511
1473.000000	19.202190
1474.000000	19.171505
1475.000000	19.147876
1476.000000	19.117575
1477.000000	19.084319
1478.000000	19.068004
1479.000000	19.051751
1480.000000	19.019124
1481.000000	18.985435
1482.000000	18.978824
1483.000000	18.969123
1484.000000	18.962382
1485.000000	18.937750
1486.000000	18.930274
1487.000000	18.928280
1488.000000	18.910634
1489.000000	18.898892
1490.000000	18.900707
1491.000000	18.905012
1492.000000	18.892461
1493.000000	18.905898
1494.000000	18.912816
1495.000000	18.914922
1496.000000	18.917242
1497.000000	18.929575
1498.000000	18.937796
1499.000000	18.957380
1500.000000	18.982056
1501.000000	18.994895
1502.000000	19.007075
1503.000000	19.029064
1504.000000	19.056685
1505.000000	19.086427
1506.000000	19.098865
1507.000000	19.137425
1508.000000	19.173765
1509.000000	19.194975
1510.000000	19.224273
1511.000000	19.250492
1512.000000	19.286100
1513.000000	19.330247
1514.000000	19.363908
1515.000000	19.391152
1516.000000	19.420384
1517.000000	19.460165
1518.000000	19.498059
1519.000000	19.532595
1520.000000	19.559847
1521.000000	19.595488
1522.000000	19.625859
1523.000000	19.653868
1524.000000	19.679368
1525.000000	19.718520
1526.000000	19.753168
1527.000000	19.770248
1528.000000	19.801547
1529.000000	19.834076
1530.000000	19.858406
1531.000000	19.889527
1532.000000	19.914351
1533.000000	19.940770
1534.000000	19.962163
1535.000000	19.982763
1536.000000	20.015204
1537.000000	20.040370
1538.000000	20.059828
1539.000000	20.075538
1540.000000	20.096652
1541.000000	20.129938
1542.000000	20.161657
1543.000000	20.177705
1544.000000	20.196730
1545.000000	20.223246
1546.000000	20.251883
1547.000000	20.277359
1548.000000	20.302040
1549.000000	20.326221
1550.000000	20.355031
1551.000000	20.372485
1552.000000	20.389986
1553.000000	20.410070
1554.000000	20.425375
1555.000000	20.451298
1556.000000	20.471679
1557.000000	20.491517
1558.000000	20.508691
1559.000000	20.521121
1560.000000	20.528260
1561.000000	20.533349
1562.000000	20.532001
1563.000000	20.547559
1564.000000	20.548350
1565.000000	20.540163
1566.000000	20.538495
1567.000000	20.535647
1568.000000	20.540487
1569.000000	20.531141
1570.000000	20.526264
1571.000000	20.526800
1572.000000	20.526209
1573.000000	20.530670
1574.000000	20.520815
1575.000000	20.521637
1576.000000	20.540522
1577.000000	20.542878
1578.000000	20.536855
1579.000000	20.534252
1580.000000	20.552430
1581.000000	20.567895
1582.000000	20.573546
1583.000000	20.591508
1584.000000	20.607693
1585.000000	20.623871
1586.000000	20.646009
1587.000000	20.664845
1588.000000	20.684128
1589.000000	20.699375
1590.000000	20.719735
1591.000000	20.745390
1592.000000	20.763965
1593.000000	20.793088
1594.000000	20.815551
1595.000000	20.833773
1596.000000	20.857090
1597.000000	20.891359
1598.000000	20.927819
1599.000000	20.949772
1600.000000	20.966305
1601.000000	20.994415
1602.000000	21.023817
1603.000000	21.065658
1604.000000	21.103541
1605.000000	21.136639
1606.000000	21.152389
1607.000000	21.178891
1608.000000	21.213463
1609.000000	21.240013
1610.000000	21.269688
1611.000000	21.295065
1612.000000	21.313779
1613.000000	21.335011
1614.000000	21.346536
1615.000000	21.369835
1616.000000	21.391640
1617.000000	21.429013
1618.000000	21.448534
1619.000000	21.461926
1620.000000	21.478394
1621.000000	21.493894
1622.000000	21.515484
1623.000000	21.542885
1624.000000	21.551355
1625.000000	21.576585
1626.000000	21.593409
1627.000000	21.598601
1628.000000	21.617907
1629.000000	21.630821
1630.000000	21.644064
1631.000000	21.665796
1632.000000	21.680317
1633.000000	21.688248
1634.000000	21.704937
1635.000000	21.703939
1636.000000	21.714585
1637.000000	21.731280
1638.000000	21.748822
1639.000000	21.742506
1640.000000	21.764450
1641.000000	21.762844
1642.000000	21.755768
1643.000000	21.771708
1644.000000	21.767481
1645.000000	21.770882
1646.000000	21.757256
1647.000000	21.754702
1648.000000	21.753036
1649.000000	21.737094
1650.000000	21.750729
1651.000000	21.723502
1652.000000	21.707920
1653.000000	21.706590
1654.000000	21.678089
1655.000000	21.658759
1656.000000	21.616288
1657.000000	21.592577
1658.000000	21.560357
1659.000000	21.524916
1660.000000	21.477038
1661.000000	21.424407
1662.000000	21.369547
1663.000000	21.326731
1664.000000	21.264428
1665.000000	21.207507
1666.000000	21.154455
1667.000000	21.100833
1668.000000	21.041881
1669.000000	20.983867
1670.000000	20.912418
1671.000000	20.850619
1672.000000	20.758315
1673.000000	20.677463
1674.000000	20.620312
1675.000000	20.568912
1676.000000	20.485451
1677.000000	20.402403
1678.000000	20.338775
1679.000000	20.268014
1680.000000	20.179217
1681.000000	20.106949
1682.000000	20.041684
1683.000000	19.977952
1684.000000	19.919083
1685.000000	19.878604
1686.000000	19.835101
1687.000000	19.801233
1688.000000	19.761784
1689.000000	19.729478
1690.000000	19.741140
1691.000000	19.746793
1692.000000	19.734191
1693.000000	19.726669
1694.000000	19.728641
1695.000000	19.738228
1696.000000	19.734453
1697.000000	19.738081
1698.000000	19.753352
1699.000000	19.759057
1700.000000	19.768224
1701.000000	19.731545
1702.000000	19.719115
1703.000000	19.706570
1704.000000	19.700384
1705.000000	19.678100
1706.000000	19.625876
1707.000000	19.578112
1708.000000	19.526281
1709.000000	19.475934
1710.000000	19.438039
1711.000000	19.373194
1712.000000	19.323299
1713.000000	19.247203
1714.000000	19.179471
1715.000000	19.086013
1716.000000	19.005901
1717.000000	18.960082
1718.000000	18.886295
1719.000000	18.820208
1720.000000	18.759309
1721.000000	18.720837
1722.000000	18.680333
1723.000000	18.630294
1724.000000	18.617966
1725.000000	18.600468
1726.000000	18.591936
1727.000000	18.572973
1728.000000	18.575226
1729.000000	18.582746
1730.000000	18.596332
1731.000000	18.622324
1732.000000	18.659401
1733.000000	18.661847
1734.000000	18.691175
1735.000000	18.719546
1736.000000	18.738453
1737.000000	18.787951
1738.000000	18.814859
1739.000000	18.863509
1740.000000	18.904265
1741.000000	18.939656
1742.000000	18.960290
1743.000000	18.982239
1744.000000	19.017561
1745.000000	19.065261
1746.000000	19.093004
1747.000000	19.132125
1748.000000	19.141465
1749.000000	19.165935
1750.000000	19.176190
1751.000000	19.201744
1752.000000	19.218230
1753.000000	19.241738
1754.000000	19.258037
1755.000000	19.274680
1756.000000	19.280811
1757.000000	19.291856
1758.000000	19.301569
1759.000000	19.306151
1760.000000	19.313016
1761.000000	19.328313
1762.000000	19.329844
1763.000000	19.340414
1764.000000	19.345330
1765.000000	19.361029
1766.000000	19.380179
1767.000000	19.399902
1768.000000	19.411439
1769.000000	19.422642
1770.000000	19.440591
1771.000000	19.447341
1772.000000	19.461665
1773.000000	19.474970
1774.000000	19.495914
1775.000000	19.525597
1776.000000	19.533355
1777.000000	19.534660
1778.000000	19.536289
1779.000000	19.550958
1780.000000	19.566582
1781.000000	19.579386
1782.000000	19.586749
1783.000000	19.598306
1784.000000	19.610213
1785.000000	19.618432
1786.000000	19.629549
1787.000000	19.644923
1788.000000	19.656648
1789.000000	19.659749
1790.000000	19.659516
1791.000000	19.669852
1792.000000	19.680995
1793.000000	19.701391
1794.000000	19.714512
1795.000000	19.724827
1796.000000	19.732419
1797.000000	19.751709
1798.000000	19.774901
1799.000000	19.788894
1800.000000	19.799337
1801.000000	19.803276
1802.000000	19.814187
1803.000000	19.828199
1804.000000	19.854893
1805.000000	19.872092
1806.000000	19.882449
1807.000000	19.894009
1808.000000	19.917614
1809.000000	19.945327
1810.000000	19.964632
1811.000000	19.960338
1812.000000	19.965637
1813.000000	19.990022
1814.000000	20.005787
1815.000000	20.012462
1816.000000	20.021161
1817.000000	20.044522
1818.000000	20.091500
1819.000000	20.105906
1820.000000	20.077155
1821.000000	20.036234
1822.000000	20.025081
1823.000000	20.076608
1824.000000	20.134794
1825.000000	20.173616
1826.000000	20.183755
1827.000000	20.173121
1828.000000	20.175183
1829.000000	20.197389
1830.000000	20.182014
1831.000000	20.167934
1832.000000	20.203000
1833.000000	20.262734
1834.000000	20.328254
1835.000000	20.337774
1836.000000	20.338342
1837.000000	20.319071
1838.000000	20.326449
1839.000000	20.358209
1840.000000	20.334558
1841.000000	20.298147
1842.000000	20.259859
1843.000000	20.303143
1844.000000	20.392449
1845.000000	20.471648
1846.000000	20.476924
1847.000000	20.431652
1848.000000	20.334900
1849.000000	20.290762
1850.000000	20.337321
1851.000000	20.373319
1852.000000	20.373559
1853.000000	20.372196
1854.000000	20.371963
1855.000000	20.362881
1856.000000	20.354386
1857.000000	20.381975
1858.000000	20.375313
1859.000000	20.323346
1860.000000	20.290374
1861.000000	20.268324
1862.000000	20.244199
1863.000000	20.229342
1864.000000	20.197060
1865.000000	20.181123
1866.000000	20.230731
1867.000000	20.214163
1868.000000	20.145399
1869.000000	20.017061
1870.000000	19.880650
1871.000000	19.749995
1872.000000	19.596241
1873.000000	19.436307
1874.000000	19.364873
1875.000000	19.219851
1876.000000	19.117674
1877.000000	19.007664
1878.000000	18.878743
1879.000000	18.740373
1880.000000	18.630377
1881.000000	18.522817
1882.000000	18.382241
1883.000000	18.210292
1884.000000	18.017058
1885.000000	17.843656
1886.000000	17.650782
1887.000000	17.515348
1888.000000	17.374485
1889.000000	17.204489
1890.000000	17.015707
1891.000000	16.755282
1892.000000	16.518542
1893.000000	16.328969
1894.000000	16.139501
1895.000000	15.934370
1896.000000	15.754902
1897.000000	15.506462
1898.000000	15.292566
1899.000000	15.028389
1900.000000	14.757388
1901.000000	14.586575
1902.000000	14.388680
1903.000000	14.193032
1904.000000	13.937173
1905.000000	13.664633
1906.000000	13.439956
1907.000000	13.253822
1908.000000	13.087778
1909.000000	12.955440
1910.000000	12.842390
1911.000000	12.664352
1912.000000	12.444969
1913.000000	12.259250
1914.000000	12.157598
1915.000000	12.040610
1916.000000	11.886542
1917.000000	11.821922
1918.000000	11.748716
1919.000000	11.593464
1920.000000	11.547400
1921.000000	11.439416
1922.000000	11.365968
1923.000000	11.273284
1924.000000	11.204009
1925.000000	11.166390
1926.000000	11.141467
1927.000000	11.073857
1928.000000	10.953097
1929.000000	10.950477
1930.000000	10.892620
1931.000000	10.853895
1932.000000	10.870452
1933.000000	10.836641
1934.000000	10.795922
1935.000000	10.813314
1936.000000	10.822823
1937.000000	10.805713
1938.000000	10.796422
1939.000000	10.780100
1940.000000	10.753989
1941.000000	10.811478
1942.000000	10.823422
1943.000000	10.827292
1944.000000	10.849416
1945.000000	10.850117
1946.000000	10.821767
1947.000000	10.890798
1948.000000	10.952541
1949.000000	10.953785
1950.000000	10.989010
1951.000000	11.024706
1952.000000	11.008102
1953.000000	11.074021
1954.000000	11.088852
1955.000000	11.168843
1956.000000	11.161489
1957.000000	11.272692
1958.000000	11.264787
1959.000000	11.316764
1960.000000	11.359760
1961.000000	11.386556
1962.000000	11.411020
1963.000000	11.459448
1964.000000	11.504708
1965.000000	11.557952
1966.000000	11.606192
1967.000000	11.613368
1968.000000	11.671722
1969.000000	11.700534
1970.000000	11.794710
1971.000000	11.804888
1972.000000	11.846602
1973.000000	11.912040
1974.000000	11.926146
1975.000000	12.003418
1976.000000	12.040872
1977.000000	12.121009
1978.000000	12.135916
1979.000000	12.188366
1980.000000	12.214161
1981.000000	12.268371
1982.000000	12.326652
1983.000000	12.365593
1984.000000	12.399440
1985.000000	12.426121
1986.000000	12.507034
1987.000000	12.519365
1988.000000	12.560313
1989.000000	12.648459
1990.000000	12.673009
1991.000000	12.761988
1992.000000	12.754913
1993.000000	12.766403
1994.000000	12.834044
1995.000000	12.878241
1996.000000	12.896929
1997.000000	12.956999
1998.000000	13.003660
1999.000000	13.054927
2000.000000	13.070565
2001.000000	13.126241
2002.000000	13.155901
2003.000000	13.170138
2004.000000	13.198787
2005.000000	13.185127
2006.000000	13.185104
2007.000000	13.205450
2008.000000	13.238731
2009.000000	13.275963
2010.000000	13.256784
2011.000000	13.239772
2012.000000	13.274813
2013.000000	13.262316
2014.000000	13.257668
2015.000000	13.246135
2016.000000	13.256783
2017.000000	13.261115
2018.000000	13.232474
2019.000000	13.244912
2020.000000	13.224992
2021.000000	13.153487
2022.000000	13.139921
2023.000000	13.122121
2024.000000	13.131909
2025.000000	13.101086
2026.000000	13.038676
2027.000000	12.981996
2028.000000	12.926913
2029.000000	12.874034
2030.000000	12.820187
2031.000000	12.799213
2032.000000	12.786445
2033.000000	12.742961
2034.000000	12.703578
2035.000000	12.639283
2036.000000	12.570149
2037.000000	12.532928
2038.000000	12.460765
2039.000000	12.366189
2040.000000	12.338074
2041.000000	12.296105
2042.000000	12.222171
2043.000000	12.184111
2044.000000	12.182790
2045.000000	12.175452
2046.000000	12.135788
2047.000000	12.083207
2048.000000	11.993346
2049.000000	11.928742
2050.000000	11.918182
2051.000000	11.948644
2052.000000	11.942578
2053.000000	11.919011
2054.000000	11.925718
2055.000000	11.865920
2056.000000	11.842122
2057.000000	11.872636
2058.000000	11.884759
2059.000000	11.926125
2060.000000	11.964881
2061.000000	11.967581
2062.000000	12.028270
2063.000000	12.078874
2064.000000	12.087431
2065.000000	12.142345
2066.000000	12.248649
2067.000000	12.314665
2068.000000	12.309259
2069.000000	12.383417
2070.000000	12.422817
2071.000000	12.397993
2072.000000	12.462218
2073.000000	12.537516
2074.000000	12.619577
2075.000000	12.722418
2076.000000	12.791894
2077.000000	12.777192
2078.000000	12.775780
2079.000000	12.802805
2080.000000	12.884099
2081.000000	12.975283
2082.000000	12.983667
2083.000000	12.889077
2084.000000	12.895244
2085.000000	12.912544
2086.000000	12.908368
2087.000000	12.920393
2088.000000	12.949016
2089.000000	12.978497
2090.000000	13.014982
2091.000000	13.023915
2092.000000	13.013389
2093.000000	13.006985
2094.000000	12.991913
2095.000000	12.985603
2096.000000	12.920090
2097.000000	12.921028
2098.000000	12.981869
2099.000000	12.995469
2100.000000	13.014995
2101.000000	13.045954
2102.000000	13.033092
2103.000000	13.017280
2104.000000	13.033625
2105.000000	13.003647
2106.000000	13.104979
2107.000000	13.091590
2108.000000	13.021368
2109.000000	13.030790
2110.000000	13.200872
2111.000000	13.187268
2112.000000	13.169834
2113.000000	13.191989
2114.000000	13.114756
2115.000000	13.116738
2116.000000	13.115115
2117.000000	13.074450
2118.000000	13.082781
2119.000000	13.092169
2120.000000	13.125626
2121.000000	13.195197
2122.000000	13.117995
2123.000000	12.969730
2124.000000	13.063473
2125.000000	13.058736
2126.000000	13.074295
2127.000000	13.147558
2128.000000	13.069025
2129.000000	13.077245
2130.000000	13.006771
2131.000000	12.887431
2132.000000	12.781941
2133.000000	12.868349
2134.000000	12.942676
2135.000000	12.941581
2136.000000	12.819174
2137.000000	12.706324
2138.000000	12.693362
2139.000000	12.683785
2140.000000	12.740723
2141.000000	12.723740
2142.000000	12.674440
2143.000000	12.630805
2144.000000	12.557560
2145.000000	12.481139
2146.000000	12.441631
2147.000000	12.233313
2148.000000	12.218583
2149.000000	12.213935
2150.000000	12.340097
2151.000000	12.353456
2152.000000	12.067503
2153.000000	11.918385
2154.000000	11.750267
2155.000000	11.938345
2156.000000	11.956368
2157.000000	11.820238
2158.000000	11.828221
2159.000000	11.771139
2160.000000	11.758280
2161.000000	11.732800
2162.000000	11.690036
2163.000000	11.654939
2164.000000	11.705174
2165.000000	11.735948
2166.000000	11.670538
2167.000000	11.557392
2168.000000	11.479705
2169.000000	11.544037
2170.000000	11.530963
2171.000000	11.482246
2172.000000	11.480128
2173.000000	11.399728
2174.000000	11.397862
2175.000000	11.421149
2176.000000	11.347120
2177.000000	11.434734
2178.000000	11.362438
2179.000000	11.305861
2180.000000	11.491308
2181.000000	11.451402
2182.000000	11.425259
2183.000000	11.497816
2184.000000	11.466096
2185.000000	11.356020
2186.000000	11.419416
2187.000000	11.397512
2188.000000	11.623339
2189.000000	11.590665
2190.000000	11.567336
2191.000000	11.449277
2192.000000	11.522437
2193.000000	11.553431
2194.000000	11.695562
2195.000000	11.683969
2196.000000	11.578390
2197.000000	11.750056
2198.000000	11.603715
2199.000000	11.665809
2200.000000	11.721144
2201.000000	11.863225
2202.000000	11.919975
2203.000000	11.908185
2204.000000	11.792621
2205.000000	11.803461
2206.000000	11.815234
2207.000000	12.144502
2208.000000	12.042744
2209.000000	12.053709
2210.000000	12.173873
2211.000000	12.086595
2212.000000	12.260925
2213.000000	12.103420
2214.000000	12.156716
2215.000000	12.198088
2216.000000	12.289115
2217.000000	12.234155
2218.000000	12.359777
2219.000000	12.341830
2220.000000	12.321696
2221.000000	12.409923
2222.000000	12.406012
2223.000000	12.262828
2224.000000	12.359472
2225.000000	12.545329
2226.000000	12.469991
2227.000000	12.463494
2228.000000	12.461971
2229.000000	12.477158
2230.000000	12.408360
2231.000000	12.463582
2232.000000	12.478933
2233.000000	12.539780
2234.000000	12.650157
2235.000000	12.643479
2236.000000	12.503175
2237.000000	12.543765
2238.000000	12.529016
2239.000000	12.427642
2240.000000	12.383474
2241.000000	12.500450
2242.000000	12.392356
2243.000000	12.353528
2244.000000	12.428389
2245.000000	12.326858
2246.000000	12.134154
2247.000000	12.107464
2248.000000	12.128956
2249.000000	11.948218
2250.000000	11.947208
2251.000000	12.072879
2252.000000	11.787176
2253.000000	11.812545
2254.000000	11.775363
2255.000000	11.905136
2256.000000	11.811226
2257.000000	11.752062
2258.000000	11.666041
2259.000000	11.393111
2260.000000	11.492843
2261.000000	11.473819
2262.000000	11.274398
2263.000000	11.085617
2264.000000	11.149815
2265.000000	11.379530
2266.000000	11.469567
2267.000000	11.378900
2268.000000	11.258166
2269.000000	11.146619
2270.000000	11.049249
2271.000000	11.041357
2272.000000	10.831829
2273.000000	10.803169
2274.000000	10.857382
2275.000000	11.080691
2276.000000	11.176402
2277.000000	11.172238
2278.000000	10.931942
2279.000000	10.715817
2280.000000	10.773446
2281.000000	10.823500
2282.000000	10.899147
2283.000000	10.991314
2284.000000	11.049312
2285.000000	10.999456
2286.000000	10.981529
2287.000000	11.006584
2288.000000	10.936680
2289.000000	11.007815
2290.000000	11.084945
2291.000000	11.028600
2292.000000	11.044948
2293.000000	10.997339
2294.000000	10.854493
2295.000000	10.840366
2296.000000	10.947149
2297.000000	11.035818
2298.000000	11.057876
2299.000000	10.953925
2300.000000	10.894305
2301.000000	11.075252
2302.000000	11.174163
2303.000000	11.129206
2304.000000	11.279940
2305.000000	11.184122
2306.000000	11.091380
2307.000000	11.182999
2308.000000	11.184043
2309.000000	10.941139
2310.000000	10.963153
2311.000000	11.109316
2312.000000	11.292031
2313.000000	11.305947
2314.000000	11.319071
2315.000000	11.292140
2316.000000	11.306190
2317.000000	11.399355
2318.000000	11.290366
2319.000000	11.214577
2320.000000	11.302686
2321.000000	11.409495
2322.000000	11.490966
2323.000000	11.488719
2324.000000	11.386071
2325.000000	11.422158
2326.000000	11.433597
2327.000000	11.362679
2328.000000	11.466338
2329.000000	11.600869
2330.000000	11.720556
2331.000000	11.745701
2332.000000	11.635914
2333.000000	11.480342
2334.000000	11.315063
2335.000000	11.368778
2336.000000	11.557339
2337.000000	11.729670
2338.000000	11.823235
2339.000000	11.866588
2340.000000	11.881914
2341.000000	11.659015
2342.000000	11.634919
2343.000000	11.837200
2344.000000	11.905424
2345.000000	11.947973
2346.000000	12.000173
2347.000000	11.869139
2348.000000	11.798667
2349.000000	11.726272
2350.000000	11.671040
2351.000000	11.835662
2352.000000	11.786059
2353.000000	11.680939
2354.000000	11.821827
2355.000000	12.156238
2356.000000	12.300962
2357.000000	12.044888
2358.000000	12.231486
2359.000000	12.258680
2360.000000	12.144314
2361.000000	12.364697
2362.000000	12.366449
2363.000000	12.196456
2364.000000	12.244318
2365.000000	12.107637
2366.000000	12.180846
2367.000000	12.359131
2368.000000	12.290636
2369.000000	12.398694
2370.000000	12.459196
2371.000000	12.689279
2372.000000	12.589235
2373.000000	12.319473
2374.000000	12.413031
2375.000000	12.600817
2376.000000	12.545090
2377.000000	12.444809
2378.000000	12.451850
2379.000000	12.430747
2380.000000	12.409210
2381.000000	12.329236
2382.000000	12.483260
2383.000000	12.492321
2384.000000	12.799857
2385.000000	12.693734
2386.000000	12.889036
2387.000000	12.668078
2388.000000	12.730939
2389.000000	12.508392
2390.000000	12.625876
2391.000000	12.923840
2392.000000	13.102067
2393.000000	12.990035
2394.000000	12.867233
2395.000000	12.672904
2396.000000	12.701426
2397.000000	12.745622
2398.000000	12.649669
2399.000000	12.585107
2400.000000	13.016314
2401.000000	13.139931
2402.000000	12.937579
2403.000000	12.770719
2404.000000	12.756986
2405.000000	13.062163
2406.000000	12.996441
2407.000000	12.589269
2408.000000	12.847075
2409.000000	12.833670
2410.000000	13.061497
2411.000000	12.922879
2412.000000	12.496763
2413.000000	12.772641
2414.000000	12.976317
2415.000000	13.135109
2416.000000	13.007398
2417.000000	12.926611
2418.000000	12.796390
2419.000000	13.283537
2420.000000	13.199268
2421.000000	13.044845
2422.000000	12.946787
2423.000000	13.212143
2424.000000	13.169468
2425.000000	13.112490
2426.000000	13.479963
2427.000000	13.086860
2428.000000	12.918147
2429.000000	13.191566
2430.000000	13.319815
2431.000000	13.280115
2432.000000	13.255049
2433.000000	13.492753
2434.000000	12.983269
2435.000000	13.017691
2436.000000	13.357426
2437.000000	13.451665
2438.000000	13.147445
2439.000000	12.870049
2440.000000	12.576458
2441.000000	12.732021
2442.000000	13.243031
2443.000000	13.180752
2444.000000	13.289428
2445.000000	13.439013
2446.000000	13.288052
2447.000000	13.603496
2448.000000	13.133427
2449.000000	13.207905
2450.000000	13.536774
2451.000000	14.023321
2452.000000	13.882040
2453.000000	13.846600
2454.000000	13.942415
2455.000000	14.201274
2456.000000	14.161541
2457.000000	13.764129
2458.000000	13.965655
2459.000000	14.698975
2460.000000	14.960976
2461.000000	15.051451
2462.000000	14.246739
2463.000000	14.257161
2464.000000	13.942765
2465.000000	13.445860
2466.000000	15.548700
2467.000000	14.971694
2468.000000	15.974437
2469.000000	16.279715
2470.000000	15.392782
2471.000000	15.910359
2472.000000	14.951515
2473.000000	15.411251
2474.000000	16.451052
2475.000000	17.394264
2476.000000	16.791595
2477.000000	17.687856
2478.000000	17.348811
2479.000000	16.776120
2480.000000	16.930887
2481.000000	17.235849
2482.000000	18.823417
2483.000000	19.719324
2484.000000	18.744570
2485.000000	19.808941
2486.000000	20.203236
2487.000000	19.922434
2488.000000	20.409017
2489.000000	20.445270
2490.000000	21.237424
2491.000000	21.673462
2492.000000	21.295321
2493.000000	22.185865
2494.000000	22.463718
2495.000000	22.765719
2496.000000	21.489264
2497.000000	22.838882
2498.000000	23.584261
2499.000000	24.491623
2500.000000	24.522482
2501.000000	nan
2502.000000	nan
2503.000000	nan
2504.000000	nan
2505.000000	nan
2506.000000	nan
2507.000000	nan
2508.000000	nan
2509.000000	nan
2510.000000	nan
2511.000000	nan
2512.000000	nan
2513.000000	nan
2514.000000	nan
2515.000000	nan
2516.000000	nan
2517.000000	nan
2518.000000	nan
2519.000000	nan
2520.000000	nan
2521.000000	nan
2522.000000	nan
2523.000000	nan
2524.000000	nan
2525.000000	nan
2526.000000	nan
2527.000000	nan
2528.000000	nan
2529.000000	nan
2530.000000	nan
2531.000000	nan
2532.000000	nan
2533.000000	nan
2534.000000	nan
2535.000000	nan
2536.000000	nan
2537.000000	nan
2538.000000	nan
2539.000000	nan
2540.000000	nan
2541.000000	nan
2542.000000	nan
2543.000000	nan
2544.000000	nan
2545.000000	nan
2546.000000	nan
2547.000000	nan
2548.000000	nan
2549.000000	nan
2550.000000	nan
2551.000000	nan
2552.000000	nan
2553.000000	nan
2554.000000	nan
2555.000000	nan
2556.000000	nan
2557.000000	nan
2558.000000	nan
2559.000000	nan
2560.000000	nan
2561.000000	nan
2562.000000	nan
2563.000000	nan
2564.000000	nan
2565.000000	nan
2566.000000	nan
2567.000000	nan
2568.000000	nan
2569.000000	nan
2570.000000	nan
2571.000000	nan
2572.000000	nan
2573.000000	nan
2574.000000	nan
2575.000000	nan
2576.000000	nan
2577.000000	nan
2578.000000	nan
2579.000000	nan
2580.000000	nan
2581.000000	nan
2582.000000	nan
2583.000000	nan
2584.000000	nan
2585.000000	nan
2586.000000	nan
2587.000000	nan
2588.000000	nan
2589.000000	nan
2590.000000	nan
2591.000000	nan
2592.000000	nan
2593.000000	nan
2594.000000	nan
2595.000000	nan
2596.000000	nan
2597.000000	nan
2598.000000	nan
2599.000000	nan
2600.000000	nan
2601.000000	nan
2602.000000	nan
2603.000000	nan
2604.000000	nan
2605.000000	nan
2606.000000	nan
2607.000000	nan
2608.000000	nan
2609.000000	nan
2610.000000	nan
2611.000000	nan
2612.000000	nan
2613.000000	nan
2614.000000	nan
2615.000000	nan
2616.000000	nan
2617.000000	nan
2618.000000	nan
2619.000000	nan
2620.000000	nan
2621.000000	nan
2622.000000	nan
2623.000000	nan
2624.000000	nan
2625.000000	nan
2626.000000	nan
2627.000000	nan
2628.000000	nan
2629.000000	nan
2630.000000	nan
2631.000000	nan
2632.000000	nan
2633.000000	nan
2634.000000	nan
2635.000000	nan
2636.000000	nan
2637.000000	nan
2638.000000	nan
2639.000000	nan
2640.000000	nan
2641.000000	nan
2642.000000	nan
2643.000000	nan
2644.000000	nan
2645.000000	nan
2646.000000	nan
2647.000000	nan
2648.000000	nan
2649.000000	nan
2650.000000	nan
2651.000000	nan
2652.000000	nan
2653.000000	nan
2654.000000	nan
2655.000000	nan
2656.000000	nan
2657.000000	nan
2658.000000	nan
2659.000000	nan
2660.000000	nan
2661.000000	nan
2662.000000	nan
2663.000000	nan
2664.000000	nan
2665.000000	nan
2666.000000	nan
2667.000000	nan
2668.000000	nan
2669.000000	nan
2670.000000	nan
2671.000000	nan
2672.000000	nan
2673.000000	nan
2674.000000	nan
2675.000000	nan
2676.000000	nan
2677.000000	nan
2678.000000	nan
2679.000000	nan
2680.000000	nan
2681.000000	nan
2682.000000	nan
2683.000000	nan
2684.000000	nan
2685.000000	nan
2686.000000	nan
2687.000000	nan
2688.000000	nan
2689.000000	nan
2690.000000	nan
2691.000000	nan
2692.000000	nan
2693.000000	nan
2694.000000	nan
2695.000000	nan
2696.000000	nan
2697.000000	nan
2698.000000	nan
2699.000000	nan
2700.000000	nan
2701.000000	nan
2702.000000	nan
2703.000000	nan
2704.000000	nan
2705.000000	nan
2706.000000	nan
2707.000000	nan
2708.000000	nan
2709.000000	nan
2710.000000	nan
2711.000000	nan
2712.000000	nan
2713.000000	nan
2714.000000	nan
2715.000000	nan
2716.000000	nan
2717.000000	nan
2718.000000	nan
2719.000000	nan
2720.000000	nan
2721.000000	nan
2722.000000	nan
2723.000000	nan
2724.000000	nan
2725.000000	nan
2726.000000	nan
2727.000000	nan
2728.000000	nan
2729.000000	nan
2730.000000	nan
2731.000000	nan
2732.000000	nan
2733.000000	nan
2734.000000	nan
2735.000000	nan
2736.000000	nan
2737.000000	nan
2738.000000	nan
2739.000000	nan
2740.000000	nan
2741.000000	nan
2742.000000	nan
2743.000000	nan
2744.000000	nan
2745.000000	nan
2746.000000	nan
2747.000000	nan
2748.000000	nan
2749.000000	nan
2750.000000	nan
2751.000000	nan
2752.000000	nan
2753.000000	nan
2754.000000	nan
2755.000000	nan
2756.000000	nan
2757.000000	nan
2758.000000	nan
2759.000000	nan
2760.000000	nan
2761.000000	nan
2762.000000	nan
2763.000000	nan
2764.000000	nan
2765.000000	nan
2766.000000	nan
2767.000000	nan
2768.000000	nan
2769.000000	nan
2770.000000	nan
2771.000000	nan
2772.000000	nan
2773.000000	nan
2774.000000	nan
2775.000000	nan
2776.000000	nan
2777.000000	nan
2778.000000	nan
2779.000000	nan
2780.000000	nan
2781.000000	nan
2782.000000	nan
2783.000000	nan
2784.000000	nan
2785.000000	nan
2786.000000	nan
2787.000000	nan
2788.000000	nan
2789.000000	nan
2790.000000	nan
2791.000000	nan
2792.000000	nan
2793.000000	nan
2794.000000	nan
2795.000000	nan
2796.000000	nan
2797.000000	nan
2798.000000	nan
2799.000000	nan
2800.000000	nan
2801.000000	nan
2802.000000	nan
2803.000000	nan
2804.000000	nan
2805.000000	nan
2806.000000	nan
2807.000000	nan
2808.000000	nan
2809.000000	nan
2810.000000	nan
2811.000000	nan
2812.000000	nan
2813.000000	nan
2814.000000	nan
2815.000000	nan
2816.000000	nan
2817.000000	nan
2818.000000	nan
2819.000000	nan
2820.000000	nan
2821.000000	nan
2822.000000	nan
2823.000000	nan
2824.000000	nan
2825.000000	nan
2826.000000	nan
2827.000000	nan
2828.000000	nan
2829.000000	nan
2830.000000	nan
2831.000000	nan
2832.000000	nan
2833.000000	nan
2834.000000	nan
2835.000000	nan
2836.000000	nan
2837.000000	nan
2838.000000	nan
2839.000000	nan
2840.000000	nan
2841.000000	nan
2842.000000	nan
2843.000000	nan
2844.000000	nan
2845.000000	nan
2846.000000	nan
2847.000000	nan
2848.000000	nan
2849.000000	nan
2850.000000	nan
2851.000000	nan
2852.000000	nan
2853.000000	nan
2854.000000	nan
2855.000000	nan
2856.000000	nan
2857.000000	nan
2858.000000	nan
2859.000000	nan
2860.000000	nan
2861.000000	nan
2862.000000	nan
2863.000000	nan
2864.000000	nan
2865.000000	nan
2866.000000	nan
2867.000000	nan
2868.000000	nan
2869.000000	nan
2870.000000	nan
2871.000000	nan
2872.000000	nan
2873.000000	nan
2874.000000	nan
2875.000000	nan
2876.000000	nan
2877.000000	nan
2878.000000	nan
2879.000000	nan
2880.000000	nan
2881.000000	nan
2882.000000	nan
2883.000000	nan
2884.000000	nan
2885.000000	nan
2886.000000	nan
2887.000000	nan
2888.000000	nan
2889.000000	nan
2890.000000	nan
2891.000000	nan
2892.000000	nan
2893.000000	nan
2894.000000	nan
2895.000000	nan
2896.000000	nan
2897.000000	nan
2898.000000	nan
2899.000000	nan
2900.000000	nan
2901.000000	nan
2902.000000	nan
2903.000000	nan
2904.000000	nan
2905.000000	nan
2906.000000	nan
2907.000000	nan
2908.000000	nan
2909.000000	nan
2910.000000	nan
2911.000000	nan
2912.000000	nan
2913.000000	nan
2914.000000	nan
2915.000000	nan
2916.000000	nan
2917.000000	nan
2918.000000	nan
2919.000000	nan
2920.000000	nan
2921.000000	nan
2922.000000	nan
2923.000000	nan
2924.000000	nan
2925.000000	nan
2926.000000	nan
2927.000000	nan
2928.000000	nan
2929.000000	nan
2930.000000	nan
2931.000000	nan
2932.000000	nan
2933.000000	nan
2934.000000	nan
2935.000000	nan
2936.000000	nan
2937.000000	nan
2938.000000	nan
2939.000000	nan
2940.000000	nan
2941.000000	nan
2942.000000	nan
2943.000000	nan
2944.000000	nan
2945.000000	nan
2946.000000	nan
2947.000000	nan
2948.000000	nan
2949.000000	nan
2950.000000	nan
2951.000000	nan
2952.000000	nan
2953.000000	nan
2954.000000	nan
2955.000000	nan
2956.000000	nan
2957.000000	nan
2958.000000	nan
2959.000000	nan
2960.000000	nan
2961.000000	nan
2962.000000	nan
2963.000000	nan
2964.000000	nan
2965.000000	nan
2966.000000	nan
2967.000000	nan
2968.000000	nan
2969.000000	nan
2970.000000	nan
2971.000000	nan
2972.000000	nan
2973.000000	nan
2974.000000	nan
2975.000000	nan
2976.000000	nan
2977.000000	nan
2978.000000	nan
2979.000000	nan
2980.000000	nan
2981.000000	nan
2982.000000	nan
2983.000000	nan
2984.000000	nan
2985.000000	nan
2986.000000	nan
2987.000000	nan
2988.000000	nan
2989.000000	nan
2990.000000	nan
2991.000000	nan
2992.000000	nan
2993.000000	nan
2994.000000	nan
2995.000000	nan
2996.000000	nan
2997.000000	nan
2998.000000	nan
2999.000000	nan
3000.000000	nan
