PE UV       SUBTECH     SPECTRUM    ASCII       PEDS        4.00        
   -1
INBUCR0325-4.Sample.ASC
24/02/09
10:21:22.00
24/02/09
10:21:22.00
Vinicio Soto Monge
Estacion Cuatro Esquinas. P. N. Tortuguero. Prov. Limón, COSTA RICA, 1 m. Jul 1993. R. Delgado. L. N. 280000_590500. #2247. INBIOCRI001930356
250,000000
1
Lambda 1050
1050L1511233
PerkinElmer UV WinLab 6.3.2.0749 / 2.02.05 Lambda 900 UV/VIS/NIR, Aug  7 2015 09:38:08

0
0
3350/servo 860,8/2
0
0
UV/VIS
1
1
1
DoubleDePol,CommonBeamDepol,RBeamAtt,SBeamAtt,60mm sphere, WB InGaAs Detector
0
0
0
0
Program
Program
3350/servo 860,8/2
3350/0,2 860,8/0,2
3350/0,2 860,8/0,2
0
15.00
 
 
 
0
 
860,8
319,2
860,8
Front
100
on
S:100 R:100
0
0
0
0
 
0
 
 
 
0
 
 
0
0
0
0
0
 
 
 
 
0
0


0
0
#HDR
-1
-1
#GR
nm
%R
1.0
0.0
2500,000000
-1,000000
2251
8
17,282600
1,461400
#DATA

250.000000	5.799478
251.000000	5.804031
252.000000	5.803903
253.000000	5.799357
254.000000	5.805022
255.000000	5.806292
256.000000	5.810894
257.000000	5.804940
258.000000	5.806302
259.000000	5.808937
260.000000	5.807039
261.000000	5.812318
262.000000	5.810162
263.000000	5.823115
264.000000	5.818239
265.000000	5.814705
266.000000	5.823957
267.000000	5.819106
268.000000	5.821585
269.000000	5.821110
270.000000	5.832874
271.000000	5.837016
272.000000	5.828113
273.000000	5.839218
274.000000	5.829430
275.000000	5.830905
276.000000	5.836681
277.000000	5.833236
278.000000	5.830882
279.000000	5.834779
280.000000	5.835799
281.000000	5.837586
282.000000	5.836992
283.000000	5.828194
284.000000	5.846428
285.000000	5.842025
286.000000	5.841771
287.000000	5.837624
288.000000	5.842178
289.000000	5.844386
290.000000	5.842652
291.000000	5.836073
292.000000	5.843944
293.000000	5.851635
294.000000	5.844498
295.000000	5.850467
296.000000	5.845040
297.000000	5.845067
298.000000	5.836900
299.000000	5.848350
300.000000	5.856589
301.000000	5.846054
302.000000	5.862219
303.000000	5.861227
304.000000	5.857743
305.000000	5.859014
306.000000	5.854250
307.000000	5.843726
308.000000	5.849244
309.000000	5.846091
310.000000	5.863444
311.000000	5.843136
312.000000	5.849742
313.000000	5.851883
314.000000	5.851594
315.000000	5.841340
316.000000	5.846318
317.000000	6.509714
318.000000	6.553988
319.000000	6.537485
320.000000	6.519267
321.000000	6.552622
322.000000	6.573674
323.000000	6.577402
324.000000	6.593767
325.000000	6.546629
326.000000	6.559073
327.000000	6.602335
328.000000	6.565926
329.000000	6.582112
330.000000	6.584018
331.000000	6.559256
332.000000	6.571772
333.000000	6.579231
334.000000	6.581807
335.000000	6.612346
336.000000	6.576290
337.000000	6.598804
338.000000	6.557009
339.000000	6.594984
340.000000	6.584302
341.000000	6.602829
342.000000	6.605152
343.000000	6.599296
344.000000	6.590598
345.000000	6.609606
346.000000	6.605020
347.000000	6.619128
348.000000	6.610790
349.000000	6.610916
350.000000	6.599093
351.000000	6.613197
352.000000	6.620476
353.000000	6.614358
354.000000	6.617565
355.000000	6.622787
356.000000	6.619649
357.000000	6.610429
358.000000	6.626427
359.000000	6.623008
360.000000	6.624046
361.000000	6.628758
362.000000	6.638317
363.000000	6.638580
364.000000	6.638913
365.000000	7.394861
366.000000	7.405692
367.000000	7.397670
368.000000	7.386383
369.000000	7.407245
370.000000	7.402909
371.000000	7.398670
372.000000	7.414968
373.000000	7.414061
374.000000	7.426475
375.000000	7.430448
376.000000	7.426706
377.000000	7.478945
378.000000	7.480093
379.000000	7.482558
380.000000	7.483292
381.000000	7.481510
382.000000	7.480063
383.000000	7.483294
384.000000	7.483748
385.000000	7.481793
386.000000	7.482947
387.000000	7.485341
388.000000	7.484734
389.000000	7.484741
390.000000	7.485017
391.000000	7.485159
392.000000	7.489041
393.000000	7.487124
394.000000	7.487650
395.000000	7.488879
396.000000	7.487392
397.000000	7.485979
398.000000	7.486523
399.000000	7.487581
400.000000	7.488653
401.000000	7.490386
402.000000	7.489833
403.000000	7.489350
404.000000	7.489638
405.000000	7.491142
406.000000	7.490598
407.000000	7.491921
408.000000	7.491110
409.000000	7.491345
410.000000	7.491767
411.000000	7.493148
412.000000	7.491420
413.000000	7.491378
414.000000	7.494245
415.000000	7.493835
416.000000	7.493841
417.000000	7.494610
418.000000	7.493975
419.000000	7.494401
420.000000	7.495345
421.000000	7.494946
422.000000	7.496323
423.000000	7.498334
424.000000	7.498241
425.000000	7.497248
426.000000	7.496498
427.000000	7.498042
428.000000	7.499359
429.000000	7.499468
430.000000	8.260354
431.000000	8.261546
432.000000	8.260158
433.000000	8.259889
434.000000	8.260786
435.000000	8.261021
436.000000	8.262026
437.000000	8.262425
438.000000	8.261545
439.000000	8.262749
440.000000	8.263144
441.000000	8.263080
442.000000	8.263191
443.000000	8.263421
444.000000	8.264515
445.000000	8.265415
446.000000	8.264993
447.000000	8.264349
448.000000	8.263904
449.000000	8.263789
450.000000	8.264724
451.000000	8.266506
452.000000	8.268036
453.000000	8.267956
454.000000	8.266441
455.000000	8.267460
456.000000	8.270011
457.000000	8.270489
458.000000	8.268971
459.000000	8.268035
460.000000	8.268456
461.000000	8.268714
462.000000	8.269845
463.000000	8.269241
464.000000	8.268791
465.000000	8.268684
466.000000	8.268452
467.000000	8.266605
468.000000	8.267188
469.000000	8.268788
470.000000	8.267563
471.000000	8.267987
472.000000	8.267541
473.000000	8.267328
474.000000	8.267131
475.000000	8.267395
476.000000	8.267116
477.000000	8.266377
478.000000	8.266353
479.000000	8.266635
480.000000	8.266565
481.000000	8.267355
482.000000	8.268374
483.000000	8.267464
484.000000	8.264644
485.000000	8.261968
486.000000	8.260254
487.000000	8.257411
488.000000	8.253847
489.000000	8.249699
490.000000	8.246379
491.000000	8.243524
492.000000	8.239834
493.000000	8.236701
494.000000	8.231761
495.000000	8.228451
496.000000	8.225013
497.000000	8.219094
498.000000	8.214150
499.000000	8.208529
500.000000	8.204185
501.000000	8.198458
502.000000	8.189703
503.000000	8.182721
504.000000	8.177162
505.000000	8.169219
506.000000	8.159651
507.000000	8.151315
508.000000	8.142702
509.000000	8.133666
510.000000	8.121451
511.000000	8.109872
512.000000	8.099586
513.000000	8.087265
514.000000	8.073327
515.000000	8.057890
516.000000	8.044811
517.000000	8.769666
518.000000	8.753827
519.000000	8.737015
520.000000	8.719396
521.000000	8.703433
522.000000	8.687602
523.000000	8.668910
524.000000	8.650488
525.000000	8.631966
526.000000	8.613204
527.000000	8.592906
528.000000	8.571458
529.000000	8.551232
530.000000	8.529276
531.000000	8.505671
532.000000	9.205865
533.000000	9.182166
534.000000	9.158142
535.000000	9.134759
536.000000	9.112666
537.000000	9.093156
538.000000	9.072671
539.000000	9.054700
540.000000	9.753113
541.000000	9.732954
542.000000	9.714956
543.000000	9.695439
544.000000	9.677422
545.000000	9.658294
546.000000	10.353670
547.000000	10.332289
548.000000	10.310034
549.000000	10.287774
550.000000	10.265636
551.000000	10.955298
552.000000	10.927906
553.000000	10.901959
554.000000	10.878991
555.000000	10.859533
556.000000	11.543832
557.000000	11.517922
558.000000	11.494590
559.000000	11.474482
560.000000	11.497148
561.000000	12.191393
562.000000	12.169953
563.000000	12.150019
564.000000	12.127854
565.000000	12.107898
566.000000	12.089242
567.000000	12.769595
568.000000	12.747872
569.000000	12.722924
570.000000	12.695455
571.000000	12.672393
572.000000	12.648051
573.000000	12.622842
574.000000	12.603214
575.000000	12.580439
576.000000	12.555949
577.000000	12.537169
578.000000	12.515451
579.000000	12.494949
580.000000	12.474833
581.000000	12.461567
582.000000	12.448253
583.000000	12.433898
584.000000	12.423044
585.000000	12.416673
586.000000	12.407757
587.000000	12.402551
588.000000	12.396375
589.000000	12.395001
590.000000	12.389374
591.000000	12.386448
592.000000	12.382872
593.000000	12.384990
594.000000	12.388562
595.000000	12.391913
596.000000	11.778412
597.000000	11.790338
598.000000	11.803160
599.000000	11.810321
600.000000	11.818668
601.000000	11.828453
602.000000	11.838945
603.000000	11.852854
604.000000	11.872693
605.000000	11.891595
606.000000	11.908753
607.000000	11.932545
608.000000	11.374044
609.000000	11.392408
610.000000	11.416331
611.000000	11.445831
612.000000	11.471409
613.000000	11.493395
614.000000	11.516921
615.000000	11.544279
616.000000	11.571363
617.000000	11.595672
618.000000	11.606648
619.000000	11.635947
620.000000	11.661877
621.000000	11.674460
622.000000	11.691603
623.000000	11.702322
624.000000	11.717561
625.000000	11.727750
626.000000	11.732666
627.000000	11.739471
628.000000	11.743419
629.000000	11.748314
630.000000	11.752895
631.000000	11.754383
632.000000	11.756170
633.000000	11.758711
634.000000	11.751613
635.000000	11.734856
636.000000	11.735077
637.000000	11.727313
638.000000	11.714008
639.000000	11.699008
640.000000	11.682587
641.000000	11.670296
642.000000	11.652314
643.000000	11.638310
644.000000	11.617211
645.000000	11.601778
646.000000	11.582334
647.000000	11.560914
648.000000	11.540502
649.000000	11.521464
650.000000	11.498904
651.000000	11.475340
652.000000	11.453929
653.000000	11.436226
654.000000	11.415950
655.000000	11.403295
656.000000	10.727442
657.000000	10.702402
658.000000	10.688050
659.000000	10.664454
660.000000	10.652529
661.000000	10.637834
662.000000	10.626376
663.000000	10.615594
664.000000	10.602563
665.000000	10.592085
666.000000	10.592409
667.000000	10.590009
668.000000	9.893580
669.000000	9.892097
670.000000	9.887594
671.000000	9.888878
672.000000	9.890328
673.000000	9.888893
674.000000	9.896429
675.000000	9.905900
676.000000	9.917713
677.000000	9.924638
678.000000	9.934768
679.000000	9.227786
680.000000	9.238653
681.000000	9.252290
682.000000	9.264116
683.000000	9.277509
684.000000	9.292184
685.000000	9.308334
686.000000	9.324788
687.000000	9.339901
688.000000	9.355524
689.000000	9.374562
690.000000	9.392219
691.000000	9.413098
692.000000	9.429428
693.000000	9.446296
694.000000	8.730469
695.000000	8.749657
696.000000	8.760482
697.000000	8.779510
698.000000	8.794784
699.000000	8.810630
700.000000	8.829221
701.000000	8.846291
702.000000	8.861973
703.000000	8.875539
704.000000	8.887155
705.000000	8.900347
706.000000	8.915877
707.000000	8.928707
708.000000	8.941826
709.000000	8.955297
710.000000	8.968926
711.000000	8.979540
712.000000	8.989826
713.000000	9.002438
714.000000	9.012315
715.000000	9.023626
716.000000	9.033224
717.000000	9.045409
718.000000	9.060169
719.000000	9.068066
720.000000	9.074412
721.000000	9.084104
722.000000	9.092149
723.000000	9.103689
724.000000	9.114709
725.000000	9.120446
726.000000	9.127287
727.000000	9.137179
728.000000	9.145998
729.000000	9.151446
730.000000	9.159048
731.000000	9.166692
732.000000	9.176272
733.000000	9.184768
734.000000	9.189616
735.000000	9.193670
736.000000	9.199176
737.000000	9.204227
738.000000	9.211947
739.000000	9.217412
740.000000	9.219310
741.000000	9.225713
742.000000	9.232451
743.000000	9.234353
744.000000	9.237793
745.000000	9.241811
746.000000	9.242827
747.000000	9.243999
748.000000	9.243346
749.000000	9.248374
750.000000	9.255369
751.000000	9.255851
752.000000	9.257481
753.000000	9.259042
754.000000	9.259138
755.000000	9.257637
756.000000	9.255520
757.000000	9.257300
758.000000	9.258529
759.000000	9.259618
760.000000	9.256972
761.000000	9.255320
762.000000	9.252495
763.000000	9.252910
764.000000	9.249720
765.000000	9.240075
766.000000	9.239473
767.000000	9.239283
768.000000	9.237410
769.000000	9.237608
770.000000	9.235221
771.000000	9.230922
772.000000	9.224474
773.000000	9.220126
774.000000	9.218333
775.000000	9.214707
776.000000	9.210631
777.000000	9.204278
778.000000	9.942664
779.000000	9.936834
780.000000	9.930729
781.000000	9.931786
782.000000	9.922592
783.000000	9.919003
784.000000	9.912673
785.000000	9.906348
786.000000	9.896804
787.000000	9.889277
788.000000	9.886762
789.000000	9.875313
790.000000	9.872117
791.000000	9.864093
792.000000	9.858295
793.000000	9.851403
794.000000	9.843592
795.000000	9.838423
796.000000	9.826804
797.000000	9.819351
798.000000	9.808088
799.000000	9.801343
800.000000	9.802823
801.000000	9.796637
802.000000	9.786025
803.000000	9.775819
804.000000	9.765609
805.000000	9.761911
806.000000	9.756124
807.000000	9.743307
808.000000	9.737743
809.000000	9.720418
810.000000	9.713071
811.000000	9.714293
812.000000	9.703006
813.000000	9.698564
814.000000	9.701988
815.000000	9.685710
816.000000	9.665238
817.000000	9.666298
818.000000	9.663990
819.000000	9.654608
820.000000	9.644359
821.000000	9.647683
822.000000	10.357920
823.000000	10.345541
824.000000	10.342710
825.000000	10.336941
826.000000	10.322006
827.000000	10.321710
828.000000	10.315955
829.000000	10.318701
830.000000	10.304222
831.000000	10.286911
832.000000	10.284134
833.000000	10.280611
834.000000	10.285036
835.000000	10.269857
836.000000	10.259205
837.000000	10.249560
838.000000	10.255385
839.000000	10.258777
840.000000	10.242573
841.000000	10.239277
842.000000	10.240948
843.000000	10.240005
844.000000	10.246360
845.000000	10.244233
846.000000	10.216175
847.000000	10.211727
848.000000	10.238337
849.000000	10.213068
850.000000	10.205223
851.000000	10.202545
852.000000	10.167407
853.000000	10.191975
854.000000	10.160711
855.000000	10.250308
856.000000	10.201475
857.000000	10.916495
858.000000	18.858727
859.000000	11.057823
860.000000	11.042269
861.000000	11.479731
862.000000	11.013639
863.000000	10.992349
864.000000	10.525876
865.000000	10.504328
866.000000	10.050620
867.000000	10.903115
868.000000	10.449752
869.000000	10.006032
870.000000	10.868966
871.000000	10.416986
872.000000	10.401914
873.000000	10.386534
874.000000	9.956563
875.000000	9.935357
876.000000	9.933293
877.000000	9.505212
878.000000	9.491459
879.000000	9.485995
880.000000	9.488652
881.000000	9.477347
882.000000	9.475614
883.000000	9.474659
884.000000	9.061028
885.000000	9.471403
886.000000	9.067926
887.000000	9.463671
888.000000	9.062527
889.000000	9.067228
890.000000	8.686063
891.000000	9.071100
892.000000	9.062059
893.000000	9.069724
894.000000	8.694212
895.000000	8.705079
896.000000	8.701763
897.000000	9.078601
898.000000	9.083427
899.000000	9.090768
900.000000	8.719286
901.000000	9.093034
902.000000	8.737211
903.000000	8.741087
904.000000	8.737541
905.000000	8.735059
906.000000	8.755937
907.000000	8.750590
908.000000	8.743554
909.000000	8.767626
910.000000	8.777582
911.000000	8.782389
912.000000	8.775499
913.000000	8.783548
914.000000	8.796355
915.000000	8.800574
916.000000	8.814892
917.000000	8.819715
918.000000	8.823139
919.000000	8.831666
920.000000	8.510742
921.000000	8.535625
922.000000	8.855774
923.000000	8.560896
924.000000	8.882612
925.000000	8.893284
926.000000	8.895858
927.000000	8.923459
928.000000	8.935298
929.000000	8.943128
930.000000	8.956385
931.000000	8.965042
932.000000	8.980556
933.000000	8.696760
934.000000	8.700862
935.000000	8.994854
936.000000	8.729824
937.000000	8.736515
938.000000	8.754703
939.000000	9.054492
940.000000	9.071971
941.000000	9.085224
942.000000	9.103569
943.000000	9.113503
944.000000	8.851776
945.000000	9.139403
946.000000	9.155426
947.000000	9.164686
948.000000	8.923117
949.000000	9.204416
950.000000	9.217599
951.000000	9.239179
952.000000	9.262430
953.000000	9.262831
954.000000	9.286610
955.000000	9.308210
956.000000	9.332256
957.000000	9.343190
958.000000	9.358942
959.000000	9.368246
960.000000	9.390989
961.000000	9.412052
962.000000	9.435603
963.000000	9.462655
964.000000	9.468507
965.000000	9.484885
966.000000	9.509147
967.000000	9.532135
968.000000	9.541136
969.000000	9.559369
970.000000	9.586495
971.000000	9.614067
972.000000	9.627063
973.000000	9.645193
974.000000	9.659297
975.000000	9.672245
976.000000	9.692402
977.000000	9.713868
978.000000	9.733268
979.000000	9.765994
980.000000	9.792146
981.000000	9.809722
982.000000	9.824017
983.000000	9.853396
984.000000	9.890329
985.000000	9.918720
986.000000	10.141800
987.000000	10.167275
988.000000	9.992856
989.000000	10.206288
990.000000	10.210840
991.000000	10.239738
992.000000	10.262675
993.000000	10.277744
994.000000	10.301144
995.000000	10.333860
996.000000	10.354029
997.000000	10.378863
998.000000	10.407144
999.000000	10.435857
1000.000000	10.456904
1001.000000	10.482566
1002.000000	10.509699
1003.000000	10.528804
1004.000000	10.549680
1005.000000	10.573832
1006.000000	10.599082
1007.000000	10.630901
1008.000000	10.655951
1009.000000	10.681123
1010.000000	10.703887
1011.000000	10.729719
1012.000000	10.755869
1013.000000	10.779717
1014.000000	10.804179
1015.000000	10.836153
1016.000000	10.867411
1017.000000	10.893068
1018.000000	10.919093
1019.000000	10.949246
1020.000000	11.143754
1021.000000	11.169004
1022.000000	11.195939
1023.000000	11.223364
1024.000000	11.249631
1025.000000	11.273989
1026.000000	11.303880
1027.000000	11.333117
1028.000000	11.353310
1029.000000	11.384119
1030.000000	11.416419
1031.000000	11.441821
1032.000000	11.470334
1033.000000	11.495228
1034.000000	11.519070
1035.000000	11.545631
1036.000000	11.577503
1037.000000	11.607929
1038.000000	11.634804
1039.000000	11.671620
1040.000000	11.701461
1041.000000	11.724528
1042.000000	11.749912
1043.000000	11.790748
1044.000000	11.825993
1045.000000	11.848480
1046.000000	11.875660
1047.000000	11.892239
1048.000000	12.066385
1049.000000	12.104852
1050.000000	12.131079
1051.000000	12.149943
1052.000000	12.179614
1053.000000	12.210423
1054.000000	12.244901
1055.000000	12.274601
1056.000000	12.285221
1057.000000	12.317650
1058.000000	12.357397
1059.000000	12.385106
1060.000000	12.411787
1061.000000	12.437705
1062.000000	12.464990
1063.000000	12.500770
1064.000000	12.535878
1065.000000	12.568878
1066.000000	12.600177
1067.000000	12.623174
1068.000000	12.652821
1069.000000	12.690164
1070.000000	12.709715
1071.000000	12.734029
1072.000000	12.771702
1073.000000	12.939052
1074.000000	12.967073
1075.000000	12.990919
1076.000000	13.016347
1077.000000	13.043714
1078.000000	13.068850
1079.000000	13.095429
1080.000000	13.130770
1081.000000	13.156277
1082.000000	13.199223
1083.000000	13.212244
1084.000000	13.238294
1085.000000	13.279017
1086.000000	13.317660
1087.000000	13.350972
1088.000000	13.383792
1089.000000	13.400146
1090.000000	13.434324
1091.000000	13.465435
1092.000000	13.498656
1093.000000	13.529378
1094.000000	13.552415
1095.000000	13.588179
1096.000000	13.613506
1097.000000	13.638873
1098.000000	13.650714
1099.000000	13.675048
1100.000000	13.724359
1101.000000	13.755445
1102.000000	13.778747
1103.000000	13.807338
1104.000000	13.945048
1105.000000	13.968392
1106.000000	13.992097
1107.000000	14.022196
1108.000000	14.043912
1109.000000	14.064844
1110.000000	14.096700
1111.000000	14.122899
1112.000000	14.149979
1113.000000	14.181138
1114.000000	14.208057
1115.000000	14.231144
1116.000000	14.260263
1117.000000	14.291073
1118.000000	14.321015
1119.000000	14.337540
1120.000000	14.362199
1121.000000	14.389712
1122.000000	14.410993
1123.000000	14.435114
1124.000000	14.454659
1125.000000	14.489301
1126.000000	14.498143
1127.000000	14.522028
1128.000000	14.537886
1129.000000	14.550221
1130.000000	14.559007
1131.000000	14.587489
1132.000000	14.625338
1133.000000	14.634420
1134.000000	14.631974
1135.000000	14.639105
1136.000000	14.647636
1137.000000	14.673342
1138.000000	14.693497
1139.000000	14.702467
1140.000000	14.723098
1141.000000	14.724891
1142.000000	14.744804
1143.000000	14.758407
1144.000000	14.765537
1145.000000	14.775310
1146.000000	14.888670
1147.000000	14.898139
1148.000000	14.913806
1149.000000	14.935949
1150.000000	14.931973
1151.000000	14.946575
1152.000000	14.964585
1153.000000	14.964921
1154.000000	14.975847
1155.000000	14.997410
1156.000000	14.991069
1157.000000	15.003897
1158.000000	15.015276
1159.000000	15.015899
1160.000000	15.018657
1161.000000	15.021497
1162.000000	15.025128
1163.000000	15.028265
1164.000000	15.031362
1165.000000	15.038239
1166.000000	15.036527
1167.000000	15.033884
1168.000000	15.035164
1169.000000	15.034645
1170.000000	15.050683
1171.000000	15.057737
1172.000000	15.071966
1173.000000	15.072771
1174.000000	15.086556
1175.000000	15.088482
1176.000000	15.086541
1177.000000	15.094722
1178.000000	15.103605
1179.000000	15.109637
1180.000000	15.107368
1181.000000	15.112962
1182.000000	15.128622
1183.000000	15.150215
1184.000000	15.156117
1185.000000	15.175135
1186.000000	15.206774
1187.000000	15.214827
1188.000000	15.242779
1189.000000	15.279553
1190.000000	15.313433
1191.000000	15.335387
1192.000000	15.381224
1193.000000	15.407016
1194.000000	15.437344
1195.000000	15.476942
1196.000000	15.506432
1197.000000	15.535079
1198.000000	15.560660
1199.000000	15.597396
1200.000000	15.628220
1201.000000	15.665351
1202.000000	15.691935
1203.000000	15.719521
1204.000000	15.747818
1205.000000	15.773706
1206.000000	15.799190
1207.000000	15.905583
1208.000000	15.926984
1209.000000	15.957869
1210.000000	15.980122
1211.000000	16.005511
1212.000000	16.034325
1213.000000	16.066588
1214.000000	16.092245
1215.000000	16.118723
1216.000000	16.136559
1217.000000	16.151389
1218.000000	16.185541
1219.000000	16.205303
1220.000000	16.228805
1221.000000	16.256664
1222.000000	16.287336
1223.000000	16.309171
1224.000000	16.337774
1225.000000	16.366648
1226.000000	16.383100
1227.000000	16.405270
1228.000000	16.430284
1229.000000	16.457819
1230.000000	16.484347
1231.000000	16.523017
1232.000000	16.530634
1233.000000	16.543710
1234.000000	16.561821
1235.000000	16.585903
1236.000000	16.607591
1237.000000	16.627862
1238.000000	16.647943
1239.000000	16.668879
1240.000000	16.679634
1241.000000	16.708890
1242.000000	16.787818
1243.000000	16.812090
1244.000000	16.844138
1245.000000	16.869279
1246.000000	16.886205
1247.000000	16.914197
1248.000000	16.931520
1249.000000	16.947220
1250.000000	16.971615
1251.000000	17.007690
1252.000000	17.039685
1253.000000	17.052577
1254.000000	17.070221
1255.000000	17.082954
1256.000000	17.098630
1257.000000	17.114811
1258.000000	17.130624
1259.000000	17.149962
1260.000000	17.169753
1261.000000	17.184037
1262.000000	17.191925
1263.000000	17.198621
1264.000000	17.209439
1265.000000	17.225976
1266.000000	17.241670
1267.000000	17.255193
1268.000000	17.267882
1269.000000	17.276820
1270.000000	17.291405
1271.000000	17.311081
1272.000000	17.327935
1273.000000	17.341269
1274.000000	17.346952
1275.000000	17.352803
1276.000000	17.368589
1277.000000	17.387913
1278.000000	17.404693
1279.000000	17.425682
1280.000000	17.445844
1281.000000	17.455055
1282.000000	17.476273
1283.000000	17.507026
1284.000000	17.526004
1285.000000	17.542953
1286.000000	17.566938
1287.000000	17.587343
1288.000000	17.661359
1289.000000	17.677321
1290.000000	17.695378
1291.000000	17.701109
1292.000000	17.710384
1293.000000	17.725268
1294.000000	17.734964
1295.000000	17.746451
1296.000000	17.753764
1297.000000	17.762642
1298.000000	17.765270
1299.000000	17.775382
1300.000000	17.788996
1301.000000	17.794265
1302.000000	17.801256
1303.000000	17.807222
1304.000000	17.821995
1305.000000	17.838924
1306.000000	17.844976
1307.000000	17.844696
1308.000000	17.855341
1309.000000	17.864212
1310.000000	17.869306
1311.000000	17.874735
1312.000000	17.880436
1313.000000	17.888524
1314.000000	17.887832
1315.000000	17.881891
1316.000000	17.879736
1317.000000	17.881446
1318.000000	17.883530
1319.000000	17.883140
1320.000000	17.879963
1321.000000	17.877537
1322.000000	17.874189
1323.000000	17.871009
1324.000000	17.867429
1325.000000	17.867884
1326.000000	17.861620
1327.000000	17.859539
1328.000000	17.856210
1329.000000	17.851979
1330.000000	17.845649
1331.000000	17.832523
1332.000000	17.813898
1333.000000	17.800602
1334.000000	17.783051
1335.000000	17.773601
1336.000000	17.709131
1337.000000	17.677251
1338.000000	17.653931
1339.000000	17.632171
1340.000000	17.601974
1341.000000	17.563286
1342.000000	17.536442
1343.000000	17.504522
1344.000000	17.461610
1345.000000	17.436489
1346.000000	17.407941
1347.000000	17.362880
1348.000000	17.306507
1349.000000	17.280205
1350.000000	17.246721
1351.000000	17.210526
1352.000000	17.190201
1353.000000	17.179195
1354.000000	17.126411
1355.000000	17.080826
1356.000000	17.057211
1357.000000	17.060352
1358.000000	17.063195
1359.000000	17.090892
1360.000000	17.082426
1361.000000	17.001923
1362.000000	16.945114
1363.000000	16.896610
1364.000000	16.855015
1365.000000	16.807990
1366.000000	16.805198
1367.000000	16.750002
1368.000000	16.662219
1369.000000	16.611986
1370.000000	16.543238
1371.000000	16.388261
1372.000000	16.200249
1373.000000	16.059225
1374.000000	15.930358
1375.000000	15.780095
1376.000000	15.650247
1377.000000	15.524122
1378.000000	15.382788
1379.000000	15.274660
1380.000000	15.220733
1381.000000	15.113984
1382.000000	15.014345
1383.000000	14.957144
1384.000000	14.913186
1385.000000	14.885940
1386.000000	14.885899
1387.000000	14.877167
1388.000000	14.817657
1389.000000	14.813259
1390.000000	14.854718
1391.000000	14.861063
1392.000000	14.832951
1393.000000	14.789507
1394.000000	14.822130
1395.000000	14.737009
1396.000000	14.658844
1397.000000	14.657113
1398.000000	14.723790
1399.000000	14.702415
1400.000000	14.580151
1401.000000	14.487966
1402.000000	14.490604
1403.000000	14.462277
1404.000000	14.383061
1405.000000	14.316856
1406.000000	14.242861
1407.000000	14.185461
1408.000000	14.116362
1409.000000	14.021396
1410.000000	13.955004
1411.000000	13.912749
1412.000000	13.874037
1413.000000	13.808620
1414.000000	13.700616
1415.000000	13.647397
1416.000000	13.618558
1417.000000	13.599585
1418.000000	13.446057
1419.000000	13.381248
1420.000000	13.305296
1421.000000	13.272385
1422.000000	13.233425
1423.000000	13.202291
1424.000000	13.149561
1425.000000	13.114632
1426.000000	13.080511
1427.000000	13.058283
1428.000000	13.013567
1429.000000	12.980409
1430.000000	12.966262
1431.000000	12.935254
1432.000000	12.899030
1433.000000	12.881485
1434.000000	12.857629
1435.000000	12.838256
1436.000000	12.829162
1437.000000	12.811075
1438.000000	12.771140
1439.000000	12.747214
1440.000000	12.744348
1441.000000	12.711310
1442.000000	12.683133
1443.000000	12.679079
1444.000000	12.673817
1445.000000	12.646362
1446.000000	12.510888
1447.000000	12.490727
1448.000000	12.482987
1449.000000	12.475020
1450.000000	12.449623
1451.000000	12.416101
1452.000000	12.390417
1453.000000	12.373785
1454.000000	12.341597
1455.000000	12.324391
1456.000000	12.288136
1457.000000	12.283015
1458.000000	12.266036
1459.000000	12.251331
1460.000000	12.231950
1461.000000	12.202421
1462.000000	12.182235
1463.000000	12.176043
1464.000000	12.153598
1465.000000	12.129563
1466.000000	12.105697
1467.000000	12.087116
1468.000000	12.081751
1469.000000	12.062301
1470.000000	12.057329
1471.000000	12.029417
1472.000000	12.002929
1473.000000	11.997632
1474.000000	11.983571
1475.000000	11.982940
1476.000000	11.964550
1477.000000	11.959011
1478.000000	11.940187
1479.000000	11.930604
1480.000000	11.928821
1481.000000	11.914137
1482.000000	11.902160
1483.000000	11.887205
1484.000000	11.885068
1485.000000	11.874947
1486.000000	11.876745
1487.000000	11.869954
1488.000000	11.862023
1489.000000	11.849355
1490.000000	11.845993
1491.000000	11.841158
1492.000000	11.832153
1493.000000	11.830892
1494.000000	11.828056
1495.000000	11.819613
1496.000000	11.824548
1497.000000	11.838706
1498.000000	11.834568
1499.000000	11.838073
1500.000000	11.863873
1501.000000	11.867051
1502.000000	11.880948
1503.000000	11.895380
1504.000000	11.902071
1505.000000	11.916087
1506.000000	11.931572
1507.000000	11.953548
1508.000000	11.968544
1509.000000	11.975293
1510.000000	11.991597
1511.000000	12.011319
1512.000000	12.028301
1513.000000	12.044646
1514.000000	12.057053
1515.000000	12.072100
1516.000000	12.090686
1517.000000	12.112345
1518.000000	12.120956
1519.000000	12.138369
1520.000000	12.160347
1521.000000	12.178486
1522.000000	12.195463
1523.000000	12.210370
1524.000000	12.220324
1525.000000	12.235633
1526.000000	12.255960
1527.000000	12.278929
1528.000000	12.294438
1529.000000	12.310862
1530.000000	12.329196
1531.000000	12.340078
1532.000000	12.352673
1533.000000	12.362844
1534.000000	12.377802
1535.000000	12.396869
1536.000000	12.410367
1537.000000	12.418924
1538.000000	12.433139
1539.000000	12.450538
1540.000000	12.463048
1541.000000	12.475509
1542.000000	12.492535
1543.000000	12.510883
1544.000000	12.532679
1545.000000	12.554176
1546.000000	12.670509
1547.000000	12.691597
1548.000000	12.712913
1549.000000	12.739787
1550.000000	12.768996
1551.000000	12.795625
1552.000000	12.813538
1553.000000	12.825638
1554.000000	12.845138
1555.000000	12.864147
1556.000000	12.878245
1557.000000	12.887541
1558.000000	12.901013
1559.000000	12.910919
1560.000000	12.913895
1561.000000	12.908823
1562.000000	12.910797
1563.000000	12.910699
1564.000000	12.907510
1565.000000	12.904091
1566.000000	12.896642
1567.000000	12.895531
1568.000000	12.894680
1569.000000	12.889425
1570.000000	12.884875
1571.000000	12.886546
1572.000000	12.887752
1573.000000	12.889045
1574.000000	12.893700
1575.000000	12.901975
1576.000000	12.912112
1577.000000	12.913598
1578.000000	12.914541
1579.000000	12.924788
1580.000000	12.930252
1581.000000	12.939927
1582.000000	12.963161
1583.000000	12.976690
1584.000000	12.976536
1585.000000	12.982261
1586.000000	13.004165
1587.000000	13.023316
1588.000000	13.036757
1589.000000	13.054151
1590.000000	13.059372
1591.000000	13.071918
1592.000000	13.100617
1593.000000	13.119743
1594.000000	13.134101
1595.000000	13.156720
1596.000000	13.179778
1597.000000	13.191491
1598.000000	13.211428
1599.000000	13.235063
1600.000000	13.251045
1601.000000	13.275239
1602.000000	13.291863
1603.000000	13.311957
1604.000000	13.331384
1605.000000	13.446568
1606.000000	13.469386
1607.000000	13.483057
1608.000000	13.496914
1609.000000	13.511472
1610.000000	13.527534
1611.000000	13.546856
1612.000000	13.557410
1613.000000	13.567998
1614.000000	13.582554
1615.000000	13.600586
1616.000000	13.606564
1617.000000	13.617320
1618.000000	13.631247
1619.000000	13.636819
1620.000000	13.651669
1621.000000	13.651497
1622.000000	13.662759
1623.000000	13.683931
1624.000000	13.697388
1625.000000	13.705374
1626.000000	13.722186
1627.000000	13.738601
1628.000000	13.756943
1629.000000	13.765856
1630.000000	13.775771
1631.000000	13.788270
1632.000000	13.798192
1633.000000	13.808981
1634.000000	13.820079
1635.000000	13.826269
1636.000000	13.834186
1637.000000	13.827650
1638.000000	13.824273
1639.000000	13.838417
1640.000000	13.844905
1641.000000	13.846572
1642.000000	13.853940
1643.000000	13.855522
1644.000000	13.859714
1645.000000	13.862617
1646.000000	13.863344
1647.000000	13.859213
1648.000000	13.869273
1649.000000	13.865011
1650.000000	13.855078
1651.000000	13.848758
1652.000000	13.751482
1653.000000	13.732061
1654.000000	13.728846
1655.000000	13.702722
1656.000000	13.683628
1657.000000	13.661593
1658.000000	13.634717
1659.000000	13.601625
1660.000000	13.564568
1661.000000	13.533689
1662.000000	13.496231
1663.000000	13.462851
1664.000000	13.429844
1665.000000	13.382827
1666.000000	13.340858
1667.000000	13.296906
1668.000000	13.280070
1669.000000	13.229316
1670.000000	13.178573
1671.000000	13.131462
1672.000000	13.083958
1673.000000	13.034367
1674.000000	12.982992
1675.000000	12.934814
1676.000000	12.798665
1677.000000	12.742714
1678.000000	12.685435
1679.000000	12.623241
1680.000000	12.561411
1681.000000	12.499931
1682.000000	12.447695
1683.000000	12.385720
1684.000000	12.335778
1685.000000	12.287000
1686.000000	12.261588
1687.000000	12.235794
1688.000000	12.216017
1689.000000	12.212930
1690.000000	12.226836
1691.000000	12.239400
1692.000000	12.263520
1693.000000	12.276487
1694.000000	12.285076
1695.000000	12.292941
1696.000000	12.293149
1697.000000	12.294272
1698.000000	12.299507
1699.000000	12.278210
1700.000000	12.285518
1701.000000	12.275732
1702.000000	12.276429
1703.000000	12.277414
1704.000000	12.276643
1705.000000	12.249086
1706.000000	12.235227
1707.000000	12.218919
1708.000000	12.199216
1709.000000	12.168517
1710.000000	12.124390
1711.000000	12.102349
1712.000000	12.050362
1713.000000	12.017531
1714.000000	11.864547
1715.000000	11.805412
1716.000000	11.752153
1717.000000	11.692613
1718.000000	11.647986
1719.000000	11.600799
1720.000000	11.561774
1721.000000	11.535585
1722.000000	11.516383
1723.000000	11.502397
1724.000000	11.499805
1725.000000	11.502072
1726.000000	11.513548
1727.000000	11.515563
1728.000000	11.528581
1729.000000	11.540194
1730.000000	11.548185
1731.000000	11.567229
1732.000000	11.572387
1733.000000	11.592411
1734.000000	11.607126
1735.000000	11.607654
1736.000000	11.631033
1737.000000	11.659589
1738.000000	11.677424
1739.000000	11.697980
1740.000000	11.730695
1741.000000	11.746884
1742.000000	11.774137
1743.000000	11.786994
1744.000000	11.822506
1745.000000	11.839430
1746.000000	11.860547
1747.000000	11.984991
1748.000000	12.001761
1749.000000	12.014313
1750.000000	12.028402
1751.000000	12.031407
1752.000000	12.046989
1753.000000	12.047313
1754.000000	12.062038
1755.000000	12.072151
1756.000000	12.077349
1757.000000	12.077021
1758.000000	12.089764
1759.000000	12.096570
1760.000000	12.095595
1761.000000	12.106509
1762.000000	12.124245
1763.000000	12.138452
1764.000000	12.152770
1765.000000	12.159019
1766.000000	12.168120
1767.000000	12.194962
1768.000000	12.210674
1769.000000	12.225831
1770.000000	12.243252
1771.000000	12.258515
1772.000000	12.279809
1773.000000	12.288301
1774.000000	12.300985
1775.000000	12.315202
1776.000000	12.329935
1777.000000	12.334705
1778.000000	12.345326
1779.000000	12.348484
1780.000000	12.352282
1781.000000	12.357392
1782.000000	12.361429
1783.000000	12.366545
1784.000000	12.365659
1785.000000	12.363141
1786.000000	12.362350
1787.000000	12.367744
1788.000000	12.372225
1789.000000	12.368840
1790.000000	12.370425
1791.000000	12.377871
1792.000000	12.390612
1793.000000	12.389418
1794.000000	12.394815
1795.000000	12.397109
1796.000000	12.408763
1797.000000	12.417236
1798.000000	12.440009
1799.000000	12.455758
1800.000000	12.454597
1801.000000	12.448437
1802.000000	12.456368
1803.000000	12.467139
1804.000000	12.488853
1805.000000	12.492149
1806.000000	12.479935
1807.000000	12.490662
1808.000000	12.519252
1809.000000	12.540130
1810.000000	12.545076
1811.000000	12.534114
1812.000000	12.533804
1813.000000	12.543823
1814.000000	12.655492
1815.000000	12.662309
1816.000000	12.570538
1817.000000	12.715904
1818.000000	12.763461
1819.000000	12.765589
1820.000000	12.701084
1821.000000	12.629691
1822.000000	12.624689
1823.000000	12.676926
1824.000000	12.736551
1825.000000	12.769099
1826.000000	12.760461
1827.000000	12.749571
1828.000000	12.761288
1829.000000	12.773070
1830.000000	12.755842
1831.000000	12.759880
1832.000000	12.811959
1833.000000	12.882756
1834.000000	12.938984
1835.000000	12.946182
1836.000000	12.920056
1837.000000	12.910385
1838.000000	12.928287
1839.000000	12.944699
1840.000000	12.926620
1841.000000	12.854873
1842.000000	12.815732
1843.000000	12.872866
1844.000000	12.993327
1845.000000	13.088201
1846.000000	13.083659
1847.000000	12.981702
1848.000000	12.869247
1849.000000	12.848983
1850.000000	12.911943
1851.000000	12.969969
1852.000000	12.986998
1853.000000	12.971669
1854.000000	12.929742
1855.000000	12.910480
1856.000000	12.937925
1857.000000	12.963539
1858.000000	12.916952
1859.000000	12.854931
1860.000000	12.807107
1861.000000	12.765141
1862.000000	12.761823
1863.000000	12.793902
1864.000000	12.840570
1865.000000	12.870946
1866.000000	12.891698
1867.000000	12.891055
1868.000000	12.855217
1869.000000	12.779103
1870.000000	12.662156
1871.000000	12.467784
1872.000000	12.369624
1873.000000	12.264315
1874.000000	12.183890
1875.000000	12.094784
1876.000000	12.025674
1877.000000	11.963642
1878.000000	11.892558
1879.000000	11.842349
1880.000000	11.678114
1881.000000	11.604287
1882.000000	11.508122
1883.000000	11.377199
1884.000000	11.239869
1885.000000	11.117764
1886.000000	11.020973
1887.000000	10.956226
1888.000000	10.710305
1889.000000	10.598689
1890.000000	10.451329
1891.000000	10.275549
1892.000000	10.113386
1893.000000	10.002144
1894.000000	9.925510
1895.000000	9.693287
1896.000000	9.639416
1897.000000	9.536689
1898.000000	9.405585
1899.000000	9.254643
1900.000000	8.930197
1901.000000	8.846295
1902.000000	8.776682
1903.000000	8.713882
1904.000000	8.618471
1905.000000	8.483036
1906.000000	8.380796
1907.000000	8.088388
1908.000000	8.057684
1909.000000	8.065669
1910.000000	8.052964
1911.000000	8.003868
1912.000000	7.933455
1913.000000	7.851957
1914.000000	7.789858
1915.000000	7.512390
1916.000000	7.514937
1917.000000	7.517096
1918.000000	7.505041
1919.000000	7.463583
1920.000000	7.411987
1921.000000	7.363261
1922.000000	7.333356
1923.000000	7.324620
1924.000000	7.337637
1925.000000	7.328862
1926.000000	7.298784
1927.000000	7.272433
1928.000000	7.256417
1929.000000	7.248272
1930.000000	7.233173
1931.000000	7.227622
1932.000000	7.227956
1933.000000	7.235498
1934.000000	7.240332
1935.000000	7.243661
1936.000000	7.241772
1937.000000	7.238520
1938.000000	7.241778
1939.000000	7.225635
1940.000000	7.222915
1941.000000	7.231876
1942.000000	7.242841
1943.000000	7.263347
1944.000000	7.266768
1945.000000	7.264870
1946.000000	7.274227
1947.000000	7.287798
1948.000000	7.295092
1949.000000	7.315634
1950.000000	7.323937
1951.000000	7.343535
1952.000000	7.354456
1953.000000	7.362170
1954.000000	7.367910
1955.000000	7.380669
1956.000000	7.396221
1957.000000	7.409687
1958.000000	7.424640
1959.000000	7.437167
1960.000000	7.455837
1961.000000	7.474067
1962.000000	7.476034
1963.000000	7.491035
1964.000000	7.509938
1965.000000	7.523770
1966.000000	7.538314
1967.000000	7.555096
1968.000000	7.568610
1969.000000	7.576955
1970.000000	7.596451
1971.000000	7.846801
1972.000000	7.857857
1973.000000	7.856996
1974.000000	7.885434
1975.000000	7.903757
1976.000000	7.913907
1977.000000	7.932401
1978.000000	7.961399
1979.000000	7.960978
1980.000000	7.977541
1981.000000	8.000710
1982.000000	8.019455
1983.000000	8.038993
1984.000000	8.053537
1985.000000	8.071975
1986.000000	8.087279
1987.000000	8.099581
1988.000000	8.125103
1989.000000	8.149142
1990.000000	8.156547
1991.000000	8.157787
1992.000000	8.177037
1993.000000	8.190829
1994.000000	8.211600
1995.000000	8.233649
1996.000000	8.240254
1997.000000	8.248543
1998.000000	8.260198
1999.000000	8.502087
2000.000000	8.512111
2001.000000	8.303234
2002.000000	8.307607
2003.000000	8.528543
2004.000000	8.535439
2005.000000	8.549049
2006.000000	8.548235
2007.000000	8.552457
2008.000000	8.557626
2009.000000	8.564187
2010.000000	8.563089
2011.000000	8.567397
2012.000000	8.558482
2013.000000	8.560460
2014.000000	8.546342
2015.000000	8.544394
2016.000000	8.540306
2017.000000	8.520626
2018.000000	8.523381
2019.000000	8.510754
2020.000000	8.508124
2021.000000	8.498719
2022.000000	8.480531
2023.000000	8.465625
2024.000000	8.448512
2025.000000	8.449218
2026.000000	8.434579
2027.000000	8.406760
2028.000000	8.396665
2029.000000	8.385964
2030.000000	8.127391
2031.000000	8.350150
2032.000000	8.326791
2033.000000	8.300792
2034.000000	8.038427
2035.000000	8.023966
2036.000000	8.000620
2037.000000	7.971943
2038.000000	7.947518
2039.000000	7.923320
2040.000000	7.901709
2041.000000	7.874117
2042.000000	7.852173
2043.000000	7.825852
2044.000000	7.805447
2045.000000	7.776709
2046.000000	7.763089
2047.000000	7.747339
2048.000000	7.734444
2049.000000	7.724757
2050.000000	7.709044
2051.000000	7.699324
2052.000000	7.691717
2053.000000	7.684287
2054.000000	7.688879
2055.000000	7.687572
2056.000000	7.689655
2057.000000	7.698984
2058.000000	7.709302
2059.000000	7.717400
2060.000000	7.730264
2061.000000	7.742839
2062.000000	7.757762
2063.000000	7.772986
2064.000000	7.793894
2065.000000	7.807814
2066.000000	7.827764
2067.000000	7.842125
2068.000000	8.131971
2069.000000	8.149351
2070.000000	8.164417
2071.000000	8.173177
2072.000000	7.923470
2073.000000	7.937457
2074.000000	7.952738
2075.000000	8.235346
2076.000000	8.253329
2077.000000	8.255797
2078.000000	8.264161
2079.000000	8.270531
2080.000000	8.279146
2081.000000	8.296291
2082.000000	8.298386
2083.000000	8.296859
2084.000000	8.309218
2085.000000	8.312723
2086.000000	8.304900
2087.000000	8.311017
2088.000000	8.319342
2089.000000	8.319444
2090.000000	8.302230
2091.000000	8.301541
2092.000000	8.316800
2093.000000	8.313329
2094.000000	8.311586
2095.000000	8.309145
2096.000000	8.304878
2097.000000	8.294776
2098.000000	8.297694
2099.000000	8.305617
2100.000000	8.304270
2101.000000	8.310136
2102.000000	8.313502
2103.000000	8.309174
2104.000000	8.309114
2105.000000	8.308987
2106.000000	8.305360
2107.000000	8.579250
2108.000000	8.304144
2109.000000	8.304004
2110.000000	8.298043
2111.000000	8.296086
2112.000000	8.298169
2113.000000	8.296799
2114.000000	8.290362
2115.000000	8.286167
2116.000000	8.286124
2117.000000	8.286392
2118.000000	8.280596
2119.000000	8.272219
2120.000000	8.266889
2121.000000	8.267975
2122.000000	8.260839
2123.000000	8.247147
2124.000000	8.234886
2125.000000	8.222003
2126.000000	8.501980
2127.000000	8.204353
2128.000000	8.198134
2129.000000	8.191624
2130.000000	8.176585
2131.000000	8.158560
2132.000000	8.145717
2133.000000	8.137785
2134.000000	8.127566
2135.000000	8.108154
2136.000000	8.096121
2137.000000	8.090000
2138.000000	8.075177
2139.000000	8.057740
2140.000000	8.047320
2141.000000	8.044246
2142.000000	8.027327
2143.000000	8.004274
2144.000000	7.686980
2145.000000	7.979262
2146.000000	7.963288
2147.000000	7.957823
2148.000000	7.950699
2149.000000	7.613822
2150.000000	7.593941
2151.000000	7.581599
2152.000000	7.566444
2153.000000	7.559556
2154.000000	7.551865
2155.000000	7.531820
2156.000000	7.528770
2157.000000	7.521211
2158.000000	7.510266
2159.000000	7.496339
2160.000000	7.833565
2161.000000	7.480670
2162.000000	7.469140
2163.000000	7.467392
2164.000000	7.465847
2165.000000	7.459887
2166.000000	7.455301
2167.000000	7.446319
2168.000000	7.447113
2169.000000	7.443857
2170.000000	7.109361
2171.000000	7.433946
2172.000000	7.097909
2173.000000	7.095588
2174.000000	7.099163
2175.000000	7.429097
2176.000000	7.429227
2177.000000	7.091064
2178.000000	7.088586
2179.000000	7.092005
2180.000000	7.085967
2181.000000	7.079570
2182.000000	7.075426
2183.000000	7.069172
2184.000000	7.080006
2185.000000	7.069682
2186.000000	7.072101
2187.000000	7.061232
2188.000000	7.052743
2189.000000	6.718573
2190.000000	6.715109
2191.000000	6.712544
2192.000000	6.376119
2193.000000	6.694708
2194.000000	6.686952
2195.000000	6.344909
2196.000000	6.335718
2197.000000	6.322759
2198.000000	6.301273
2199.000000	6.294686
2200.000000	6.280233
2201.000000	6.272384
2202.000000	6.262907
2203.000000	5.898301
2204.000000	5.902235
2205.000000	5.890057
2206.000000	5.884205
2207.000000	5.869271
2208.000000	5.868075
2209.000000	5.864327
2210.000000	5.852680
2211.000000	5.508971
2212.000000	5.519350
2213.000000	5.852187
2214.000000	5.854497
2215.000000	5.868188
2216.000000	5.869018
2217.000000	5.885845
2218.000000	5.561341
2219.000000	5.875143
2220.000000	5.896347
2221.000000	5.908848
2222.000000	5.916090
2223.000000	5.936199
2224.000000	5.935659
2225.000000	5.953516
2226.000000	5.965095
2227.000000	5.976493
2228.000000	6.301888
2229.000000	5.994619
2230.000000	5.995265
2231.000000	6.005212
2232.000000	6.010050
2233.000000	6.328194
2234.000000	6.337156
2235.000000	6.340274
2236.000000	6.340069
2237.000000	6.338812
2238.000000	6.331440
2239.000000	6.336206
2240.000000	6.336697
2241.000000	6.335953
2242.000000	6.331467
2243.000000	6.324957
2244.000000	6.322227
2245.000000	6.314946
2246.000000	6.316017
2247.000000	6.310290
2248.000000	6.303953
2249.000000	6.292977
2250.000000	6.288370
2251.000000	5.955301
2252.000000	5.944314
2253.000000	6.268956
2254.000000	6.261258
2255.000000	6.256010
2256.000000	6.261815
2257.000000	6.260454
2258.000000	6.246872
2259.000000	6.244031
2260.000000	6.244532
2261.000000	6.241209
2262.000000	6.231299
2263.000000	6.601401
2264.000000	6.235191
2265.000000	6.237289
2266.000000	6.222732
2267.000000	6.222270
2268.000000	6.595247
2269.000000	6.594256
2270.000000	6.598016
2271.000000	6.594838
2272.000000	6.230342
2273.000000	6.225469
2274.000000	6.601263
2275.000000	6.598858
2276.000000	6.977378
2277.000000	6.599721
2278.000000	6.606386
2279.000000	6.598832
2280.000000	6.603620
2281.000000	6.603321
2282.000000	6.983484
2283.000000	6.984076
2284.000000	6.987586
2285.000000	6.613608
2286.000000	6.605646
2287.000000	6.982407
2288.000000	6.988516
2289.000000	6.988721
2290.000000	6.990347
2291.000000	6.988499
2292.000000	6.986564
2293.000000	6.993818
2294.000000	6.996619
2295.000000	6.991550
2296.000000	6.996307
2297.000000	7.001691
2298.000000	7.000003
2299.000000	6.987829
2300.000000	6.993425
2301.000000	7.386053
2302.000000	7.385749
2303.000000	7.380868
2304.000000	7.381013
2305.000000	7.379460
2306.000000	6.996585
2307.000000	6.997904
2308.000000	6.989850
2309.000000	6.992624
2310.000000	7.377749
2311.000000	7.383163
2312.000000	7.384961
2313.000000	7.383703
2314.000000	7.383172
2315.000000	7.382326
2316.000000	7.392526
2317.000000	7.399694
2318.000000	7.788644
2319.000000	7.399238
2320.000000	7.401601
2321.000000	7.407050
2322.000000	7.409560
2323.000000	7.416357
2324.000000	7.413949
2325.000000	7.412619
2326.000000	7.416745
2327.000000	7.416850
2328.000000	7.807539
2329.000000	7.810764
2330.000000	7.809683
2331.000000	7.807281
2332.000000	7.807677
2333.000000	7.810557
2334.000000	7.803457
2335.000000	7.798842
2336.000000	7.803941
2337.000000	7.807920
2338.000000	7.806249
2339.000000	7.804292
2340.000000	8.207064
2341.000000	8.205850
2342.000000	8.207878
2343.000000	8.206025
2344.000000	8.211904
2345.000000	7.810771
2346.000000	7.807046
2347.000000	7.805032
2348.000000	8.213141
2349.000000	8.210856
2350.000000	8.202419
2351.000000	8.208546
2352.000000	8.209964
2353.000000	8.211617
2354.000000	8.211122
2355.000000	8.211863
2356.000000	8.211341
2357.000000	8.211087
2358.000000	8.219090
2359.000000	8.219195
2360.000000	8.216783
2361.000000	8.218958
2362.000000	8.630171
2363.000000	8.631864
2364.000000	8.634212
2365.000000	8.636064
2366.000000	8.639370
2367.000000	8.233978
2368.000000	8.236947
2369.000000	8.646567
2370.000000	8.638798
2371.000000	9.052140
2372.000000	9.055956
2373.000000	8.645199
2374.000000	8.241491
2375.000000	8.245288
2376.000000	8.654115
2377.000000	8.649844
2378.000000	9.059009
2379.000000	8.649838
2380.000000	8.661147
2381.000000	8.665342
2382.000000	9.078298
2383.000000	9.083252
2384.000000	8.672080
2385.000000	8.273002
2386.000000	8.272922
2387.000000	8.277708
2388.000000	8.682598
2389.000000	9.093093
2390.000000	9.097247
2391.000000	9.102599
2392.000000	9.108730
2393.000000	9.110483
2394.000000	9.110281
2395.000000	9.122119
2396.000000	9.122181
2397.000000	9.121037
2398.000000	9.542936
2399.000000	9.126987
2400.000000	8.724084
2401.000000	8.726720
2402.000000	9.144762
2403.000000	9.150282
2404.000000	9.154888
2405.000000	9.162961
2406.000000	9.169943
2407.000000	8.754986
2408.000000	9.173056
2409.000000	9.182780
2410.000000	9.193143
2411.000000	9.620447
2412.000000	9.201401
2413.000000	9.206434
2414.000000	9.204290
2415.000000	8.784233
2416.000000	9.214631
2417.000000	9.232091
2418.000000	9.242463
2419.000000	9.261097
2420.000000	8.845990
2421.000000	8.859429
2422.000000	8.866161
2423.000000	9.298775
2424.000000	10.171151
2425.000000	9.731495
2426.000000	9.296815
2427.000000	9.302147
2428.000000	9.745836
2429.000000	9.759647
2430.000000	9.772729
2431.000000	10.219428
2432.000000	10.227189
2433.000000	9.786601
2434.000000	9.343486
2435.000000	9.349924
2436.000000	10.257624
2437.000000	9.810397
2438.000000	9.382765
2439.000000	9.392420
2440.000000	9.845150
2441.000000	9.854966
2442.000000	10.315428
2443.000000	10.321900
2444.000000	9.876376
2445.000000	9.432694
2446.000000	9.889326
2447.000000	10.367997
2448.000000	10.373987
2449.000000	10.378100
2450.000000	10.386047
2451.000000	10.859663
2452.000000	10.870854
2453.000000	10.413211
2454.000000	10.414672
2455.000000	10.893183
2456.000000	10.442838
2457.000000	10.916523
2458.000000	10.916489
2459.000000	10.921763
2460.000000	11.402219
2461.000000	10.467101
2462.000000	11.417950
2463.000000	12.383553
2464.000000	12.864755
2465.000000	13.358882
2466.000000	13.364357
2467.000000	13.840696
2468.000000	12.404245
2469.000000	13.368447
2470.000000	13.374679
2471.000000	13.865518
2472.000000	14.343487
2473.000000	15.336062
2474.000000	13.888575
2475.000000	14.840081
2476.000000	14.859531
2477.000000	15.830988
2478.000000	15.339579
2479.000000	16.814187
2480.000000	16.322896
2481.000000	16.338363
2482.000000	15.835975
2483.000000	16.330656
2484.000000	17.798822
2485.000000	18.279156
2486.000000	17.283009
2487.000000	16.809283
2488.000000	17.786105
2489.000000	18.269356
2490.000000	19.267263
2491.000000	20.724857
2492.000000	21.249057
2493.000000	20.245772
2494.000000	21.759945
2495.000000	20.225433
2496.000000	19.757333
2497.000000	21.734335
2498.000000	22.188869
2499.000000	22.644798
2500.000000	22.211927
2501.000000	nan
2502.000000	nan
2503.000000	nan
2504.000000	nan
2505.000000	nan
2506.000000	nan
2507.000000	nan
2508.000000	nan
2509.000000	nan
2510.000000	nan
2511.000000	nan
2512.000000	nan
2513.000000	nan
2514.000000	nan
2515.000000	nan
2516.000000	nan
2517.000000	nan
2518.000000	nan
2519.000000	nan
2520.000000	nan
2521.000000	nan
2522.000000	nan
2523.000000	nan
2524.000000	nan
2525.000000	nan
2526.000000	nan
2527.000000	nan
2528.000000	nan
2529.000000	nan
2530.000000	nan
2531.000000	nan
2532.000000	nan
2533.000000	nan
2534.000000	nan
2535.000000	nan
2536.000000	nan
2537.000000	nan
2538.000000	nan
2539.000000	nan
2540.000000	nan
2541.000000	nan
2542.000000	nan
2543.000000	nan
2544.000000	nan
2545.000000	nan
2546.000000	nan
2547.000000	nan
2548.000000	nan
2549.000000	nan
2550.000000	nan
2551.000000	nan
2552.000000	nan
2553.000000	nan
2554.000000	nan
2555.000000	nan
2556.000000	nan
2557.000000	nan
2558.000000	nan
2559.000000	nan
2560.000000	nan
2561.000000	nan
2562.000000	nan
2563.000000	nan
2564.000000	nan
2565.000000	nan
2566.000000	nan
2567.000000	nan
2568.000000	nan
2569.000000	nan
2570.000000	nan
2571.000000	nan
2572.000000	nan
2573.000000	nan
2574.000000	nan
2575.000000	nan
2576.000000	nan
2577.000000	nan
2578.000000	nan
2579.000000	nan
2580.000000	nan
2581.000000	nan
2582.000000	nan
2583.000000	nan
2584.000000	nan
2585.000000	nan
2586.000000	nan
2587.000000	nan
2588.000000	nan
2589.000000	nan
2590.000000	nan
2591.000000	nan
2592.000000	nan
2593.000000	nan
2594.000000	nan
2595.000000	nan
2596.000000	nan
2597.000000	nan
2598.000000	nan
2599.000000	nan
2600.000000	nan
2601.000000	nan
2602.000000	nan
2603.000000	nan
2604.000000	nan
2605.000000	nan
2606.000000	nan
2607.000000	nan
2608.000000	nan
2609.000000	nan
2610.000000	nan
2611.000000	nan
2612.000000	nan
2613.000000	nan
2614.000000	nan
2615.000000	nan
2616.000000	nan
2617.000000	nan
2618.000000	nan
2619.000000	nan
2620.000000	nan
2621.000000	nan
2622.000000	nan
2623.000000	nan
2624.000000	nan
2625.000000	nan
2626.000000	nan
2627.000000	nan
2628.000000	nan
2629.000000	nan
2630.000000	nan
2631.000000	nan
2632.000000	nan
2633.000000	nan
2634.000000	nan
2635.000000	nan
2636.000000	nan
2637.000000	nan
2638.000000	nan
2639.000000	nan
2640.000000	nan
2641.000000	nan
2642.000000	nan
2643.000000	nan
2644.000000	nan
2645.000000	nan
2646.000000	nan
2647.000000	nan
2648.000000	nan
2649.000000	nan
2650.000000	nan
2651.000000	nan
2652.000000	nan
2653.000000	nan
2654.000000	nan
2655.000000	nan
2656.000000	nan
2657.000000	nan
2658.000000	nan
2659.000000	nan
2660.000000	nan
2661.000000	nan
2662.000000	nan
2663.000000	nan
2664.000000	nan
2665.000000	nan
2666.000000	nan
2667.000000	nan
2668.000000	nan
2669.000000	nan
2670.000000	nan
2671.000000	nan
2672.000000	nan
2673.000000	nan
2674.000000	nan
2675.000000	nan
2676.000000	nan
2677.000000	nan
2678.000000	nan
2679.000000	nan
2680.000000	nan
2681.000000	nan
2682.000000	nan
2683.000000	nan
2684.000000	nan
2685.000000	nan
2686.000000	nan
2687.000000	nan
2688.000000	nan
2689.000000	nan
2690.000000	nan
2691.000000	nan
2692.000000	nan
2693.000000	nan
2694.000000	nan
2695.000000	nan
2696.000000	nan
2697.000000	nan
2698.000000	nan
2699.000000	nan
2700.000000	nan
2701.000000	nan
2702.000000	nan
2703.000000	nan
2704.000000	nan
2705.000000	nan
2706.000000	nan
2707.000000	nan
2708.000000	nan
2709.000000	nan
2710.000000	nan
2711.000000	nan
2712.000000	nan
2713.000000	nan
2714.000000	nan
2715.000000	nan
2716.000000	nan
2717.000000	nan
2718.000000	nan
2719.000000	nan
2720.000000	nan
2721.000000	nan
2722.000000	nan
2723.000000	nan
2724.000000	nan
2725.000000	nan
2726.000000	nan
2727.000000	nan
2728.000000	nan
2729.000000	nan
2730.000000	nan
2731.000000	nan
2732.000000	nan
2733.000000	nan
2734.000000	nan
2735.000000	nan
2736.000000	nan
2737.000000	nan
2738.000000	nan
2739.000000	nan
2740.000000	nan
2741.000000	nan
2742.000000	nan
2743.000000	nan
2744.000000	nan
2745.000000	nan
2746.000000	nan
2747.000000	nan
2748.000000	nan
2749.000000	nan
2750.000000	nan
2751.000000	nan
2752.000000	nan
2753.000000	nan
2754.000000	nan
2755.000000	nan
2756.000000	nan
2757.000000	nan
2758.000000	nan
2759.000000	nan
2760.000000	nan
2761.000000	nan
2762.000000	nan
2763.000000	nan
2764.000000	nan
2765.000000	nan
2766.000000	nan
2767.000000	nan
2768.000000	nan
2769.000000	nan
2770.000000	nan
2771.000000	nan
2772.000000	nan
2773.000000	nan
2774.000000	nan
2775.000000	nan
2776.000000	nan
2777.000000	nan
2778.000000	nan
2779.000000	nan
2780.000000	nan
2781.000000	nan
2782.000000	nan
2783.000000	nan
2784.000000	nan
2785.000000	nan
2786.000000	nan
2787.000000	nan
2788.000000	nan
2789.000000	nan
2790.000000	nan
2791.000000	nan
2792.000000	nan
2793.000000	nan
2794.000000	nan
2795.000000	nan
2796.000000	nan
2797.000000	nan
2798.000000	nan
2799.000000	nan
2800.000000	nan
2801.000000	nan
2802.000000	nan
2803.000000	nan
2804.000000	nan
2805.000000	nan
2806.000000	nan
2807.000000	nan
2808.000000	nan
2809.000000	nan
2810.000000	nan
2811.000000	nan
2812.000000	nan
2813.000000	nan
2814.000000	nan
2815.000000	nan
2816.000000	nan
2817.000000	nan
2818.000000	nan
2819.000000	nan
2820.000000	nan
2821.000000	nan
2822.000000	nan
2823.000000	nan
2824.000000	nan
2825.000000	nan
2826.000000	nan
2827.000000	nan
2828.000000	nan
2829.000000	nan
2830.000000	nan
2831.000000	nan
2832.000000	nan
2833.000000	nan
2834.000000	nan
2835.000000	nan
2836.000000	nan
2837.000000	nan
2838.000000	nan
2839.000000	nan
2840.000000	nan
2841.000000	nan
2842.000000	nan
2843.000000	nan
2844.000000	nan
2845.000000	nan
2846.000000	nan
2847.000000	nan
2848.000000	nan
2849.000000	nan
2850.000000	nan
2851.000000	nan
2852.000000	nan
2853.000000	nan
2854.000000	nan
2855.000000	nan
2856.000000	nan
2857.000000	nan
2858.000000	nan
2859.000000	nan
2860.000000	nan
2861.000000	nan
2862.000000	nan
2863.000000	nan
2864.000000	nan
2865.000000	nan
2866.000000	nan
2867.000000	nan
2868.000000	nan
2869.000000	nan
2870.000000	nan
2871.000000	nan
2872.000000	nan
2873.000000	nan
2874.000000	nan
2875.000000	nan
2876.000000	nan
2877.000000	nan
2878.000000	nan
2879.000000	nan
2880.000000	nan
2881.000000	nan
2882.000000	nan
2883.000000	nan
2884.000000	nan
2885.000000	nan
2886.000000	nan
2887.000000	nan
2888.000000	nan
2889.000000	nan
2890.000000	nan
2891.000000	nan
2892.000000	nan
2893.000000	nan
2894.000000	nan
2895.000000	nan
2896.000000	nan
2897.000000	nan
2898.000000	nan
2899.000000	nan
2900.000000	nan
2901.000000	nan
2902.000000	nan
2903.000000	nan
2904.000000	nan
2905.000000	nan
2906.000000	nan
2907.000000	nan
2908.000000	nan
2909.000000	nan
2910.000000	nan
2911.000000	nan
2912.000000	nan
2913.000000	nan
2914.000000	nan
2915.000000	nan
2916.000000	nan
2917.000000	nan
2918.000000	nan
2919.000000	nan
2920.000000	nan
2921.000000	nan
2922.000000	nan
2923.000000	nan
2924.000000	nan
2925.000000	nan
2926.000000	nan
2927.000000	nan
2928.000000	nan
2929.000000	nan
2930.000000	nan
2931.000000	nan
2932.000000	nan
2933.000000	nan
2934.000000	nan
2935.000000	nan
2936.000000	nan
2937.000000	nan
2938.000000	nan
2939.000000	nan
2940.000000	nan
2941.000000	nan
2942.000000	nan
2943.000000	nan
2944.000000	nan
2945.000000	nan
2946.000000	nan
2947.000000	nan
2948.000000	nan
2949.000000	nan
2950.000000	nan
2951.000000	nan
2952.000000	nan
2953.000000	nan
2954.000000	nan
2955.000000	nan
2956.000000	nan
2957.000000	nan
2958.000000	nan
2959.000000	nan
2960.000000	nan
2961.000000	nan
2962.000000	nan
2963.000000	nan
2964.000000	nan
2965.000000	nan
2966.000000	nan
2967.000000	nan
2968.000000	nan
2969.000000	nan
2970.000000	nan
2971.000000	nan
2972.000000	nan
2973.000000	nan
2974.000000	nan
2975.000000	nan
2976.000000	nan
2977.000000	nan
2978.000000	nan
2979.000000	nan
2980.000000	nan
2981.000000	nan
2982.000000	nan
2983.000000	nan
2984.000000	nan
2985.000000	nan
2986.000000	nan
2987.000000	nan
2988.000000	nan
2989.000000	nan
2990.000000	nan
2991.000000	nan
2992.000000	nan
2993.000000	nan
2994.000000	nan
2995.000000	nan
2996.000000	nan
2997.000000	nan
2998.000000	nan
2999.000000	nan
3000.000000	nan
