PE UV       SUBTECH     SPECTRUM    ASCII       PEDS        4.00        
   -1
INBUCR0413-4.Sample.ASC
24/02/09
11:45:23.00
24/02/09
11:45:23.00
Vinicio Soto Monge
Chrysina batesi. Det: A. Solís. COSTA RICA. Prov. Limón. P. I. La Amistad. Est Valle del Silencio. 2475 m. 26-30 MAR 2003. R. Delgado. M. Alfaro. R. González. D. Rubí. Tp de Luz. L_S_340258_577465 #73640. INB0003714895.  Falta élitro izquierdo.
250,000000
1
Lambda 1050
1050L1511233
PerkinElmer UV WinLab 6.3.2.0749 / 2.02.05 Lambda 900 UV/VIS/NIR, Aug  7 2015 09:38:08

0
0
3350/servo 860,8/2
0
0
UV/VIS
1
1
1
DoubleDePol,CommonBeamDepol,RBeamAtt,SBeamAtt,60mm sphere, WB InGaAs Detector
0
0
0
0
Program
Program
3350/servo 860,8/2
3350/0,2 860,8/0,2
3350/0,2 860,8/0,2
0
15.00
 
 
 
0
 
860,8
319,2
860,8
Front
100
on
S:100 R:100
0
0
0
0
 
0
 
 
 
0
 
 
0
0
0
0
0
 
 
 
 
0
0


0
0
#HDR
-1
-1
#GR
nm
%R
1.0
0.0
2500,000000
-1,000000
2251
8
20,287000
2,009600
#DATA

250.000000	6.288490
251.000000	6.285976
252.000000	6.295016
253.000000	6.296967
254.000000	6.293512
255.000000	6.303323
256.000000	6.308716
257.000000	6.308801
258.000000	6.311238
259.000000	6.312908
260.000000	6.318094
261.000000	6.313665
262.000000	6.324327
263.000000	6.329306
264.000000	6.325270
265.000000	6.325982
266.000000	6.314704
267.000000	6.327191
268.000000	6.334815
269.000000	6.338235
270.000000	6.342371
271.000000	6.334504
272.000000	6.331996
273.000000	6.342525
274.000000	6.338935
275.000000	6.348581
276.000000	6.351442
277.000000	6.353433
278.000000	6.349846
279.000000	6.346016
280.000000	6.359437
281.000000	6.355237
282.000000	6.349650
283.000000	6.354861
284.000000	6.352730
285.000000	6.349419
286.000000	6.360539
287.000000	6.363030
288.000000	6.353789
289.000000	6.358300
290.000000	6.357014
291.000000	6.362760
292.000000	6.360979
293.000000	6.371167
294.000000	6.360222
295.000000	6.351584
296.000000	6.368124
297.000000	6.367253
298.000000	6.365315
299.000000	6.357740
300.000000	6.360218
301.000000	6.371328
302.000000	6.360479
303.000000	6.369790
304.000000	6.372065
305.000000	6.376480
306.000000	6.359560
307.000000	6.370169
308.000000	6.356879
309.000000	6.362013
310.000000	6.355061
311.000000	6.355073
312.000000	6.368692
313.000000	6.369568
314.000000	6.365125
315.000000	6.367363
316.000000	6.349733
317.000000	6.234943
318.000000	6.317684
319.000000	6.175734
320.000000	6.228228
321.000000	6.214683
322.000000	6.241959
323.000000	6.222275
324.000000	6.233313
325.000000	6.208818
326.000000	6.225685
327.000000	6.294284
328.000000	6.261613
329.000000	6.297843
330.000000	6.277757
331.000000	6.266466
332.000000	6.247833
333.000000	6.293520
334.000000	6.229230
335.000000	6.268461
336.000000	6.321943
337.000000	6.291036
338.000000	6.332874
339.000000	6.325070
340.000000	6.285425
341.000000	6.301373
342.000000	6.275891
343.000000	6.278195
344.000000	6.998076
345.000000	6.985328
346.000000	7.015388
347.000000	6.991425
348.000000	7.006843
349.000000	6.990913
350.000000	6.998582
351.000000	7.005942
352.000000	7.002002
353.000000	6.990261
354.000000	6.984368
355.000000	6.963435
356.000000	6.975354
357.000000	6.954394
358.000000	7.665473
359.000000	7.659471
360.000000	7.658258
361.000000	7.636879
362.000000	7.633104
363.000000	7.607448
364.000000	7.595593
365.000000	7.588766
366.000000	7.570455
367.000000	8.270499
368.000000	8.236554
369.000000	8.219493
370.000000	8.218259
371.000000	8.183794
372.000000	8.148222
373.000000	8.877757
374.000000	8.860927
375.000000	8.813687
376.000000	8.738154
377.000000	9.488185
378.000000	9.437553
379.000000	9.391984
380.000000	9.343428
381.000000	9.290767
382.000000	9.948682
383.000000	9.886249
384.000000	9.828985
385.000000	9.763606
386.000000	10.417774
387.000000	10.352357
388.000000	10.283187
389.000000	10.210452
390.000000	10.139396
391.000000	10.789687
392.000000	10.717400
393.000000	10.645022
394.000000	10.570748
395.000000	10.497809
396.000000	10.427488
397.000000	11.078441
398.000000	11.011103
399.000000	10.943907
400.000000	10.879055
401.000000	10.815199
402.000000	10.751639
403.000000	10.688845
404.000000	10.632983
405.000000	10.581311
406.000000	10.531151
407.000000	10.480527
408.000000	10.430381
409.000000	10.382585
410.000000	10.342517
411.000000	10.300996
412.000000	10.260028
413.000000	10.223192
414.000000	10.191381
415.000000	10.163630
416.000000	10.136837
417.000000	10.109200
418.000000	10.084526
419.000000	10.064352
420.000000	10.045866
421.000000	10.028674
422.000000	10.016707
423.000000	10.007369
424.000000	9.999131
425.000000	9.992421
426.000000	9.988966
427.000000	9.991388
428.000000	9.280879
429.000000	9.289725
430.000000	9.299059
431.000000	9.310016
432.000000	9.324662
433.000000	9.344832
434.000000	9.368700
435.000000	9.395166
436.000000	9.423922
437.000000	9.453655
438.000000	9.483523
439.000000	9.519514
440.000000	9.558557
441.000000	9.597863
442.000000	9.640771
443.000000	9.687016
444.000000	9.733296
445.000000	9.771002
446.000000	9.804753
447.000000	9.841743
448.000000	9.879101
449.000000	9.915410
450.000000	9.950463
451.000000	9.983371
452.000000	10.013744
453.000000	10.040307
454.000000	9.342473
455.000000	9.355899
456.000000	9.364008
457.000000	9.370714
458.000000	9.377219
459.000000	9.379105
460.000000	9.374384
461.000000	9.368548
462.000000	9.360168
463.000000	9.349205
464.000000	9.338323
465.000000	8.609810
466.000000	8.599653
467.000000	8.592625
468.000000	8.588779
469.000000	8.586405
470.000000	8.584891
471.000000	8.587438
472.000000	8.594851
473.000000	8.606475
474.000000	8.621771
475.000000	8.639848
476.000000	8.660444
477.000000	8.683059
478.000000	8.707827
479.000000	8.739550
480.000000	8.778949
481.000000	8.822788
482.000000	8.864784
483.000000	8.900242
484.000000	8.929401
485.000000	8.954488
486.000000	8.979578
487.000000	9.002571
488.000000	9.024556
489.000000	9.046410
490.000000	9.069148
491.000000	9.807187
492.000000	9.822864
493.000000	9.837411
494.000000	9.849055
495.000000	9.856865
496.000000	9.856539
497.000000	10.564370
498.000000	10.551119
499.000000	10.529860
500.000000	10.499814
501.000000	11.175595
502.000000	11.129591
503.000000	11.071690
504.000000	11.711385
505.000000	11.622118
506.000000	11.515653
507.000000	12.099252
508.000000	11.948616
509.000000	11.776747
510.000000	12.298748
511.000000	12.096683
512.000000	11.892211
513.000000	12.408910
514.000000	12.228301
515.000000	12.779278
516.000000	12.638534
517.000000	12.517723
518.000000	13.127799
519.000000	13.041137
520.000000	12.961372
521.000000	12.892610
522.000000	13.552200
523.000000	13.500139
524.000000	13.458191
525.000000	13.426405
526.000000	14.115359
527.000000	14.095002
528.000000	14.078903
529.000000	14.067215
530.000000	14.058801
531.000000	14.048694
532.000000	14.759394
533.000000	14.753967
534.000000	14.749046
535.000000	14.746025
536.000000	14.740943
537.000000	14.732628
538.000000	14.726442
539.000000	14.714656
540.000000	14.699659
541.000000	14.687287
542.000000	14.673343
543.000000	14.660427
544.000000	14.648020
545.000000	14.635767
546.000000	14.623547
547.000000	14.608215
548.000000	14.591500
549.000000	14.579022
550.000000	14.566117
551.000000	14.555383
552.000000	14.543802
553.000000	14.536141
554.000000	14.527892
555.000000	14.519869
556.000000	14.513226
557.000000	14.500005
558.000000	14.486120
559.000000	14.477654
560.000000	14.585985
561.000000	14.601437
562.000000	14.601944
563.000000	14.606852
564.000000	14.612496
565.000000	14.618849
566.000000	14.627195
567.000000	14.632696
568.000000	14.648259
569.000000	14.664772
570.000000	14.691339
571.000000	14.718320
572.000000	14.745093
573.000000	14.778888
574.000000	14.809709
575.000000	14.845282
576.000000	14.869275
577.000000	14.897073
578.000000	14.198625
579.000000	14.212012
580.000000	14.224868
581.000000	14.239736
582.000000	14.258463
583.000000	14.291427
584.000000	14.332914
585.000000	14.382476
586.000000	14.446619
587.000000	13.797052
588.000000	13.870625
589.000000	13.939664
590.000000	14.001423
591.000000	14.045769
592.000000	14.064438
593.000000	14.066496
594.000000	14.051048
595.000000	14.021914
596.000000	13.991227
597.000000	13.249204
598.000000	13.243497
599.000000	13.252380
600.000000	13.284028
601.000000	13.349250
602.000000	13.431277
603.000000	13.513740
604.000000	13.604974
605.000000	13.679915
606.000000	13.741640
607.000000	13.772904
608.000000	13.071613
609.000000	13.055749
610.000000	13.020198
611.000000	12.969320
612.000000	12.915071
613.000000	12.867710
614.000000	12.834808
615.000000	12.823489
616.000000	12.834172
617.000000	12.873438
618.000000	12.924558
619.000000	12.992275
620.000000	13.063290
621.000000	13.137471
622.000000	13.194043
623.000000	13.240904
624.000000	13.258306
625.000000	13.254706
626.000000	13.228567
627.000000	13.182115
628.000000	13.122730
629.000000	13.066336
630.000000	12.296957
631.000000	12.259961
632.000000	12.237235
633.000000	12.241748
634.000000	12.265496
635.000000	12.306203
636.000000	12.361594
637.000000	12.421828
638.000000	12.471089
639.000000	12.518216
640.000000	12.544628
641.000000	12.551331
642.000000	12.531997
643.000000	12.492038
644.000000	12.436737
645.000000	12.369473
646.000000	12.300905
647.000000	12.235787
648.000000	12.177527
649.000000	12.146358
650.000000	12.136579
651.000000	12.138914
652.000000	12.167231
653.000000	12.207312
654.000000	12.255441
655.000000	12.304417
656.000000	13.066387
657.000000	13.101260
658.000000	13.125500
659.000000	13.130305
660.000000	13.120254
661.000000	13.089636
662.000000	13.049141
663.000000	13.002523
664.000000	12.955853
665.000000	12.921994
666.000000	12.900237
667.000000	12.891549
668.000000	12.907522
669.000000	12.938266
670.000000	12.982537
671.000000	13.038363
672.000000	13.097883
673.000000	13.157093
674.000000	13.203762
675.000000	13.959148
676.000000	13.981977
677.000000	13.991808
678.000000	13.980879
679.000000	13.958209
680.000000	13.915110
681.000000	13.864525
682.000000	13.808061
683.000000	13.763486
684.000000	13.720771
685.000000	13.693184
686.000000	13.675625
687.000000	13.672640
688.000000	13.675522
689.000000	14.414447
690.000000	14.433030
691.000000	14.460073
692.000000	14.482966
693.000000	14.495254
694.000000	14.495034
695.000000	14.487945
696.000000	14.463451
697.000000	14.430269
698.000000	14.382987
699.000000	14.328278
700.000000	14.264380
701.000000	14.200478
702.000000	14.139113
703.000000	14.081173
704.000000	14.033079
705.000000	14.716931
706.000000	14.689316
707.000000	14.670562
708.000000	14.664744
709.000000	14.662063
710.000000	14.661108
711.000000	14.658325
712.000000	14.658941
713.000000	14.656207
714.000000	14.640727
715.000000	14.623738
716.000000	14.603262
717.000000	14.575528
718.000000	14.542168
719.000000	14.507197
720.000000	14.473506
721.000000	14.441082
722.000000	14.418202
723.000000	14.390429
724.000000	14.369056
725.000000	14.354937
726.000000	14.349041
727.000000	14.350191
728.000000	14.348651
729.000000	14.357364
730.000000	14.366885
731.000000	14.374677
732.000000	13.663474
733.000000	13.666111
734.000000	13.669919
735.000000	13.663939
736.000000	13.653772
737.000000	13.649098
738.000000	13.644183
739.000000	13.634957
740.000000	13.625016
741.000000	13.611640
742.000000	13.600471
743.000000	13.597786
744.000000	13.601826
745.000000	13.612467
746.000000	13.617748
747.000000	12.912825
748.000000	12.932415
749.000000	12.951671
750.000000	12.970049
751.000000	12.988256
752.000000	13.003237
753.000000	13.019090
754.000000	13.033544
755.000000	13.044831
756.000000	13.062471
757.000000	13.069744
758.000000	13.074263
759.000000	12.367910
760.000000	12.371711
761.000000	12.372753
762.000000	12.381170
763.000000	12.398574
764.000000	12.416878
765.000000	12.435946
766.000000	12.460081
767.000000	11.774087
768.000000	11.805238
769.000000	11.838725
770.000000	11.868645
771.000000	11.896777
772.000000	11.929264
773.000000	11.960231
774.000000	11.998165
775.000000	12.026749
776.000000	12.047289
777.000000	11.354629
778.000000	11.382274
779.000000	11.406894
780.000000	11.419050
781.000000	11.437968
782.000000	11.465650
783.000000	11.484831
784.000000	11.511138
785.000000	10.827739
786.000000	10.863221
787.000000	10.892898
788.000000	10.930589
789.000000	10.970954
790.000000	11.012827
791.000000	11.056137
792.000000	11.095528
793.000000	11.137245
794.000000	11.185403
795.000000	10.499410
796.000000	10.531800
797.000000	10.563203
798.000000	10.594756
799.000000	10.621768
800.000000	10.647240
801.000000	10.677176
802.000000	10.699499
803.000000	10.724513
804.000000	10.759554
805.000000	10.778164
806.000000	10.801566
807.000000	10.832286
808.000000	10.137958
809.000000	10.171164
810.000000	10.203594
811.000000	10.233032
812.000000	10.284080
813.000000	10.317860
814.000000	10.345104
815.000000	10.384172
816.000000	10.413638
817.000000	10.444133
818.000000	10.474150
819.000000	10.502702
820.000000	10.518596
821.000000	10.545518
822.000000	10.570662
823.000000	10.596731
824.000000	10.594044
825.000000	10.628363
826.000000	10.659437
827.000000	10.680641
828.000000	10.694957
829.000000	10.719351
830.000000	10.736001
831.000000	10.740985
832.000000	10.754758
833.000000	10.785382
834.000000	10.807353
835.000000	10.829212
836.000000	10.851979
837.000000	10.868368
838.000000	10.884652
839.000000	10.899460
840.000000	10.931972
841.000000	10.955433
842.000000	10.955305
843.000000	10.968513
844.000000	10.974959
845.000000	11.010763
846.000000	10.967688
847.000000	10.986671
848.000000	11.035476
849.000000	11.049624
850.000000	11.056403
851.000000	11.035357
852.000000	11.064770
853.000000	11.075688
854.000000	11.052683
855.000000	11.100011
856.000000	11.099445
857.000000	11.056943
858.000000	17.370237
859.000000	11.281298
860.000000	11.274784
861.000000	10.770968
862.000000	11.257261
863.000000	11.245834
864.000000	10.742133
865.000000	10.734115
866.000000	10.722267
867.000000	10.707163
868.000000	10.200666
869.000000	10.190999
870.000000	10.677754
871.000000	10.670090
872.000000	10.157624
873.000000	10.644998
874.000000	10.131307
875.000000	9.620279
876.000000	9.605917
877.000000	9.590938
878.000000	9.585254
879.000000	9.568327
880.000000	9.553921
881.000000	9.536433
882.000000	9.529121
883.000000	9.510445
884.000000	9.492335
885.000000	9.481510
886.000000	8.970724
887.000000	9.451383
888.000000	9.434774
889.000000	8.927079
890.000000	9.406453
891.000000	9.388718
892.000000	9.375259
893.000000	9.355521
894.000000	9.337042
895.000000	8.822778
896.000000	8.813862
897.000000	8.790796
898.000000	8.771072
899.000000	8.755361
900.000000	8.735685
901.000000	8.715636
902.000000	8.701396
903.000000	8.687684
904.000000	8.666974
905.000000	8.646873
906.000000	8.634582
907.000000	8.126944
908.000000	8.102354
909.000000	8.571390
910.000000	8.561329
911.000000	8.539439
912.000000	8.516854
913.000000	8.500731
914.000000	8.478021
915.000000	8.460838
916.000000	8.435869
917.000000	8.419534
918.000000	8.406676
919.000000	8.395352
920.000000	8.375491
921.000000	8.352925
922.000000	8.331276
923.000000	8.311479
924.000000	8.295488
925.000000	8.284791
926.000000	8.266710
927.000000	8.250161
928.000000	8.233246
929.000000	8.220440
930.000000	8.207515
931.000000	8.191210
932.000000	8.179304
933.000000	8.152066
934.000000	8.137393
935.000000	8.117715
936.000000	8.100548
937.000000	8.091583
938.000000	8.066516
939.000000	8.050381
940.000000	8.037726
941.000000	8.032537
942.000000	8.010250
943.000000	7.991222
944.000000	7.975110
945.000000	7.960715
946.000000	7.938192
947.000000	7.931129
948.000000	7.919536
949.000000	7.901002
950.000000	8.372133
951.000000	8.355063
952.000000	8.337325
953.000000	8.324567
954.000000	8.303983
955.000000	8.285606
956.000000	8.278768
957.000000	8.260663
958.000000	8.240949
959.000000	8.223615
960.000000	8.212373
961.000000	8.198253
962.000000	8.180363
963.000000	8.164385
964.000000	8.151529
965.000000	8.142240
966.000000	8.126624
967.000000	8.108673
968.000000	8.092682
969.000000	8.085301
970.000000	8.070145
971.000000	8.059268
972.000000	8.041591
973.000000	8.508276
974.000000	8.006383
975.000000	8.480010
976.000000	8.464942
977.000000	8.450247
978.000000	8.437732
979.000000	8.418095
980.000000	8.408765
981.000000	8.395371
982.000000	8.378849
983.000000	8.364014
984.000000	8.350784
985.000000	8.336606
986.000000	8.321656
987.000000	8.307643
988.000000	8.291249
989.000000	8.278251
990.000000	8.269693
991.000000	8.741493
992.000000	8.727177
993.000000	8.713320
994.000000	8.697459
995.000000	8.681460
996.000000	8.672637
997.000000	8.659494
998.000000	8.639883
999.000000	8.622098
1000.000000	8.613897
1001.000000	8.602101
1002.000000	8.584547
1003.000000	8.569125
1004.000000	8.555712
1005.000000	8.546169
1006.000000	8.533418
1007.000000	8.520462
1008.000000	8.508761
1009.000000	8.979732
1010.000000	8.969830
1011.000000	8.952682
1012.000000	8.935957
1013.000000	8.924548
1014.000000	8.910748
1015.000000	8.896025
1016.000000	8.881725
1017.000000	8.866747
1018.000000	8.850642
1019.000000	8.839291
1020.000000	8.831520
1021.000000	8.817969
1022.000000	8.798984
1023.000000	8.783597
1024.000000	8.774359
1025.000000	8.763642
1026.000000	9.236030
1027.000000	9.221839
1028.000000	9.205880
1029.000000	9.196052
1030.000000	9.180079
1031.000000	9.161070
1032.000000	9.150827
1033.000000	9.137763
1034.000000	9.124558
1035.000000	9.112717
1036.000000	9.099794
1037.000000	9.089159
1038.000000	9.076258
1039.000000	9.064329
1040.000000	9.051516
1041.000000	9.038722
1042.000000	9.512219
1043.000000	9.499662
1044.000000	9.488890
1045.000000	9.474166
1046.000000	9.462099
1047.000000	9.450209
1048.000000	9.435298
1049.000000	9.421932
1050.000000	9.406261
1051.000000	9.390416
1052.000000	9.378290
1053.000000	9.366714
1054.000000	9.355140
1055.000000	9.345382
1056.000000	9.330065
1057.000000	9.314547
1058.000000	9.784307
1059.000000	9.774156
1060.000000	9.769444
1061.000000	9.754230
1062.000000	9.735641
1063.000000	9.725867
1064.000000	9.715951
1065.000000	9.703995
1066.000000	9.687875
1067.000000	9.674708
1068.000000	9.662907
1069.000000	9.650533
1070.000000	9.637091
1071.000000	9.623506
1072.000000	9.613364
1073.000000	9.598711
1074.000000	9.588528
1075.000000	10.068585
1076.000000	10.055721
1077.000000	10.041808
1078.000000	10.023975
1079.000000	10.007482
1080.000000	9.997890
1081.000000	9.984334
1082.000000	9.975792
1083.000000	9.959530
1084.000000	9.948272
1085.000000	9.937449
1086.000000	9.928593
1087.000000	9.914689
1088.000000	9.904626
1089.000000	9.892038
1090.000000	9.881255
1091.000000	10.355352
1092.000000	10.343996
1093.000000	10.332254
1094.000000	10.321668
1095.000000	10.316950
1096.000000	10.301959
1097.000000	10.293004
1098.000000	10.283223
1099.000000	10.276614
1100.000000	10.265400
1101.000000	10.249333
1102.000000	10.242230
1103.000000	10.227174
1104.000000	10.220309
1105.000000	10.210453
1106.000000	10.199776
1107.000000	10.180718
1108.000000	10.176453
1109.000000	10.164090
1110.000000	10.153209
1111.000000	10.625698
1112.000000	10.618434
1113.000000	10.612617
1114.000000	10.604686
1115.000000	10.590512
1116.000000	10.578521
1117.000000	10.571769
1118.000000	10.561831
1119.000000	10.554828
1120.000000	10.547518
1121.000000	10.539030
1122.000000	10.520954
1123.000000	10.516739
1124.000000	10.508015
1125.000000	10.495150
1126.000000	10.495420
1127.000000	10.486797
1128.000000	10.470064
1129.000000	10.463924
1130.000000	10.457756
1131.000000	10.462960
1132.000000	10.471074
1133.000000	10.463992
1134.000000	10.922036
1135.000000	10.904728
1136.000000	10.902115
1137.000000	10.905175
1138.000000	10.904703
1139.000000	10.894889
1140.000000	10.889345
1141.000000	10.892225
1142.000000	10.887058
1143.000000	10.875099
1144.000000	10.879669
1145.000000	10.862465
1146.000000	10.856271
1147.000000	10.851958
1148.000000	10.853860
1149.000000	10.845017
1150.000000	10.837114
1151.000000	10.839988
1152.000000	10.825907
1153.000000	10.818073
1154.000000	10.820008
1155.000000	10.811432
1156.000000	10.815904
1157.000000	10.815915
1158.000000	10.806551
1159.000000	10.807933
1160.000000	10.809289
1161.000000	10.810713
1162.000000	10.810551
1163.000000	10.812529
1164.000000	10.814839
1165.000000	10.824263
1166.000000	10.820007
1167.000000	10.821919
1168.000000	10.815121
1169.000000	10.815306
1170.000000	10.817785
1171.000000	10.815057
1172.000000	10.813000
1173.000000	10.809906
1174.000000	10.801821
1175.000000	10.804476
1176.000000	10.800198
1177.000000	10.792858
1178.000000	10.792977
1179.000000	10.790506
1180.000000	10.782035
1181.000000	10.768165
1182.000000	10.777408
1183.000000	10.768402
1184.000000	10.768793
1185.000000	10.762814
1186.000000	10.751180
1187.000000	10.750511
1188.000000	10.737352
1189.000000	10.725630
1190.000000	10.730066
1191.000000	10.711287
1192.000000	11.187683
1193.000000	11.177753
1194.000000	11.169553
1195.000000	11.158210
1196.000000	11.148511
1197.000000	11.139547
1198.000000	11.129115
1199.000000	11.121028
1200.000000	11.119558
1201.000000	11.107215
1202.000000	11.098491
1203.000000	11.083738
1204.000000	11.074777
1205.000000	11.060349
1206.000000	11.051640
1207.000000	11.048583
1208.000000	11.032900
1209.000000	11.020147
1210.000000	11.491652
1211.000000	11.482953
1212.000000	11.478234
1213.000000	11.458908
1214.000000	11.453989
1215.000000	11.441519
1216.000000	11.431611
1217.000000	11.428527
1218.000000	11.427719
1219.000000	11.415661
1220.000000	11.413987
1221.000000	11.407273
1222.000000	11.398741
1223.000000	11.388838
1224.000000	11.387488
1225.000000	11.384985
1226.000000	11.378311
1227.000000	11.370249
1228.000000	11.368830
1229.000000	11.362493
1230.000000	11.351365
1231.000000	11.351196
1232.000000	11.343597
1233.000000	11.825886
1234.000000	11.823759
1235.000000	11.819516
1236.000000	11.808414
1237.000000	11.811114
1238.000000	11.804187
1239.000000	11.799761
1240.000000	11.799663
1241.000000	11.790408
1242.000000	11.782445
1243.000000	11.773287
1244.000000	11.764999
1245.000000	11.763783
1246.000000	11.753249
1247.000000	11.739862
1248.000000	11.732242
1249.000000	11.726797
1250.000000	11.712295
1251.000000	11.703839
1252.000000	11.691238
1253.000000	11.688379
1254.000000	11.679683
1255.000000	11.671355
1256.000000	11.663215
1257.000000	12.139223
1258.000000	12.130224
1259.000000	12.125341
1260.000000	12.113447
1261.000000	12.106703
1262.000000	12.100808
1263.000000	12.089950
1264.000000	12.081354
1265.000000	12.080227
1266.000000	12.078816
1267.000000	12.069284
1268.000000	12.067895
1269.000000	12.067031
1270.000000	12.056063
1271.000000	12.051891
1272.000000	12.049790
1273.000000	12.047274
1274.000000	12.046561
1275.000000	12.040162
1276.000000	12.030340
1277.000000	12.028434
1278.000000	12.025062
1279.000000	12.020532
1280.000000	12.019237
1281.000000	12.011491
1282.000000	12.000585
1283.000000	11.991911
1284.000000	11.984172
1285.000000	11.976667
1286.000000	11.968511
1287.000000	11.968146
1288.000000	11.964612
1289.000000	11.951375
1290.000000	12.431054
1291.000000	12.427984
1292.000000	12.422002
1293.000000	12.422248
1294.000000	12.415300
1295.000000	12.402258
1296.000000	12.388893
1297.000000	12.381360
1298.000000	12.383339
1299.000000	12.381630
1300.000000	12.375924
1301.000000	12.368598
1302.000000	12.364146
1303.000000	12.360856
1304.000000	12.355754
1305.000000	12.351862
1306.000000	12.351064
1307.000000	12.352026
1308.000000	12.348039
1309.000000	12.344994
1310.000000	12.344773
1311.000000	12.339423
1312.000000	12.337100
1313.000000	12.338670
1314.000000	12.342314
1315.000000	12.344919
1316.000000	12.347955
1317.000000	12.350429
1318.000000	12.347994
1319.000000	12.344525
1320.000000	12.343485
1321.000000	12.344666
1322.000000	12.349377
1323.000000	12.354825
1324.000000	12.357326
1325.000000	12.359798
1326.000000	12.361989
1327.000000	12.362592
1328.000000	12.366612
1329.000000	12.376885
1330.000000	12.379954
1331.000000	12.385692
1332.000000	12.394645
1333.000000	12.401202
1334.000000	12.407330
1335.000000	12.414208
1336.000000	12.422681
1337.000000	11.941215
1338.000000	11.947606
1339.000000	11.963037
1340.000000	11.968956
1341.000000	11.972130
1342.000000	11.981749
1343.000000	11.995838
1344.000000	12.012309
1345.000000	12.029732
1346.000000	12.043405
1347.000000	12.046648
1348.000000	12.057041
1349.000000	12.074707
1350.000000	12.088330
1351.000000	12.106180
1352.000000	12.132251
1353.000000	12.139231
1354.000000	12.129011
1355.000000	11.634106
1356.000000	11.639995
1357.000000	11.666350
1358.000000	11.680710
1359.000000	11.703995
1360.000000	11.700126
1361.000000	11.658310
1362.000000	11.662552
1363.000000	11.697922
1364.000000	11.700752
1365.000000	11.222380
1366.000000	11.258670
1367.000000	11.271646
1368.000000	11.273111
1369.000000	11.319727
1370.000000	11.354061
1371.000000	10.887961
1372.000000	10.936790
1373.000000	11.006094
1374.000000	11.072520
1375.000000	11.131709
1376.000000	10.723082
1377.000000	10.787274
1378.000000	10.870770
1379.000000	10.931866
1380.000000	10.972321
1381.000000	10.964909
1382.000000	10.475544
1383.000000	10.471518
1384.000000	10.495110
1385.000000	10.516454
1386.000000	10.528271
1387.000000	10.515861
1388.000000	10.489548
1389.000000	10.509374
1390.000000	10.532783
1391.000000	10.523061
1392.000000	10.030272
1393.000000	10.037098
1394.000000	10.040614
1395.000000	9.983411
1396.000000	9.966504
1397.000000	10.018526
1398.000000	10.070449
1399.000000	10.056901
1400.000000	9.999797
1401.000000	10.015747
1402.000000	10.072650
1403.000000	10.119297
1404.000000	10.108473
1405.000000	10.121524
1406.000000	9.665881
1407.000000	9.681589
1408.000000	9.701851
1409.000000	9.710810
1410.000000	9.740973
1411.000000	9.790511
1412.000000	9.824015
1413.000000	9.830566
1414.000000	9.830879
1415.000000	9.376372
1416.000000	9.427436
1417.000000	9.445805
1418.000000	9.451327
1419.000000	9.463104
1420.000000	9.486670
1421.000000	9.531348
1422.000000	9.553327
1423.000000	9.552457
1424.000000	9.088344
1425.000000	9.115614
1426.000000	9.133169
1427.000000	9.140852
1428.000000	9.159854
1429.000000	9.185144
1430.000000	9.196436
1431.000000	9.199294
1432.000000	9.208198
1433.000000	9.228434
1434.000000	9.243817
1435.000000	9.260248
1436.000000	9.264619
1437.000000	9.277959
1438.000000	9.274843
1439.000000	8.805634
1440.000000	8.818647
1441.000000	8.826113
1442.000000	8.825506
1443.000000	8.843449
1444.000000	8.844741
1445.000000	8.838310
1446.000000	8.841683
1447.000000	8.868183
1448.000000	8.882154
1449.000000	8.886971
1450.000000	8.883449
1451.000000	8.888098
1452.000000	8.905556
1453.000000	8.908991
1454.000000	8.917360
1455.000000	8.923455
1456.000000	8.935587
1457.000000	8.945918
1458.000000	8.951430
1459.000000	8.963935
1460.000000	8.482739
1461.000000	8.488485
1462.000000	8.500355
1463.000000	8.510715
1464.000000	8.517883
1465.000000	8.528505
1466.000000	8.533153
1467.000000	8.545470
1468.000000	8.554492
1469.000000	8.558721
1470.000000	8.556690
1471.000000	8.560342
1472.000000	8.565470
1473.000000	8.578332
1474.000000	8.589856
1475.000000	8.600366
1476.000000	8.601011
1477.000000	8.601359
1478.000000	8.612763
1479.000000	8.607632
1480.000000	8.615800
1481.000000	8.620902
1482.000000	8.621481
1483.000000	8.627054
1484.000000	8.629056
1485.000000	8.632514
1486.000000	8.638154
1487.000000	8.638933
1488.000000	8.644679
1489.000000	8.653821
1490.000000	8.650016
1491.000000	8.651307
1492.000000	8.656445
1493.000000	8.659958
1494.000000	8.659222
1495.000000	8.657333
1496.000000	8.653882
1497.000000	8.649873
1498.000000	8.649565
1499.000000	8.645941
1500.000000	8.636384
1501.000000	8.629448
1502.000000	8.623164
1503.000000	8.616049
1504.000000	8.607318
1505.000000	8.598088
1506.000000	8.592259
1507.000000	8.583339
1508.000000	8.572592
1509.000000	8.567002
1510.000000	8.553210
1511.000000	8.548351
1512.000000	8.535120
1513.000000	8.523099
1514.000000	8.514519
1515.000000	8.504806
1516.000000	8.496769
1517.000000	8.482119
1518.000000	8.477496
1519.000000	8.466756
1520.000000	8.454695
1521.000000	8.444168
1522.000000	8.925355
1523.000000	8.917651
1524.000000	8.907499
1525.000000	8.901307
1526.000000	8.894864
1527.000000	8.885018
1528.000000	8.877706
1529.000000	8.866947
1530.000000	8.864027
1531.000000	8.855290
1532.000000	8.846866
1533.000000	8.843008
1534.000000	8.829677
1535.000000	8.820869
1536.000000	8.821844
1537.000000	8.817416
1538.000000	8.814541
1539.000000	8.807569
1540.000000	8.798602
1541.000000	8.796860
1542.000000	8.793376
1543.000000	8.784581
1544.000000	8.778462
1545.000000	8.775269
1546.000000	8.762814
1547.000000	8.754351
1548.000000	8.750625
1549.000000	9.226409
1550.000000	9.211609
1551.000000	9.199242
1552.000000	9.191136
1553.000000	9.183464
1554.000000	9.180402
1555.000000	9.174937
1556.000000	9.167398
1557.000000	9.166774
1558.000000	9.166372
1559.000000	9.160918
1560.000000	9.159654
1561.000000	9.160368
1562.000000	9.157663
1563.000000	9.155598
1564.000000	9.155174
1565.000000	9.158071
1566.000000	9.163069
1567.000000	9.166656
1568.000000	9.166383
1569.000000	9.166983
1570.000000	9.168381
1571.000000	9.169837
1572.000000	9.169795
1573.000000	9.165289
1574.000000	9.160631
1575.000000	9.160282
1576.000000	9.159239
1577.000000	9.154337
1578.000000	9.154050
1579.000000	9.154774
1580.000000	9.148494
1581.000000	9.143242
1582.000000	9.138709
1583.000000	9.130169
1584.000000	9.123215
1585.000000	9.119502
1586.000000	9.116123
1587.000000	9.112695
1588.000000	9.098241
1589.000000	9.091806
1590.000000	9.089255
1591.000000	9.080547
1592.000000	9.070659
1593.000000	9.066214
1594.000000	9.061264
1595.000000	9.053547
1596.000000	9.046861
1597.000000	9.530080
1598.000000	9.521326
1599.000000	9.507785
1600.000000	9.494028
1601.000000	9.492795
1602.000000	9.485915
1603.000000	9.476469
1604.000000	9.467496
1605.000000	9.459480
1606.000000	9.448807
1607.000000	9.441199
1608.000000	9.436194
1609.000000	9.426103
1610.000000	9.416336
1611.000000	9.415063
1612.000000	9.417023
1613.000000	9.412777
1614.000000	9.408000
1615.000000	9.406232
1616.000000	9.398457
1617.000000	9.388511
1618.000000	9.385964
1619.000000	9.384749
1620.000000	9.379223
1621.000000	9.368332
1622.000000	9.370609
1623.000000	9.371967
1624.000000	9.368439
1625.000000	9.845811
1626.000000	9.836987
1627.000000	9.829561
1628.000000	9.824675
1629.000000	9.818256
1630.000000	9.817604
1631.000000	9.810752
1632.000000	9.806848
1633.000000	9.807587
1634.000000	9.805022
1635.000000	9.799051
1636.000000	9.796294
1637.000000	9.793698
1638.000000	9.793952
1639.000000	9.789781
1640.000000	9.789304
1641.000000	9.782726
1642.000000	9.780375
1643.000000	9.780417
1644.000000	9.781750
1645.000000	9.780383
1646.000000	9.777936
1647.000000	9.775234
1648.000000	9.775684
1649.000000	9.772952
1650.000000	9.765716
1651.000000	9.771547
1652.000000	9.773608
1653.000000	9.776891
1654.000000	9.782741
1655.000000	9.787646
1656.000000	9.798742
1657.000000	9.804643
1658.000000	9.806253
1659.000000	9.824447
1660.000000	9.345772
1661.000000	9.358283
1662.000000	9.371840
1663.000000	9.390366
1664.000000	9.405007
1665.000000	9.420988
1666.000000	9.429177
1667.000000	9.445661
1668.000000	9.492040
1669.000000	9.515856
1670.000000	9.536105
1671.000000	9.561280
1672.000000	9.095833
1673.000000	9.112049
1674.000000	9.133750
1675.000000	9.155219
1676.000000	9.174542
1677.000000	9.201432
1678.000000	9.222943
1679.000000	9.250974
1680.000000	9.279896
1681.000000	8.822861
1682.000000	8.840528
1683.000000	8.872765
1684.000000	8.892434
1685.000000	8.914565
1686.000000	8.923908
1687.000000	8.926922
1688.000000	8.936352
1689.000000	8.935042
1690.000000	8.930526
1691.000000	8.930975
1692.000000	8.923924
1693.000000	8.913300
1694.000000	8.902139
1695.000000	8.896346
1696.000000	8.893115
1697.000000	8.887515
1698.000000	8.899946
1699.000000	8.893032
1700.000000	8.897554
1701.000000	8.897720
1702.000000	8.898804
1703.000000	8.903461
1704.000000	8.909414
1705.000000	8.915789
1706.000000	8.919777
1707.000000	8.442574
1708.000000	8.450729
1709.000000	8.470612
1710.000000	8.486571
1711.000000	8.505075
1712.000000	8.523641
1713.000000	8.546642
1714.000000	8.571071
1715.000000	8.594262
1716.000000	8.624955
1717.000000	8.648517
1718.000000	8.668634
1719.000000	8.690860
1720.000000	8.718222
1721.000000	8.234590
1722.000000	8.251698
1723.000000	8.251155
1724.000000	8.253905
1725.000000	8.255063
1726.000000	8.250230
1727.000000	8.245797
1728.000000	8.236524
1729.000000	8.223083
1730.000000	8.219335
1731.000000	8.214575
1732.000000	8.207329
1733.000000	8.202762
1734.000000	8.192258
1735.000000	8.184079
1736.000000	8.657507
1737.000000	8.646697
1738.000000	8.642490
1739.000000	8.635937
1740.000000	8.619830
1741.000000	8.602915
1742.000000	8.600225
1743.000000	8.588261
1744.000000	8.578716
1745.000000	8.569956
1746.000000	8.561518
1747.000000	8.544783
1748.000000	8.541645
1749.000000	8.537341
1750.000000	8.533419
1751.000000	8.526093
1752.000000	8.524861
1753.000000	8.528955
1754.000000	8.526076
1755.000000	8.527269
1756.000000	8.524581
1757.000000	8.526014
1758.000000	8.527759
1759.000000	8.524935
1760.000000	8.517208
1761.000000	8.517085
1762.000000	8.518815
1763.000000	8.517224
1764.000000	8.511289
1765.000000	8.498860
1766.000000	8.495082
1767.000000	8.494317
1768.000000	8.486927
1769.000000	8.481974
1770.000000	8.472751
1771.000000	8.953518
1772.000000	8.951457
1773.000000	8.951133
1774.000000	8.944711
1775.000000	8.931734
1776.000000	8.922055
1777.000000	8.916596
1778.000000	8.904304
1779.000000	8.902761
1780.000000	8.896597
1781.000000	8.891184
1782.000000	8.899438
1783.000000	8.897311
1784.000000	8.892787
1785.000000	8.891090
1786.000000	8.889800
1787.000000	8.889129
1788.000000	8.890100
1789.000000	8.894928
1790.000000	8.893095
1791.000000	8.891184
1792.000000	8.890236
1793.000000	8.888639
1794.000000	8.886167
1795.000000	8.880169
1796.000000	8.881738
1797.000000	8.884368
1798.000000	8.890426
1799.000000	8.894932
1800.000000	8.877728
1801.000000	8.856162
1802.000000	8.862073
1803.000000	8.875893
1804.000000	8.881020
1805.000000	8.869022
1806.000000	8.851844
1807.000000	8.853591
1808.000000	8.867501
1809.000000	8.883819
1810.000000	8.875422
1811.000000	8.855412
1812.000000	8.851071
1813.000000	8.857591
1814.000000	8.854176
1815.000000	8.845287
1816.000000	8.854239
1817.000000	8.886398
1818.000000	8.914386
1819.000000	8.899692
1820.000000	8.847055
1821.000000	8.798879
1822.000000	8.808827
1823.000000	8.860647
1824.000000	8.895758
1825.000000	8.905294
1826.000000	8.896661
1827.000000	8.881463
1828.000000	8.871033
1829.000000	8.861067
1830.000000	9.324555
1831.000000	9.318263
1832.000000	9.343596
1833.000000	9.387094
1834.000000	9.408215
1835.000000	9.385350
1836.000000	9.347633
1837.000000	9.326281
1838.000000	9.331657
1839.000000	9.329962
1840.000000	9.297448
1841.000000	9.241400
1842.000000	9.220297
1843.000000	9.272830
1844.000000	9.358652
1845.000000	9.417693
1846.000000	9.398560
1847.000000	9.304719
1848.000000	9.219083
1849.000000	9.222153
1850.000000	9.288947
1851.000000	9.344009
1852.000000	9.353966
1853.000000	9.338318
1854.000000	9.320809
1855.000000	9.321421
1856.000000	9.355674
1857.000000	9.383128
1858.000000	9.363205
1859.000000	9.334796
1860.000000	9.321096
1861.000000	9.326908
1862.000000	9.362435
1863.000000	9.413915
1864.000000	8.978844
1865.000000	9.028222
1866.000000	9.065771
1867.000000	9.094837
1868.000000	9.122598
1869.000000	9.108473
1870.000000	9.070700
1871.000000	9.057805
1872.000000	9.051842
1873.000000	9.050547
1874.000000	8.576200
1875.000000	8.592853
1876.000000	8.626224
1877.000000	8.661371
1878.000000	8.711483
1879.000000	8.272430
1880.000000	8.345898
1881.000000	8.403661
1882.000000	8.447283
1883.000000	7.990484
1884.000000	8.028056
1885.000000	8.075794
1886.000000	8.141116
1887.000000	8.226857
1888.000000	7.821870
1889.000000	7.881758
1890.000000	7.931850
1891.000000	7.976607
1892.000000	7.532131
1893.000000	7.604170
1894.000000	7.692947
1895.000000	7.297704
1896.000000	7.396983
1897.000000	7.478359
1898.000000	7.530569
1899.000000	7.074068
1900.000000	7.123994
1901.000000	7.192446
1902.000000	7.273454
1903.000000	7.341348
1904.000000	6.884181
1905.000000	6.895825
1906.000000	6.935139
1907.000000	6.984446
1908.000000	6.553036
1909.000000	6.634120
1910.000000	6.696648
1911.000000	6.737291
1912.000000	6.750327
1913.000000	6.755536
1914.000000	6.288140
1915.000000	6.318268
1916.000000	6.367953
1917.000000	6.423985
1918.000000	6.454393
1919.000000	6.463542
1920.000000	6.471191
1921.000000	6.479816
1922.000000	6.492323
1923.000000	6.511469
1924.000000	6.042945
1925.000000	6.068714
1926.000000	6.070290
1927.000000	6.077100
1928.000000	6.077840
1929.000000	6.069712
1930.000000	6.075393
1931.000000	6.086077
1932.000000	6.103927
1933.000000	6.103585
1934.000000	6.109241
1935.000000	6.114840
1936.000000	6.112229
1937.000000	6.106932
1938.000000	6.087440
1939.000000	6.073254
1940.000000	6.066888
1941.000000	6.065253
1942.000000	6.067159
1943.000000	6.059429
1944.000000	6.053020
1945.000000	6.042012
1946.000000	6.029350
1947.000000	6.019490
1948.000000	6.008835
1949.000000	5.994757
1950.000000	5.990246
1951.000000	5.976052
1952.000000	5.964683
1953.000000	5.959782
1954.000000	5.944070
1955.000000	5.925657
1956.000000	5.916620
1957.000000	6.402325
1958.000000	6.383690
1959.000000	6.374459
1960.000000	6.363924
1961.000000	6.347067
1962.000000	6.338662
1963.000000	6.323980
1964.000000	6.320460
1965.000000	6.307068
1966.000000	6.296139
1967.000000	6.291792
1968.000000	6.273327
1969.000000	6.269772
1970.000000	6.262195
1971.000000	6.246094
1972.000000	6.236420
1973.000000	6.230933
1974.000000	6.211630
1975.000000	6.209034
1976.000000	6.195368
1977.000000	6.188542
1978.000000	6.672749
1979.000000	6.660346
1980.000000	6.642717
1981.000000	6.143367
1982.000000	6.618751
1983.000000	6.608886
1984.000000	6.599520
1985.000000	6.591484
1986.000000	6.582068
1987.000000	6.574880
1988.000000	6.562834
1989.000000	6.551013
1990.000000	6.539848
1991.000000	6.531946
1992.000000	6.524706
1993.000000	6.517076
1994.000000	6.506839
1995.000000	6.505659
1996.000000	6.492208
1997.000000	6.482809
1998.000000	6.480027
1999.000000	6.472282
2000.000000	6.465329
2001.000000	6.956675
2002.000000	6.946570
2003.000000	6.944792
2004.000000	6.940935
2005.000000	6.937265
2006.000000	6.935955
2007.000000	6.928554
2008.000000	6.938239
2009.000000	6.935625
2010.000000	6.943567
2011.000000	6.945539
2012.000000	6.948105
2013.000000	6.950097
2014.000000	6.464384
2015.000000	6.959982
2016.000000	6.967958
2017.000000	6.969859
2018.000000	6.980111
2019.000000	6.991627
2020.000000	6.996819
2021.000000	7.011100
2022.000000	7.019650
2023.000000	7.032366
2024.000000	7.043249
2025.000000	7.058010
2026.000000	6.575811
2027.000000	6.598223
2028.000000	6.611662
2029.000000	6.621712
2030.000000	6.642759
2031.000000	6.657251
2032.000000	6.673107
2033.000000	6.689304
2034.000000	6.708854
2035.000000	6.725124
2036.000000	6.750195
2037.000000	6.774403
2038.000000	6.795930
2039.000000	6.816194
2040.000000	6.833831
2041.000000	6.861534
2042.000000	6.887727
2043.000000	6.909364
2044.000000	6.926735
2045.000000	6.454742
2046.000000	6.474314
2047.000000	6.491967
2048.000000	6.505000
2049.000000	6.511806
2050.000000	7.021646
2051.000000	6.539572
2052.000000	6.538734
2053.000000	6.536165
2054.000000	6.539986
2055.000000	6.536131
2056.000000	6.534233
2057.000000	6.527544
2058.000000	7.010996
2059.000000	7.000555
2060.000000	6.986978
2061.000000	6.480381
2062.000000	6.963748
2063.000000	6.948385
2064.000000	6.933743
2065.000000	6.917559
2066.000000	6.898356
2067.000000	6.886910
2068.000000	6.875253
2069.000000	6.866059
2070.000000	6.850818
2071.000000	6.837748
2072.000000	6.833129
2073.000000	6.823883
2074.000000	6.812758
2075.000000	6.804899
2076.000000	6.799250
2077.000000	6.792582
2078.000000	7.282259
2079.000000	7.280104
2080.000000	7.276855
2081.000000	7.273915
2082.000000	7.271738
2083.000000	7.272983
2084.000000	7.278616
2085.000000	7.278031
2086.000000	7.277347
2087.000000	7.281193
2088.000000	7.285630
2089.000000	7.293106
2090.000000	7.294629
2091.000000	7.298063
2092.000000	7.301974
2093.000000	7.303079
2094.000000	7.307492
2095.000000	7.314498
2096.000000	7.317107
2097.000000	7.316762
2098.000000	7.321052
2099.000000	7.322755
2100.000000	7.322868
2101.000000	7.326259
2102.000000	7.330324
2103.000000	7.333872
2104.000000	7.339151
2105.000000	7.343514
2106.000000	7.344885
2107.000000	7.346538
2108.000000	7.351293
2109.000000	7.360150
2110.000000	7.366439
2111.000000	7.858761
2112.000000	7.861342
2113.000000	7.373633
2114.000000	7.383773
2115.000000	7.392010
2116.000000	7.889808
2117.000000	7.398719
2118.000000	7.404775
2119.000000	7.408975
2120.000000	7.419758
2121.000000	7.432257
2122.000000	7.439933
2123.000000	7.939834
2124.000000	7.945779
2125.000000	7.957252
2126.000000	7.964213
2127.000000	7.479451
2128.000000	7.489269
2129.000000	7.497580
2130.000000	7.505181
2131.000000	7.521302
2132.000000	7.532385
2133.000000	7.546065
2134.000000	7.559429
2135.000000	7.570854
2136.000000	7.581988
2137.000000	7.598890
2138.000000	7.612223
2139.000000	7.624309
2140.000000	7.643109
2141.000000	7.658829
2142.000000	7.668772
2143.000000	7.683037
2144.000000	7.700197
2145.000000	7.716141
2146.000000	7.235799
2147.000000	7.249086
2148.000000	7.266645
2149.000000	7.272007
2150.000000	7.286367
2151.000000	7.301665
2152.000000	7.315627
2153.000000	7.330644
2154.000000	7.341426
2155.000000	7.355254
2156.000000	7.369143
2157.000000	7.375052
2158.000000	7.382714
2159.000000	6.893017
2160.000000	7.401190
2161.000000	7.410800
2162.000000	6.915767
2163.000000	6.919988
2164.000000	6.927397
2165.000000	6.933386
2166.000000	6.941502
2167.000000	6.945550
2168.000000	6.948669
2169.000000	6.960685
2170.000000	6.967932
2171.000000	6.974138
2172.000000	6.968133
2173.000000	6.973244
2174.000000	6.986319
2175.000000	6.988341
2176.000000	6.991259
2177.000000	6.500812
2178.000000	6.506288
2179.000000	6.513336
2180.000000	6.520220
2181.000000	6.528645
2182.000000	6.534866
2183.000000	6.543643
2184.000000	6.554027
2185.000000	6.569395
2186.000000	6.583501
2187.000000	6.604637
2188.000000	6.621306
2189.000000	6.640258
2190.000000	6.660466
2191.000000	6.685738
2192.000000	6.215342
2193.000000	6.243743
2194.000000	6.270240
2195.000000	5.802213
2196.000000	6.329972
2197.000000	5.864480
2198.000000	5.896973
2199.000000	5.928321
2200.000000	5.949225
2201.000000	5.974652
2202.000000	5.992985
2203.000000	6.008550
2204.000000	5.525571
2205.000000	5.543800
2206.000000	5.551272
2207.000000	5.556315
2208.000000	5.558590
2209.000000	5.559217
2210.000000	5.550715
2211.000000	5.545612
2212.000000	5.541337
2213.000000	5.521108
2214.000000	5.504567
2215.000000	5.494284
2216.000000	5.972305
2217.000000	5.955910
2218.000000	5.942830
2219.000000	5.424660
2220.000000	5.410593
2221.000000	5.889672
2222.000000	5.875348
2223.000000	5.855406
2224.000000	5.842672
2225.000000	5.833822
2226.000000	5.824096
2227.000000	5.807795
2228.000000	5.803620
2229.000000	5.796754
2230.000000	5.791839
2231.000000	5.785941
2232.000000	5.786483
2233.000000	5.784714
2234.000000	5.785104
2235.000000	5.783263
2236.000000	5.787082
2237.000000	5.790890
2238.000000	5.794663
2239.000000	5.801552
2240.000000	6.306599
2241.000000	6.317381
2242.000000	5.824245
2243.000000	5.836404
2244.000000	5.841421
2245.000000	5.851437
2246.000000	6.359357
2247.000000	6.375025
2248.000000	6.383117
2249.000000	6.397190
2250.000000	5.909228
2251.000000	5.917778
2252.000000	5.934609
2253.000000	6.443101
2254.000000	6.449520
2255.000000	6.456841
2256.000000	5.971772
2257.000000	5.980771
2258.000000	6.483356
2259.000000	6.491148
2260.000000	6.496799
2261.000000	6.500418
2262.000000	6.509178
2263.000000	6.511774
2264.000000	6.510375
2265.000000	6.505805
2266.000000	6.515175
2267.000000	6.508031
2268.000000	6.502161
2269.000000	6.492078
2270.000000	6.493662
2271.000000	6.494393
2272.000000	6.487184
2273.000000	6.486594
2274.000000	6.485155
2275.000000	6.485875
2276.000000	6.478852
2277.000000	6.479266
2278.000000	6.483583
2279.000000	6.476595
2280.000000	6.477867
2281.000000	6.969386
2282.000000	6.969064
2283.000000	6.472629
2284.000000	6.471036
2285.000000	6.968156
2286.000000	6.970106
2287.000000	6.969169
2288.000000	6.964542
2289.000000	6.962041
2290.000000	6.961993
2291.000000	6.965975
2292.000000	6.961976
2293.000000	6.958851
2294.000000	6.955599
2295.000000	6.954943
2296.000000	6.952300
2297.000000	7.445192
2298.000000	6.948212
2299.000000	6.944814
2300.000000	6.935761
2301.000000	7.429824
2302.000000	7.425288
2303.000000	7.415204
2304.000000	7.409664
2305.000000	6.904908
2306.000000	7.400858
2307.000000	7.395064
2308.000000	7.384534
2309.000000	7.382758
2310.000000	7.378050
2311.000000	7.869644
2312.000000	7.860970
2313.000000	7.856022
2314.000000	7.853169
2315.000000	7.849259
2316.000000	7.848394
2317.000000	7.848330
2318.000000	7.349419
2319.000000	7.350383
2320.000000	7.849156
2321.000000	7.849467
2322.000000	7.850907
2323.000000	7.855808
2324.000000	7.857202
2325.000000	7.860218
2326.000000	7.867213
2327.000000	8.370739
2328.000000	8.372077
2329.000000	7.871773
2330.000000	7.875197
2331.000000	7.879519
2332.000000	7.884342
2333.000000	7.883094
2334.000000	7.876696
2335.000000	8.374057
2336.000000	8.375434
2337.000000	8.373264
2338.000000	8.376117
2339.000000	8.378070
2340.000000	8.375885
2341.000000	8.375225
2342.000000	8.869875
2343.000000	8.369207
2344.000000	8.874832
2345.000000	8.380038
2346.000000	8.369968
2347.000000	8.354880
2348.000000	8.339196
2349.000000	8.328113
2350.000000	8.833125
2351.000000	8.864779
2352.000000	8.390942
2353.000000	8.386497
2354.000000	8.371792
2355.000000	8.365620
2356.000000	8.357861
2357.000000	8.348628
2358.000000	8.346189
2359.000000	8.841804
2360.000000	8.841282
2361.000000	8.843894
2362.000000	8.843411
2363.000000	8.843400
2364.000000	8.840886
2365.000000	8.838861
2366.000000	8.841259
2367.000000	8.839066
2368.000000	8.838127
2369.000000	8.835677
2370.000000	8.831550
2371.000000	8.831130
2372.000000	8.831125
2373.000000	8.829472
2374.000000	8.825329
2375.000000	8.324973
2376.000000	8.822860
2377.000000	9.320893
2378.000000	9.316331
2379.000000	9.315063
2380.000000	8.823980
2381.000000	8.827319
2382.000000	8.824941
2383.000000	8.823621
2384.000000	8.824079
2385.000000	8.825981
2386.000000	8.829436
2387.000000	8.834261
2388.000000	8.834654
2389.000000	8.837207
2390.000000	9.332770
2391.000000	9.336657
2392.000000	9.343844
2393.000000	9.345111
2394.000000	9.349258
2395.000000	9.352906
2396.000000	9.859500
2397.000000	9.368546
2398.000000	8.876325
2399.000000	9.375372
2400.000000	9.382073
2401.000000	9.392087
2402.000000	9.396262
2403.000000	9.397971
2404.000000	9.408483
2405.000000	9.415823
2406.000000	9.424091
2407.000000	9.432762
2408.000000	9.435735
2409.000000	9.448637
2410.000000	9.961754
2411.000000	9.465906
2412.000000	9.971176
2413.000000	9.983913
2414.000000	9.493278
2415.000000	9.999183
2416.000000	10.520071
2417.000000	10.538461
2418.000000	10.052423
2419.000000	9.565543
2420.000000	9.576539
2421.000000	9.587646
2422.000000	9.602616
2423.000000	10.112705
2424.000000	9.628334
2425.000000	9.642806
2426.000000	10.154341
2427.000000	10.165903
2428.000000	10.181658
2429.000000	9.697706
2430.000000	9.709096
2431.000000	10.221563
2432.000000	10.236322
2433.000000	9.750697
2434.000000	10.262382
2435.000000	10.280972
2436.000000	10.294031
2437.000000	10.304291
2438.000000	10.319175
2439.000000	10.333592
2440.000000	10.845745
2441.000000	10.855171
2442.000000	10.879441
2443.000000	10.896696
2444.000000	10.400489
2445.000000	10.418619
2446.000000	10.431273
2447.000000	10.951607
2448.000000	10.962137
2449.000000	11.970207
2450.000000	11.982561
2451.000000	11.995120
2452.000000	12.005695
2453.000000	11.515961
2454.000000	11.518467
2455.000000	12.032622
2456.000000	12.541088
2457.000000	11.552297
2458.000000	12.557030
2459.000000	11.568990
2460.000000	11.581075
2461.000000	12.594526
2462.000000	11.605292
2463.000000	12.609377
2464.000000	13.615618
2465.000000	14.119281
2466.000000	13.119458
2467.000000	13.621042
2468.000000	14.126341
2469.000000	14.632121
2470.000000	14.634245
2471.000000	15.142976
2472.000000	14.648822
2473.000000	15.159787
2474.000000	15.157717
2475.000000	15.152951
2476.000000	13.149296
2477.000000	16.670212
2478.000000	17.166672
2479.000000	16.656995
2480.000000	17.643375
2481.000000	17.651598
2482.000000	17.658637
2483.000000	17.655939
2484.000000	17.656535
2485.000000	17.655913
2486.000000	18.153905
2487.000000	18.645050
2488.000000	18.151542
2489.000000	19.150419
2490.000000	20.660489
2491.000000	20.647883
2492.000000	20.125848
2493.000000	22.151826
2494.000000	22.121989
2495.000000	21.611723
2496.000000	23.134251
2497.000000	22.098752
2498.000000	22.093185
2499.000000	22.072113
2500.000000	23.064739
2501.000000	nan
2502.000000	nan
2503.000000	nan
2504.000000	nan
2505.000000	nan
2506.000000	nan
2507.000000	nan
2508.000000	nan
2509.000000	nan
2510.000000	nan
2511.000000	nan
2512.000000	nan
2513.000000	nan
2514.000000	nan
2515.000000	nan
2516.000000	nan
2517.000000	nan
2518.000000	nan
2519.000000	nan
2520.000000	nan
2521.000000	nan
2522.000000	nan
2523.000000	nan
2524.000000	nan
2525.000000	nan
2526.000000	nan
2527.000000	nan
2528.000000	nan
2529.000000	nan
2530.000000	nan
2531.000000	nan
2532.000000	nan
2533.000000	nan
2534.000000	nan
2535.000000	nan
2536.000000	nan
2537.000000	nan
2538.000000	nan
2539.000000	nan
2540.000000	nan
2541.000000	nan
2542.000000	nan
2543.000000	nan
2544.000000	nan
2545.000000	nan
2546.000000	nan
2547.000000	nan
2548.000000	nan
2549.000000	nan
2550.000000	nan
2551.000000	nan
2552.000000	nan
2553.000000	nan
2554.000000	nan
2555.000000	nan
2556.000000	nan
2557.000000	nan
2558.000000	nan
2559.000000	nan
2560.000000	nan
2561.000000	nan
2562.000000	nan
2563.000000	nan
2564.000000	nan
2565.000000	nan
2566.000000	nan
2567.000000	nan
2568.000000	nan
2569.000000	nan
2570.000000	nan
2571.000000	nan
2572.000000	nan
2573.000000	nan
2574.000000	nan
2575.000000	nan
2576.000000	nan
2577.000000	nan
2578.000000	nan
2579.000000	nan
2580.000000	nan
2581.000000	nan
2582.000000	nan
2583.000000	nan
2584.000000	nan
2585.000000	nan
2586.000000	nan
2587.000000	nan
2588.000000	nan
2589.000000	nan
2590.000000	nan
2591.000000	nan
2592.000000	nan
2593.000000	nan
2594.000000	nan
2595.000000	nan
2596.000000	nan
2597.000000	nan
2598.000000	nan
2599.000000	nan
2600.000000	nan
2601.000000	nan
2602.000000	nan
2603.000000	nan
2604.000000	nan
2605.000000	nan
2606.000000	nan
2607.000000	nan
2608.000000	nan
2609.000000	nan
2610.000000	nan
2611.000000	nan
2612.000000	nan
2613.000000	nan
2614.000000	nan
2615.000000	nan
2616.000000	nan
2617.000000	nan
2618.000000	nan
2619.000000	nan
2620.000000	nan
2621.000000	nan
2622.000000	nan
2623.000000	nan
2624.000000	nan
2625.000000	nan
2626.000000	nan
2627.000000	nan
2628.000000	nan
2629.000000	nan
2630.000000	nan
2631.000000	nan
2632.000000	nan
2633.000000	nan
2634.000000	nan
2635.000000	nan
2636.000000	nan
2637.000000	nan
2638.000000	nan
2639.000000	nan
2640.000000	nan
2641.000000	nan
2642.000000	nan
2643.000000	nan
2644.000000	nan
2645.000000	nan
2646.000000	nan
2647.000000	nan
2648.000000	nan
2649.000000	nan
2650.000000	nan
2651.000000	nan
2652.000000	nan
2653.000000	nan
2654.000000	nan
2655.000000	nan
2656.000000	nan
2657.000000	nan
2658.000000	nan
2659.000000	nan
2660.000000	nan
2661.000000	nan
2662.000000	nan
2663.000000	nan
2664.000000	nan
2665.000000	nan
2666.000000	nan
2667.000000	nan
2668.000000	nan
2669.000000	nan
2670.000000	nan
2671.000000	nan
2672.000000	nan
2673.000000	nan
2674.000000	nan
2675.000000	nan
2676.000000	nan
2677.000000	nan
2678.000000	nan
2679.000000	nan
2680.000000	nan
2681.000000	nan
2682.000000	nan
2683.000000	nan
2684.000000	nan
2685.000000	nan
2686.000000	nan
2687.000000	nan
2688.000000	nan
2689.000000	nan
2690.000000	nan
2691.000000	nan
2692.000000	nan
2693.000000	nan
2694.000000	nan
2695.000000	nan
2696.000000	nan
2697.000000	nan
2698.000000	nan
2699.000000	nan
2700.000000	nan
2701.000000	nan
2702.000000	nan
2703.000000	nan
2704.000000	nan
2705.000000	nan
2706.000000	nan
2707.000000	nan
2708.000000	nan
2709.000000	nan
2710.000000	nan
2711.000000	nan
2712.000000	nan
2713.000000	nan
2714.000000	nan
2715.000000	nan
2716.000000	nan
2717.000000	nan
2718.000000	nan
2719.000000	nan
2720.000000	nan
2721.000000	nan
2722.000000	nan
2723.000000	nan
2724.000000	nan
2725.000000	nan
2726.000000	nan
2727.000000	nan
2728.000000	nan
2729.000000	nan
2730.000000	nan
2731.000000	nan
2732.000000	nan
2733.000000	nan
2734.000000	nan
2735.000000	nan
2736.000000	nan
2737.000000	nan
2738.000000	nan
2739.000000	nan
2740.000000	nan
2741.000000	nan
2742.000000	nan
2743.000000	nan
2744.000000	nan
2745.000000	nan
2746.000000	nan
2747.000000	nan
2748.000000	nan
2749.000000	nan
2750.000000	nan
2751.000000	nan
2752.000000	nan
2753.000000	nan
2754.000000	nan
2755.000000	nan
2756.000000	nan
2757.000000	nan
2758.000000	nan
2759.000000	nan
2760.000000	nan
2761.000000	nan
2762.000000	nan
2763.000000	nan
2764.000000	nan
2765.000000	nan
2766.000000	nan
2767.000000	nan
2768.000000	nan
2769.000000	nan
2770.000000	nan
2771.000000	nan
2772.000000	nan
2773.000000	nan
2774.000000	nan
2775.000000	nan
2776.000000	nan
2777.000000	nan
2778.000000	nan
2779.000000	nan
2780.000000	nan
2781.000000	nan
2782.000000	nan
2783.000000	nan
2784.000000	nan
2785.000000	nan
2786.000000	nan
2787.000000	nan
2788.000000	nan
2789.000000	nan
2790.000000	nan
2791.000000	nan
2792.000000	nan
2793.000000	nan
2794.000000	nan
2795.000000	nan
2796.000000	nan
2797.000000	nan
2798.000000	nan
2799.000000	nan
2800.000000	nan
2801.000000	nan
2802.000000	nan
2803.000000	nan
2804.000000	nan
2805.000000	nan
2806.000000	nan
2807.000000	nan
2808.000000	nan
2809.000000	nan
2810.000000	nan
2811.000000	nan
2812.000000	nan
2813.000000	nan
2814.000000	nan
2815.000000	nan
2816.000000	nan
2817.000000	nan
2818.000000	nan
2819.000000	nan
2820.000000	nan
2821.000000	nan
2822.000000	nan
2823.000000	nan
2824.000000	nan
2825.000000	nan
2826.000000	nan
2827.000000	nan
2828.000000	nan
2829.000000	nan
2830.000000	nan
2831.000000	nan
2832.000000	nan
2833.000000	nan
2834.000000	nan
2835.000000	nan
2836.000000	nan
2837.000000	nan
2838.000000	nan
2839.000000	nan
2840.000000	nan
2841.000000	nan
2842.000000	nan
2843.000000	nan
2844.000000	nan
2845.000000	nan
2846.000000	nan
2847.000000	nan
2848.000000	nan
2849.000000	nan
2850.000000	nan
2851.000000	nan
2852.000000	nan
2853.000000	nan
2854.000000	nan
2855.000000	nan
2856.000000	nan
2857.000000	nan
2858.000000	nan
2859.000000	nan
2860.000000	nan
2861.000000	nan
2862.000000	nan
2863.000000	nan
2864.000000	nan
2865.000000	nan
2866.000000	nan
2867.000000	nan
2868.000000	nan
2869.000000	nan
2870.000000	nan
2871.000000	nan
2872.000000	nan
2873.000000	nan
2874.000000	nan
2875.000000	nan
2876.000000	nan
2877.000000	nan
2878.000000	nan
2879.000000	nan
2880.000000	nan
2881.000000	nan
2882.000000	nan
2883.000000	nan
2884.000000	nan
2885.000000	nan
2886.000000	nan
2887.000000	nan
2888.000000	nan
2889.000000	nan
2890.000000	nan
2891.000000	nan
2892.000000	nan
2893.000000	nan
2894.000000	nan
2895.000000	nan
2896.000000	nan
2897.000000	nan
2898.000000	nan
2899.000000	nan
2900.000000	nan
2901.000000	nan
2902.000000	nan
2903.000000	nan
2904.000000	nan
2905.000000	nan
2906.000000	nan
2907.000000	nan
2908.000000	nan
2909.000000	nan
2910.000000	nan
2911.000000	nan
2912.000000	nan
2913.000000	nan
2914.000000	nan
2915.000000	nan
2916.000000	nan
2917.000000	nan
2918.000000	nan
2919.000000	nan
2920.000000	nan
2921.000000	nan
2922.000000	nan
2923.000000	nan
2924.000000	nan
2925.000000	nan
2926.000000	nan
2927.000000	nan
2928.000000	nan
2929.000000	nan
2930.000000	nan
2931.000000	nan
2932.000000	nan
2933.000000	nan
2934.000000	nan
2935.000000	nan
2936.000000	nan
2937.000000	nan
2938.000000	nan
2939.000000	nan
2940.000000	nan
2941.000000	nan
2942.000000	nan
2943.000000	nan
2944.000000	nan
2945.000000	nan
2946.000000	nan
2947.000000	nan
2948.000000	nan
2949.000000	nan
2950.000000	nan
2951.000000	nan
2952.000000	nan
2953.000000	nan
2954.000000	nan
2955.000000	nan
2956.000000	nan
2957.000000	nan
2958.000000	nan
2959.000000	nan
2960.000000	nan
2961.000000	nan
2962.000000	nan
2963.000000	nan
2964.000000	nan
2965.000000	nan
2966.000000	nan
2967.000000	nan
2968.000000	nan
2969.000000	nan
2970.000000	nan
2971.000000	nan
2972.000000	nan
2973.000000	nan
2974.000000	nan
2975.000000	nan
2976.000000	nan
2977.000000	nan
2978.000000	nan
2979.000000	nan
2980.000000	nan
2981.000000	nan
2982.000000	nan
2983.000000	nan
2984.000000	nan
2985.000000	nan
2986.000000	nan
2987.000000	nan
2988.000000	nan
2989.000000	nan
2990.000000	nan
2991.000000	nan
2992.000000	nan
2993.000000	nan
2994.000000	nan
2995.000000	nan
2996.000000	nan
2997.000000	nan
2998.000000	nan
2999.000000	nan
3000.000000	nan
