PE UV       SUBTECH     SPECTRUM    ASCII       PEDS        4.00        
   -1
INBUCR0424-4.Sample.ASC
24/02/09
14:11:40.00
24/02/09
14:11:40.00
Vinicio Soto Monge
Chrysina optima. R. Grande de Orosí. desde Puente R. Dos Amigos hasta la Represa. Prov. Cartago. COSTA RICA. 1400m-1800m. NOV 1995. R. Delgado, de Luz. L_N_18660_562000 #6371. INBIOCRI002361338. Falta élitro izquierdo
250,000000
1
Lambda 1050
1050L1511233
PerkinElmer UV WinLab 6.3.2.0749 / 2.02.05 Lambda 900 UV/VIS/NIR, Aug  7 2015 09:38:08

0
0
3350/servo 860,8/2
0
0
UV/VIS
1
1
1
DoubleDePol,CommonBeamDepol,RBeamAtt,SBeamAtt,60mm sphere, WB InGaAs Detector
0
0
0
0
Program
Program
3350/servo 860,8/2
3350/0,2 860,8/0,2
3350/0,2 860,8/0,2
0
15.00
 
 
 
0
 
860,8
319,2
860,8
Front
100
on
S:100 R:100
0
0
0
0
 
0
 
 
 
0
 
 
0
0
0
0
0
 
 
 
 
0
0


0
0
#HDR
-1
-1
#GR
nm
%R
1.0
0.0
2500,000000
-1,000000
2251
8
19,465100
1,404700
#DATA

250.000000	5.283177
251.000000	5.290176
252.000000	5.283412
253.000000	5.282894
254.000000	5.281582
255.000000	5.286358
256.000000	5.296015
257.000000	5.290402
258.000000	5.291972
259.000000	5.294919
260.000000	5.294202
261.000000	5.298520
262.000000	5.293267
263.000000	5.296009
264.000000	5.296729
265.000000	5.297414
266.000000	5.301365
267.000000	5.298646
268.000000	5.310593
269.000000	5.308529
270.000000	5.306861
271.000000	5.302846
272.000000	5.309163
273.000000	5.312227
274.000000	5.306211
275.000000	5.311517
276.000000	5.309945
277.000000	5.315571
278.000000	5.312901
279.000000	5.308009
280.000000	5.310818
281.000000	5.307981
282.000000	5.308215
283.000000	5.312104
284.000000	6.081371
285.000000	5.312770
286.000000	6.073922
287.000000	5.314653
288.000000	6.074830
289.000000	5.309801
290.000000	6.071286
291.000000	6.069908
292.000000	6.079631
293.000000	6.069608
294.000000	6.077822
295.000000	6.071354
296.000000	6.067627
297.000000	6.072722
298.000000	6.069918
299.000000	6.080459
300.000000	6.081287
301.000000	6.082601
302.000000	6.083016
303.000000	6.080943
304.000000	6.081020
305.000000	6.075940
306.000000	6.080447
307.000000	6.077086
308.000000	6.074165
309.000000	6.076642
310.000000	6.084643
311.000000	6.089387
312.000000	6.069841
313.000000	6.072784
314.000000	6.072734
315.000000	6.079555
316.000000	6.077716
317.000000	5.990502
318.000000	6.051999
319.000000	6.020156
320.000000	5.996423
321.000000	6.006329
322.000000	6.009372
323.000000	6.014966
324.000000	6.027383
325.000000	6.036837
326.000000	6.042372
327.000000	6.040527
328.000000	6.047693
329.000000	6.041847
330.000000	6.064058
331.000000	6.030013
332.000000	6.027674
333.000000	6.039647
334.000000	6.032437
335.000000	6.045112
336.000000	6.037551
337.000000	6.788285
338.000000	6.023092
339.000000	6.046015
340.000000	6.029730
341.000000	6.793348
342.000000	6.795028
343.000000	6.804822
344.000000	6.786774
345.000000	6.797246
346.000000	6.791223
347.000000	6.799623
348.000000	6.797582
349.000000	6.800638
350.000000	6.792896
351.000000	6.806332
352.000000	6.811821
353.000000	6.800667
354.000000	6.806163
355.000000	6.801622
356.000000	6.801894
357.000000	6.803456
358.000000	6.806930
359.000000	6.810482
360.000000	6.813815
361.000000	6.803914
362.000000	6.810688
363.000000	6.810122
364.000000	6.806342
365.000000	6.807747
366.000000	6.807537
367.000000	6.807962
368.000000	6.811363
369.000000	6.819038
370.000000	6.811973
371.000000	6.815903
372.000000	6.826576
373.000000	6.831278
374.000000	6.837669
375.000000	6.839672
376.000000	6.856822
377.000000	7.651386
378.000000	7.651484
379.000000	7.652201
380.000000	7.649723
381.000000	7.646928
382.000000	7.649733
383.000000	7.650391
384.000000	7.649100
385.000000	7.647707
386.000000	7.648234
387.000000	7.650070
388.000000	7.649303
389.000000	7.648510
390.000000	7.648482
391.000000	7.648552
392.000000	7.648934
393.000000	7.646265
394.000000	7.644707
395.000000	7.646745
396.000000	7.645797
397.000000	7.644221
398.000000	7.642948
399.000000	7.644027
400.000000	7.645114
401.000000	7.644021
402.000000	7.641601
403.000000	7.642338
404.000000	7.643345
405.000000	7.643058
406.000000	7.642102
407.000000	7.639992
408.000000	7.639882
409.000000	7.639956
410.000000	7.639830
411.000000	7.639324
412.000000	7.640094
413.000000	7.641561
414.000000	7.639362
415.000000	7.637101
416.000000	7.639577
417.000000	7.639222
418.000000	7.638408
419.000000	7.638227
420.000000	7.637113
421.000000	7.638356
422.000000	8.397760
423.000000	8.397262
424.000000	8.396719
425.000000	8.396111
426.000000	8.396188
427.000000	8.394403
428.000000	8.393845
429.000000	8.396835
430.000000	8.397259
431.000000	8.397083
432.000000	8.397015
433.000000	8.397174
434.000000	8.397414
435.000000	8.396410
436.000000	8.395171
437.000000	8.394896
438.000000	8.397204
439.000000	8.397635
440.000000	8.395216
441.000000	8.395135
442.000000	8.396787
443.000000	8.397442
444.000000	8.397268
445.000000	8.396172
446.000000	8.396142
447.000000	8.395315
448.000000	8.392603
449.000000	8.390943
450.000000	8.391188
451.000000	8.391110
452.000000	8.390725
453.000000	8.389528
454.000000	8.389452
455.000000	8.390355
456.000000	8.390271
457.000000	8.388812
458.000000	8.386804
459.000000	8.387057
460.000000	8.386538
461.000000	8.384508
462.000000	8.384137
463.000000	8.384535
464.000000	8.384154
465.000000	8.383402
466.000000	8.381308
467.000000	8.380564
468.000000	8.381559
469.000000	8.380483
470.000000	8.379592
471.000000	8.380262
472.000000	8.380985
473.000000	8.381640
474.000000	8.381450
475.000000	8.382183
476.000000	8.382388
477.000000	8.382745
478.000000	8.383558
479.000000	8.383760
480.000000	8.387874
481.000000	8.392380
482.000000	8.396441
483.000000	8.397120
484.000000	8.394966
485.000000	8.392675
486.000000	8.390456
487.000000	8.387433
488.000000	8.384404
489.000000	8.381122
490.000000	8.377108
491.000000	9.133390
492.000000	9.130684
493.000000	9.128839
494.000000	9.125371
495.000000	9.121050
496.000000	9.116878
497.000000	9.114165
498.000000	9.111576
499.000000	9.106956
500.000000	9.102230
501.000000	9.098519
502.000000	9.094793
503.000000	9.091369
504.000000	9.088107
505.000000	9.085856
506.000000	9.083547
507.000000	9.081635
508.000000	9.077594
509.000000	9.074482
510.000000	9.073758
511.000000	9.073309
512.000000	9.071205
513.000000	9.069090
514.000000	9.067493
515.000000	9.067447
516.000000	9.065652
517.000000	9.064500
518.000000	9.062917
519.000000	9.061944
520.000000	9.061264
521.000000	9.059443
522.000000	9.057168
523.000000	9.055119
524.000000	9.053013
525.000000	9.049526
526.000000	9.044971
527.000000	9.042481
528.000000	9.040114
529.000000	9.035207
530.000000	9.030508
531.000000	9.026021
532.000000	9.021746
533.000000	9.016320
534.000000	9.010598
535.000000	9.004670
536.000000	8.999815
537.000000	8.994158
538.000000	8.987393
539.000000	8.979387
540.000000	8.973315
541.000000	8.967262
542.000000	8.960034
543.000000	8.952008
544.000000	8.945794
545.000000	8.938882
546.000000	8.931928
547.000000	8.923584
548.000000	8.914998
549.000000	8.908810
550.000000	8.900293
551.000000	8.893194
552.000000	8.883783
553.000000	8.876805
554.000000	8.868563
555.000000	8.860463
556.000000	8.850070
557.000000	8.841720
558.000000	8.834505
559.000000	8.825424
560.000000	8.837746
561.000000	8.834269
562.000000	8.825636
563.000000	9.577136
564.000000	9.567374
565.000000	9.558452
566.000000	9.548301
567.000000	9.542096
568.000000	9.531192
569.000000	9.521960
570.000000	9.512580
571.000000	9.503578
572.000000	9.493193
573.000000	9.482937
574.000000	9.471908
575.000000	9.462982
576.000000	9.452728
577.000000	9.442749
578.000000	9.431569
579.000000	9.420477
580.000000	9.408961
581.000000	9.399148
582.000000	9.386724
583.000000	9.375780
584.000000	9.366421
585.000000	9.355461
586.000000	9.341375
587.000000	9.329914
588.000000	9.319125
589.000000	9.307327
590.000000	9.294180
591.000000	9.281443
592.000000	9.269992
593.000000	9.256388
594.000000	9.246561
595.000000	9.230637
596.000000	9.219024
597.000000	9.206537
598.000000	9.194303
599.000000	9.178854
600.000000	9.167611
601.000000	9.153415
602.000000	9.140459
603.000000	9.126693
604.000000	9.111072
605.000000	9.096140
606.000000	9.084055
607.000000	9.067690
608.000000	9.052514
609.000000	9.035129
610.000000	9.019888
611.000000	9.003056
612.000000	8.984272
613.000000	8.967461
614.000000	8.950448
615.000000	8.930116
616.000000	8.911245
617.000000	8.891443
618.000000	8.870275
619.000000	8.852373
620.000000	8.828950
621.000000	8.804435
622.000000	8.784190
623.000000	9.516773
624.000000	9.490858
625.000000	9.465089
626.000000	9.439526
627.000000	9.415494
628.000000	9.387181
629.000000	9.355456
630.000000	9.325094
631.000000	9.296857
632.000000	9.263714
633.000000	9.230445
634.000000	9.197443
635.000000	9.164149
636.000000	9.126797
637.000000	9.090352
638.000000	9.052695
639.000000	9.011357
640.000000	8.969935
641.000000	8.926853
642.000000	8.881300
643.000000	8.838614
644.000000	8.790353
645.000000	8.744467
646.000000	8.696438
647.000000	8.646642
648.000000	8.596746
649.000000	8.543162
650.000000	8.484195
651.000000	8.429253
652.000000	8.370826
653.000000	8.309959
654.000000	8.249472
655.000000	8.185193
656.000000	8.126037
657.000000	8.060260
658.000000	7.997600
659.000000	7.930965
660.000000	7.864012
661.000000	7.794300
662.000000	7.725649
663.000000	7.655496
664.000000	7.580915
665.000000	7.510223
666.000000	7.438423
667.000000	7.366244
668.000000	7.295528
669.000000	7.225929
670.000000	7.156260
671.000000	7.083693
672.000000	7.009434
673.000000	6.938262
674.000000	6.868559
675.000000	6.799996
676.000000	6.733032
677.000000	6.663177
678.000000	6.596573
679.000000	6.532307
680.000000	6.466498
681.000000	7.132733
682.000000	7.073235
683.000000	7.021986
684.000000	6.964979
685.000000	6.907199
686.000000	6.856885
687.000000	6.809111
688.000000	6.760722
689.000000	6.712840
690.000000	6.663638
691.000000	6.619494
692.000000	6.576844
693.000000	6.542173
694.000000	6.507034
695.000000	6.466532
696.000000	6.429135
697.000000	6.397788
698.000000	6.367390
699.000000	6.338733
700.000000	6.311375
701.000000	6.288077
702.000000	6.256854
703.000000	6.233248
704.000000	6.215315
705.000000	6.196888
706.000000	6.174330
707.000000	6.154945
708.000000	6.138281
709.000000	6.119663
710.000000	6.098047
711.000000	6.075664
712.000000	6.059487
713.000000	6.050621
714.000000	6.043235
715.000000	6.027419
716.000000	6.007784
717.000000	5.998277
718.000000	5.987855
719.000000	5.976292
720.000000	5.965110
721.000000	5.951653
722.000000	5.944296
723.000000	5.930874
724.000000	5.915409
725.000000	5.901690
726.000000	5.893925
727.000000	5.878057
728.000000	6.603953
729.000000	6.595379
730.000000	6.585081
731.000000	6.576761
732.000000	6.564960
733.000000	6.556350
734.000000	6.554526
735.000000	6.548551
736.000000	6.534996
737.000000	6.522232
738.000000	6.513768
739.000000	6.508211
740.000000	6.497691
741.000000	6.490775
742.000000	6.481875
743.000000	6.470408
744.000000	6.462944
745.000000	6.458783
746.000000	6.451992
747.000000	6.446375
748.000000	6.436759
749.000000	6.424500
750.000000	6.417726
751.000000	6.403670
752.000000	6.389120
753.000000	6.387768
754.000000	6.381134
755.000000	6.372399
756.000000	6.366814
757.000000	6.358351
758.000000	6.350904
759.000000	6.351702
760.000000	6.340833
761.000000	7.064281
762.000000	7.063073
763.000000	7.057810
764.000000	7.054327
765.000000	7.057330
766.000000	7.045805
767.000000	7.032917
768.000000	7.024914
769.000000	7.021048
770.000000	7.022894
771.000000	7.012886
772.000000	6.997106
773.000000	6.994272
774.000000	6.983333
775.000000	6.969152
776.000000	6.964458
777.000000	6.959736
778.000000	6.958080
779.000000	6.947505
780.000000	6.931469
781.000000	6.935394
782.000000	6.919283
783.000000	6.906057
784.000000	6.896271
785.000000	6.887631
786.000000	6.875789
787.000000	6.863913
788.000000	6.851257
789.000000	6.837774
790.000000	6.819847
791.000000	6.801699
792.000000	6.781068
793.000000	6.767392
794.000000	6.750115
795.000000	6.727034
796.000000	6.713639
797.000000	7.437167
798.000000	7.411030
799.000000	7.392069
800.000000	7.377679
801.000000	7.357219
802.000000	7.347887
803.000000	7.339757
804.000000	7.314898
805.000000	7.297086
806.000000	7.283990
807.000000	7.275408
808.000000	7.241244
809.000000	7.220768
810.000000	7.217664
811.000000	7.193478
812.000000	7.190378
813.000000	7.180379
814.000000	7.168614
815.000000	7.174738
816.000000	7.172587
817.000000	7.161933
818.000000	7.144856
819.000000	7.139192
820.000000	7.150440
821.000000	7.155612
822.000000	7.146224
823.000000	7.129902
824.000000	7.135753
825.000000	7.118853
826.000000	7.123558
827.000000	7.121466
828.000000	7.119322
829.000000	7.139717
830.000000	7.127548
831.000000	7.131505
832.000000	7.130562
833.000000	7.129116
834.000000	7.129219
835.000000	7.127191
836.000000	7.130395
837.000000	7.105630
838.000000	7.114453
839.000000	7.122014
840.000000	7.093240
841.000000	7.127553
842.000000	7.115754
843.000000	7.113017
844.000000	7.111183
845.000000	7.111254
846.000000	7.119292
847.000000	7.113451
848.000000	7.072894
849.000000	7.090638
850.000000	7.094438
851.000000	7.096486
852.000000	7.092010
853.000000	7.098097
854.000000	7.062925
855.000000	7.134517
856.000000	7.184978
857.000000	7.851088
858.000000	15.624247
859.000000	8.011783
860.000000	7.981519
861.000000	7.931018
862.000000	7.890873
863.000000	7.370026
864.000000	7.340847
865.000000	7.306385
866.000000	7.286500
867.000000	6.780299
868.000000	6.770010
869.000000	6.747488
870.000000	6.728835
871.000000	6.721215
872.000000	6.706118
873.000000	6.206868
874.000000	6.680623
875.000000	6.183067
876.000000	6.166523
877.000000	6.162854
878.000000	6.152789
879.000000	6.155180
880.000000	5.653068
881.000000	5.650720
882.000000	5.639967
883.000000	5.637734
884.000000	5.151104
885.000000	5.625149
886.000000	5.142286
887.000000	5.609830
888.000000	5.603126
889.000000	5.117016
890.000000	5.122718
891.000000	5.119547
892.000000	5.103830
893.000000	5.099738
894.000000	5.091378
895.000000	5.093436
896.000000	5.087918
897.000000	5.078004
898.000000	4.596934
899.000000	4.596098
900.000000	4.580642
901.000000	4.572103
902.000000	4.567730
903.000000	4.559543
904.000000	4.550200
905.000000	4.541687
906.000000	4.531775
907.000000	4.517669
908.000000	4.506355
909.000000	4.495242
910.000000	4.031651
911.000000	4.484918
912.000000	4.474882
913.000000	3.996239
914.000000	3.985990
915.000000	3.977956
916.000000	3.973311
917.000000	3.957115
918.000000	3.935228
919.000000	3.942461
920.000000	3.935402
921.000000	3.925508
922.000000	3.913688
923.000000	3.899737
924.000000	3.889268
925.000000	3.893646
926.000000	3.434883
927.000000	3.427012
928.000000	3.424549
929.000000	3.886563
930.000000	3.419737
931.000000	3.407491
932.000000	3.407946
933.000000	3.391830
934.000000	3.373726
935.000000	3.356129
936.000000	3.363452
937.000000	3.357700
938.000000	3.358308
939.000000	3.346190
940.000000	3.346174
941.000000	3.341637
942.000000	3.345066
943.000000	3.338582
944.000000	3.338088
945.000000	3.335761
946.000000	3.331789
947.000000	3.332248
948.000000	3.323602
949.000000	3.324311
950.000000	3.325457
951.000000	3.315685
952.000000	3.313343
953.000000	3.311123
954.000000	3.310235
955.000000	3.316516
956.000000	3.309091
957.000000	3.306011
958.000000	3.311525
959.000000	2.868719
960.000000	2.865424
961.000000	2.870462
962.000000	2.873182
963.000000	2.865291
964.000000	2.857543
965.000000	2.852640
966.000000	2.863738
967.000000	2.863582
968.000000	2.863718
969.000000	2.861516
970.000000	2.860709
971.000000	2.865479
972.000000	2.872742
973.000000	2.868011
974.000000	2.861075
975.000000	2.869616
976.000000	2.877769
977.000000	2.868064
978.000000	2.867084
979.000000	2.880734
980.000000	2.880808
981.000000	2.877551
982.000000	2.878091
983.000000	2.874868
984.000000	2.885759
985.000000	2.893265
986.000000	2.894374
987.000000	2.894146
988.000000	2.903740
989.000000	2.905017
990.000000	2.908284
991.000000	2.908795
992.000000	2.911251
993.000000	2.912404
994.000000	2.917621
995.000000	2.918690
996.000000	2.917553
997.000000	2.920274
998.000000	2.930071
999.000000	2.930279
1000.000000	2.923183
1001.000000	2.929718
1002.000000	2.935392
1003.000000	2.934467
1004.000000	2.934576
1005.000000	2.935715
1006.000000	2.943775
1007.000000	2.947272
1008.000000	2.959140
1009.000000	2.966602
1010.000000	2.972383
1011.000000	2.973242
1012.000000	2.977872
1013.000000	2.983593
1014.000000	2.987936
1015.000000	2.998670
1016.000000	2.994359
1017.000000	2.990659
1018.000000	2.996048
1019.000000	3.001680
1020.000000	3.004675
1021.000000	3.005329
1022.000000	3.002674
1023.000000	3.007764
1024.000000	3.018657
1025.000000	3.023217
1026.000000	3.024525
1027.000000	3.025078
1028.000000	3.027608
1029.000000	3.028585
1030.000000	3.032261
1031.000000	3.037093
1032.000000	3.040128
1033.000000	3.050339
1034.000000	3.058142
1035.000000	3.062720
1036.000000	3.059295
1037.000000	3.060114
1038.000000	3.067468
1039.000000	3.064477
1040.000000	3.068855
1041.000000	3.075446
1042.000000	2.679352
1043.000000	3.079100
1044.000000	3.083131
1045.000000	3.087471
1046.000000	3.087453
1047.000000	3.081959
1048.000000	3.083188
1049.000000	3.093051
1050.000000	3.102574
1051.000000	3.105892
1052.000000	3.107664
1053.000000	2.713295
1054.000000	2.719663
1055.000000	3.119318
1056.000000	3.113751
1057.000000	3.118802
1058.000000	2.732767
1059.000000	2.745258
1060.000000	2.743454
1061.000000	2.747312
1062.000000	2.755617
1063.000000	2.758465
1064.000000	2.761422
1065.000000	2.759753
1066.000000	2.765373
1067.000000	2.772311
1068.000000	2.776820
1069.000000	2.781031
1070.000000	2.785533
1071.000000	2.787684
1072.000000	2.784467
1073.000000	2.795661
1074.000000	2.804372
1075.000000	2.809766
1076.000000	2.801206
1077.000000	2.801095
1078.000000	2.815073
1079.000000	2.813203
1080.000000	2.811899
1081.000000	2.818591
1082.000000	2.820216
1083.000000	2.826134
1084.000000	2.828977
1085.000000	2.833286
1086.000000	2.835643
1087.000000	2.842787
1088.000000	2.842637
1089.000000	2.848877
1090.000000	2.853242
1091.000000	2.859112
1092.000000	2.864136
1093.000000	2.870195
1094.000000	2.872330
1095.000000	2.869353
1096.000000	2.878254
1097.000000	2.888083
1098.000000	2.888266
1099.000000	2.894270
1100.000000	2.899237
1101.000000	2.904560
1102.000000	2.916643
1103.000000	2.930752
1104.000000	2.924815
1105.000000	2.930924
1106.000000	2.941809
1107.000000	2.932911
1108.000000	2.938101
1109.000000	2.936282
1110.000000	2.941884
1111.000000	2.944548
1112.000000	2.949591
1113.000000	2.954148
1114.000000	2.958881
1115.000000	2.977591
1116.000000	2.968200
1117.000000	2.974814
1118.000000	2.975693
1119.000000	2.989823
1120.000000	2.988415
1121.000000	2.986170
1122.000000	2.997571
1123.000000	3.002466
1124.000000	3.014265
1125.000000	3.019282
1126.000000	3.014809
1127.000000	3.035331
1128.000000	3.035469
1129.000000	3.046833
1130.000000	3.061284
1131.000000	3.080379
1132.000000	3.098301
1133.000000	3.105195
1134.000000	3.090706
1135.000000	3.083970
1136.000000	3.106397
1137.000000	3.124187
1138.000000	3.131291
1139.000000	3.142955
1140.000000	3.152649
1141.000000	3.151165
1142.000000	3.170922
1143.000000	3.176836
1144.000000	3.176441
1145.000000	3.178916
1146.000000	3.183297
1147.000000	3.200598
1148.000000	3.206808
1149.000000	3.213929
1150.000000	3.213538
1151.000000	3.216519
1152.000000	3.219916
1153.000000	3.229342
1154.000000	3.241518
1155.000000	3.262576
1156.000000	3.270952
1157.000000	3.276295
1158.000000	3.288779
1159.000000	3.311042
1160.000000	3.310340
1161.000000	3.331510
1162.000000	3.346804
1163.000000	3.361455
1164.000000	3.373797
1165.000000	3.396546
1166.000000	3.400020
1167.000000	3.414613
1168.000000	3.416519
1169.000000	3.434398
1170.000000	3.439497
1171.000000	3.451408
1172.000000	3.459065
1173.000000	3.467663
1174.000000	3.459317
1175.000000	3.481534
1176.000000	3.486104
1177.000000	3.499264
1178.000000	3.504036
1179.000000	3.517657
1180.000000	3.525829
1181.000000	3.525439
1182.000000	3.520578
1183.000000	3.530399
1184.000000	3.537926
1185.000000	3.530616
1186.000000	3.528666
1187.000000	3.540629
1188.000000	3.546163
1189.000000	3.546849
1190.000000	3.543265
1191.000000	3.542299
1192.000000	3.536791
1193.000000	3.522423
1194.000000	3.531298
1195.000000	3.528685
1196.000000	3.527144
1197.000000	3.527936
1198.000000	3.532365
1199.000000	3.519501
1200.000000	3.511804
1201.000000	3.520525
1202.000000	3.510200
1203.000000	3.503454
1204.000000	3.510121
1205.000000	3.512909
1206.000000	3.509082
1207.000000	3.499991
1208.000000	3.501112
1209.000000	3.504797
1210.000000	3.506546
1211.000000	3.500169
1212.000000	3.499053
1213.000000	3.508755
1214.000000	3.500470
1215.000000	3.499449
1216.000000	3.498925
1217.000000	3.504947
1218.000000	3.504274
1219.000000	3.504134
1220.000000	3.501764
1221.000000	3.509904
1222.000000	3.504016
1223.000000	3.506625
1224.000000	3.510850
1225.000000	3.509849
1226.000000	3.508637
1227.000000	3.517207
1228.000000	3.513136
1229.000000	3.516005
1230.000000	3.526555
1231.000000	3.528168
1232.000000	3.528921
1233.000000	3.533526
1234.000000	3.532263
1235.000000	3.532252
1236.000000	3.538078
1237.000000	3.546196
1238.000000	3.542693
1239.000000	3.544729
1240.000000	3.546204
1241.000000	3.532270
1242.000000	3.526607
1243.000000	3.528309
1244.000000	3.530248
1245.000000	3.529530
1246.000000	3.522150
1247.000000	3.520661
1248.000000	3.515605
1249.000000	3.519580
1250.000000	3.519984
1251.000000	3.519137
1252.000000	3.517481
1253.000000	3.518384
1254.000000	3.518306
1255.000000	3.516714
1256.000000	3.515656
1257.000000	3.513833
1258.000000	3.508261
1259.000000	3.508935
1260.000000	3.507491
1261.000000	3.501498
1262.000000	3.503323
1263.000000	3.507235
1264.000000	3.508688
1265.000000	3.513406
1266.000000	3.512305
1267.000000	3.508571
1268.000000	3.508492
1269.000000	3.506286
1270.000000	3.512383
1271.000000	3.515993
1272.000000	3.517526
1273.000000	3.518009
1274.000000	3.517886
1275.000000	3.518416
1276.000000	3.522246
1277.000000	3.523629
1278.000000	3.520405
1279.000000	3.521464
1280.000000	3.523533
1281.000000	3.522678
1282.000000	3.521203
1283.000000	3.520729
1284.000000	3.520439
1285.000000	3.520008
1286.000000	3.518358
1287.000000	3.519580
1288.000000	3.516031
1289.000000	3.514070
1290.000000	3.515821
1291.000000	3.511637
1292.000000	3.503847
1293.000000	3.500235
1294.000000	3.500217
1295.000000	3.497085
1296.000000	3.496702
1297.000000	3.500882
1298.000000	3.503102
1299.000000	3.501025
1300.000000	3.497007
1301.000000	3.498880
1302.000000	3.501567
1303.000000	3.504066
1304.000000	3.502126
1305.000000	3.498651
1306.000000	3.502877
1307.000000	3.503118
1308.000000	3.502587
1309.000000	3.509161
1310.000000	3.510261
1311.000000	3.511632
1312.000000	3.519029
1313.000000	3.520145
1314.000000	3.525868
1315.000000	3.533039
1316.000000	3.542616
1317.000000	3.551309
1318.000000	3.556423
1319.000000	3.558489
1320.000000	3.554699
1321.000000	3.554280
1322.000000	3.564156
1323.000000	3.571615
1324.000000	3.580438
1325.000000	3.588148
1326.000000	3.594394
1327.000000	3.606646
1328.000000	3.608981
1329.000000	3.615518
1330.000000	3.625890
1331.000000	3.628265
1332.000000	3.640988
1333.000000	3.653751
1334.000000	3.666827
1335.000000	3.682658
1336.000000	3.695268
1337.000000	3.702510
1338.000000	3.714029
1339.000000	3.723802
1340.000000	3.731942
1341.000000	3.745926
1342.000000	3.758833
1343.000000	3.774548
1344.000000	3.793461
1345.000000	3.384632
1346.000000	3.390218
1347.000000	3.398954
1348.000000	3.418098
1349.000000	3.442211
1350.000000	3.463743
1351.000000	3.476498
1352.000000	3.493918
1353.000000	3.505318
1354.000000	3.498616
1355.000000	3.503095
1356.000000	3.520331
1357.000000	3.540821
1358.000000	3.562019
1359.000000	3.583130
1360.000000	3.567840
1361.000000	3.545725
1362.000000	3.553640
1363.000000	3.575740
1364.000000	3.579727
1365.000000	3.594499
1366.000000	3.629640
1367.000000	3.627491
1368.000000	3.642388
1369.000000	3.678923
1370.000000	3.703590
1371.000000	3.728808
1372.000000	3.777797
1373.000000	3.398856
1374.000000	3.451596
1375.000000	3.501865
1376.000000	3.557193
1377.000000	3.614686
1378.000000	3.689153
1379.000000	3.738491
1380.000000	3.769086
1381.000000	3.757788
1382.000000	3.752135
1383.000000	3.758799
1384.000000	3.793218
1385.000000	3.811043
1386.000000	3.822969
1387.000000	3.806174
1388.000000	3.805311
1389.000000	3.830987
1390.000000	3.853398
1391.000000	3.841691
1392.000000	3.849632
1393.000000	3.861184
1394.000000	3.857692
1395.000000	3.820515
1396.000000	3.830331
1397.000000	3.881711
1398.000000	3.915695
1399.000000	3.896931
1400.000000	3.868103
1401.000000	3.886615
1402.000000	3.956435
1403.000000	3.987139
1404.000000	3.987213
1405.000000	4.003569
1406.000000	4.033233
1407.000000	4.054922
1408.000000	4.080319
1409.000000	4.096175
1410.000000	4.126940
1411.000000	4.168977
1412.000000	4.205057
1413.000000	4.212022
1414.000000	4.214662
1415.000000	4.250321
1416.000000	4.300570
1417.000000	4.321341
1418.000000	4.326705
1419.000000	4.348099
1420.000000	4.371684
1421.000000	4.412313
1422.000000	4.426101
1423.000000	4.427018
1424.000000	4.452250
1425.000000	4.485421
1426.000000	4.503142
1427.000000	4.516073
1428.000000	4.525194
1429.000000	4.557238
1430.000000	4.567167
1431.000000	4.575024
1432.000000	4.581305
1433.000000	4.594028
1434.000000	4.609661
1435.000000	4.629690
1436.000000	4.637381
1437.000000	4.643966
1438.000000	4.169555
1439.000000	4.192910
1440.000000	4.194253
1441.000000	4.200153
1442.000000	4.212270
1443.000000	4.224663
1444.000000	4.234946
1445.000000	4.226623
1446.000000	4.233773
1447.000000	4.259589
1448.000000	4.276700
1449.000000	4.274166
1450.000000	4.275957
1451.000000	4.277378
1452.000000	4.297042
1453.000000	4.308420
1454.000000	4.313898
1455.000000	4.324933
1456.000000	4.340326
1457.000000	4.352042
1458.000000	4.361589
1459.000000	4.370455
1460.000000	4.374586
1461.000000	4.386613
1462.000000	4.395353
1463.000000	4.404221
1464.000000	4.413522
1465.000000	4.419851
1466.000000	4.435084
1467.000000	4.444821
1468.000000	4.454361
1469.000000	4.461874
1470.000000	4.469838
1471.000000	4.474903
1472.000000	4.481672
1473.000000	4.495201
1474.000000	4.503581
1475.000000	4.519392
1476.000000	4.518611
1477.000000	4.523149
1478.000000	4.532276
1479.000000	4.536242
1480.000000	4.535641
1481.000000	4.538170
1482.000000	4.544546
1483.000000	4.550455
1484.000000	4.559590
1485.000000	4.561334
1486.000000	4.551713
1487.000000	4.554150
1488.000000	4.563300
1489.000000	4.562923
1490.000000	4.558993
1491.000000	4.557145
1492.000000	4.559822
1493.000000	4.567025
1494.000000	4.563747
1495.000000	4.564506
1496.000000	4.559544
1497.000000	4.555674
1498.000000	4.550560
1499.000000	4.544718
1500.000000	4.543566
1501.000000	4.532721
1502.000000	4.526162
1503.000000	4.524795
1504.000000	4.513013
1505.000000	4.501928
1506.000000	4.497450
1507.000000	4.485417
1508.000000	4.472051
1509.000000	4.461009
1510.000000	4.456006
1511.000000	4.450053
1512.000000	4.439218
1513.000000	4.432108
1514.000000	4.420379
1515.000000	4.413741
1516.000000	4.412014
1517.000000	4.398316
1518.000000	4.387917
1519.000000	4.382712
1520.000000	4.375104
1521.000000	4.367728
1522.000000	4.362465
1523.000000	4.350770
1524.000000	4.338061
1525.000000	4.332247
1526.000000	4.327158
1527.000000	4.322734
1528.000000	4.322998
1529.000000	4.316823
1530.000000	4.303805
1531.000000	4.294740
1532.000000	4.291292
1533.000000	4.283335
1534.000000	4.277217
1535.000000	4.272422
1536.000000	4.267593
1537.000000	4.268835
1538.000000	4.266375
1539.000000	4.262482
1540.000000	4.264867
1541.000000	4.741424
1542.000000	4.731495
1543.000000	4.725443
1544.000000	4.721989
1545.000000	4.716853
1546.000000	4.704804
1547.000000	4.699930
1548.000000	4.696641
1549.000000	4.682374
1550.000000	4.674075
1551.000000	4.671748
1552.000000	4.662474
1553.000000	4.656755
1554.000000	4.651809
1555.000000	4.643784
1556.000000	4.641207
1557.000000	4.640188
1558.000000	4.638739
1559.000000	4.635358
1560.000000	4.635497
1561.000000	4.638092
1562.000000	4.642513
1563.000000	4.647280
1564.000000	4.647319
1565.000000	4.646687
1566.000000	4.649038
1567.000000	4.650205
1568.000000	4.653505
1569.000000	4.655482
1570.000000	4.657549
1571.000000	4.656191
1572.000000	4.654284
1573.000000	4.655920
1574.000000	4.658494
1575.000000	4.657172
1576.000000	4.651975
1577.000000	4.652961
1578.000000	4.654910
1579.000000	4.651661
1580.000000	4.646893
1581.000000	4.640164
1582.000000	4.637278
1583.000000	4.634580
1584.000000	4.633780
1585.000000	4.629439
1586.000000	4.622662
1587.000000	4.617567
1588.000000	4.611855
1589.000000	4.604662
1590.000000	4.599516
1591.000000	4.595519
1592.000000	4.590402
1593.000000	4.585939
1594.000000	4.576235
1595.000000	4.569286
1596.000000	4.560772
1597.000000	4.552929
1598.000000	4.547901
1599.000000	4.545561
1600.000000	4.535682
1601.000000	4.525451
1602.000000	4.520638
1603.000000	4.516205
1604.000000	4.511097
1605.000000	4.502479
1606.000000	4.491357
1607.000000	4.491580
1608.000000	4.487154
1609.000000	4.475166
1610.000000	4.470828
1611.000000	4.465426
1612.000000	4.459384
1613.000000	4.458071
1614.000000	4.452053
1615.000000	4.449118
1616.000000	4.441019
1617.000000	4.436578
1618.000000	4.435785
1619.000000	4.435185
1620.000000	4.428152
1621.000000	4.427267
1622.000000	4.421238
1623.000000	4.417966
1624.000000	4.416263
1625.000000	4.893340
1626.000000	4.887962
1627.000000	4.406077
1628.000000	4.402630
1629.000000	4.403877
1630.000000	4.879036
1631.000000	4.874145
1632.000000	4.873701
1633.000000	4.866631
1634.000000	4.866039
1635.000000	4.868351
1636.000000	4.870938
1637.000000	4.866041
1638.000000	4.865719
1639.000000	4.859920
1640.000000	4.857944
1641.000000	4.860305
1642.000000	4.860032
1643.000000	4.865230
1644.000000	4.860972
1645.000000	4.867764
1646.000000	4.868710
1647.000000	4.866919
1648.000000	4.866029
1649.000000	4.870318
1650.000000	4.873365
1651.000000	4.880364
1652.000000	4.875987
1653.000000	4.886257
1654.000000	4.891444
1655.000000	4.899978
1656.000000	4.911297
1657.000000	4.917741
1658.000000	4.928152
1659.000000	4.938558
1660.000000	4.954861
1661.000000	4.970818
1662.000000	4.985634
1663.000000	5.001233
1664.000000	5.024726
1665.000000	5.037885
1666.000000	5.057515
1667.000000	5.068917
1668.000000	5.116998
1669.000000	5.134488
1670.000000	5.163650
1671.000000	5.176264
1672.000000	5.198320
1673.000000	5.216887
1674.000000	5.234022
1675.000000	5.246119
1676.000000	5.258943
1677.000000	5.277516
1678.000000	5.301304
1679.000000	5.321023
1680.000000	5.345861
1681.000000	5.377747
1682.000000	5.393699
1683.000000	5.419053
1684.000000	5.433532
1685.000000	5.450085
1686.000000	5.458005
1687.000000	5.456828
1688.000000	5.452833
1689.000000	4.959554
1690.000000	5.436557
1691.000000	5.426127
1692.000000	5.406936
1693.000000	5.395996
1694.000000	5.376380
1695.000000	4.890908
1696.000000	4.890389
1697.000000	4.878887
1698.000000	4.882074
1699.000000	4.880482
1700.000000	4.877042
1701.000000	4.887827
1702.000000	4.890590
1703.000000	4.885054
1704.000000	4.894748
1705.000000	4.911093
1706.000000	4.914559
1707.000000	4.928743
1708.000000	4.937011
1709.000000	4.957420
1710.000000	4.971441
1711.000000	4.994834
1712.000000	5.007317
1713.000000	5.030852
1714.000000	5.057112
1715.000000	5.572031
1716.000000	5.106600
1717.000000	5.143869
1718.000000	5.162075
1719.000000	5.184515
1720.000000	5.207021
1721.000000	5.217266
1722.000000	5.225526
1723.000000	5.233007
1724.000000	5.234173
1725.000000	5.223989
1726.000000	5.217917
1727.000000	5.212735
1728.000000	5.206274
1729.000000	5.197105
1730.000000	5.189847
1731.000000	5.179391
1732.000000	5.172555
1733.000000	5.168109
1734.000000	5.156157
1735.000000	5.142312
1736.000000	5.134510
1737.000000	5.126750
1738.000000	5.122090
1739.000000	5.110893
1740.000000	5.099646
1741.000000	5.088572
1742.000000	5.072585
1743.000000	5.065651
1744.000000	5.055497
1745.000000	5.047706
1746.000000	5.040911
1747.000000	5.036778
1748.000000	5.032638
1749.000000	5.032636
1750.000000	5.028801
1751.000000	5.032882
1752.000000	5.030335
1753.000000	5.023284
1754.000000	5.023468
1755.000000	5.031066
1756.000000	5.028095
1757.000000	5.032780
1758.000000	5.031022
1759.000000	5.028419
1760.000000	5.029431
1761.000000	5.028496
1762.000000	5.025918
1763.000000	5.025026
1764.000000	5.024377
1765.000000	5.022222
1766.000000	5.018576
1767.000000	5.011977
1768.000000	5.013303
1769.000000	5.007037
1770.000000	5.003999
1771.000000	4.993794
1772.000000	4.984950
1773.000000	4.981513
1774.000000	4.976963
1775.000000	4.974185
1776.000000	4.966245
1777.000000	4.967650
1778.000000	4.961235
1779.000000	4.947770
1780.000000	4.948225
1781.000000	4.948669
1782.000000	4.946628
1783.000000	4.943306
1784.000000	4.938933
1785.000000	4.933661
1786.000000	4.936354
1787.000000	4.940845
1788.000000	4.944780
1789.000000	4.944427
1790.000000	4.944498
1791.000000	4.947022
1792.000000	4.944906
1793.000000	4.941773
1794.000000	4.940485
1795.000000	4.941298
1796.000000	4.937818
1797.000000	4.944513
1798.000000	4.948528
1799.000000	4.948777
1800.000000	4.937290
1801.000000	4.928820
1802.000000	4.933143
1803.000000	4.940324
1804.000000	4.941251
1805.000000	4.932815
1806.000000	4.920982
1807.000000	4.922596
1808.000000	4.941855
1809.000000	4.951602
1810.000000	4.940304
1811.000000	4.921884
1812.000000	4.914789
1813.000000	4.922364
1814.000000	4.926179
1815.000000	4.916513
1816.000000	4.925467
1817.000000	4.961609
1818.000000	4.978604
1819.000000	4.957303
1820.000000	4.910787
1821.000000	4.874636
1822.000000	4.901483
1823.000000	4.953779
1824.000000	4.975144
1825.000000	4.975224
1826.000000	4.963855
1827.000000	4.950429
1828.000000	4.944306
1829.000000	4.933614
1830.000000	4.917115
1831.000000	4.924589
1832.000000	4.949849
1833.000000	4.984429
1834.000000	4.994571
1835.000000	4.979519
1836.000000	5.438910
1837.000000	5.423566
1838.000000	5.421611
1839.000000	5.409556
1840.000000	5.375470
1841.000000	5.332423
1842.000000	5.334036
1843.000000	5.386124
1844.000000	5.458531
1845.000000	5.497412
1846.000000	5.460248
1847.000000	5.374057
1848.000000	5.316367
1849.000000	5.332527
1850.000000	5.392138
1851.000000	5.430224
1852.000000	5.430767
1853.000000	5.419797
1854.000000	5.406552
1855.000000	5.411985
1856.000000	5.441497
1857.000000	5.455756
1858.000000	5.438600
1859.000000	5.423930
1860.000000	5.416689
1861.000000	5.421628
1862.000000	5.455903
1863.000000	5.504651
1864.000000	5.548386
1865.000000	5.588894
1866.000000	5.621102
1867.000000	5.647607
1868.000000	5.664940
1869.000000	5.645393
1870.000000	5.623520
1871.000000	5.614707
1872.000000	5.602334
1873.000000	5.602315
1874.000000	5.624047
1875.000000	5.643416
1876.000000	5.674654
1877.000000	5.711674
1878.000000	5.751109
1879.000000	5.807047
1880.000000	5.378347
1881.000000	5.427763
1882.000000	5.463311
1883.000000	5.493685
1884.000000	5.532613
1885.000000	5.574831
1886.000000	5.637709
1887.000000	5.711516
1888.000000	5.787092
1889.000000	5.353380
1890.000000	5.401740
1891.000000	5.443597
1892.000000	5.484328
1893.000000	5.555402
1894.000000	5.635177
1895.000000	5.731795
1896.000000	5.817961
1897.000000	5.889864
1898.000000	5.931807
1899.000000	5.966094
1900.000000	6.020073
1901.000000	5.592214
1902.000000	5.653971
1903.000000	5.710003
1904.000000	5.736644
1905.000000	5.765926
1906.000000	5.799851
1907.000000	5.839659
1908.000000	5.898145
1909.000000	5.959464
1910.000000	6.001741
1911.000000	6.028378
1912.000000	6.039109
1913.000000	6.048806
1914.000000	6.068269
1915.000000	6.100557
1916.000000	6.137767
1917.000000	6.180028
1918.000000	6.201382
1919.000000	6.204628
1920.000000	6.213224
1921.000000	6.210268
1922.000000	6.218479
1923.000000	6.236087
1924.000000	6.262328
1925.000000	6.278226
1926.000000	6.273647
1927.000000	6.271987
1928.000000	6.273246
1929.000000	6.274633
1930.000000	6.278347
1931.000000	6.279252
1932.000000	6.292603
1933.000000	6.290562
1934.000000	6.286766
1935.000000	6.288737
1936.000000	6.287512
1937.000000	6.282280
1938.000000	6.274719
1939.000000	6.260109
1940.000000	6.256453
1941.000000	6.245868
1942.000000	6.248161
1943.000000	6.248133
1944.000000	6.233043
1945.000000	6.222905
1946.000000	6.212359
1947.000000	6.207655
1948.000000	6.195504
1949.000000	6.187977
1950.000000	6.183083
1951.000000	6.169887
1952.000000	6.159429
1953.000000	6.148508
1954.000000	6.130534
1955.000000	6.122321
1956.000000	6.111816
1957.000000	6.104124
1958.000000	6.095910
1959.000000	6.088222
1960.000000	6.076561
1961.000000	6.065100
1962.000000	6.048668
1963.000000	6.033847
1964.000000	6.030901
1965.000000	6.026794
1966.000000	6.017191
1967.000000	6.003727
1968.000000	5.996640
1969.000000	5.985775
1970.000000	5.972584
1971.000000	5.974281
1972.000000	5.960370
1973.000000	5.949380
1974.000000	5.945514
1975.000000	5.932438
1976.000000	5.924155
1977.000000	5.911106
1978.000000	5.903265
1979.000000	5.890307
1980.000000	5.881412
1981.000000	5.864581
1982.000000	5.857720
1983.000000	6.352088
1984.000000	6.336258
1985.000000	6.334565
1986.000000	6.317699
1987.000000	6.307750
1988.000000	6.298652
1989.000000	6.287996
1990.000000	6.280455
1991.000000	6.270463
1992.000000	6.261660
1993.000000	6.263338
1994.000000	6.248048
1995.000000	6.241387
1996.000000	6.239060
1997.000000	6.234573
1998.000000	6.234630
1999.000000	6.224085
2000.000000	6.224143
2001.000000	6.214733
2002.000000	6.213674
2003.000000	6.211553
2004.000000	6.206356
2005.000000	6.207550
2006.000000	6.200325
2007.000000	6.211210
2008.000000	6.218850
2009.000000	6.214001
2010.000000	6.215626
2011.000000	6.223744
2012.000000	6.224898
2013.000000	6.233279
2014.000000	6.238821
2015.000000	6.244464
2016.000000	6.250866
2017.000000	6.265543
2018.000000	6.270556
2019.000000	6.277737
2020.000000	6.291190
2021.000000	6.303344
2022.000000	6.311660
2023.000000	6.325953
2024.000000	6.338665
2025.000000	6.354014
2026.000000	6.365847
2027.000000	6.381387
2028.000000	6.396885
2029.000000	6.402759
2030.000000	6.423203
2031.000000	6.448327
2032.000000	6.461368
2033.000000	6.473550
2034.000000	6.489072
2035.000000	6.516470
2036.000000	6.531589
2037.000000	6.547702
2038.000000	6.570626
2039.000000	6.587983
2040.000000	6.607542
2041.000000	6.638480
2042.000000	6.657044
2043.000000	6.672893
2044.000000	6.692880
2045.000000	6.705652
2046.000000	6.723082
2047.000000	6.739040
2048.000000	6.756228
2049.000000	6.763501
2050.000000	6.767309
2051.000000	6.767870
2052.000000	6.775066
2053.000000	6.773045
2054.000000	6.768912
2055.000000	6.770898
2056.000000	6.263609
2057.000000	6.255083
2058.000000	6.747611
2059.000000	6.737751
2060.000000	6.226937
2061.000000	6.212414
2062.000000	6.698070
2063.000000	6.683692
2064.000000	6.671620
2065.000000	6.665488
2066.000000	6.651177
2067.000000	6.637818
2068.000000	6.630370
2069.000000	6.120758
2070.000000	6.606867
2071.000000	6.598708
2072.000000	6.097563
2073.000000	6.587684
2074.000000	6.576589
2075.000000	6.071634
2076.000000	6.069217
2077.000000	6.562560
2078.000000	6.563503
2079.000000	6.565098
2080.000000	6.562698
2081.000000	6.059546
2082.000000	6.059419
2083.000000	6.060289
2084.000000	6.066519
2085.000000	6.071476
2086.000000	6.570096
2087.000000	6.078037
2088.000000	6.579591
2089.000000	6.581738
2090.000000	6.587875
2091.000000	6.595536
2092.000000	6.595735
2093.000000	6.599822
2094.000000	6.603786
2095.000000	6.603364
2096.000000	6.608305
2097.000000	6.612379
2098.000000	6.610995
2099.000000	6.609692
2100.000000	6.615418
2101.000000	6.618961
2102.000000	6.619690
2103.000000	6.621005
2104.000000	6.622176
2105.000000	6.623930
2106.000000	6.625418
2107.000000	6.629252
2108.000000	6.632761
2109.000000	6.637463
2110.000000	6.642090
2111.000000	6.644484
2112.000000	6.646819
2113.000000	6.652502
2114.000000	6.657390
2115.000000	6.661469
2116.000000	6.662143
2117.000000	6.669586
2118.000000	6.680178
2119.000000	6.685959
2120.000000	6.687376
2121.000000	6.691531
2122.000000	6.700090
2123.000000	6.705213
2124.000000	7.212965
2125.000000	6.724530
2126.000000	6.730559
2127.000000	7.237763
2128.000000	7.245257
2129.000000	7.254285
2130.000000	6.764558
2131.000000	6.773041
2132.000000	7.278533
2133.000000	7.289326
2134.000000	7.298168
2135.000000	7.311518
2136.000000	7.326946
2137.000000	7.334786
2138.000000	7.341815
2139.000000	7.356064
2140.000000	7.367430
2141.000000	7.374975
2142.000000	7.391045
2143.000000	7.403639
2144.000000	7.416465
2145.000000	7.433146
2146.000000	7.443212
2147.000000	7.458677
2148.000000	7.473486
2149.000000	6.984491
2150.000000	7.493722
2151.000000	7.507443
2152.000000	7.516543
2153.000000	7.529882
2154.000000	7.538357
2155.000000	7.547360
2156.000000	7.554705
2157.000000	7.560451
2158.000000	7.568997
2159.000000	7.573937
2160.000000	7.578530
2161.000000	7.585547
2162.000000	7.092259
2163.000000	7.591727
2164.000000	7.599420
2165.000000	7.601646
2166.000000	7.603359
2167.000000	7.111036
2168.000000	7.111913
2169.000000	7.113553
2170.000000	7.618589
2171.000000	7.116769
2172.000000	7.126362
2173.000000	7.129818
2174.000000	7.127159
2175.000000	7.131508
2176.000000	7.129111
2177.000000	7.138290
2178.000000	7.143017
2179.000000	7.146579
2180.000000	7.154441
2181.000000	7.156140
2182.000000	7.163837
2183.000000	7.165717
2184.000000	6.680492
2185.000000	6.685713
2186.000000	6.701309
2187.000000	6.711029
2188.000000	6.725603
2189.000000	6.741646
2190.000000	6.755692
2191.000000	6.775942
2192.000000	6.795497
2193.000000	6.316018
2194.000000	6.338004
2195.000000	6.356577
2196.000000	6.378563
2197.000000	6.403988
2198.000000	5.919822
2199.000000	5.939073
2200.000000	5.960813
2201.000000	6.475437
2202.000000	5.991261
2203.000000	6.001700
2204.000000	6.008026
2205.000000	6.021662
2206.000000	5.521408
2207.000000	6.023124
2208.000000	6.024904
2209.000000	6.023642
2210.000000	6.014427
2211.000000	6.014798
2212.000000	6.003709
2213.000000	5.994764
2214.000000	5.979912
2215.000000	5.971854
2216.000000	5.958584
2217.000000	5.937311
2218.000000	5.925498
2219.000000	5.913953
2220.000000	5.898531
2221.000000	5.884692
2222.000000	5.873450
2223.000000	5.861345
2224.000000	5.847599
2225.000000	5.841304
2226.000000	5.830599
2227.000000	5.832828
2228.000000	5.817202
2229.000000	5.810386
2230.000000	5.810669
2231.000000	5.802204
2232.000000	5.806393
2233.000000	6.302616
2234.000000	5.811628
2235.000000	5.811594
2236.000000	5.814026
2237.000000	5.818190
2238.000000	5.821012
2239.000000	6.326608
2240.000000	6.328285
2241.000000	6.344592
2242.000000	6.345712
2243.000000	6.357494
2244.000000	6.368301
2245.000000	6.379624
2246.000000	6.383363
2247.000000	6.400212
2248.000000	5.915564
2249.000000	6.419794
2250.000000	6.429625
2251.000000	6.438740
2252.000000	6.445345
2253.000000	6.462780
2254.000000	6.474484
2255.000000	6.486718
2256.000000	6.493231
2257.000000	6.503955
2258.000000	6.506909
2259.000000	6.510332
2260.000000	6.514752
2261.000000	6.515203
2262.000000	6.517644
2263.000000	6.525419
2264.000000	6.519356
2265.000000	6.522749
2266.000000	6.522158
2267.000000	6.514610
2268.000000	6.512954
2269.000000	7.006328
2270.000000	6.506669
2271.000000	6.502613
2272.000000	6.993861
2273.000000	6.995376
2274.000000	6.992751
2275.000000	6.988705
2276.000000	6.984784
2277.000000	6.984111
2278.000000	6.985792
2279.000000	6.979978
2280.000000	6.986046
2281.000000	6.985548
2282.000000	6.983052
2283.000000	7.480256
2284.000000	7.475796
2285.000000	7.483626
2286.000000	7.480741
2287.000000	7.482979
2288.000000	6.978291
2289.000000	6.978552
2290.000000	7.479689
2291.000000	7.473119
2292.000000	7.476457
2293.000000	7.472450
2294.000000	7.476875
2295.000000	7.470943
2296.000000	7.469845
2297.000000	7.469495
2298.000000	7.465080
2299.000000	7.460509
2300.000000	7.457614
2301.000000	7.450481
2302.000000	7.447018
2303.000000	7.442692
2304.000000	7.438654
2305.000000	7.433998
2306.000000	7.428926
2307.000000	7.923884
2308.000000	7.920132
2309.000000	7.913399
2310.000000	7.905202
2311.000000	7.909899
2312.000000	7.901453
2313.000000	7.899884
2314.000000	7.898348
2315.000000	7.897752
2316.000000	7.897580
2317.000000	7.892918
2318.000000	7.897804
2319.000000	7.899616
2320.000000	7.900784
2321.000000	7.901966
2322.000000	7.907781
2323.000000	8.408606
2324.000000	7.911369
2325.000000	7.920083
2326.000000	7.917135
2327.000000	7.919005
2328.000000	7.924754
2329.000000	7.922721
2330.000000	8.424710
2331.000000	8.427166
2332.000000	7.931104
2333.000000	8.429992
2334.000000	8.427578
2335.000000	8.426679
2336.000000	7.926679
2337.000000	8.425349
2338.000000	8.423145
2339.000000	8.417839
2340.000000	8.413804
2341.000000	8.411455
2342.000000	8.407834
2343.000000	8.408212
2344.000000	8.402777
2345.000000	8.895527
2346.000000	8.889399
2347.000000	8.879229
2348.000000	8.876140
2349.000000	8.888290
2350.000000	8.897071
2351.000000	8.892044
2352.000000	8.884738
2353.000000	8.879965
2354.000000	8.877011
2355.000000	8.872300
2356.000000	8.867110
2357.000000	8.868911
2358.000000	8.872066
2359.000000	8.873685
2360.000000	8.870639
2361.000000	8.871263
2362.000000	8.872761
2363.000000	8.866577
2364.000000	8.864700
2365.000000	9.363378
2366.000000	8.859247
2367.000000	8.862334
2368.000000	9.362431
2369.000000	8.861157
2370.000000	8.860049
2371.000000	8.858158
2372.000000	8.858744
2373.000000	8.857141
2374.000000	8.855247
2375.000000	8.854274
2376.000000	9.349865
2377.000000	8.852449
2378.000000	8.853740
2379.000000	9.351927
2380.000000	9.349990
2381.000000	9.352462
2382.000000	9.353651
2383.000000	8.849241
2384.000000	9.351874
2385.000000	9.356389
2386.000000	9.356429
2387.000000	9.358849
2388.000000	9.363175
2389.000000	9.366085
2390.000000	9.361871
2391.000000	9.366700
2392.000000	9.375336
2393.000000	9.370870
2394.000000	9.875485
2395.000000	9.383515
2396.000000	9.382516
2397.000000	9.381220
2398.000000	9.387897
2399.000000	9.395286
2400.000000	9.398504
2401.000000	9.398031
2402.000000	9.400516
2403.000000	9.901929
2404.000000	9.910796
2405.000000	9.915643
2406.000000	9.422526
2407.000000	8.929925
2408.000000	9.432661
2409.000000	9.938208
2410.000000	9.443918
2411.000000	9.455557
2412.000000	9.466384
2413.000000	9.968982
2414.000000	9.475282
2415.000000	9.981181
2416.000000	9.989864
2417.000000	9.504275
2418.000000	9.516169
2419.000000	9.527009
2420.000000	9.533503
2421.000000	9.546558
2422.000000	9.054728
2423.000000	10.064149
2424.000000	10.078064
2425.000000	10.087547
2426.000000	9.603858
2427.000000	10.112689
2428.000000	10.622275
2429.000000	10.634574
2430.000000	10.647811
2431.000000	10.653935
2432.000000	10.665663
2433.000000	10.184580
2434.000000	10.197801
2435.000000	10.700505
2436.000000	10.210003
2437.000000	9.717670
2438.000000	10.739844
2439.000000	10.752918
2440.000000	11.261734
2441.000000	10.763923
2442.000000	11.272592
2443.000000	10.282018
2444.000000	10.800892
2445.000000	11.316002
2446.000000	11.327523
2447.000000	10.331065
2448.000000	10.841761
2449.000000	11.849269
2450.000000	11.860625
2451.000000	10.881243
2452.000000	11.879208
2453.000000	11.878106
2454.000000	11.391095
2455.000000	11.404329
2456.000000	11.909649
2457.000000	12.416350
2458.000000	11.913675
2459.000000	12.429585
2460.000000	12.445402
2461.000000	10.954909
2462.000000	11.454321
2463.000000	12.454395
2464.000000	13.450175
2465.000000	12.471232
2466.000000	12.968425
2467.000000	14.479854
2468.000000	14.977859
2469.000000	14.464595
2470.000000	14.479103
2471.000000	13.488260
2472.000000	14.489782
2473.000000	14.489412
2474.000000	15.982442
2475.000000	14.975606
2476.000000	15.979914
2477.000000	15.981960
2478.000000	13.977069
2479.000000	14.479876
2480.000000	17.009939
2481.000000	17.459522
2482.000000	17.960934
2483.000000	17.491214
2484.000000	17.485211
2485.000000	17.465327
2486.000000	18.443816
2487.000000	18.462222
2488.000000	18.474728
2489.000000	19.955691
2490.000000	19.446914
2491.000000	21.435320
2492.000000	21.456172
2493.000000	20.941728
2494.000000	21.402492
2495.000000	21.433959
2496.000000	22.401995
2497.000000	21.414107
2498.000000	22.395306
2499.000000	22.884777
2500.000000	23.931707
2501.000000	nan
2502.000000	nan
2503.000000	nan
2504.000000	nan
2505.000000	nan
2506.000000	nan
2507.000000	nan
2508.000000	nan
2509.000000	nan
2510.000000	nan
2511.000000	nan
2512.000000	nan
2513.000000	nan
2514.000000	nan
2515.000000	nan
2516.000000	nan
2517.000000	nan
2518.000000	nan
2519.000000	nan
2520.000000	nan
2521.000000	nan
2522.000000	nan
2523.000000	nan
2524.000000	nan
2525.000000	nan
2526.000000	nan
2527.000000	nan
2528.000000	nan
2529.000000	nan
2530.000000	nan
2531.000000	nan
2532.000000	nan
2533.000000	nan
2534.000000	nan
2535.000000	nan
2536.000000	nan
2537.000000	nan
2538.000000	nan
2539.000000	nan
2540.000000	nan
2541.000000	nan
2542.000000	nan
2543.000000	nan
2544.000000	nan
2545.000000	nan
2546.000000	nan
2547.000000	nan
2548.000000	nan
2549.000000	nan
2550.000000	nan
2551.000000	nan
2552.000000	nan
2553.000000	nan
2554.000000	nan
2555.000000	nan
2556.000000	nan
2557.000000	nan
2558.000000	nan
2559.000000	nan
2560.000000	nan
2561.000000	nan
2562.000000	nan
2563.000000	nan
2564.000000	nan
2565.000000	nan
2566.000000	nan
2567.000000	nan
2568.000000	nan
2569.000000	nan
2570.000000	nan
2571.000000	nan
2572.000000	nan
2573.000000	nan
2574.000000	nan
2575.000000	nan
2576.000000	nan
2577.000000	nan
2578.000000	nan
2579.000000	nan
2580.000000	nan
2581.000000	nan
2582.000000	nan
2583.000000	nan
2584.000000	nan
2585.000000	nan
2586.000000	nan
2587.000000	nan
2588.000000	nan
2589.000000	nan
2590.000000	nan
2591.000000	nan
2592.000000	nan
2593.000000	nan
2594.000000	nan
2595.000000	nan
2596.000000	nan
2597.000000	nan
2598.000000	nan
2599.000000	nan
2600.000000	nan
2601.000000	nan
2602.000000	nan
2603.000000	nan
2604.000000	nan
2605.000000	nan
2606.000000	nan
2607.000000	nan
2608.000000	nan
2609.000000	nan
2610.000000	nan
2611.000000	nan
2612.000000	nan
2613.000000	nan
2614.000000	nan
2615.000000	nan
2616.000000	nan
2617.000000	nan
2618.000000	nan
2619.000000	nan
2620.000000	nan
2621.000000	nan
2622.000000	nan
2623.000000	nan
2624.000000	nan
2625.000000	nan
2626.000000	nan
2627.000000	nan
2628.000000	nan
2629.000000	nan
2630.000000	nan
2631.000000	nan
2632.000000	nan
2633.000000	nan
2634.000000	nan
2635.000000	nan
2636.000000	nan
2637.000000	nan
2638.000000	nan
2639.000000	nan
2640.000000	nan
2641.000000	nan
2642.000000	nan
2643.000000	nan
2644.000000	nan
2645.000000	nan
2646.000000	nan
2647.000000	nan
2648.000000	nan
2649.000000	nan
2650.000000	nan
2651.000000	nan
2652.000000	nan
2653.000000	nan
2654.000000	nan
2655.000000	nan
2656.000000	nan
2657.000000	nan
2658.000000	nan
2659.000000	nan
2660.000000	nan
2661.000000	nan
2662.000000	nan
2663.000000	nan
2664.000000	nan
2665.000000	nan
2666.000000	nan
2667.000000	nan
2668.000000	nan
2669.000000	nan
2670.000000	nan
2671.000000	nan
2672.000000	nan
2673.000000	nan
2674.000000	nan
2675.000000	nan
2676.000000	nan
2677.000000	nan
2678.000000	nan
2679.000000	nan
2680.000000	nan
2681.000000	nan
2682.000000	nan
2683.000000	nan
2684.000000	nan
2685.000000	nan
2686.000000	nan
2687.000000	nan
2688.000000	nan
2689.000000	nan
2690.000000	nan
2691.000000	nan
2692.000000	nan
2693.000000	nan
2694.000000	nan
2695.000000	nan
2696.000000	nan
2697.000000	nan
2698.000000	nan
2699.000000	nan
2700.000000	nan
2701.000000	nan
2702.000000	nan
2703.000000	nan
2704.000000	nan
2705.000000	nan
2706.000000	nan
2707.000000	nan
2708.000000	nan
2709.000000	nan
2710.000000	nan
2711.000000	nan
2712.000000	nan
2713.000000	nan
2714.000000	nan
2715.000000	nan
2716.000000	nan
2717.000000	nan
2718.000000	nan
2719.000000	nan
2720.000000	nan
2721.000000	nan
2722.000000	nan
2723.000000	nan
2724.000000	nan
2725.000000	nan
2726.000000	nan
2727.000000	nan
2728.000000	nan
2729.000000	nan
2730.000000	nan
2731.000000	nan
2732.000000	nan
2733.000000	nan
2734.000000	nan
2735.000000	nan
2736.000000	nan
2737.000000	nan
2738.000000	nan
2739.000000	nan
2740.000000	nan
2741.000000	nan
2742.000000	nan
2743.000000	nan
2744.000000	nan
2745.000000	nan
2746.000000	nan
2747.000000	nan
2748.000000	nan
2749.000000	nan
2750.000000	nan
2751.000000	nan
2752.000000	nan
2753.000000	nan
2754.000000	nan
2755.000000	nan
2756.000000	nan
2757.000000	nan
2758.000000	nan
2759.000000	nan
2760.000000	nan
2761.000000	nan
2762.000000	nan
2763.000000	nan
2764.000000	nan
2765.000000	nan
2766.000000	nan
2767.000000	nan
2768.000000	nan
2769.000000	nan
2770.000000	nan
2771.000000	nan
2772.000000	nan
2773.000000	nan
2774.000000	nan
2775.000000	nan
2776.000000	nan
2777.000000	nan
2778.000000	nan
2779.000000	nan
2780.000000	nan
2781.000000	nan
2782.000000	nan
2783.000000	nan
2784.000000	nan
2785.000000	nan
2786.000000	nan
2787.000000	nan
2788.000000	nan
2789.000000	nan
2790.000000	nan
2791.000000	nan
2792.000000	nan
2793.000000	nan
2794.000000	nan
2795.000000	nan
2796.000000	nan
2797.000000	nan
2798.000000	nan
2799.000000	nan
2800.000000	nan
2801.000000	nan
2802.000000	nan
2803.000000	nan
2804.000000	nan
2805.000000	nan
2806.000000	nan
2807.000000	nan
2808.000000	nan
2809.000000	nan
2810.000000	nan
2811.000000	nan
2812.000000	nan
2813.000000	nan
2814.000000	nan
2815.000000	nan
2816.000000	nan
2817.000000	nan
2818.000000	nan
2819.000000	nan
2820.000000	nan
2821.000000	nan
2822.000000	nan
2823.000000	nan
2824.000000	nan
2825.000000	nan
2826.000000	nan
2827.000000	nan
2828.000000	nan
2829.000000	nan
2830.000000	nan
2831.000000	nan
2832.000000	nan
2833.000000	nan
2834.000000	nan
2835.000000	nan
2836.000000	nan
2837.000000	nan
2838.000000	nan
2839.000000	nan
2840.000000	nan
2841.000000	nan
2842.000000	nan
2843.000000	nan
2844.000000	nan
2845.000000	nan
2846.000000	nan
2847.000000	nan
2848.000000	nan
2849.000000	nan
2850.000000	nan
2851.000000	nan
2852.000000	nan
2853.000000	nan
2854.000000	nan
2855.000000	nan
2856.000000	nan
2857.000000	nan
2858.000000	nan
2859.000000	nan
2860.000000	nan
2861.000000	nan
2862.000000	nan
2863.000000	nan
2864.000000	nan
2865.000000	nan
2866.000000	nan
2867.000000	nan
2868.000000	nan
2869.000000	nan
2870.000000	nan
2871.000000	nan
2872.000000	nan
2873.000000	nan
2874.000000	nan
2875.000000	nan
2876.000000	nan
2877.000000	nan
2878.000000	nan
2879.000000	nan
2880.000000	nan
2881.000000	nan
2882.000000	nan
2883.000000	nan
2884.000000	nan
2885.000000	nan
2886.000000	nan
2887.000000	nan
2888.000000	nan
2889.000000	nan
2890.000000	nan
2891.000000	nan
2892.000000	nan
2893.000000	nan
2894.000000	nan
2895.000000	nan
2896.000000	nan
2897.000000	nan
2898.000000	nan
2899.000000	nan
2900.000000	nan
2901.000000	nan
2902.000000	nan
2903.000000	nan
2904.000000	nan
2905.000000	nan
2906.000000	nan
2907.000000	nan
2908.000000	nan
2909.000000	nan
2910.000000	nan
2911.000000	nan
2912.000000	nan
2913.000000	nan
2914.000000	nan
2915.000000	nan
2916.000000	nan
2917.000000	nan
2918.000000	nan
2919.000000	nan
2920.000000	nan
2921.000000	nan
2922.000000	nan
2923.000000	nan
2924.000000	nan
2925.000000	nan
2926.000000	nan
2927.000000	nan
2928.000000	nan
2929.000000	nan
2930.000000	nan
2931.000000	nan
2932.000000	nan
2933.000000	nan
2934.000000	nan
2935.000000	nan
2936.000000	nan
2937.000000	nan
2938.000000	nan
2939.000000	nan
2940.000000	nan
2941.000000	nan
2942.000000	nan
2943.000000	nan
2944.000000	nan
2945.000000	nan
2946.000000	nan
2947.000000	nan
2948.000000	nan
2949.000000	nan
2950.000000	nan
2951.000000	nan
2952.000000	nan
2953.000000	nan
2954.000000	nan
2955.000000	nan
2956.000000	nan
2957.000000	nan
2958.000000	nan
2959.000000	nan
2960.000000	nan
2961.000000	nan
2962.000000	nan
2963.000000	nan
2964.000000	nan
2965.000000	nan
2966.000000	nan
2967.000000	nan
2968.000000	nan
2969.000000	nan
2970.000000	nan
2971.000000	nan
2972.000000	nan
2973.000000	nan
2974.000000	nan
2975.000000	nan
2976.000000	nan
2977.000000	nan
2978.000000	nan
2979.000000	nan
2980.000000	nan
2981.000000	nan
2982.000000	nan
2983.000000	nan
2984.000000	nan
2985.000000	nan
2986.000000	nan
2987.000000	nan
2988.000000	nan
2989.000000	nan
2990.000000	nan
2991.000000	nan
2992.000000	nan
2993.000000	nan
2994.000000	nan
2995.000000	nan
2996.000000	nan
2997.000000	nan
2998.000000	nan
2999.000000	nan
3000.000000	nan
