PE UV       SUBTECH     SPECTRUM    ASCII       PEDS        4.00        
   -1
INBUCR0233-4.Sample.ASC
24/02/08
12:22:18.00
24/02/08
12:22:18.00
Vinicio Soto Monge
Chrysina chalcothea Det: A Solís. INBI0003489983 INBIOCRI COSTA RICA Costa Rica. Prov. Cartago. R. F.  Río Macho, Alrededor Estación la Esperanza. 2650 m 26-29 de May 2002. R. González, Luz ambiente L_N_1856000_550000 #69624
250,000000
1
Lambda 1050
1050L1511233
PerkinElmer UV WinLab 6.3.2.0749 / 2.02.05 Lambda 900 UV/VIS/NIR, Aug  7 2015 09:38:08

0
0
3350/servo 860,8/2
0
0
UV/VIS
1
1
1
DoubleDePol,CommonBeamDepol,RBeamAtt,SBeamAtt,60mm sphere, WB InGaAs Detector
0
0
0
0
Program
Program
3350/servo 860,8/2
3350/0,2 860,8/0,2
3350/0,2 860,8/0,2
0
15.00
 
 
 
0
 
860,8
319,2
860,8
Front
100
on
S:100 R:100
0
0
0
0
 
0
 
 
 
0
 
 
0
0
0
0
0
 
 
 
 
0
0


0
0
#HDR
-1
-1
#GR
nm
%R
1.0
0.0
2500,000000
-1,000000
2251
8
14,773400
0,968500
#DATA

250.000000	2.807949
251.000000	2.795469
252.000000	2.764427
253.000000	2.805502
254.000000	2.777713
255.000000	2.751922
256.000000	2.748466
257.000000	2.749948
258.000000	2.761673
259.000000	2.746280
260.000000	2.740237
261.000000	2.737043
262.000000	2.723587
263.000000	2.737606
264.000000	2.685963
265.000000	2.689916
266.000000	2.673309
267.000000	2.673589
268.000000	2.652811
269.000000	2.662322
270.000000	2.647051
271.000000	2.642403
272.000000	2.642588
273.000000	2.615339
274.000000	2.621063
275.000000	2.617471
276.000000	2.608949
277.000000	2.604196
278.000000	2.604295
279.000000	2.609146
280.000000	2.616811
281.000000	2.602555
282.000000	2.604028
283.000000	2.593523
284.000000	2.587226
285.000000	2.573272
286.000000	2.592854
287.000000	2.585107
288.000000	2.588553
289.000000	2.582020
290.000000	2.558976
291.000000	2.582497
292.000000	2.563229
293.000000	2.581400
294.000000	2.533817
295.000000	2.565686
296.000000	2.557856
297.000000	2.564884
298.000000	2.559145
299.000000	2.550454
300.000000	2.568782
301.000000	2.525617
302.000000	2.542509
303.000000	2.544895
304.000000	2.549942
305.000000	2.531087
306.000000	2.518460
307.000000	2.554384
308.000000	2.552482
309.000000	2.518315
310.000000	2.497748
311.000000	2.536091
312.000000	2.535578
313.000000	2.521297
314.000000	2.528289
315.000000	2.543643
316.000000	2.522737
317.000000	2.680945
318.000000	2.691870
319.000000	2.767898
320.000000	2.728368
321.000000	2.631230
322.000000	2.604479
323.000000	2.640429
324.000000	2.618803
325.000000	2.668134
326.000000	2.567213
327.000000	2.609710
328.000000	2.640353
329.000000	2.602351
330.000000	2.577031
331.000000	2.602418
332.000000	2.580584
333.000000	2.556103
334.000000	2.620165
335.000000	2.583090
336.000000	2.599461
337.000000	2.587094
338.000000	2.577723
339.000000	2.610384
340.000000	2.543189
341.000000	2.561228
342.000000	2.527709
343.000000	2.559193
344.000000	2.564102
345.000000	2.549200
346.000000	2.534495
347.000000	2.578061
348.000000	2.519632
349.000000	2.521548
350.000000	2.543174
351.000000	2.562844
352.000000	2.544538
353.000000	2.542963
354.000000	2.549137
355.000000	2.523436
356.000000	2.523687
357.000000	2.516724
358.000000	2.492164
359.000000	2.515403
360.000000	2.532838
361.000000	2.528198
362.000000	2.533154
363.000000	2.519813
364.000000	2.504713
365.000000	2.507447
366.000000	2.516964
367.000000	2.518117
368.000000	2.503369
369.000000	2.515610
370.000000	2.511105
371.000000	2.506776
372.000000	2.507891
373.000000	2.496450
374.000000	2.461765
375.000000	2.459980
376.000000	2.509164
377.000000	2.529282
378.000000	2.526306
379.000000	2.524367
380.000000	2.528599
381.000000	2.521765
382.000000	2.516874
383.000000	2.516876
384.000000	2.521686
385.000000	2.518074
386.000000	2.514156
387.000000	2.513153
388.000000	2.512155
389.000000	2.514173
390.000000	2.507147
391.000000	2.507496
392.000000	2.512534
393.000000	2.508197
394.000000	2.502667
395.000000	2.499552
396.000000	2.500235
397.000000	2.498974
398.000000	2.497446
399.000000	2.498083
400.000000	2.497961
401.000000	2.494050
402.000000	2.491329
403.000000	2.491311
404.000000	2.492946
405.000000	2.496949
406.000000	2.491982
407.000000	2.487626
408.000000	2.488866
409.000000	2.490992
410.000000	2.488423
411.000000	2.488958
412.000000	2.490607
413.000000	2.489260
414.000000	2.484182
415.000000	2.483156
416.000000	2.483324
417.000000	2.478569
418.000000	2.480082
419.000000	2.477828
420.000000	2.478871
421.000000	2.481767
422.000000	2.479836
423.000000	2.479443
424.000000	2.480796
425.000000	2.479156
426.000000	2.478334
427.000000	2.479121
428.000000	2.478382
429.000000	2.477897
430.000000	2.480307
431.000000	2.482176
432.000000	2.480308
433.000000	2.480860
434.000000	2.484120
435.000000	2.486614
436.000000	2.484439
437.000000	2.482435
438.000000	2.484432
439.000000	2.489078
440.000000	2.489441
441.000000	2.491605
442.000000	2.499201
443.000000	2.503507
444.000000	2.507647
445.000000	2.510958
446.000000	2.513746
447.000000	2.520085
448.000000	2.527742
449.000000	2.532260
450.000000	2.536510
451.000000	2.544419
452.000000	2.554553
453.000000	2.563852
454.000000	2.573501
455.000000	2.586174
456.000000	2.595339
457.000000	2.605409
458.000000	2.615302
459.000000	2.628944
460.000000	2.643298
461.000000	2.655754
462.000000	2.672466
463.000000	2.691767
464.000000	2.709340
465.000000	2.732777
466.000000	2.758931
467.000000	2.786686
468.000000	2.819262
469.000000	2.853900
470.000000	2.895922
471.000000	2.939151
472.000000	2.979168
473.000000	3.028310
474.000000	3.081092
475.000000	3.133815
476.000000	3.188405
477.000000	3.239179
478.000000	3.294355
479.000000	3.349620
480.000000	3.413558
481.000000	3.484297
482.000000	3.554013
483.000000	3.619144
484.000000	3.693007
485.000000	3.777344
486.000000	3.874080
487.000000	3.985653
488.000000	4.109043
489.000000	4.250867
490.000000	4.410783
491.000000	4.586005
492.000000	4.769071
493.000000	4.964944
494.000000	5.172973
495.000000	5.386162
496.000000	5.595284
497.000000	5.806279
498.000000	6.016492
499.000000	6.224850
500.000000	6.428906
501.000000	6.635684
502.000000	6.833293
503.000000	7.023926
504.000000	7.213433
505.000000	7.387460
506.000000	7.556196
507.000000	7.714279
508.000000	7.863122
509.000000	8.009277
510.000000	8.153111
511.000000	8.289032
512.000000	8.412927
513.000000	8.535843
514.000000	8.657719
515.000000	8.780992
516.000000	8.892751
517.000000	8.998428
518.000000	9.107405
519.000000	9.213981
520.000000	9.310427
521.000000	9.394080
522.000000	9.474641
523.000000	9.540111
524.000000	9.601137
525.000000	9.650984
526.000000	9.688364
527.000000	9.719690
528.000000	9.746910
529.000000	9.758231
530.000000	9.758260
531.000000	9.760670
532.000000	9.743514
533.000000	9.721788
534.000000	9.681767
535.000000	9.637364
536.000000	9.569468
537.000000	9.491520
538.000000	9.390692
539.000000	9.264913
540.000000	9.111973
541.000000	8.937022
542.000000	8.731941
543.000000	8.508753
544.000000	8.272255
545.000000	8.033968
546.000000	7.804123
547.000000	7.587427
548.000000	7.382456
549.000000	7.207975
550.000000	7.065856
551.000000	6.951451
552.000000	6.862490
553.000000	6.801251
554.000000	6.760690
555.000000	6.732238
556.000000	6.707372
557.000000	6.683841
558.000000	6.657092
559.000000	6.621421
560.000000	6.597893
561.000000	6.557874
562.000000	6.511055
563.000000	6.455117
564.000000	6.408355
565.000000	6.361207
566.000000	6.321948
567.000000	6.291619
568.000000	6.270531
569.000000	6.250925
570.000000	6.240292
571.000000	6.235615
572.000000	6.245978
573.000000	6.249457
574.000000	6.246074
575.000000	6.244553
576.000000	6.238227
577.000000	6.224135
578.000000	6.194161
579.000000	6.162040
580.000000	6.130218
581.000000	6.090852
582.000000	6.042302
583.000000	6.002350
584.000000	5.963491
585.000000	5.923706
586.000000	5.903631
587.000000	5.868659
588.000000	5.852065
589.000000	5.838219
590.000000	5.830890
591.000000	5.820242
592.000000	5.816859
593.000000	5.818307
594.000000	5.811829
595.000000	5.807669
596.000000	5.802855
597.000000	5.795835
598.000000	5.782514
599.000000	5.762725
600.000000	5.748165
601.000000	5.729209
602.000000	5.720249
603.000000	5.700338
604.000000	5.691339
605.000000	5.681506
606.000000	5.681332
607.000000	5.684054
608.000000	5.683376
609.000000	5.694562
610.000000	5.708444
611.000000	5.719997
612.000000	5.729635
613.000000	5.747270
614.000000	5.760425
615.000000	5.770022
616.000000	5.782133
617.000000	5.782685
618.000000	5.791023
619.000000	5.787167
620.000000	5.790050
621.000000	5.794935
622.000000	5.785313
623.000000	5.788243
624.000000	5.782553
625.000000	5.782460
626.000000	5.788222
627.000000	5.799875
628.000000	5.811090
629.000000	5.824956
630.000000	5.849910
631.000000	5.864654
632.000000	5.896796
633.000000	5.921756
634.000000	5.943149
635.000000	5.964834
636.000000	5.980303
637.000000	6.005851
638.000000	6.022989
639.000000	6.044679
640.000000	6.065231
641.000000	6.080027
642.000000	6.089609
643.000000	6.100811
644.000000	6.117290
645.000000	6.138878
646.000000	6.154271
647.000000	6.176773
648.000000	6.205122
649.000000	6.232052
650.000000	6.261250
651.000000	6.295043
652.000000	6.329297
653.000000	6.372168
654.000000	6.408004
655.000000	6.450945
656.000000	6.497505
657.000000	6.538346
658.000000	6.582134
659.000000	6.617529
660.000000	6.651892
661.000000	6.688429
662.000000	6.718601
663.000000	6.751660
664.000000	6.779057
665.000000	6.806001
666.000000	6.832840
667.000000	6.859871
668.000000	6.895774
669.000000	6.931147
670.000000	6.972076
671.000000	7.011121
672.000000	7.046144
673.000000	7.092813
674.000000	7.146422
675.000000	7.195028
676.000000	7.237085
677.000000	7.277243
678.000000	7.328860
679.000000	7.375477
680.000000	7.419280
681.000000	7.465961
682.000000	7.517192
683.000000	7.559850
684.000000	7.601658
685.000000	7.637096
686.000000	7.669918
687.000000	7.713964
688.000000	7.758785
689.000000	7.799338
690.000000	7.841534
691.000000	7.888077
692.000000	7.930655
693.000000	7.976264
694.000000	8.024614
695.000000	8.066360
696.000000	8.124405
697.000000	8.173126
698.000000	8.219528
699.000000	8.277546
700.000000	8.333294
701.000000	8.397978
702.000000	8.468904
703.000000	8.520966
704.000000	8.583131
705.000000	8.640313
706.000000	8.709445
707.000000	8.772679
708.000000	8.835514
709.000000	8.906740
710.000000	8.972220
711.000000	9.036326
712.000000	9.109157
713.000000	9.178338
714.000000	9.247066
715.000000	9.321876
716.000000	9.389648
717.000000	9.462107
718.000000	9.548990
719.000000	9.646324
720.000000	9.745680
721.000000	9.831973
722.000000	9.917846
723.000000	10.010248
724.000000	10.105947
725.000000	10.208056
726.000000	10.309887
727.000000	10.413950
728.000000	10.520642
729.000000	10.635937
730.000000	10.750353
731.000000	10.862970
732.000000	10.967817
733.000000	11.071453
734.000000	11.193691
735.000000	11.318266
736.000000	11.432037
737.000000	11.547378
738.000000	11.660059
739.000000	11.781257
740.000000	11.915111
741.000000	12.030727
742.000000	12.149326
743.000000	12.284703
744.000000	12.421014
745.000000	12.535063
746.000000	12.660082
747.000000	12.793155
748.000000	12.939205
749.000000	13.082870
750.000000	13.207521
751.000000	13.332272
752.000000	13.481975
753.000000	13.613454
754.000000	13.725054
755.000000	13.873045
756.000000	14.030173
757.000000	14.149616
758.000000	14.291915
759.000000	14.425246
760.000000	14.559244
761.000000	14.711735
762.000000	14.855846
763.000000	14.993938
764.000000	15.122725
765.000000	15.249989
766.000000	15.383033
767.000000	15.516526
768.000000	15.643601
769.000000	15.773164
770.000000	15.884534
771.000000	16.021881
772.000000	16.153539
773.000000	16.280213
774.000000	16.414442
775.000000	16.537602
776.000000	16.645427
777.000000	16.754491
778.000000	16.923703
779.000000	17.016488
780.000000	17.139373
781.000000	17.268964
782.000000	17.400318
783.000000	17.510051
784.000000	17.646076
785.000000	17.777056
786.000000	17.866090
787.000000	17.966161
788.000000	18.108400
789.000000	18.199281
790.000000	18.302039
791.000000	18.412602
792.000000	18.517865
793.000000	18.623417
794.000000	18.722838
795.000000	18.833025
796.000000	18.905543
797.000000	19.011418
798.000000	19.109605
799.000000	19.211416
800.000000	19.281705
801.000000	19.357725
802.000000	19.473220
803.000000	19.564509
804.000000	19.625409
805.000000	19.749744
806.000000	19.862704
807.000000	19.926948
808.000000	20.003900
809.000000	20.091794
810.000000	20.182544
811.000000	20.258102
812.000000	20.324934
813.000000	20.428175
814.000000	20.477819
815.000000	20.535051
816.000000	20.625545
817.000000	20.741358
818.000000	20.835400
819.000000	20.906142
820.000000	20.951882
821.000000	21.063798
822.000000	21.116694
823.000000	21.112476
824.000000	21.199773
825.000000	21.259108
826.000000	21.375225
827.000000	21.429147
828.000000	21.512792
829.000000	21.530657
830.000000	21.561026
831.000000	21.581502
832.000000	21.699112
833.000000	21.759084
834.000000	21.781655
835.000000	21.864143
836.000000	21.899295
837.000000	22.032785
838.000000	21.936150
839.000000	22.023967
840.000000	22.060811
841.000000	22.140471
842.000000	22.245828
843.000000	22.216678
844.000000	22.221665
845.000000	22.341679
846.000000	22.272306
847.000000	22.293258
848.000000	22.492377
849.000000	22.479929
850.000000	22.538134
851.000000	22.585577
852.000000	22.543710
853.000000	22.640248
854.000000	22.847993
855.000000	22.700997
856.000000	22.726712
857.000000	22.772938
858.000000	24.644976
859.000000	23.217147
860.000000	23.240136
861.000000	23.580100
862.000000	23.501990
863.000000	23.205040
864.000000	23.463575
865.000000	23.589160
866.000000	23.031056
867.000000	23.177307
868.000000	23.047090
869.000000	23.148217
870.000000	23.330281
871.000000	23.074397
872.000000	23.217801
873.000000	23.173166
874.000000	23.119130
875.000000	23.281344
876.000000	23.118237
877.000000	23.253497
878.000000	23.078611
879.000000	23.150947
880.000000	23.255644
881.000000	23.126604
882.000000	23.165372
883.000000	23.042360
884.000000	23.241846
885.000000	23.239613
886.000000	23.250029
887.000000	23.270519
888.000000	23.135423
889.000000	23.093693
890.000000	23.229743
891.000000	23.304410
892.000000	23.173976
893.000000	23.202723
894.000000	23.257850
895.000000	23.305135
896.000000	23.283975
897.000000	23.326028
898.000000	23.330580
899.000000	23.390584
900.000000	23.501686
901.000000	23.275550
902.000000	23.327515
903.000000	23.372960
904.000000	23.388814
905.000000	23.394666
906.000000	23.377138
907.000000	23.357745
908.000000	23.446569
909.000000	23.446554
910.000000	23.503282
911.000000	23.487186
912.000000	23.549091
913.000000	23.581832
914.000000	23.618622
915.000000	23.606061
916.000000	23.621510
917.000000	23.706636
918.000000	23.675468
919.000000	23.684334
920.000000	23.678614
921.000000	23.689328
922.000000	23.759381
923.000000	23.829630
924.000000	23.811166
925.000000	23.833054
926.000000	23.915122
927.000000	23.964054
928.000000	24.013992
929.000000	24.055052
930.000000	24.044348
931.000000	24.068532
932.000000	24.126507
933.000000	24.176369
934.000000	24.170031
935.000000	24.201072
936.000000	24.272164
937.000000	24.311394
938.000000	24.357664
939.000000	24.371446
940.000000	24.368804
941.000000	24.458003
942.000000	24.524971
943.000000	24.591162
944.000000	24.619754
945.000000	24.672900
946.000000	24.697266
947.000000	24.736779
948.000000	24.798945
949.000000	24.840733
950.000000	24.865756
951.000000	24.913253
952.000000	24.966549
953.000000	24.991160
954.000000	25.013484
955.000000	25.038055
956.000000	25.104826
957.000000	25.155198
958.000000	25.183897
959.000000	25.230351
960.000000	25.267629
961.000000	25.318493
962.000000	25.354912
963.000000	25.400218
964.000000	25.465606
965.000000	25.480574
966.000000	25.502540
967.000000	25.551926
968.000000	25.596354
969.000000	25.608247
970.000000	25.630932
971.000000	25.690420
972.000000	25.721984
973.000000	25.773429
974.000000	25.806143
975.000000	25.843174
976.000000	25.891150
977.000000	25.924589
978.000000	25.968161
979.000000	26.003855
980.000000	26.034495
981.000000	26.055654
982.000000	26.090991
983.000000	26.147822
984.000000	26.189677
985.000000	26.220034
986.000000	26.264300
987.000000	26.313199
988.000000	26.333354
989.000000	26.377867
990.000000	26.418341
991.000000	26.444705
992.000000	26.476687
993.000000	26.515106
994.000000	26.547460
995.000000	26.576653
996.000000	26.618732
997.000000	26.656726
998.000000	26.677378
999.000000	26.706216
1000.000000	26.743253
1001.000000	26.791844
1002.000000	26.832907
1003.000000	26.855296
1004.000000	26.881186
1005.000000	26.909394
1006.000000	26.953414
1007.000000	26.995194
1008.000000	27.025441
1009.000000	27.064847
1010.000000	27.088122
1011.000000	27.124992
1012.000000	27.161471
1013.000000	27.184560
1014.000000	27.209974
1015.000000	27.243196
1016.000000	27.292389
1017.000000	27.338557
1018.000000	27.360396
1019.000000	27.387845
1020.000000	27.416718
1021.000000	27.453185
1022.000000	27.496562
1023.000000	27.541507
1024.000000	27.581009
1025.000000	27.624725
1026.000000	27.663052
1027.000000	27.697425
1028.000000	27.730514
1029.000000	27.760781
1030.000000	27.781123
1031.000000	27.813230
1032.000000	27.862778
1033.000000	27.902191
1034.000000	27.941716
1035.000000	27.980807
1036.000000	28.021794
1037.000000	28.044719
1038.000000	28.086770
1039.000000	28.132554
1040.000000	28.162948
1041.000000	28.201326
1042.000000	28.230098
1043.000000	28.266382
1044.000000	28.302149
1045.000000	28.337887
1046.000000	28.371009
1047.000000	28.406338
1048.000000	28.443887
1049.000000	28.479672
1050.000000	28.514428
1051.000000	28.566422
1052.000000	28.600579
1053.000000	28.642232
1054.000000	28.686805
1055.000000	28.730602
1056.000000	28.766348
1057.000000	28.809438
1058.000000	28.853001
1059.000000	28.881950
1060.000000	28.928742
1061.000000	28.967355
1062.000000	29.004087
1063.000000	29.037794
1064.000000	29.087220
1065.000000	29.122543
1066.000000	29.158208
1067.000000	29.182757
1068.000000	29.221720
1069.000000	29.261743
1070.000000	29.303886
1071.000000	29.337524
1072.000000	29.367511
1073.000000	29.404281
1074.000000	29.436952
1075.000000	29.473550
1076.000000	29.510867
1077.000000	29.566114
1078.000000	29.591765
1079.000000	29.614161
1080.000000	29.647251
1081.000000	29.675713
1082.000000	29.712125
1083.000000	29.746325
1084.000000	29.774818
1085.000000	29.804544
1086.000000	29.833459
1087.000000	29.875516
1088.000000	29.913993
1089.000000	29.938040
1090.000000	29.979652
1091.000000	30.003435
1092.000000	30.044948
1093.000000	30.070425
1094.000000	30.105631
1095.000000	30.118487
1096.000000	30.148280
1097.000000	30.181287
1098.000000	30.200619
1099.000000	30.234541
1100.000000	30.254950
1101.000000	30.286900
1102.000000	30.324441
1103.000000	30.351019
1104.000000	30.365672
1105.000000	30.387874
1106.000000	30.406544
1107.000000	30.437112
1108.000000	30.468805
1109.000000	30.499212
1110.000000	30.517152
1111.000000	30.533595
1112.000000	30.567168
1113.000000	30.583331
1114.000000	30.589987
1115.000000	30.609290
1116.000000	30.622538
1117.000000	30.637675
1118.000000	30.650702
1119.000000	30.675478
1120.000000	30.687240
1121.000000	30.684467
1122.000000	30.671008
1123.000000	30.681112
1124.000000	30.676465
1125.000000	30.675322
1126.000000	30.652658
1127.000000	30.642692
1128.000000	30.636091
1129.000000	30.625347
1130.000000	30.588364
1131.000000	30.588139
1132.000000	30.567449
1133.000000	30.542976
1134.000000	30.491435
1135.000000	30.452446
1136.000000	30.426685
1137.000000	30.401887
1138.000000	30.369368
1139.000000	30.327438
1140.000000	30.285239
1141.000000	30.257415
1142.000000	30.230505
1143.000000	30.208067
1144.000000	30.149378
1145.000000	30.111391
1146.000000	30.074892
1147.000000	30.035725
1148.000000	29.989638
1149.000000	29.947988
1150.000000	29.893352
1151.000000	29.850628
1152.000000	29.811085
1153.000000	29.747617
1154.000000	29.711863
1155.000000	29.659459
1156.000000	29.595686
1157.000000	29.551846
1158.000000	29.498980
1159.000000	29.432401
1160.000000	29.370235
1161.000000	29.310851
1162.000000	29.244802
1163.000000	29.192164
1164.000000	29.130409
1165.000000	29.086473
1166.000000	29.036985
1167.000000	28.967284
1168.000000	28.911167
1169.000000	28.878594
1170.000000	28.841586
1171.000000	28.785409
1172.000000	28.755309
1173.000000	28.711919
1174.000000	28.670248
1175.000000	28.630962
1176.000000	28.587389
1177.000000	28.536748
1178.000000	28.489663
1179.000000	28.446914
1180.000000	28.418080
1181.000000	28.392662
1182.000000	28.359399
1183.000000	28.320788
1184.000000	28.273772
1185.000000	28.244079
1186.000000	28.230973
1187.000000	28.215060
1188.000000	28.188214
1189.000000	28.186378
1190.000000	28.166370
1191.000000	28.155840
1192.000000	28.142092
1193.000000	28.144663
1194.000000	28.137158
1195.000000	28.144148
1196.000000	28.125685
1197.000000	28.118325
1198.000000	28.115207
1199.000000	28.112771
1200.000000	28.114513
1201.000000	28.103816
1202.000000	28.092104
1203.000000	28.085146
1204.000000	28.080930
1205.000000	28.083170
1206.000000	28.081278
1207.000000	28.082412
1208.000000	28.094499
1209.000000	28.106448
1210.000000	28.132311
1211.000000	28.166502
1212.000000	28.193445
1213.000000	28.223425
1214.000000	28.266024
1215.000000	28.325574
1216.000000	28.384549
1217.000000	28.442944
1218.000000	28.521007
1219.000000	28.604401
1220.000000	28.680198
1221.000000	28.766426
1222.000000	28.859914
1223.000000	28.951069
1224.000000	29.051269
1225.000000	29.150538
1226.000000	29.250762
1227.000000	29.352679
1228.000000	29.441040
1229.000000	29.533159
1230.000000	29.619264
1231.000000	29.706425
1232.000000	29.798558
1233.000000	29.874507
1234.000000	29.934510
1235.000000	30.008863
1236.000000	30.084209
1237.000000	30.149948
1238.000000	30.213256
1239.000000	30.270587
1240.000000	30.326136
1241.000000	30.387014
1242.000000	30.440864
1243.000000	30.484466
1244.000000	30.530530
1245.000000	30.583068
1246.000000	30.626566
1247.000000	30.671656
1248.000000	30.720643
1249.000000	30.750443
1250.000000	30.781228
1251.000000	30.826524
1252.000000	30.863974
1253.000000	30.898624
1254.000000	30.927589
1255.000000	30.961591
1256.000000	30.991920
1257.000000	31.013695
1258.000000	31.044284
1259.000000	31.070214
1260.000000	31.089899
1261.000000	31.115852
1262.000000	31.132622
1263.000000	31.155950
1264.000000	31.173028
1265.000000	31.184556
1266.000000	31.206622
1267.000000	31.227944
1268.000000	31.245866
1269.000000	31.261697
1270.000000	31.285566
1271.000000	31.303687
1272.000000	31.316430
1273.000000	31.329583
1274.000000	31.336088
1275.000000	31.348422
1276.000000	31.366661
1277.000000	31.377602
1278.000000	31.398605
1279.000000	31.423270
1280.000000	31.440792
1281.000000	31.458410
1282.000000	31.477740
1283.000000	31.497207
1284.000000	31.516630
1285.000000	31.533261
1286.000000	31.551768
1287.000000	31.567765
1288.000000	31.575040
1289.000000	31.591534
1290.000000	31.605072
1291.000000	31.615262
1292.000000	31.628172
1293.000000	31.639691
1294.000000	31.659563
1295.000000	31.674011
1296.000000	31.679918
1297.000000	31.683262
1298.000000	31.693490
1299.000000	31.707271
1300.000000	31.720914
1301.000000	31.733920
1302.000000	31.746999
1303.000000	31.748111
1304.000000	31.743760
1305.000000	31.746558
1306.000000	31.756851
1307.000000	31.761889
1308.000000	31.764430
1309.000000	31.771026
1310.000000	31.771166
1311.000000	31.771172
1312.000000	31.766897
1313.000000	31.761844
1314.000000	31.762987
1315.000000	31.759124
1316.000000	31.755401
1317.000000	31.751277
1318.000000	31.744645
1319.000000	31.726976
1320.000000	31.713661
1321.000000	31.707636
1322.000000	31.692648
1323.000000	31.673134
1324.000000	31.649121
1325.000000	31.629862
1326.000000	31.601583
1327.000000	31.573316
1328.000000	31.554377
1329.000000	31.525690
1330.000000	31.489244
1331.000000	31.452995
1332.000000	31.418999
1333.000000	31.372477
1334.000000	31.331786
1335.000000	31.299833
1336.000000	31.257730
1337.000000	31.214443
1338.000000	31.166797
1339.000000	31.112628
1340.000000	31.073791
1341.000000	31.018258
1342.000000	30.968347
1343.000000	30.915536
1344.000000	30.845996
1345.000000	30.803008
1346.000000	30.747538
1347.000000	30.677664
1348.000000	30.614687
1349.000000	30.573922
1350.000000	30.518173
1351.000000	30.455827
1352.000000	30.392241
1353.000000	30.332904
1354.000000	30.245651
1355.000000	30.161919
1356.000000	30.113061
1357.000000	30.054808
1358.000000	29.989685
1359.000000	29.954166
1360.000000	29.858523
1361.000000	29.720384
1362.000000	29.640356
1363.000000	29.592635
1364.000000	29.500103
1365.000000	29.418287
1366.000000	29.378424
1367.000000	29.280862
1368.000000	29.190613
1369.000000	29.119120
1370.000000	29.003063
1371.000000	28.881999
1372.000000	28.774326
1373.000000	28.695542
1374.000000	28.591540
1375.000000	28.468045
1376.000000	28.360149
1377.000000	28.256494
1378.000000	28.183072
1379.000000	28.086145
1380.000000	27.996435
1381.000000	27.838781
1382.000000	27.717747
1383.000000	27.607528
1384.000000	27.516698
1385.000000	27.440768
1386.000000	27.359116
1387.000000	27.252560
1388.000000	27.124446
1389.000000	27.069051
1390.000000	27.000629
1391.000000	26.904050
1392.000000	26.807677
1393.000000	26.750169
1394.000000	26.670040
1395.000000	26.532180
1396.000000	26.433002
1397.000000	26.382839
1398.000000	26.361649
1399.000000	26.250066
1400.000000	26.083781
1401.000000	25.964019
1402.000000	25.930676
1403.000000	25.810385
1404.000000	25.685795
1405.000000	25.565260
1406.000000	25.455100
1407.000000	25.314698
1408.000000	25.182243
1409.000000	25.035549
1410.000000	24.905359
1411.000000	24.776718
1412.000000	24.683353
1413.000000	24.549951
1414.000000	24.394957
1415.000000	24.286906
1416.000000	24.181862
1417.000000	24.080135
1418.000000	23.969757
1419.000000	23.839028
1420.000000	23.728461
1421.000000	23.636602
1422.000000	23.531179
1423.000000	23.419930
1424.000000	23.324942
1425.000000	23.254164
1426.000000	23.163157
1427.000000	23.080230
1428.000000	22.995477
1429.000000	22.907964
1430.000000	22.848470
1431.000000	22.765070
1432.000000	22.691841
1433.000000	22.618590
1434.000000	22.566169
1435.000000	22.491851
1436.000000	22.441575
1437.000000	22.389259
1438.000000	22.318227
1439.000000	22.266865
1440.000000	22.217882
1441.000000	22.181154
1442.000000	22.126041
1443.000000	22.086268
1444.000000	22.036498
1445.000000	21.976134
1446.000000	21.939145
1447.000000	21.889255
1448.000000	21.862293
1449.000000	21.819820
1450.000000	21.779430
1451.000000	21.742185
1452.000000	21.700810
1453.000000	21.668878
1454.000000	21.640347
1455.000000	21.601890
1456.000000	21.555909
1457.000000	21.516554
1458.000000	21.500854
1459.000000	21.464316
1460.000000	21.424961
1461.000000	21.396886
1462.000000	21.359632
1463.000000	21.332491
1464.000000	21.293303
1465.000000	21.271359
1466.000000	21.229367
1467.000000	21.193395
1468.000000	21.163978
1469.000000	21.132985
1470.000000	21.106626
1471.000000	21.072066
1472.000000	21.050993
1473.000000	21.017481
1474.000000	20.995505
1475.000000	20.961635
1476.000000	20.938203
1477.000000	20.909046
1478.000000	20.881549
1479.000000	20.857471
1480.000000	20.840924
1481.000000	20.814145
1482.000000	20.797938
1483.000000	20.774163
1484.000000	20.758167
1485.000000	20.729230
1486.000000	20.711856
1487.000000	20.709742
1488.000000	20.694836
1489.000000	20.676353
1490.000000	20.663074
1491.000000	20.643850
1492.000000	20.642785
1493.000000	20.622503
1494.000000	20.625348
1495.000000	20.617910
1496.000000	20.621723
1497.000000	20.622027
1498.000000	20.625042
1499.000000	20.628673
1500.000000	20.646996
1501.000000	20.660014
1502.000000	20.659275
1503.000000	20.668975
1504.000000	20.685257
1505.000000	20.708332
1506.000000	20.722621
1507.000000	20.741573
1508.000000	20.765919
1509.000000	20.789492
1510.000000	20.820862
1511.000000	20.839511
1512.000000	20.858505
1513.000000	20.885145
1514.000000	20.909301
1515.000000	20.937275
1516.000000	20.957690
1517.000000	20.983966
1518.000000	21.013517
1519.000000	21.042214
1520.000000	21.064794
1521.000000	21.082082
1522.000000	21.100422
1523.000000	21.128871
1524.000000	21.165054
1525.000000	21.184074
1526.000000	21.198357
1527.000000	21.221803
1528.000000	21.245202
1529.000000	21.267789
1530.000000	21.294610
1531.000000	21.324757
1532.000000	21.339956
1533.000000	21.354967
1534.000000	21.376828
1535.000000	21.400403
1536.000000	21.420145
1537.000000	21.439514
1538.000000	21.464077
1539.000000	21.482436
1540.000000	21.492907
1541.000000	21.522137
1542.000000	21.558902
1543.000000	21.581897
1544.000000	21.604495
1545.000000	21.625462
1546.000000	21.649930
1547.000000	21.678243
1548.000000	21.705273
1549.000000	21.732929
1550.000000	21.752633
1551.000000	21.779198
1552.000000	21.805416
1553.000000	21.824125
1554.000000	21.840951
1555.000000	21.858405
1556.000000	21.879253
1557.000000	21.889081
1558.000000	21.907061
1559.000000	21.921984
1560.000000	21.926922
1561.000000	21.938548
1562.000000	21.937869
1563.000000	21.933516
1564.000000	21.941914
1565.000000	21.940410
1566.000000	21.928630
1567.000000	21.932894
1568.000000	21.931605
1569.000000	21.917408
1570.000000	21.918855
1571.000000	21.916831
1572.000000	21.906028
1573.000000	21.906941
1574.000000	21.905462
1575.000000	21.915168
1576.000000	21.930070
1577.000000	21.931550
1578.000000	21.944340
1579.000000	21.950231
1580.000000	21.957043
1581.000000	21.956489
1582.000000	21.981293
1583.000000	22.001433
1584.000000	22.002870
1585.000000	22.022277
1586.000000	22.046438
1587.000000	22.066175
1588.000000	22.081144
1589.000000	22.102168
1590.000000	22.127117
1591.000000	22.145404
1592.000000	22.167196
1593.000000	22.193870
1594.000000	22.221416
1595.000000	22.258233
1596.000000	22.283183
1597.000000	22.300599
1598.000000	22.331325
1599.000000	22.373921
1600.000000	22.400622
1601.000000	22.430984
1602.000000	22.456637
1603.000000	22.482429
1604.000000	22.511347
1605.000000	22.539933
1606.000000	22.577346
1607.000000	22.588848
1608.000000	22.612825
1609.000000	22.643351
1610.000000	22.680418
1611.000000	22.705158
1612.000000	22.717992
1613.000000	22.735439
1614.000000	22.764229
1615.000000	22.787379
1616.000000	22.811293
1617.000000	22.822935
1618.000000	22.846048
1619.000000	22.865390
1620.000000	22.882459
1621.000000	22.907414
1622.000000	22.936473
1623.000000	22.957571
1624.000000	22.957459
1625.000000	22.973126
1626.000000	22.999033
1627.000000	23.010952
1628.000000	23.015606
1629.000000	23.048495
1630.000000	23.052791
1631.000000	23.073224
1632.000000	23.084756
1633.000000	23.095096
1634.000000	23.108938
1635.000000	23.112387
1636.000000	23.133051
1637.000000	23.140792
1638.000000	23.156085
1639.000000	23.166490
1640.000000	23.171391
1641.000000	23.161111
1642.000000	23.159994
1643.000000	23.175736
1644.000000	23.166517
1645.000000	23.162134
1646.000000	23.171474
1647.000000	23.154382
1648.000000	23.157234
1649.000000	23.145528
1650.000000	23.145878
1651.000000	23.124842
1652.000000	23.110266
1653.000000	23.087748
1654.000000	23.043543
1655.000000	23.025324
1656.000000	22.982310
1657.000000	22.946752
1658.000000	22.909499
1659.000000	22.868524
1660.000000	22.819980
1661.000000	22.766879
1662.000000	22.702273
1663.000000	22.637585
1664.000000	22.580371
1665.000000	22.504413
1666.000000	22.443409
1667.000000	22.392503
1668.000000	22.320214
1669.000000	22.258978
1670.000000	22.187959
1671.000000	22.083777
1672.000000	21.991871
1673.000000	21.911660
1674.000000	21.848287
1675.000000	21.745154
1676.000000	21.647160
1677.000000	21.554881
1678.000000	21.472866
1679.000000	21.384276
1680.000000	21.293039
1681.000000	21.191413
1682.000000	21.105364
1683.000000	21.012675
1684.000000	20.922313
1685.000000	20.831111
1686.000000	20.750996
1687.000000	20.689507
1688.000000	20.610710
1689.000000	20.527892
1690.000000	20.491770
1691.000000	20.434731
1692.000000	20.377223
1693.000000	20.332580
1694.000000	20.292611
1695.000000	20.263941
1696.000000	20.220569
1697.000000	20.168518
1698.000000	20.107221
1699.000000	20.065571
1700.000000	19.996266
1701.000000	19.941365
1702.000000	19.872817
1703.000000	19.808181
1704.000000	19.750739
1705.000000	19.703188
1706.000000	19.637541
1707.000000	19.582333
1708.000000	19.498897
1709.000000	19.427651
1710.000000	19.355331
1711.000000	19.294023
1712.000000	19.205210
1713.000000	19.131977
1714.000000	19.040321
1715.000000	18.954663
1716.000000	18.879308
1717.000000	18.796842
1718.000000	18.732766
1719.000000	18.661437
1720.000000	18.576949
1721.000000	18.531246
1722.000000	18.489132
1723.000000	18.446328
1724.000000	18.429580
1725.000000	18.403231
1726.000000	18.386496
1727.000000	18.384284
1728.000000	18.385697
1729.000000	18.388689
1730.000000	18.421369
1731.000000	18.448399
1732.000000	18.491301
1733.000000	18.552971
1734.000000	18.604145
1735.000000	18.671414
1736.000000	18.728883
1737.000000	18.791818
1738.000000	18.856236
1739.000000	18.934085
1740.000000	18.997428
1741.000000	19.047900
1742.000000	19.110637
1743.000000	19.176336
1744.000000	19.223459
1745.000000	19.262651
1746.000000	19.307509
1747.000000	19.336125
1748.000000	19.373852
1749.000000	19.402420
1750.000000	19.413028
1751.000000	19.425019
1752.000000	19.446745
1753.000000	19.449167
1754.000000	19.456635
1755.000000	19.462940
1756.000000	19.467215
1757.000000	19.500105
1758.000000	19.518259
1759.000000	19.557483
1760.000000	19.570015
1761.000000	19.573336
1762.000000	19.587843
1763.000000	19.610865
1764.000000	19.639554
1765.000000	19.657069
1766.000000	19.689678
1767.000000	19.743435
1768.000000	19.781941
1769.000000	19.832256
1770.000000	19.879518
1771.000000	19.927831
1772.000000	19.972745
1773.000000	20.015944
1774.000000	20.058394
1775.000000	20.098642
1776.000000	20.143224
1777.000000	20.186826
1778.000000	20.219300
1779.000000	20.234108
1780.000000	20.261089
1781.000000	20.294047
1782.000000	20.325933
1783.000000	20.355317
1784.000000	20.377657
1785.000000	20.388624
1786.000000	20.393619
1787.000000	20.418931
1788.000000	20.430123
1789.000000	20.448015
1790.000000	20.476472
1791.000000	20.493002
1792.000000	20.503450
1793.000000	20.508626
1794.000000	20.527003
1795.000000	20.540435
1796.000000	20.549224
1797.000000	20.575952
1798.000000	20.600419
1799.000000	20.618581
1800.000000	20.622221
1801.000000	20.618020
1802.000000	20.642675
1803.000000	20.682794
1804.000000	20.710566
1805.000000	20.722179
1806.000000	20.715205
1807.000000	20.722690
1808.000000	20.756910
1809.000000	20.794458
1810.000000	20.809024
1811.000000	20.809916
1812.000000	20.814132
1813.000000	20.838138
1814.000000	20.864333
1815.000000	20.875190
1816.000000	20.884983
1817.000000	20.922738
1818.000000	20.970122
1819.000000	20.980494
1820.000000	20.941757
1821.000000	20.899790
1822.000000	20.916155
1823.000000	20.991363
1824.000000	21.043407
1825.000000	21.065088
1826.000000	21.072487
1827.000000	21.091855
1828.000000	21.091051
1829.000000	21.096584
1830.000000	21.112735
1831.000000	21.141301
1832.000000	21.206913
1833.000000	21.267242
1834.000000	21.305159
1835.000000	21.312487
1836.000000	21.287001
1837.000000	21.289575
1838.000000	21.317730
1839.000000	21.346199
1840.000000	21.322942
1841.000000	21.295455
1842.000000	21.299789
1843.000000	21.347448
1844.000000	21.441700
1845.000000	21.514055
1846.000000	21.488132
1847.000000	21.407063
1848.000000	21.352628
1849.000000	21.363001
1850.000000	21.417665
1851.000000	21.456269
1852.000000	21.487763
1853.000000	21.489680
1854.000000	21.475407
1855.000000	21.472743
1856.000000	21.481832
1857.000000	21.517719
1858.000000	21.497638
1859.000000	21.456220
1860.000000	21.432056
1861.000000	21.431942
1862.000000	21.437452
1863.000000	21.447817
1864.000000	21.456923
1865.000000	21.473789
1866.000000	21.454803
1867.000000	21.437849
1868.000000	21.407202
1869.000000	21.276395
1870.000000	21.165923
1871.000000	21.091573
1872.000000	20.953705
1873.000000	20.850068
1874.000000	20.734148
1875.000000	20.611903
1876.000000	20.548399
1877.000000	20.453962
1878.000000	20.345531
1879.000000	20.251617
1880.000000	20.171421
1881.000000	20.057048
1882.000000	19.920204
1883.000000	19.780533
1884.000000	19.649656
1885.000000	19.472716
1886.000000	19.338375
1887.000000	19.227348
1888.000000	19.085546
1889.000000	18.903387
1890.000000	18.737279
1891.000000	18.528490
1892.000000	18.301028
1893.000000	18.116935
1894.000000	17.945719
1895.000000	17.816218
1896.000000	17.621467
1897.000000	17.420361
1898.000000	17.152138
1899.000000	16.919001
1900.000000	16.674355
1901.000000	16.449631
1902.000000	16.258991
1903.000000	16.031401
1904.000000	15.849355
1905.000000	15.562264
1906.000000	15.341120
1907.000000	15.150787
1908.000000	15.016630
1909.000000	14.856958
1910.000000	14.711810
1911.000000	14.523064
1912.000000	14.342832
1913.000000	14.169793
1914.000000	13.971032
1915.000000	13.861190
1916.000000	13.781534
1917.000000	13.613523
1918.000000	13.492629
1919.000000	13.361788
1920.000000	13.241843
1921.000000	13.148902
1922.000000	13.067635
1923.000000	12.989850
1924.000000	12.947638
1925.000000	12.841000
1926.000000	12.766601
1927.000000	12.671578
1928.000000	12.608688
1929.000000	12.579347
1930.000000	12.505803
1931.000000	12.493778
1932.000000	12.492261
1933.000000	12.476469
1934.000000	12.464225
1935.000000	12.444353
1936.000000	12.419134
1937.000000	12.434793
1938.000000	12.391419
1939.000000	12.413575
1940.000000	12.389867
1941.000000	12.384704
1942.000000	12.405570
1943.000000	12.411038
1944.000000	12.469479
1945.000000	12.494416
1946.000000	12.532312
1947.000000	12.518535
1948.000000	12.569689
1949.000000	12.604402
1950.000000	12.638909
1951.000000	12.668385
1952.000000	12.709692
1953.000000	12.777442
1954.000000	12.778307
1955.000000	12.857148
1956.000000	12.881087
1957.000000	12.917451
1958.000000	12.952799
1959.000000	12.989552
1960.000000	13.021136
1961.000000	13.051590
1962.000000	13.121185
1963.000000	13.151543
1964.000000	13.200527
1965.000000	13.238519
1966.000000	13.284814
1967.000000	13.318889
1968.000000	13.373388
1969.000000	13.402940
1970.000000	13.454840
1971.000000	13.489473
1972.000000	13.527669
1973.000000	13.554538
1974.000000	13.608074
1975.000000	13.663242
1976.000000	13.707473
1977.000000	13.753275
1978.000000	13.780024
1979.000000	13.820325
1980.000000	13.908096
1981.000000	13.936761
1982.000000	13.977438
1983.000000	14.019997
1984.000000	14.079699
1985.000000	14.122543
1986.000000	14.160432
1987.000000	14.200208
1988.000000	14.276726
1989.000000	14.300310
1990.000000	14.326693
1991.000000	14.355322
1992.000000	14.410577
1993.000000	14.440062
1994.000000	14.502228
1995.000000	14.516928
1996.000000	14.572170
1997.000000	14.597782
1998.000000	14.615062
1999.000000	14.643037
2000.000000	14.652417
2001.000000	14.691152
2002.000000	14.665017
2003.000000	14.678087
2004.000000	14.726285
2005.000000	14.745903
2006.000000	14.748089
2007.000000	14.727637
2008.000000	14.765375
2009.000000	14.776629
2010.000000	14.760134
2011.000000	14.776256
2012.000000	14.739467
2013.000000	14.740441
2014.000000	14.743048
2015.000000	14.728000
2016.000000	14.707064
2017.000000	14.687636
2018.000000	14.679088
2019.000000	14.619770
2020.000000	14.568269
2021.000000	14.526271
2022.000000	14.510434
2023.000000	14.480760
2024.000000	14.434186
2025.000000	14.386978
2026.000000	14.354458
2027.000000	14.309529
2028.000000	14.270114
2029.000000	14.208974
2030.000000	14.152754
2031.000000	14.070163
2032.000000	14.002792
2033.000000	13.917672
2034.000000	13.842359
2035.000000	13.776211
2036.000000	13.729162
2037.000000	13.696917
2038.000000	13.581941
2039.000000	13.442163
2040.000000	13.379816
2041.000000	13.357494
2042.000000	13.319218
2043.000000	13.241633
2044.000000	13.186650
2045.000000	13.087653
2046.000000	13.017315
2047.000000	12.988169
2048.000000	12.935811
2049.000000	12.884554
2050.000000	12.827483
2051.000000	12.763901
2052.000000	12.729403
2053.000000	12.727628
2054.000000	12.740516
2055.000000	12.715032
2056.000000	12.680457
2057.000000	12.668124
2058.000000	12.679910
2059.000000	12.727290
2060.000000	12.747350
2061.000000	12.812199
2062.000000	12.893323
2063.000000	12.860721
2064.000000	12.848147
2065.000000	12.937711
2066.000000	12.984366
2067.000000	13.033850
2068.000000	13.147335
2069.000000	13.228078
2070.000000	13.230295
2071.000000	13.248977
2072.000000	13.339768
2073.000000	13.386666
2074.000000	13.418622
2075.000000	13.532996
2076.000000	13.568031
2077.000000	13.590495
2078.000000	13.662174
2079.000000	13.657145
2080.000000	13.648663
2081.000000	13.723313
2082.000000	13.731454
2083.000000	13.751829
2084.000000	13.754920
2085.000000	13.771692
2086.000000	13.825427
2087.000000	13.892313
2088.000000	13.906333
2089.000000	13.911287
2090.000000	13.884182
2091.000000	13.874236
2092.000000	13.852257
2093.000000	13.872557
2094.000000	13.897411
2095.000000	13.892149
2096.000000	13.827325
2097.000000	13.872099
2098.000000	13.871963
2099.000000	13.907178
2100.000000	13.967144
2101.000000	13.920503
2102.000000	13.895362
2103.000000	13.873323
2104.000000	13.861314
2105.000000	13.932546
2106.000000	13.979839
2107.000000	13.946403
2108.000000	14.010764
2109.000000	13.974275
2110.000000	14.004114
2111.000000	13.994761
2112.000000	13.913551
2113.000000	13.938058
2114.000000	13.905294
2115.000000	13.827144
2116.000000	13.905294
2117.000000	13.951439
2118.000000	13.960194
2119.000000	13.953875
2120.000000	13.983141
2121.000000	13.957239
2122.000000	13.950341
2123.000000	13.877630
2124.000000	13.845737
2125.000000	13.830694
2126.000000	13.769782
2127.000000	13.754546
2128.000000	13.723675
2129.000000	13.737599
2130.000000	13.641363
2131.000000	13.655358
2132.000000	13.716165
2133.000000	13.686433
2134.000000	13.657817
2135.000000	13.519446
2136.000000	13.516387
2137.000000	13.385960
2138.000000	13.325212
2139.000000	13.342348
2140.000000	13.314725
2141.000000	13.283395
2142.000000	13.244309
2143.000000	13.182684
2144.000000	13.075102
2145.000000	13.029060
2146.000000	12.981871
2147.000000	12.833942
2148.000000	12.785529
2149.000000	12.796552
2150.000000	12.648745
2151.000000	12.700636
2152.000000	12.662024
2153.000000	12.550313
2154.000000	12.636961
2155.000000	12.539272
2156.000000	12.429085
2157.000000	12.433555
2158.000000	12.325123
2159.000000	12.306975
2160.000000	12.229722
2161.000000	12.225149
2162.000000	12.222448
2163.000000	12.206450
2164.000000	12.212816
2165.000000	12.175951
2166.000000	12.052975
2167.000000	12.048252
2168.000000	12.050143
2169.000000	11.914924
2170.000000	12.010466
2171.000000	11.979219
2172.000000	11.980537
2173.000000	11.966567
2174.000000	11.943926
2175.000000	11.851218
2176.000000	11.855854
2177.000000	11.993911
2178.000000	11.990007
2179.000000	11.913446
2180.000000	11.941137
2181.000000	11.915210
2182.000000	11.903677
2183.000000	12.042125
2184.000000	11.917882
2185.000000	11.897308
2186.000000	11.953444
2187.000000	11.918369
2188.000000	11.939643
2189.000000	11.867243
2190.000000	11.866704
2191.000000	11.964991
2192.000000	12.005578
2193.000000	12.089576
2194.000000	11.923241
2195.000000	11.953356
2196.000000	11.958097
2197.000000	11.895246
2198.000000	11.966831
2199.000000	11.994365
2200.000000	12.016045
2201.000000	12.120761
2202.000000	12.018260
2203.000000	12.124076
2204.000000	12.027145
2205.000000	12.251358
2206.000000	12.176087
2207.000000	12.204857
2208.000000	11.973602
2209.000000	12.040130
2210.000000	12.201556
2211.000000	12.340525
2212.000000	12.335822
2213.000000	12.339694
2214.000000	12.375703
2215.000000	12.417337
2216.000000	12.314659
2217.000000	12.379553
2218.000000	12.488573
2219.000000	12.364813
2220.000000	12.498003
2221.000000	12.610432
2222.000000	12.749495
2223.000000	12.615694
2224.000000	12.620953
2225.000000	12.714658
2226.000000	12.594837
2227.000000	12.569696
2228.000000	12.592168
2229.000000	12.580267
2230.000000	12.741410
2231.000000	12.737795
2232.000000	12.715852
2233.000000	12.763873
2234.000000	12.698305
2235.000000	12.525387
2236.000000	12.471927
2237.000000	12.544901
2238.000000	12.729668
2239.000000	12.786425
2240.000000	12.766230
2241.000000	12.526165
2242.000000	12.667130
2243.000000	12.591965
2244.000000	12.371158
2245.000000	12.228998
2246.000000	12.263694
2247.000000	12.237671
2248.000000	12.207472
2249.000000	12.051327
2250.000000	12.028946
2251.000000	11.952334
2252.000000	11.932024
2253.000000	11.925326
2254.000000	11.837045
2255.000000	11.674284
2256.000000	11.693496
2257.000000	11.488498
2258.000000	11.458101
2259.000000	11.609347
2260.000000	11.348684
2261.000000	11.188653
2262.000000	11.184847
2263.000000	11.143061
2264.000000	11.085008
2265.000000	11.083003
2266.000000	10.989102
2267.000000	10.936012
2268.000000	10.939777
2269.000000	10.854985
2270.000000	11.041264
2271.000000	10.995211
2272.000000	10.840481
2273.000000	10.866907
2274.000000	10.793129
2275.000000	10.725203
2276.000000	10.678106
2277.000000	10.664613
2278.000000	10.671837
2279.000000	10.666955
2280.000000	10.635261
2281.000000	10.644310
2282.000000	10.719401
2283.000000	10.665333
2284.000000	10.691669
2285.000000	10.673749
2286.000000	10.655945
2287.000000	10.546052
2288.000000	10.577828
2289.000000	10.640983
2290.000000	10.573547
2291.000000	10.625027
2292.000000	10.581124
2293.000000	10.544342
2294.000000	10.433685
2295.000000	10.462912
2296.000000	10.516853
2297.000000	10.444377
2298.000000	10.552136
2299.000000	10.634835
2300.000000	10.597223
2301.000000	10.420795
2302.000000	10.407709
2303.000000	10.348616
2304.000000	10.493225
2305.000000	10.530748
2306.000000	10.461059
2307.000000	10.488839
2308.000000	10.641205
2309.000000	10.623781
2310.000000	10.481478
2311.000000	10.499217
2312.000000	10.588583
2313.000000	10.711341
2314.000000	10.698818
2315.000000	10.667685
2316.000000	10.814464
2317.000000	10.875218
2318.000000	10.946857
2319.000000	11.071625
2320.000000	11.027775
2321.000000	11.026110
2322.000000	11.020114
2323.000000	11.083859
2324.000000	11.246422
2325.000000	11.314254
2326.000000	11.280831
2327.000000	11.337326
2328.000000	11.353701
2329.000000	11.266572
2330.000000	11.324807
2331.000000	11.431055
2332.000000	11.391050
2333.000000	11.394070
2334.000000	11.343797
2335.000000	11.406125
2336.000000	11.530771
2337.000000	11.287311
2338.000000	10.988645
2339.000000	11.165863
2340.000000	11.383902
2341.000000	11.367473
2342.000000	11.334917
2343.000000	11.252152
2344.000000	11.294849
2345.000000	11.384769
2346.000000	11.336385
2347.000000	11.294556
2348.000000	11.374336
2349.000000	11.453446
2350.000000	11.468751
2351.000000	11.456797
2352.000000	11.643437
2353.000000	11.657290
2354.000000	11.522913
2355.000000	11.569388
2356.000000	11.638518
2357.000000	11.924754
2358.000000	11.958924
2359.000000	11.866341
2360.000000	11.709463
2361.000000	11.590546
2362.000000	11.642457
2363.000000	11.764335
2364.000000	11.945503
2365.000000	12.005625
2366.000000	12.340541
2367.000000	12.317033
2368.000000	12.010800
2369.000000	11.942857
2370.000000	11.871690
2371.000000	11.746464
2372.000000	11.837235
2373.000000	11.908106
2374.000000	11.981065
2375.000000	11.752805
2376.000000	11.976538
2377.000000	12.311922
2378.000000	12.506483
2379.000000	12.541189
2380.000000	12.478459
2381.000000	12.530907
2382.000000	12.116446
2383.000000	11.980046
2384.000000	12.087639
2385.000000	12.509942
2386.000000	12.355361
2387.000000	12.175089
2388.000000	12.337931
2389.000000	12.370324
2390.000000	12.464969
2391.000000	12.483638
2392.000000	12.249117
2393.000000	12.081003
2394.000000	12.244471
2395.000000	12.701214
2396.000000	12.500387
2397.000000	12.243903
2398.000000	12.127094
2399.000000	12.580630
2400.000000	12.360988
2401.000000	12.084745
2402.000000	12.442012
2403.000000	12.785508
2404.000000	12.577170
2405.000000	12.678671
2406.000000	12.926153
2407.000000	12.540642
2408.000000	12.595397
2409.000000	12.456966
2410.000000	12.570232
2411.000000	12.532542
2412.000000	12.742090
2413.000000	12.561631
2414.000000	12.589263
2415.000000	12.643066
2416.000000	12.759611
2417.000000	12.941206
2418.000000	12.666268
2419.000000	12.580901
2420.000000	12.771664
2421.000000	12.478620
2422.000000	12.596313
2423.000000	12.586425
2424.000000	12.659766
2425.000000	12.431342
2426.000000	12.834031
2427.000000	12.509206
2428.000000	12.532116
2429.000000	12.472484
2430.000000	12.584860
2431.000000	12.790057
2432.000000	13.002479
2433.000000	12.916592
2434.000000	12.868569
2435.000000	13.007941
2436.000000	13.232769
2437.000000	13.233106
2438.000000	13.070412
2439.000000	12.819946
2440.000000	13.055338
2441.000000	12.980902
2442.000000	12.701266
2443.000000	13.072076
2444.000000	12.787481
2445.000000	13.078031
2446.000000	12.946318
2447.000000	13.131207
2448.000000	13.080354
2449.000000	13.294376
2450.000000	12.789877
2451.000000	12.810731
2452.000000	13.161060
2453.000000	13.548188
2454.000000	13.412522
2455.000000	13.494210
2456.000000	13.956450
2457.000000	14.409242
2458.000000	13.919274
2459.000000	13.592067
2460.000000	13.898686
2461.000000	14.327915
2462.000000	15.370821
2463.000000	14.225092
2464.000000	14.273183
2465.000000	14.363261
2466.000000	14.439903
2467.000000	14.748791
2468.000000	14.872702
2469.000000	14.299876
2470.000000	14.484707
2471.000000	14.499434
2472.000000	15.122362
2473.000000	15.465478
2474.000000	16.483173
2475.000000	16.770201
2476.000000	16.948808
2477.000000	16.520359
2478.000000	16.401214
2479.000000	17.877130
2480.000000	17.539376
2481.000000	18.238090
2482.000000	17.635788
2483.000000	16.966549
2484.000000	19.213959
2485.000000	19.000298
2486.000000	18.301693
2487.000000	18.991918
2488.000000	19.237574
2489.000000	20.118745
2490.000000	18.778080
2491.000000	19.521920
2492.000000	19.421147
2493.000000	21.726140
2494.000000	21.170918
2495.000000	22.226686
2496.000000	22.982361
2497.000000	24.148844
2498.000000	23.478319
2499.000000	22.886699
2500.000000	22.703425
2501.000000	nan
2502.000000	nan
2503.000000	nan
2504.000000	nan
2505.000000	nan
2506.000000	nan
2507.000000	nan
2508.000000	nan
2509.000000	nan
2510.000000	nan
2511.000000	nan
2512.000000	nan
2513.000000	nan
2514.000000	nan
2515.000000	nan
2516.000000	nan
2517.000000	nan
2518.000000	nan
2519.000000	nan
2520.000000	nan
2521.000000	nan
2522.000000	nan
2523.000000	nan
2524.000000	nan
2525.000000	nan
2526.000000	nan
2527.000000	nan
2528.000000	nan
2529.000000	nan
2530.000000	nan
2531.000000	nan
2532.000000	nan
2533.000000	nan
2534.000000	nan
2535.000000	nan
2536.000000	nan
2537.000000	nan
2538.000000	nan
2539.000000	nan
2540.000000	nan
2541.000000	nan
2542.000000	nan
2543.000000	nan
2544.000000	nan
2545.000000	nan
2546.000000	nan
2547.000000	nan
2548.000000	nan
2549.000000	nan
2550.000000	nan
2551.000000	nan
2552.000000	nan
2553.000000	nan
2554.000000	nan
2555.000000	nan
2556.000000	nan
2557.000000	nan
2558.000000	nan
2559.000000	nan
2560.000000	nan
2561.000000	nan
2562.000000	nan
2563.000000	nan
2564.000000	nan
2565.000000	nan
2566.000000	nan
2567.000000	nan
2568.000000	nan
2569.000000	nan
2570.000000	nan
2571.000000	nan
2572.000000	nan
2573.000000	nan
2574.000000	nan
2575.000000	nan
2576.000000	nan
2577.000000	nan
2578.000000	nan
2579.000000	nan
2580.000000	nan
2581.000000	nan
2582.000000	nan
2583.000000	nan
2584.000000	nan
2585.000000	nan
2586.000000	nan
2587.000000	nan
2588.000000	nan
2589.000000	nan
2590.000000	nan
2591.000000	nan
2592.000000	nan
2593.000000	nan
2594.000000	nan
2595.000000	nan
2596.000000	nan
2597.000000	nan
2598.000000	nan
2599.000000	nan
2600.000000	nan
2601.000000	nan
2602.000000	nan
2603.000000	nan
2604.000000	nan
2605.000000	nan
2606.000000	nan
2607.000000	nan
2608.000000	nan
2609.000000	nan
2610.000000	nan
2611.000000	nan
2612.000000	nan
2613.000000	nan
2614.000000	nan
2615.000000	nan
2616.000000	nan
2617.000000	nan
2618.000000	nan
2619.000000	nan
2620.000000	nan
2621.000000	nan
2622.000000	nan
2623.000000	nan
2624.000000	nan
2625.000000	nan
2626.000000	nan
2627.000000	nan
2628.000000	nan
2629.000000	nan
2630.000000	nan
2631.000000	nan
2632.000000	nan
2633.000000	nan
2634.000000	nan
2635.000000	nan
2636.000000	nan
2637.000000	nan
2638.000000	nan
2639.000000	nan
2640.000000	nan
2641.000000	nan
2642.000000	nan
2643.000000	nan
2644.000000	nan
2645.000000	nan
2646.000000	nan
2647.000000	nan
2648.000000	nan
2649.000000	nan
2650.000000	nan
2651.000000	nan
2652.000000	nan
2653.000000	nan
2654.000000	nan
2655.000000	nan
2656.000000	nan
2657.000000	nan
2658.000000	nan
2659.000000	nan
2660.000000	nan
2661.000000	nan
2662.000000	nan
2663.000000	nan
2664.000000	nan
2665.000000	nan
2666.000000	nan
2667.000000	nan
2668.000000	nan
2669.000000	nan
2670.000000	nan
2671.000000	nan
2672.000000	nan
2673.000000	nan
2674.000000	nan
2675.000000	nan
2676.000000	nan
2677.000000	nan
2678.000000	nan
2679.000000	nan
2680.000000	nan
2681.000000	nan
2682.000000	nan
2683.000000	nan
2684.000000	nan
2685.000000	nan
2686.000000	nan
2687.000000	nan
2688.000000	nan
2689.000000	nan
2690.000000	nan
2691.000000	nan
2692.000000	nan
2693.000000	nan
2694.000000	nan
2695.000000	nan
2696.000000	nan
2697.000000	nan
2698.000000	nan
2699.000000	nan
2700.000000	nan
2701.000000	nan
2702.000000	nan
2703.000000	nan
2704.000000	nan
2705.000000	nan
2706.000000	nan
2707.000000	nan
2708.000000	nan
2709.000000	nan
2710.000000	nan
2711.000000	nan
2712.000000	nan
2713.000000	nan
2714.000000	nan
2715.000000	nan
2716.000000	nan
2717.000000	nan
2718.000000	nan
2719.000000	nan
2720.000000	nan
2721.000000	nan
2722.000000	nan
2723.000000	nan
2724.000000	nan
2725.000000	nan
2726.000000	nan
2727.000000	nan
2728.000000	nan
2729.000000	nan
2730.000000	nan
2731.000000	nan
2732.000000	nan
2733.000000	nan
2734.000000	nan
2735.000000	nan
2736.000000	nan
2737.000000	nan
2738.000000	nan
2739.000000	nan
2740.000000	nan
2741.000000	nan
2742.000000	nan
2743.000000	nan
2744.000000	nan
2745.000000	nan
2746.000000	nan
2747.000000	nan
2748.000000	nan
2749.000000	nan
2750.000000	nan
2751.000000	nan
2752.000000	nan
2753.000000	nan
2754.000000	nan
2755.000000	nan
2756.000000	nan
2757.000000	nan
2758.000000	nan
2759.000000	nan
2760.000000	nan
2761.000000	nan
2762.000000	nan
2763.000000	nan
2764.000000	nan
2765.000000	nan
2766.000000	nan
2767.000000	nan
2768.000000	nan
2769.000000	nan
2770.000000	nan
2771.000000	nan
2772.000000	nan
2773.000000	nan
2774.000000	nan
2775.000000	nan
2776.000000	nan
2777.000000	nan
2778.000000	nan
2779.000000	nan
2780.000000	nan
2781.000000	nan
2782.000000	nan
2783.000000	nan
2784.000000	nan
2785.000000	nan
2786.000000	nan
2787.000000	nan
2788.000000	nan
2789.000000	nan
2790.000000	nan
2791.000000	nan
2792.000000	nan
2793.000000	nan
2794.000000	nan
2795.000000	nan
2796.000000	nan
2797.000000	nan
2798.000000	nan
2799.000000	nan
2800.000000	nan
2801.000000	nan
2802.000000	nan
2803.000000	nan
2804.000000	nan
2805.000000	nan
2806.000000	nan
2807.000000	nan
2808.000000	nan
2809.000000	nan
2810.000000	nan
2811.000000	nan
2812.000000	nan
2813.000000	nan
2814.000000	nan
2815.000000	nan
2816.000000	nan
2817.000000	nan
2818.000000	nan
2819.000000	nan
2820.000000	nan
2821.000000	nan
2822.000000	nan
2823.000000	nan
2824.000000	nan
2825.000000	nan
2826.000000	nan
2827.000000	nan
2828.000000	nan
2829.000000	nan
2830.000000	nan
2831.000000	nan
2832.000000	nan
2833.000000	nan
2834.000000	nan
2835.000000	nan
2836.000000	nan
2837.000000	nan
2838.000000	nan
2839.000000	nan
2840.000000	nan
2841.000000	nan
2842.000000	nan
2843.000000	nan
2844.000000	nan
2845.000000	nan
2846.000000	nan
2847.000000	nan
2848.000000	nan
2849.000000	nan
2850.000000	nan
2851.000000	nan
2852.000000	nan
2853.000000	nan
2854.000000	nan
2855.000000	nan
2856.000000	nan
2857.000000	nan
2858.000000	nan
2859.000000	nan
2860.000000	nan
2861.000000	nan
2862.000000	nan
2863.000000	nan
2864.000000	nan
2865.000000	nan
2866.000000	nan
2867.000000	nan
2868.000000	nan
2869.000000	nan
2870.000000	nan
2871.000000	nan
2872.000000	nan
2873.000000	nan
2874.000000	nan
2875.000000	nan
2876.000000	nan
2877.000000	nan
2878.000000	nan
2879.000000	nan
2880.000000	nan
2881.000000	nan
2882.000000	nan
2883.000000	nan
2884.000000	nan
2885.000000	nan
2886.000000	nan
2887.000000	nan
2888.000000	nan
2889.000000	nan
2890.000000	nan
2891.000000	nan
2892.000000	nan
2893.000000	nan
2894.000000	nan
2895.000000	nan
2896.000000	nan
2897.000000	nan
2898.000000	nan
2899.000000	nan
2900.000000	nan
2901.000000	nan
2902.000000	nan
2903.000000	nan
2904.000000	nan
2905.000000	nan
2906.000000	nan
2907.000000	nan
2908.000000	nan
2909.000000	nan
2910.000000	nan
2911.000000	nan
2912.000000	nan
2913.000000	nan
2914.000000	nan
2915.000000	nan
2916.000000	nan
2917.000000	nan
2918.000000	nan
2919.000000	nan
2920.000000	nan
2921.000000	nan
2922.000000	nan
2923.000000	nan
2924.000000	nan
2925.000000	nan
2926.000000	nan
2927.000000	nan
2928.000000	nan
2929.000000	nan
2930.000000	nan
2931.000000	nan
2932.000000	nan
2933.000000	nan
2934.000000	nan
2935.000000	nan
2936.000000	nan
2937.000000	nan
2938.000000	nan
2939.000000	nan
2940.000000	nan
2941.000000	nan
2942.000000	nan
2943.000000	nan
2944.000000	nan
2945.000000	nan
2946.000000	nan
2947.000000	nan
2948.000000	nan
2949.000000	nan
2950.000000	nan
2951.000000	nan
2952.000000	nan
2953.000000	nan
2954.000000	nan
2955.000000	nan
2956.000000	nan
2957.000000	nan
2958.000000	nan
2959.000000	nan
2960.000000	nan
2961.000000	nan
2962.000000	nan
2963.000000	nan
2964.000000	nan
2965.000000	nan
2966.000000	nan
2967.000000	nan
2968.000000	nan
2969.000000	nan
2970.000000	nan
2971.000000	nan
2972.000000	nan
2973.000000	nan
2974.000000	nan
2975.000000	nan
2976.000000	nan
2977.000000	nan
2978.000000	nan
2979.000000	nan
2980.000000	nan
2981.000000	nan
2982.000000	nan
2983.000000	nan
2984.000000	nan
2985.000000	nan
2986.000000	nan
2987.000000	nan
2988.000000	nan
2989.000000	nan
2990.000000	nan
2991.000000	nan
2992.000000	nan
2993.000000	nan
2994.000000	nan
2995.000000	nan
2996.000000	nan
2997.000000	nan
2998.000000	nan
2999.000000	nan
3000.000000	nan
