PE UV       SUBTECH     SPECTRUM    ASCII       PEDS        4.00        
   -1
INBUCR0222-4.Sample.ASC
24/02/08
10:24:55.00
24/02/08
10:24:55.00
Vinicio Soto Monge
C. batesi Det: A Solís COSTA RICA INBIOCRI002430774 Est. Cuerici, Sendero al Mirador, 4,6 km al E. de Villa Mills, San José, Costa Rica, 2640 m 17-22 Mar 1996. A Picado, de Luz L_S_389700_499600 #7026
250,000000
1
Lambda 1050
1050L1511233
PerkinElmer UV WinLab 6.3.2.0749 / 2.02.05 Lambda 900 UV/VIS/NIR, Aug  7 2015 09:38:08

0
0
3350/servo 860,8/2
0
0
UV/VIS
1
1
1
DoubleDePol,CommonBeamDepol,RBeamAtt,SBeamAtt,60mm sphere, WB InGaAs Detector
0
0
0
0
Program
Program
3350/servo 860,8/2
3350/0,2 860,8/0,2
3350/0,2 860,8/0,2
0
15.00
 
 
 
0
 
860,8
319,2
860,8
Front
100
on
S:100 R:100
0
0
0
0
 
0
 
 
 
0
 
 
0
0
0
0
0
 
 
 
 
0
0


0
0
#HDR
-1
-1
#GR
nm
%R
1.0
0.0
2500,000000
-1,000000
2251
8
12,467900
1,252400
#DATA

250.000000	3.148709
251.000000	3.128666
252.000000	3.092074
253.000000	3.117506
254.000000	3.082075
255.000000	3.087702
256.000000	3.064872
257.000000	3.061689
258.000000	3.027141
259.000000	3.024954
260.000000	3.020260
261.000000	3.012824
262.000000	2.991868
263.000000	2.968628
264.000000	2.963075
265.000000	2.943084
266.000000	2.941959
267.000000	2.906124
268.000000	2.916608
269.000000	2.890679
270.000000	2.903111
271.000000	2.866737
272.000000	2.867663
273.000000	2.871002
274.000000	2.844145
275.000000	2.836439
276.000000	2.836712
277.000000	2.821809
278.000000	2.825945
279.000000	2.807295
280.000000	2.836941
281.000000	2.822562
282.000000	2.802559
283.000000	2.822606
284.000000	2.803310
285.000000	2.775203
286.000000	2.809209
287.000000	2.808926
288.000000	2.807945
289.000000	2.806644
290.000000	2.798097
291.000000	2.789888
292.000000	2.795713
293.000000	2.800416
294.000000	2.774969
295.000000	2.792797
296.000000	2.784452
297.000000	2.795518
298.000000	2.783342
299.000000	2.769167
300.000000	2.763425
301.000000	2.808041
302.000000	2.767824
303.000000	2.768103
304.000000	2.743169
305.000000	2.738129
306.000000	2.726541
307.000000	2.742948
308.000000	2.748621
309.000000	2.683698
310.000000	2.695825
311.000000	2.732688
312.000000	2.746621
313.000000	2.743898
314.000000	2.735594
315.000000	2.722673
316.000000	2.716618
317.000000	2.699035
318.000000	2.767821
319.000000	2.809858
320.000000	2.607526
321.000000	2.743527
322.000000	2.724366
323.000000	2.757843
324.000000	2.762009
325.000000	2.791374
326.000000	2.672893
327.000000	2.680909
328.000000	2.678437
329.000000	2.690433
330.000000	2.724333
331.000000	2.668302
332.000000	2.735074
333.000000	2.761523
334.000000	2.726102
335.000000	2.713727
336.000000	2.692889
337.000000	2.714436
338.000000	2.713948
339.000000	2.727017
340.000000	2.721969
341.000000	2.700546
342.000000	2.697617
343.000000	2.721316
344.000000	2.710194
345.000000	2.772671
346.000000	2.759466
347.000000	2.723298
348.000000	2.729088
349.000000	2.752040
350.000000	2.754002
351.000000	2.742214
352.000000	2.744071
353.000000	2.788388
354.000000	2.777796
355.000000	2.786275
356.000000	2.777935
357.000000	2.800954
358.000000	2.779683
359.000000	2.792090
360.000000	2.767465
361.000000	2.786981
362.000000	2.812928
363.000000	2.842220
364.000000	2.807613
365.000000	2.824229
366.000000	2.836631
367.000000	2.835149
368.000000	2.865790
369.000000	2.849278
370.000000	2.869921
371.000000	2.923318
372.000000	2.949731
373.000000	2.940732
374.000000	2.953220
375.000000	2.989862
376.000000	3.080618
377.000000	3.118494
378.000000	3.155625
379.000000	3.199487
380.000000	3.241929
381.000000	3.301376
382.000000	3.369565
383.000000	3.436674
384.000000	3.519173
385.000000	3.612106
386.000000	3.718322
387.000000	3.832739
388.000000	3.962606
389.000000	4.108148
390.000000	4.263873
391.000000	4.438265
392.000000	4.639526
393.000000	4.855032
394.000000	5.083165
395.000000	5.341817
396.000000	5.608149
397.000000	5.891428
398.000000	6.200152
399.000000	6.526077
400.000000	6.866530
401.000000	7.221355
402.000000	7.591005
403.000000	7.976370
404.000000	8.372180
405.000000	8.769584
406.000000	9.158868
407.000000	9.561876
408.000000	9.976329
409.000000	10.379519
410.000000	10.778165
411.000000	11.168321
412.000000	11.544304
413.000000	11.921327
414.000000	12.282943
415.000000	12.610903
416.000000	12.939946
417.000000	13.262638
418.000000	13.558929
419.000000	13.841990
420.000000	14.106185
421.000000	14.356975
422.000000	14.592856
423.000000	14.806606
424.000000	15.009854
425.000000	15.202915
426.000000	15.379053
427.000000	15.542282
428.000000	15.677039
429.000000	15.805140
430.000000	15.922837
431.000000	16.011995
432.000000	16.106086
433.000000	16.196545
434.000000	16.253912
435.000000	16.298147
436.000000	16.337444
437.000000	16.360843
438.000000	16.368364
439.000000	16.365454
440.000000	16.348047
441.000000	16.315419
442.000000	16.257611
443.000000	16.201093
444.000000	16.125194
445.000000	16.028989
446.000000	15.916183
447.000000	15.786055
448.000000	15.654742
449.000000	15.501733
450.000000	15.332185
451.000000	15.148461
452.000000	14.962917
453.000000	14.747092
454.000000	14.513040
455.000000	14.274774
456.000000	14.013763
457.000000	13.745098
458.000000	13.469691
459.000000	13.173186
460.000000	12.860865
461.000000	12.541441
462.000000	12.225251
463.000000	11.914135
464.000000	11.596169
465.000000	11.295916
466.000000	11.012102
467.000000	10.751388
468.000000	10.516764
469.000000	10.306318
470.000000	10.132084
471.000000	9.994387
472.000000	9.898573
473.000000	9.845568
474.000000	9.823390
475.000000	9.843353
476.000000	9.897944
477.000000	9.990179
478.000000	10.108147
479.000000	10.250270
480.000000	10.422033
481.000000	10.603284
482.000000	10.786136
483.000000	10.954967
484.000000	11.107603
485.000000	11.251348
486.000000	11.378672
487.000000	11.496747
488.000000	11.600079
489.000000	11.691795
490.000000	11.779046
491.000000	11.854236
492.000000	11.911684
493.000000	11.964659
494.000000	11.999805
495.000000	12.016330
496.000000	12.020314
497.000000	12.000302
498.000000	11.977205
499.000000	11.970244
500.000000	11.984172
501.000000	12.029349
502.000000	12.127428
503.000000	12.281149
504.000000	12.486369
505.000000	12.745705
506.000000	13.038757
507.000000	13.374108
508.000000	13.750609
509.000000	14.190547
510.000000	14.708732
511.000000	15.303501
512.000000	15.998009
513.000000	16.737164
514.000000	17.487055
515.000000	18.186575
516.000000	18.780311
517.000000	19.274247
518.000000	19.656038
519.000000	19.944560
520.000000	20.161564
521.000000	20.331494
522.000000	20.467361
523.000000	20.575234
524.000000	20.673434
525.000000	20.763086
526.000000	20.854638
527.000000	20.954856
528.000000	21.063828
529.000000	21.174294
530.000000	21.298482
531.000000	21.422187
532.000000	21.543609
533.000000	21.655640
534.000000	21.759959
535.000000	21.858317
536.000000	21.944483
537.000000	22.012756
538.000000	22.074450
539.000000	22.116672
540.000000	22.149159
541.000000	22.166837
542.000000	22.181843
543.000000	22.200018
544.000000	22.223398
545.000000	22.230993
546.000000	22.242387
547.000000	22.249868
548.000000	22.258401
549.000000	22.254154
550.000000	22.239543
551.000000	22.228282
552.000000	22.209525
553.000000	22.207412
554.000000	22.189012
555.000000	22.172342
556.000000	22.153622
557.000000	22.130470
558.000000	22.082308
559.000000	22.036832
560.000000	22.142359
561.000000	22.115765
562.000000	22.059767
563.000000	22.004913
564.000000	21.920727
565.000000	21.829858
566.000000	21.708037
567.000000	21.575627
568.000000	21.409769
569.000000	21.246924
570.000000	21.100585
571.000000	20.981255
572.000000	20.892626
573.000000	20.847216
574.000000	20.831847
575.000000	20.822342
576.000000	20.800577
577.000000	20.731422
578.000000	20.638562
579.000000	20.466536
580.000000	20.238056
581.000000	19.961456
582.000000	19.661366
583.000000	19.418428
584.000000	19.212958
585.000000	19.125751
586.000000	19.147687
587.000000	19.257450
588.000000	19.408013
589.000000	19.559185
590.000000	19.667270
591.000000	19.738153
592.000000	19.736633
593.000000	19.665660
594.000000	19.500765
595.000000	19.301032
596.000000	19.055642
597.000000	18.813932
598.000000	18.607459
599.000000	18.474347
600.000000	18.440359
601.000000	18.501303
602.000000	18.618162
603.000000	18.785440
604.000000	18.951583
605.000000	19.071326
606.000000	19.119182
607.000000	19.087891
608.000000	18.970307
609.000000	18.781428
610.000000	18.519263
611.000000	18.227614
612.000000	17.964975
613.000000	17.762442
614.000000	17.622140
615.000000	17.611140
616.000000	17.691146
617.000000	17.857123
618.000000	18.053153
619.000000	18.231091
620.000000	18.396167
621.000000	18.471958
622.000000	18.478065
623.000000	18.430396
624.000000	18.295176
625.000000	18.143064
626.000000	17.965040
627.000000	17.791228
628.000000	17.664206
629.000000	17.597994
630.000000	17.604213
631.000000	17.662825
632.000000	17.786125
633.000000	17.960133
634.000000	18.117563
635.000000	18.245100
636.000000	18.336308
637.000000	18.360336
638.000000	18.335943
639.000000	18.243998
640.000000	18.110440
641.000000	17.955623
642.000000	17.794902
643.000000	17.665593
644.000000	17.572920
645.000000	17.524325
646.000000	17.535148
647.000000	17.591846
648.000000	17.694774
649.000000	17.807591
650.000000	17.926065
651.000000	18.012857
652.000000	18.038978
653.000000	18.036532
654.000000	17.964226
655.000000	17.858248
656.000000	17.729925
657.000000	17.570409
658.000000	17.442648
659.000000	17.328180
660.000000	17.261946
661.000000	17.254073
662.000000	17.260563
663.000000	17.326482
664.000000	17.446497
665.000000	17.578059
666.000000	17.713682
667.000000	17.845556
668.000000	17.933013
669.000000	17.973083
670.000000	17.976025
671.000000	17.959440
672.000000	17.917166
673.000000	17.856251
674.000000	17.792695
675.000000	17.746208
676.000000	17.734617
677.000000	17.756281
678.000000	17.786303
679.000000	17.836177
680.000000	17.923140
681.000000	18.023200
682.000000	18.120181
683.000000	18.212432
684.000000	18.278864
685.000000	18.319601
686.000000	18.339187
687.000000	18.308665
688.000000	18.269795
689.000000	18.247065
690.000000	18.228986
691.000000	18.242508
692.000000	18.268406
693.000000	18.339864
694.000000	18.423017
695.000000	18.523504
696.000000	18.630122
697.000000	18.757096
698.000000	18.899092
699.000000	19.014878
700.000000	19.123798
701.000000	19.206174
702.000000	19.275007
703.000000	19.309138
704.000000	19.334800
705.000000	19.351558
706.000000	19.347355
707.000000	19.361554
708.000000	19.386040
709.000000	19.394640
710.000000	19.423235
711.000000	19.455250
712.000000	19.479047
713.000000	19.521502
714.000000	19.562698
715.000000	19.635197
716.000000	19.719580
717.000000	19.784211
718.000000	19.872364
719.000000	19.967360
720.000000	20.028205
721.000000	20.082503
722.000000	20.148867
723.000000	20.218922
724.000000	20.270606
725.000000	20.330059
726.000000	20.429759
727.000000	20.522598
728.000000	20.621533
729.000000	20.741667
730.000000	20.866202
731.000000	20.978057
732.000000	21.107918
733.000000	21.267383
734.000000	21.407019
735.000000	21.541634
736.000000	21.653323
737.000000	21.726700
738.000000	21.797117
739.000000	21.849710
740.000000	21.879368
741.000000	21.900340
742.000000	21.913658
743.000000	21.938689
744.000000	21.941928
745.000000	21.968143
746.000000	22.018290
747.000000	22.042535
748.000000	22.090629
749.000000	22.150213
750.000000	22.196141
751.000000	22.233955
752.000000	22.264216
753.000000	22.312311
754.000000	22.325358
755.000000	22.365043
756.000000	22.377413
757.000000	22.386980
758.000000	22.408273
759.000000	22.438286
760.000000	22.454328
761.000000	22.494682
762.000000	22.566391
763.000000	22.635470
764.000000	22.714686
765.000000	22.798549
766.000000	22.918530
767.000000	23.013459
768.000000	23.142052
769.000000	23.207174
770.000000	23.326369
771.000000	23.448605
772.000000	23.567333
773.000000	23.676367
774.000000	23.821522
775.000000	23.934450
776.000000	24.029376
777.000000	24.166944
778.000000	24.262875
779.000000	24.375065
780.000000	24.487804
781.000000	24.576544
782.000000	24.680983
783.000000	24.788968
784.000000	24.878788
785.000000	24.972931
786.000000	25.027034
787.000000	25.125092
788.000000	25.185588
789.000000	25.280893
790.000000	25.380037
791.000000	25.440320
792.000000	25.506631
793.000000	25.589432
794.000000	25.664794
795.000000	25.752218
796.000000	25.783239
797.000000	25.795331
798.000000	25.817668
799.000000	25.818042
800.000000	25.867731
801.000000	25.909793
802.000000	25.920717
803.000000	25.957466
804.000000	26.000447
805.000000	26.050311
806.000000	26.106956
807.000000	26.127879
808.000000	26.141255
809.000000	26.174661
810.000000	26.206061
811.000000	26.232122
812.000000	26.265736
813.000000	26.256471
814.000000	26.239358
815.000000	26.286334
816.000000	26.281217
817.000000	26.272482
818.000000	26.273744
819.000000	26.274257
820.000000	26.276705
821.000000	26.225774
822.000000	26.249929
823.000000	26.266626
824.000000	26.282300
825.000000	26.266276
826.000000	26.246068
827.000000	26.265496
828.000000	26.309849
829.000000	26.254985
830.000000	26.206217
831.000000	26.068735
832.000000	26.092446
833.000000	26.111362
834.000000	26.038311
835.000000	25.967732
836.000000	25.914218
837.000000	25.934115
838.000000	25.868637
839.000000	25.822688
840.000000	25.708121
841.000000	25.734900
842.000000	25.629985
843.000000	25.557576
844.000000	25.539754
845.000000	25.457149
846.000000	25.371423
847.000000	25.379786
848.000000	25.133758
849.000000	25.100196
850.000000	24.996093
851.000000	25.059923
852.000000	24.838847
853.000000	24.942333
854.000000	24.648243
855.000000	24.731377
856.000000	24.389719
857.000000	23.971021
858.000000	25.949438
859.000000	24.581974
860.000000	24.372934
861.000000	24.026342
862.000000	23.845539
863.000000	23.652475
864.000000	23.753861
865.000000	23.469063
866.000000	23.198484
867.000000	23.510236
868.000000	23.385322
869.000000	23.014829
870.000000	22.773287
871.000000	22.835595
872.000000	22.431622
873.000000	22.371476
874.000000	22.481973
875.000000	22.258838
876.000000	22.128737
877.000000	21.881894
878.000000	21.701289
879.000000	21.759831
880.000000	21.818481
881.000000	21.714541
882.000000	21.672605
883.000000	21.363219
884.000000	21.224217
885.000000	21.087602
886.000000	20.949122
887.000000	20.958750
888.000000	20.880797
889.000000	20.658571
890.000000	20.794841
891.000000	20.627838
892.000000	20.486895
893.000000	20.346835
894.000000	20.209655
895.000000	20.208742
896.000000	19.996062
897.000000	20.159742
898.000000	20.087685
899.000000	19.844671
900.000000	19.745446
901.000000	19.837909
902.000000	19.572479
903.000000	19.695987
904.000000	19.585402
905.000000	19.669829
906.000000	19.595183
907.000000	19.437978
908.000000	19.431454
909.000000	19.419657
910.000000	19.252190
911.000000	19.238738
912.000000	19.340450
913.000000	19.321142
914.000000	19.266551
915.000000	19.248472
916.000000	19.319957
917.000000	19.206527
918.000000	19.207494
919.000000	19.212113
920.000000	19.153491
921.000000	19.259642
922.000000	19.268342
923.000000	19.310619
924.000000	19.288026
925.000000	19.283901
926.000000	19.349407
927.000000	19.296520
928.000000	19.324594
929.000000	19.417416
930.000000	19.442867
931.000000	19.414794
932.000000	19.435509
933.000000	19.417244
934.000000	19.471034
935.000000	19.530894
936.000000	19.583805
937.000000	19.551997
938.000000	19.530825
939.000000	19.563201
940.000000	19.628314
941.000000	19.694463
942.000000	19.703522
943.000000	19.720712
944.000000	19.738996
945.000000	19.794458
946.000000	19.853112
947.000000	19.869475
948.000000	19.909485
949.000000	19.926953
950.000000	20.017322
951.000000	20.037974
952.000000	20.092117
953.000000	20.106921
954.000000	20.104267
955.000000	20.167430
956.000000	20.231029
957.000000	20.274297
958.000000	20.314281
959.000000	20.359572
960.000000	20.418332
961.000000	20.457010
962.000000	20.495077
963.000000	20.532519
964.000000	20.585095
965.000000	20.630408
966.000000	20.695214
967.000000	20.728058
968.000000	20.785184
969.000000	20.835708
970.000000	20.870900
971.000000	20.923093
972.000000	20.974251
973.000000	21.012201
974.000000	21.046223
975.000000	21.102302
976.000000	21.155539
977.000000	21.203019
978.000000	21.254668
979.000000	21.305023
980.000000	21.356615
981.000000	21.404388
982.000000	21.425350
983.000000	21.473028
984.000000	21.547780
985.000000	21.600726
986.000000	21.644213
987.000000	21.697920
988.000000	21.745481
989.000000	21.787912
990.000000	21.840498
991.000000	21.892724
992.000000	21.948988
993.000000	22.000190
994.000000	22.040059
995.000000	22.082216
996.000000	22.120947
997.000000	22.173980
998.000000	22.241775
999.000000	22.297706
1000.000000	22.325836
1001.000000	22.374867
1002.000000	22.431223
1003.000000	22.490560
1004.000000	22.539963
1005.000000	22.586688
1006.000000	22.625937
1007.000000	22.680273
1008.000000	22.740345
1009.000000	22.776523
1010.000000	22.817686
1011.000000	22.869215
1012.000000	22.921096
1013.000000	22.969859
1014.000000	23.011896
1015.000000	23.042843
1016.000000	23.092788
1017.000000	23.150679
1018.000000	23.199900
1019.000000	23.261998
1020.000000	23.321890
1021.000000	23.380902
1022.000000	23.426097
1023.000000	23.471854
1024.000000	23.520050
1025.000000	23.570926
1026.000000	23.629862
1027.000000	23.690543
1028.000000	23.738787
1029.000000	23.780236
1030.000000	23.811438
1031.000000	23.852636
1032.000000	23.908763
1033.000000	23.970237
1034.000000	24.018888
1035.000000	24.068414
1036.000000	24.116918
1037.000000	24.155514
1038.000000	24.204434
1039.000000	24.246881
1040.000000	24.298534
1041.000000	24.350658
1042.000000	24.402139
1043.000000	24.448862
1044.000000	24.491008
1045.000000	24.537300
1046.000000	24.591649
1047.000000	24.642067
1048.000000	24.682112
1049.000000	24.727601
1050.000000	24.778852
1051.000000	24.829252
1052.000000	24.864002
1053.000000	24.900536
1054.000000	24.943399
1055.000000	25.000468
1056.000000	25.063311
1057.000000	25.094204
1058.000000	25.138371
1059.000000	25.186881
1060.000000	25.246604
1061.000000	25.305142
1062.000000	25.339308
1063.000000	25.380923
1064.000000	25.438249
1065.000000	25.492732
1066.000000	25.537221
1067.000000	25.568552
1068.000000	25.616942
1069.000000	25.658225
1070.000000	25.689774
1071.000000	25.724637
1072.000000	25.755191
1073.000000	25.802415
1074.000000	25.866416
1075.000000	25.899550
1076.000000	25.935062
1077.000000	25.961710
1078.000000	26.021646
1079.000000	26.074076
1080.000000	26.115400
1081.000000	26.150576
1082.000000	26.182112
1083.000000	26.215749
1084.000000	26.254431
1085.000000	26.304293
1086.000000	26.335860
1087.000000	26.381013
1088.000000	26.428334
1089.000000	26.481866
1090.000000	26.490341
1091.000000	26.540691
1092.000000	26.579914
1093.000000	26.624503
1094.000000	26.656470
1095.000000	26.681303
1096.000000	26.735128
1097.000000	26.782509
1098.000000	26.816235
1099.000000	26.841665
1100.000000	26.852239
1101.000000	26.902055
1102.000000	26.941743
1103.000000	26.970224
1104.000000	27.012930
1105.000000	27.040061
1106.000000	27.077754
1107.000000	27.117877
1108.000000	27.148671
1109.000000	27.179175
1110.000000	27.222577
1111.000000	27.248803
1112.000000	27.301603
1113.000000	27.330581
1114.000000	27.347515
1115.000000	27.370623
1116.000000	27.424228
1117.000000	27.454321
1118.000000	27.467896
1119.000000	27.500536
1120.000000	27.532440
1121.000000	27.561470
1122.000000	27.570107
1123.000000	27.586789
1124.000000	27.603469
1125.000000	27.633650
1126.000000	27.637553
1127.000000	27.643395
1128.000000	27.645044
1129.000000	27.659264
1130.000000	27.667273
1131.000000	27.694655
1132.000000	27.721357
1133.000000	27.729190
1134.000000	27.716159
1135.000000	27.721678
1136.000000	27.712826
1137.000000	27.710178
1138.000000	27.715633
1139.000000	27.742120
1140.000000	27.745241
1141.000000	27.732703
1142.000000	27.743399
1143.000000	27.748788
1144.000000	27.762222
1145.000000	27.759278
1146.000000	27.760337
1147.000000	27.759896
1148.000000	27.771665
1149.000000	27.763613
1150.000000	27.746575
1151.000000	27.743740
1152.000000	27.740206
1153.000000	27.741951
1154.000000	27.727464
1155.000000	27.725877
1156.000000	27.702092
1157.000000	27.687861
1158.000000	27.684376
1159.000000	27.662416
1160.000000	27.642735
1161.000000	27.631167
1162.000000	27.620445
1163.000000	27.606252
1164.000000	27.585444
1165.000000	27.569208
1166.000000	27.564304
1167.000000	27.540519
1168.000000	27.538734
1169.000000	27.525160
1170.000000	27.512813
1171.000000	27.515467
1172.000000	27.498059
1173.000000	27.488361
1174.000000	27.486495
1175.000000	27.495866
1176.000000	27.503803
1177.000000	27.479770
1178.000000	27.486859
1179.000000	27.511035
1180.000000	27.516272
1181.000000	27.515954
1182.000000	27.514781
1183.000000	27.527100
1184.000000	27.557559
1185.000000	27.578595
1186.000000	27.598302
1187.000000	27.617423
1188.000000	27.656115
1189.000000	27.680615
1190.000000	27.709804
1191.000000	27.750523
1192.000000	27.797915
1193.000000	27.826433
1194.000000	27.853330
1195.000000	27.893249
1196.000000	27.935052
1197.000000	27.972090
1198.000000	28.004178
1199.000000	28.039948
1200.000000	28.081728
1201.000000	28.119878
1202.000000	28.138599
1203.000000	28.168120
1204.000000	28.203427
1205.000000	28.239849
1206.000000	28.278074
1207.000000	28.301998
1208.000000	28.333941
1209.000000	28.353193
1210.000000	28.390023
1211.000000	28.423718
1212.000000	28.452376
1213.000000	28.472507
1214.000000	28.508161
1215.000000	28.543967
1216.000000	28.564946
1217.000000	28.575490
1218.000000	28.625560
1219.000000	28.654711
1220.000000	28.672277
1221.000000	28.708600
1222.000000	28.746050
1223.000000	28.770214
1224.000000	28.795935
1225.000000	28.830562
1226.000000	28.854655
1227.000000	28.880925
1228.000000	28.922079
1229.000000	28.955030
1230.000000	28.973359
1231.000000	29.007945
1232.000000	29.038976
1233.000000	29.068785
1234.000000	29.093294
1235.000000	29.109861
1236.000000	29.142037
1237.000000	29.167054
1238.000000	29.183692
1239.000000	29.204808
1240.000000	29.233257
1241.000000	29.265152
1242.000000	29.274024
1243.000000	29.295737
1244.000000	29.323644
1245.000000	29.345713
1246.000000	29.365794
1247.000000	29.382749
1248.000000	29.400922
1249.000000	29.425622
1250.000000	29.449042
1251.000000	29.462184
1252.000000	29.482316
1253.000000	29.499213
1254.000000	29.519261
1255.000000	29.533905
1256.000000	29.552150
1257.000000	29.564519
1258.000000	29.587437
1259.000000	29.601123
1260.000000	29.621613
1261.000000	29.646464
1262.000000	29.660838
1263.000000	29.675811
1264.000000	29.687846
1265.000000	29.712811
1266.000000	29.733518
1267.000000	29.752732
1268.000000	29.765989
1269.000000	29.772963
1270.000000	29.792414
1271.000000	29.814197
1272.000000	29.830061
1273.000000	29.843979
1274.000000	29.865424
1275.000000	29.886493
1276.000000	29.908725
1277.000000	29.930617
1278.000000	29.946834
1279.000000	29.960249
1280.000000	29.973317
1281.000000	29.995664
1282.000000	30.016644
1283.000000	30.031999
1284.000000	30.048653
1285.000000	30.055953
1286.000000	30.068691
1287.000000	30.085733
1288.000000	30.100031
1289.000000	30.130484
1290.000000	30.152628
1291.000000	30.157813
1292.000000	30.168540
1293.000000	30.187070
1294.000000	30.193856
1295.000000	30.195439
1296.000000	30.211999
1297.000000	30.231543
1298.000000	30.247947
1299.000000	30.259375
1300.000000	30.260391
1301.000000	30.255516
1302.000000	30.264913
1303.000000	30.282480
1304.000000	30.289990
1305.000000	30.296215
1306.000000	30.300460
1307.000000	30.301223
1308.000000	30.309360
1309.000000	30.315516
1310.000000	30.327845
1311.000000	30.334567
1312.000000	30.332807
1313.000000	30.327041
1314.000000	30.321117
1315.000000	30.321212
1316.000000	30.322160
1317.000000	30.323688
1318.000000	30.325058
1319.000000	30.321103
1320.000000	30.317502
1321.000000	30.307825
1322.000000	30.289529
1323.000000	30.270119
1324.000000	30.252799
1325.000000	30.234429
1326.000000	30.219606
1327.000000	30.204913
1328.000000	30.179574
1329.000000	30.152986
1330.000000	30.115903
1331.000000	30.081718
1332.000000	30.060708
1333.000000	30.031873
1334.000000	29.992151
1335.000000	29.964450
1336.000000	29.915161
1337.000000	29.875306
1338.000000	29.840692
1339.000000	29.802685
1340.000000	29.760913
1341.000000	29.722432
1342.000000	29.686532
1343.000000	29.634953
1344.000000	29.585645
1345.000000	29.546671
1346.000000	29.516970
1347.000000	29.470845
1348.000000	29.418071
1349.000000	29.392159
1350.000000	29.360492
1351.000000	29.317489
1352.000000	29.298631
1353.000000	29.252182
1354.000000	29.181681
1355.000000	29.131475
1356.000000	29.093987
1357.000000	29.070168
1358.000000	29.033697
1359.000000	29.015138
1360.000000	28.957294
1361.000000	28.846394
1362.000000	28.787363
1363.000000	28.742833
1364.000000	28.698939
1365.000000	28.636885
1366.000000	28.613051
1367.000000	28.548025
1368.000000	28.495918
1369.000000	28.454029
1370.000000	28.404533
1371.000000	28.314119
1372.000000	28.240756
1373.000000	28.178181
1374.000000	28.119848
1375.000000	28.042756
1376.000000	27.977726
1377.000000	27.906782
1378.000000	27.855774
1379.000000	27.780595
1380.000000	27.727090
1381.000000	27.603470
1382.000000	27.499760
1383.000000	27.392958
1384.000000	27.304468
1385.000000	27.223768
1386.000000	27.131349
1387.000000	27.022954
1388.000000	26.885255
1389.000000	26.796077
1390.000000	26.728793
1391.000000	26.616244
1392.000000	26.483682
1393.000000	26.389567
1394.000000	26.292358
1395.000000	26.118554
1396.000000	25.972951
1397.000000	25.862794
1398.000000	25.775597
1399.000000	25.649249
1400.000000	25.448574
1401.000000	25.295493
1402.000000	25.182509
1403.000000	25.049065
1404.000000	24.881538
1405.000000	24.716323
1406.000000	24.567078
1407.000000	24.413846
1408.000000	24.257346
1409.000000	24.065767
1410.000000	23.924816
1411.000000	23.787850
1412.000000	23.664322
1413.000000	23.495993
1414.000000	23.334200
1415.000000	23.209998
1416.000000	23.088271
1417.000000	22.957162
1418.000000	22.811326
1419.000000	22.673587
1420.000000	22.567988
1421.000000	22.462191
1422.000000	22.338797
1423.000000	22.230586
1424.000000	22.128297
1425.000000	22.031984
1426.000000	21.943898
1427.000000	21.843997
1428.000000	21.756616
1429.000000	21.675618
1430.000000	21.600067
1431.000000	21.507486
1432.000000	21.431845
1433.000000	21.354401
1434.000000	21.294425
1435.000000	21.226745
1436.000000	21.151662
1437.000000	21.089073
1438.000000	21.016873
1439.000000	20.966308
1440.000000	20.909225
1441.000000	20.848681
1442.000000	20.792550
1443.000000	20.724041
1444.000000	20.679263
1445.000000	20.606349
1446.000000	20.553750
1447.000000	20.507496
1448.000000	20.462268
1449.000000	20.418103
1450.000000	20.371525
1451.000000	20.314952
1452.000000	20.264800
1453.000000	20.218779
1454.000000	20.181642
1455.000000	20.128857
1456.000000	20.078930
1457.000000	20.030520
1458.000000	19.984904
1459.000000	19.946154
1460.000000	19.902401
1461.000000	19.851497
1462.000000	19.808694
1463.000000	19.764220
1464.000000	19.729077
1465.000000	19.688700
1466.000000	19.645203
1467.000000	19.602169
1468.000000	19.574971
1469.000000	19.520071
1470.000000	19.479571
1471.000000	19.444502
1472.000000	19.408128
1473.000000	19.365311
1474.000000	19.333114
1475.000000	19.305458
1476.000000	19.270095
1477.000000	19.245024
1478.000000	19.223480
1479.000000	19.197944
1480.000000	19.172146
1481.000000	19.146001
1482.000000	19.122165
1483.000000	19.124616
1484.000000	19.100715
1485.000000	19.086877
1486.000000	19.069831
1487.000000	19.048958
1488.000000	19.049362
1489.000000	19.043869
1490.000000	19.041294
1491.000000	19.045720
1492.000000	19.039128
1493.000000	19.036183
1494.000000	19.033129
1495.000000	19.041114
1496.000000	19.048892
1497.000000	19.063738
1498.000000	19.071609
1499.000000	19.090779
1500.000000	19.109969
1501.000000	19.127027
1502.000000	19.147036
1503.000000	19.177634
1504.000000	19.213204
1505.000000	19.242182
1506.000000	19.268387
1507.000000	19.303441
1508.000000	19.338290
1509.000000	19.374406
1510.000000	19.411298
1511.000000	19.450467
1512.000000	19.493302
1513.000000	19.528243
1514.000000	19.562690
1515.000000	19.594948
1516.000000	19.630906
1517.000000	19.682644
1518.000000	19.730154
1519.000000	19.758471
1520.000000	19.793392
1521.000000	19.837327
1522.000000	19.875315
1523.000000	19.916795
1524.000000	19.951426
1525.000000	19.987118
1526.000000	20.016121
1527.000000	20.048134
1528.000000	20.083146
1529.000000	20.122737
1530.000000	20.150474
1531.000000	20.180207
1532.000000	20.223549
1533.000000	20.251909
1534.000000	20.278857
1535.000000	20.310113
1536.000000	20.330954
1537.000000	20.357750
1538.000000	20.387436
1539.000000	20.413870
1540.000000	20.437581
1541.000000	20.466574
1542.000000	20.501723
1543.000000	20.530634
1544.000000	20.555846
1545.000000	20.578766
1546.000000	20.613913
1547.000000	20.657761
1548.000000	20.688347
1549.000000	20.714346
1550.000000	20.747110
1551.000000	20.783150
1552.000000	20.809735
1553.000000	20.829669
1554.000000	20.855444
1555.000000	20.881723
1556.000000	20.899608
1557.000000	20.918567
1558.000000	20.931879
1559.000000	20.939058
1560.000000	20.957983
1561.000000	20.976669
1562.000000	20.984479
1563.000000	20.982376
1564.000000	20.983883
1565.000000	20.986851
1566.000000	20.987380
1567.000000	20.988277
1568.000000	20.987673
1569.000000	20.990211
1570.000000	20.993562
1571.000000	20.991949
1572.000000	20.991301
1573.000000	20.997495
1574.000000	20.997131
1575.000000	21.000919
1576.000000	21.019004
1577.000000	21.030156
1578.000000	21.045662
1579.000000	21.049593
1580.000000	21.057900
1581.000000	21.081602
1582.000000	21.098907
1583.000000	21.109076
1584.000000	21.121496
1585.000000	21.147094
1586.000000	21.175626
1587.000000	21.195469
1588.000000	21.222312
1589.000000	21.249273
1590.000000	21.274671
1591.000000	21.292610
1592.000000	21.322935
1593.000000	21.358339
1594.000000	21.371438
1595.000000	21.405308
1596.000000	21.445101
1597.000000	21.482048
1598.000000	21.511519
1599.000000	21.550163
1600.000000	21.570919
1601.000000	21.619948
1602.000000	21.660045
1603.000000	21.694886
1604.000000	21.729767
1605.000000	21.754893
1606.000000	21.789399
1607.000000	21.826774
1608.000000	21.863394
1609.000000	21.889768
1610.000000	21.926609
1611.000000	21.948621
1612.000000	21.981414
1613.000000	21.997126
1614.000000	22.023512
1615.000000	22.056343
1616.000000	22.076016
1617.000000	22.097938
1618.000000	22.121911
1619.000000	22.144523
1620.000000	22.180507
1621.000000	22.198216
1622.000000	22.209512
1623.000000	22.232548
1624.000000	22.262808
1625.000000	22.281145
1626.000000	22.288204
1627.000000	22.312859
1628.000000	22.327907
1629.000000	22.349036
1630.000000	22.374487
1631.000000	22.397200
1632.000000	22.406140
1633.000000	22.425182
1634.000000	22.436133
1635.000000	22.472438
1636.000000	22.473489
1637.000000	22.497961
1638.000000	22.505169
1639.000000	22.513878
1640.000000	22.520320
1641.000000	22.538296
1642.000000	22.543206
1643.000000	22.552605
1644.000000	22.560847
1645.000000	22.565541
1646.000000	22.577905
1647.000000	22.576576
1648.000000	22.552041
1649.000000	22.564704
1650.000000	22.555515
1651.000000	22.534080
1652.000000	22.523852
1653.000000	22.519081
1654.000000	22.495424
1655.000000	22.465922
1656.000000	22.434892
1657.000000	22.399818
1658.000000	22.371883
1659.000000	22.326289
1660.000000	22.286766
1661.000000	22.214932
1662.000000	22.187656
1663.000000	22.123898
1664.000000	22.068838
1665.000000	21.983890
1666.000000	21.916072
1667.000000	21.844435
1668.000000	21.780653
1669.000000	21.717411
1670.000000	21.637267
1671.000000	21.558468
1672.000000	21.464237
1673.000000	21.389199
1674.000000	21.281975
1675.000000	21.213924
1676.000000	21.115860
1677.000000	21.029105
1678.000000	20.933193
1679.000000	20.852179
1680.000000	20.765006
1681.000000	20.675888
1682.000000	20.610617
1683.000000	20.538468
1684.000000	20.464404
1685.000000	20.383542
1686.000000	20.342552
1687.000000	20.300521
1688.000000	20.282495
1689.000000	20.233178
1690.000000	20.212400
1691.000000	20.196083
1692.000000	20.207663
1693.000000	20.190337
1694.000000	20.191811
1695.000000	20.205549
1696.000000	20.180399
1697.000000	20.189807
1698.000000	20.198103
1699.000000	20.175676
1700.000000	20.170419
1701.000000	20.158004
1702.000000	20.138238
1703.000000	20.113255
1704.000000	20.100295
1705.000000	20.048994
1706.000000	20.004223
1707.000000	19.971484
1708.000000	19.915985
1709.000000	19.853197
1710.000000	19.798810
1711.000000	19.724996
1712.000000	19.648314
1713.000000	19.585229
1714.000000	19.517398
1715.000000	19.446722
1716.000000	19.356125
1717.000000	19.262996
1718.000000	19.197178
1719.000000	19.136320
1720.000000	19.080240
1721.000000	19.031075
1722.000000	18.984681
1723.000000	18.952521
1724.000000	18.914394
1725.000000	18.905677
1726.000000	18.880643
1727.000000	18.882043
1728.000000	18.888755
1729.000000	18.886343
1730.000000	18.922828
1731.000000	18.924849
1732.000000	18.942696
1733.000000	18.974315
1734.000000	19.015637
1735.000000	19.042133
1736.000000	19.064655
1737.000000	19.110197
1738.000000	19.154693
1739.000000	19.175653
1740.000000	19.225617
1741.000000	19.261614
1742.000000	19.301975
1743.000000	19.336795
1744.000000	19.362895
1745.000000	19.405305
1746.000000	19.454191
1747.000000	19.489688
1748.000000	19.511357
1749.000000	19.548421
1750.000000	19.566266
1751.000000	19.579934
1752.000000	19.589378
1753.000000	19.604233
1754.000000	19.623509
1755.000000	19.652869
1756.000000	19.680053
1757.000000	19.686298
1758.000000	19.686055
1759.000000	19.709113
1760.000000	19.742644
1761.000000	19.746781
1762.000000	19.748795
1763.000000	19.759783
1764.000000	19.777670
1765.000000	19.797014
1766.000000	19.821690
1767.000000	19.830782
1768.000000	19.839144
1769.000000	19.867304
1770.000000	19.887897
1771.000000	19.900377
1772.000000	19.900705
1773.000000	19.938577
1774.000000	19.960367
1775.000000	19.979399
1776.000000	19.989309
1777.000000	19.998372
1778.000000	20.008619
1779.000000	20.018955
1780.000000	20.023062
1781.000000	20.037560
1782.000000	20.051098
1783.000000	20.069454
1784.000000	20.071095
1785.000000	20.066844
1786.000000	20.084393
1787.000000	20.101661
1788.000000	20.114181
1789.000000	20.115818
1790.000000	20.130577
1791.000000	20.148039
1792.000000	20.156301
1793.000000	20.159404
1794.000000	20.177833
1795.000000	20.205880
1796.000000	20.212618
1797.000000	20.237344
1798.000000	20.259631
1799.000000	20.266294
1800.000000	20.282634
1801.000000	20.299923
1802.000000	20.303300
1803.000000	20.321456
1804.000000	20.343522
1805.000000	20.355846
1806.000000	20.368352
1807.000000	20.388351
1808.000000	20.420436
1809.000000	20.456353
1810.000000	20.471793
1811.000000	20.473043
1812.000000	20.477365
1813.000000	20.492869
1814.000000	20.505149
1815.000000	20.519973
1816.000000	20.539852
1817.000000	20.581511
1818.000000	20.631908
1819.000000	20.625317
1820.000000	20.595386
1821.000000	20.552818
1822.000000	20.562688
1823.000000	20.613138
1824.000000	20.652819
1825.000000	20.693340
1826.000000	20.691330
1827.000000	20.707156
1828.000000	20.725478
1829.000000	20.719700
1830.000000	20.718106
1831.000000	20.748098
1832.000000	20.781978
1833.000000	20.840312
1834.000000	20.889610
1835.000000	20.893117
1836.000000	20.884202
1837.000000	20.890621
1838.000000	20.922904
1839.000000	20.937900
1840.000000	20.922868
1841.000000	20.877568
1842.000000	20.874810
1843.000000	20.905878
1844.000000	20.990794
1845.000000	21.026984
1846.000000	21.019758
1847.000000	20.948739
1848.000000	20.903040
1849.000000	20.877697
1850.000000	20.902629
1851.000000	20.936444
1852.000000	20.916514
1853.000000	20.916339
1854.000000	20.902002
1855.000000	20.900327
1856.000000	20.901387
1857.000000	20.918087
1858.000000	20.891452
1859.000000	20.865604
1860.000000	20.819879
1861.000000	20.773346
1862.000000	20.758204
1863.000000	20.744766
1864.000000	20.739477
1865.000000	20.725140
1866.000000	20.660575
1867.000000	20.614409
1868.000000	20.517815
1869.000000	20.413192
1870.000000	20.284556
1871.000000	20.140185
1872.000000	19.994655
1873.000000	19.816680
1874.000000	19.679267
1875.000000	19.517496
1876.000000	19.349969
1877.000000	19.204156
1878.000000	19.039168
1879.000000	18.912400
1880.000000	18.775888
1881.000000	18.589780
1882.000000	18.421199
1883.000000	18.233489
1884.000000	18.035950
1885.000000	17.843605
1886.000000	17.645731
1887.000000	17.473475
1888.000000	17.282224
1889.000000	17.060091
1890.000000	16.838026
1891.000000	16.575684
1892.000000	16.341772
1893.000000	16.114746
1894.000000	15.856327
1895.000000	15.631416
1896.000000	15.389620
1897.000000	15.146530
1898.000000	14.876900
1899.000000	14.568501
1900.000000	14.267052
1901.000000	14.009789
1902.000000	13.768478
1903.000000	13.537520
1904.000000	13.324018
1905.000000	13.049387
1906.000000	12.770978
1907.000000	12.506965
1908.000000	12.294183
1909.000000	12.184562
1910.000000	11.995780
1911.000000	11.796754
1912.000000	11.601192
1913.000000	11.427607
1914.000000	11.271634
1915.000000	11.107019
1916.000000	10.967039
1917.000000	10.884134
1918.000000	10.736659
1919.000000	10.632199
1920.000000	10.486214
1921.000000	10.437815
1922.000000	10.326305
1923.000000	10.234513
1924.000000	10.155777
1925.000000	10.075601
1926.000000	10.006381
1927.000000	9.949697
1928.000000	9.866404
1929.000000	9.808721
1930.000000	9.848489
1931.000000	9.787217
1932.000000	9.746654
1933.000000	9.718426
1934.000000	9.723956
1935.000000	9.674001
1936.000000	9.698118
1937.000000	9.663654
1938.000000	9.708012
1939.000000	9.680070
1940.000000	9.710483
1941.000000	9.702591
1942.000000	9.715908
1943.000000	9.689456
1944.000000	9.764026
1945.000000	9.783926
1946.000000	9.773921
1947.000000	9.823759
1948.000000	9.868216
1949.000000	9.908378
1950.000000	9.916747
1951.000000	9.995421
1952.000000	10.048436
1953.000000	10.092461
1954.000000	10.102946
1955.000000	10.158836
1956.000000	10.216902
1957.000000	10.243653
1958.000000	10.286283
1959.000000	10.350088
1960.000000	10.401964
1961.000000	10.457068
1962.000000	10.470139
1963.000000	10.504013
1964.000000	10.583860
1965.000000	10.613119
1966.000000	10.664412
1967.000000	10.720199
1968.000000	10.784369
1969.000000	10.819672
1970.000000	10.841805
1971.000000	10.912831
1972.000000	10.940482
1973.000000	11.039755
1974.000000	11.055099
1975.000000	11.116911
1976.000000	11.173523
1977.000000	11.210204
1978.000000	11.261677
1979.000000	11.306582
1980.000000	11.364930
1981.000000	11.429175
1982.000000	11.486292
1983.000000	11.494573
1984.000000	11.553618
1985.000000	11.618965
1986.000000	11.663115
1987.000000	11.753533
1988.000000	11.755215
1989.000000	11.798401
1990.000000	11.864265
1991.000000	11.943091
1992.000000	11.980846
1993.000000	12.017313
1994.000000	12.039145
1995.000000	12.085057
1996.000000	12.177928
1997.000000	12.205302
1998.000000	12.222025
1999.000000	12.276668
2000.000000	12.330030
2001.000000	12.312215
2002.000000	12.349016
2003.000000	12.382162
2004.000000	12.362864
2005.000000	12.398619
2006.000000	12.443000
2007.000000	12.446707
2008.000000	12.496148
2009.000000	12.533504
2010.000000	12.521972
2011.000000	12.530783
2012.000000	12.526515
2013.000000	12.513878
2014.000000	12.529317
2015.000000	12.487543
2016.000000	12.486036
2017.000000	12.501401
2018.000000	12.472688
2019.000000	12.485398
2020.000000	12.442358
2021.000000	12.379779
2022.000000	12.391731
2023.000000	12.343683
2024.000000	12.320790
2025.000000	12.334088
2026.000000	12.250874
2027.000000	12.177638
2028.000000	12.128827
2029.000000	12.099464
2030.000000	12.012833
2031.000000	11.983969
2032.000000	11.894950
2033.000000	11.864089
2034.000000	11.835732
2035.000000	11.806776
2036.000000	11.737742
2037.000000	11.625359
2038.000000	11.552457
2039.000000	11.473636
2040.000000	11.438704
2041.000000	11.371978
2042.000000	11.303886
2043.000000	11.286503
2044.000000	11.233060
2045.000000	11.142848
2046.000000	11.110853
2047.000000	11.070406
2048.000000	11.011327
2049.000000	10.975851
2050.000000	10.969279
2051.000000	10.922575
2052.000000	10.871314
2053.000000	10.858728
2054.000000	10.869730
2055.000000	10.874363
2056.000000	10.896264
2057.000000	10.929791
2058.000000	10.924237
2059.000000	10.936642
2060.000000	10.986644
2061.000000	11.046511
2062.000000	11.073510
2063.000000	11.122905
2064.000000	11.187844
2065.000000	11.185844
2066.000000	11.219680
2067.000000	11.303187
2068.000000	11.373122
2069.000000	11.405585
2070.000000	11.487972
2071.000000	11.513062
2072.000000	11.549740
2073.000000	11.646001
2074.000000	11.714858
2075.000000	11.771441
2076.000000	11.781266
2077.000000	11.808518
2078.000000	11.888888
2079.000000	11.909388
2080.000000	11.933673
2081.000000	11.957321
2082.000000	12.025969
2083.000000	12.114796
2084.000000	12.137412
2085.000000	12.088267
2086.000000	12.083331
2087.000000	12.148854
2088.000000	12.140707
2089.000000	12.108325
2090.000000	12.149427
2091.000000	12.151840
2092.000000	12.163168
2093.000000	12.165536
2094.000000	12.160943
2095.000000	12.142351
2096.000000	12.110616
2097.000000	12.117621
2098.000000	12.141343
2099.000000	12.215236
2100.000000	12.204161
2101.000000	12.198036
2102.000000	12.193643
2103.000000	12.144894
2104.000000	12.142368
2105.000000	12.232560
2106.000000	12.282647
2107.000000	12.234100
2108.000000	12.313612
2109.000000	12.335052
2110.000000	12.301906
2111.000000	12.277374
2112.000000	12.336813
2113.000000	12.294427
2114.000000	12.346170
2115.000000	12.399602
2116.000000	12.329805
2117.000000	12.306112
2118.000000	12.328822
2119.000000	12.284991
2120.000000	12.268795
2121.000000	12.237690
2122.000000	12.312309
2123.000000	12.338080
2124.000000	12.358035
2125.000000	12.266237
2126.000000	12.229410
2127.000000	12.217143
2128.000000	12.129731
2129.000000	12.247113
2130.000000	12.199040
2131.000000	12.109764
2132.000000	12.071706
2133.000000	12.146764
2134.000000	12.116202
2135.000000	12.183447
2136.000000	12.087525
2137.000000	11.891615
2138.000000	11.738967
2139.000000	11.688356
2140.000000	11.665067
2141.000000	11.686974
2142.000000	11.621213
2143.000000	11.592636
2144.000000	11.419233
2145.000000	11.399368
2146.000000	11.368336
2147.000000	11.431176
2148.000000	11.288186
2149.000000	11.166079
2150.000000	11.149173
2151.000000	11.128420
2152.000000	11.037616
2153.000000	10.972408
2154.000000	10.944061
2155.000000	10.779082
2156.000000	10.693416
2157.000000	10.777960
2158.000000	10.808073
2159.000000	10.516174
2160.000000	10.559707
2161.000000	10.679750
2162.000000	10.627509
2163.000000	10.625643
2164.000000	10.530372
2165.000000	10.484277
2166.000000	10.359126
2167.000000	10.231741
2168.000000	10.333683
2169.000000	10.481210
2170.000000	10.296888
2171.000000	10.312424
2172.000000	10.410417
2173.000000	10.268864
2174.000000	10.282933
2175.000000	10.254309
2176.000000	10.291965
2177.000000	10.262955
2178.000000	10.257226
2179.000000	10.149221
2180.000000	10.286542
2181.000000	10.299533
2182.000000	10.278505
2183.000000	10.141903
2184.000000	10.231606
2185.000000	10.243015
2186.000000	10.220281
2187.000000	10.198565
2188.000000	10.260177
2189.000000	10.187271
2190.000000	10.335223
2191.000000	10.128542
2192.000000	10.393612
2193.000000	10.320658
2194.000000	10.186881
2195.000000	10.298054
2196.000000	10.353229
2197.000000	10.337610
2198.000000	10.331402
2199.000000	10.362945
2200.000000	10.624927
2201.000000	10.456722
2202.000000	10.513351
2203.000000	10.502974
2204.000000	10.691388
2205.000000	10.612871
2206.000000	10.686768
2207.000000	10.696700
2208.000000	10.735225
2209.000000	10.894294
2210.000000	10.794146
2211.000000	10.640833
2212.000000	10.832809
2213.000000	10.845068
2214.000000	10.728103
2215.000000	10.761708
2216.000000	10.826664
2217.000000	11.040349
2218.000000	11.163962
2219.000000	10.954157
2220.000000	10.996632
2221.000000	10.993543
2222.000000	11.077346
2223.000000	11.086777
2224.000000	11.265759
2225.000000	11.296799
2226.000000	11.333245
2227.000000	11.397355
2228.000000	11.323087
2229.000000	11.251897
2230.000000	11.420538
2231.000000	11.294242
2232.000000	11.306390
2233.000000	11.194144
2234.000000	11.330834
2235.000000	11.341090
2236.000000	11.433436
2237.000000	11.163546
2238.000000	11.183699
2239.000000	11.203921
2240.000000	11.219666
2241.000000	11.223814
2242.000000	11.143825
2243.000000	11.113645
2244.000000	11.229927
2245.000000	11.224062
2246.000000	11.179884
2247.000000	11.030394
2248.000000	10.829057
2249.000000	11.027302
2250.000000	10.946347
2251.000000	10.835297
2252.000000	10.594185
2253.000000	10.619761
2254.000000	10.535894
2255.000000	10.465596
2256.000000	10.390054
2257.000000	10.300508
2258.000000	10.307627
2259.000000	10.300475
2260.000000	10.287433
2261.000000	10.209836
2262.000000	10.107043
2263.000000	10.041687
2264.000000	9.929634
2265.000000	9.876338
2266.000000	9.757516
2267.000000	9.785957
2268.000000	9.934534
2269.000000	9.833344
2270.000000	9.815188
2271.000000	9.854441
2272.000000	9.762195
2273.000000	9.741984
2274.000000	9.611645
2275.000000	9.461622
2276.000000	9.696505
2277.000000	9.807823
2278.000000	9.690262
2279.000000	9.544347
2280.000000	9.697923
2281.000000	9.742686
2282.000000	9.709109
2283.000000	9.697474
2284.000000	9.481227
2285.000000	9.421222
2286.000000	9.538729
2287.000000	9.573550
2288.000000	9.758406
2289.000000	9.641749
2290.000000	9.543765
2291.000000	9.415047
2292.000000	9.422921
2293.000000	9.572797
2294.000000	9.656557
2295.000000	9.666650
2296.000000	9.722768
2297.000000	9.734577
2298.000000	9.828142
2299.000000	9.803312
2300.000000	9.703127
2301.000000	9.731216
2302.000000	9.822712
2303.000000	9.786119
2304.000000	9.811476
2305.000000	9.818737
2306.000000	9.904401
2307.000000	10.019110
2308.000000	9.998094
2309.000000	9.856855
2310.000000	9.920935
2311.000000	9.988448
2312.000000	9.956949
2313.000000	10.174928
2314.000000	10.216920
2315.000000	10.164454
2316.000000	10.238286
2317.000000	10.289894
2318.000000	10.400919
2319.000000	10.317158
2320.000000	10.259678
2321.000000	10.321518
2322.000000	10.140749
2323.000000	10.156854
2324.000000	10.427841
2325.000000	10.463073
2326.000000	10.464166
2327.000000	10.426739
2328.000000	10.419936
2329.000000	10.310286
2330.000000	10.242631
2331.000000	10.226384
2332.000000	10.283791
2333.000000	10.349391
2334.000000	10.336326
2335.000000	10.346550
2336.000000	10.349599
2337.000000	10.439939
2338.000000	10.482480
2339.000000	10.576928
2340.000000	10.604143
2341.000000	10.507211
2342.000000	10.574478
2343.000000	10.589449
2344.000000	10.666452
2345.000000	10.773273
2346.000000	10.796801
2347.000000	10.800933
2348.000000	10.672691
2349.000000	10.639410
2350.000000	10.875150
2351.000000	10.952318
2352.000000	10.806333
2353.000000	10.709370
2354.000000	10.558316
2355.000000	10.625624
2356.000000	10.778535
2357.000000	11.025960
2358.000000	11.287364
2359.000000	11.353904
2360.000000	11.090704
2361.000000	11.158906
2362.000000	11.102502
2363.000000	11.094109
2364.000000	11.024072
2365.000000	11.031455
2366.000000	11.216361
2367.000000	11.360007
2368.000000	11.193542
2369.000000	11.098533
2370.000000	11.233500
2371.000000	11.051662
2372.000000	11.270309
2373.000000	11.350030
2374.000000	11.310064
2375.000000	11.356432
2376.000000	11.424258
2377.000000	11.363419
2378.000000	11.692180
2379.000000	11.464276
2380.000000	11.272030
2381.000000	11.411484
2382.000000	11.466742
2383.000000	11.536400
2384.000000	11.521486
2385.000000	11.560463
2386.000000	11.563372
2387.000000	11.405919
2388.000000	11.487655
2389.000000	11.737373
2390.000000	11.966416
2391.000000	11.796435
2392.000000	11.770512
2393.000000	11.728996
2394.000000	11.536290
2395.000000	11.515699
2396.000000	11.726893
2397.000000	11.762068
2398.000000	11.864939
2399.000000	11.913856
2400.000000	11.837248
2401.000000	11.684622
2402.000000	11.776154
2403.000000	11.785225
2404.000000	11.833756
2405.000000	12.109559
2406.000000	11.909502
2407.000000	11.928366
2408.000000	11.590186
2409.000000	11.434085
2410.000000	11.546622
2411.000000	11.777219
2412.000000	11.890549
2413.000000	11.907115
2414.000000	11.691803
2415.000000	12.119759
2416.000000	12.248704
2417.000000	11.838090
2418.000000	11.737659
2419.000000	11.873921
2420.000000	11.500531
2421.000000	11.408157
2422.000000	11.519871
2423.000000	11.948210
2424.000000	11.605450
2425.000000	11.836450
2426.000000	11.648163
2427.000000	11.501833
2428.000000	11.603248
2429.000000	12.114662
2430.000000	11.677905
2431.000000	12.069296
2432.000000	11.967641
2433.000000	11.703625
2434.000000	12.126694
2435.000000	11.354882
2436.000000	11.578701
2437.000000	11.789456
2438.000000	11.994134
2439.000000	11.301095
2440.000000	11.581229
2441.000000	11.731197
2442.000000	11.900645
2443.000000	12.231355
2444.000000	12.256449
2445.000000	12.374222
2446.000000	12.187712
2447.000000	11.449956
2448.000000	11.432157
2449.000000	11.341809
2450.000000	11.518622
2451.000000	11.868275
2452.000000	12.426952
2453.000000	12.219387
2454.000000	12.028689
2455.000000	11.958883
2456.000000	12.605933
2457.000000	12.669608
2458.000000	11.892823
2459.000000	12.954380
2460.000000	12.870781
2461.000000	12.940255
2462.000000	12.304445
2463.000000	12.561119
2464.000000	13.657523
2465.000000	13.572404
2466.000000	12.952747
2467.000000	13.866977
2468.000000	14.243137
2469.000000	14.701086
2470.000000	14.866459
2471.000000	15.457630
2472.000000	14.247663
2473.000000	15.313147
2474.000000	14.949851
2475.000000	15.035350
2476.000000	16.092111
2477.000000	16.056300
2478.000000	15.968948
2479.000000	16.757607
2480.000000	15.598900
2481.000000	16.946037
2482.000000	16.700121
2483.000000	17.902915
2484.000000	17.600624
2485.000000	17.816776
2486.000000	18.990630
2487.000000	18.829046
2488.000000	19.011410
2489.000000	20.181149
2490.000000	19.879410
2491.000000	19.463692
2492.000000	20.304401
2493.000000	20.681692
2494.000000	20.560201
2495.000000	20.069863
2496.000000	20.882402
2497.000000	21.899129
2498.000000	22.212934
2499.000000	22.003772
2500.000000	22.467137
2501.000000	nan
2502.000000	nan
2503.000000	nan
2504.000000	nan
2505.000000	nan
2506.000000	nan
2507.000000	nan
2508.000000	nan
2509.000000	nan
2510.000000	nan
2511.000000	nan
2512.000000	nan
2513.000000	nan
2514.000000	nan
2515.000000	nan
2516.000000	nan
2517.000000	nan
2518.000000	nan
2519.000000	nan
2520.000000	nan
2521.000000	nan
2522.000000	nan
2523.000000	nan
2524.000000	nan
2525.000000	nan
2526.000000	nan
2527.000000	nan
2528.000000	nan
2529.000000	nan
2530.000000	nan
2531.000000	nan
2532.000000	nan
2533.000000	nan
2534.000000	nan
2535.000000	nan
2536.000000	nan
2537.000000	nan
2538.000000	nan
2539.000000	nan
2540.000000	nan
2541.000000	nan
2542.000000	nan
2543.000000	nan
2544.000000	nan
2545.000000	nan
2546.000000	nan
2547.000000	nan
2548.000000	nan
2549.000000	nan
2550.000000	nan
2551.000000	nan
2552.000000	nan
2553.000000	nan
2554.000000	nan
2555.000000	nan
2556.000000	nan
2557.000000	nan
2558.000000	nan
2559.000000	nan
2560.000000	nan
2561.000000	nan
2562.000000	nan
2563.000000	nan
2564.000000	nan
2565.000000	nan
2566.000000	nan
2567.000000	nan
2568.000000	nan
2569.000000	nan
2570.000000	nan
2571.000000	nan
2572.000000	nan
2573.000000	nan
2574.000000	nan
2575.000000	nan
2576.000000	nan
2577.000000	nan
2578.000000	nan
2579.000000	nan
2580.000000	nan
2581.000000	nan
2582.000000	nan
2583.000000	nan
2584.000000	nan
2585.000000	nan
2586.000000	nan
2587.000000	nan
2588.000000	nan
2589.000000	nan
2590.000000	nan
2591.000000	nan
2592.000000	nan
2593.000000	nan
2594.000000	nan
2595.000000	nan
2596.000000	nan
2597.000000	nan
2598.000000	nan
2599.000000	nan
2600.000000	nan
2601.000000	nan
2602.000000	nan
2603.000000	nan
2604.000000	nan
2605.000000	nan
2606.000000	nan
2607.000000	nan
2608.000000	nan
2609.000000	nan
2610.000000	nan
2611.000000	nan
2612.000000	nan
2613.000000	nan
2614.000000	nan
2615.000000	nan
2616.000000	nan
2617.000000	nan
2618.000000	nan
2619.000000	nan
2620.000000	nan
2621.000000	nan
2622.000000	nan
2623.000000	nan
2624.000000	nan
2625.000000	nan
2626.000000	nan
2627.000000	nan
2628.000000	nan
2629.000000	nan
2630.000000	nan
2631.000000	nan
2632.000000	nan
2633.000000	nan
2634.000000	nan
2635.000000	nan
2636.000000	nan
2637.000000	nan
2638.000000	nan
2639.000000	nan
2640.000000	nan
2641.000000	nan
2642.000000	nan
2643.000000	nan
2644.000000	nan
2645.000000	nan
2646.000000	nan
2647.000000	nan
2648.000000	nan
2649.000000	nan
2650.000000	nan
2651.000000	nan
2652.000000	nan
2653.000000	nan
2654.000000	nan
2655.000000	nan
2656.000000	nan
2657.000000	nan
2658.000000	nan
2659.000000	nan
2660.000000	nan
2661.000000	nan
2662.000000	nan
2663.000000	nan
2664.000000	nan
2665.000000	nan
2666.000000	nan
2667.000000	nan
2668.000000	nan
2669.000000	nan
2670.000000	nan
2671.000000	nan
2672.000000	nan
2673.000000	nan
2674.000000	nan
2675.000000	nan
2676.000000	nan
2677.000000	nan
2678.000000	nan
2679.000000	nan
2680.000000	nan
2681.000000	nan
2682.000000	nan
2683.000000	nan
2684.000000	nan
2685.000000	nan
2686.000000	nan
2687.000000	nan
2688.000000	nan
2689.000000	nan
2690.000000	nan
2691.000000	nan
2692.000000	nan
2693.000000	nan
2694.000000	nan
2695.000000	nan
2696.000000	nan
2697.000000	nan
2698.000000	nan
2699.000000	nan
2700.000000	nan
2701.000000	nan
2702.000000	nan
2703.000000	nan
2704.000000	nan
2705.000000	nan
2706.000000	nan
2707.000000	nan
2708.000000	nan
2709.000000	nan
2710.000000	nan
2711.000000	nan
2712.000000	nan
2713.000000	nan
2714.000000	nan
2715.000000	nan
2716.000000	nan
2717.000000	nan
2718.000000	nan
2719.000000	nan
2720.000000	nan
2721.000000	nan
2722.000000	nan
2723.000000	nan
2724.000000	nan
2725.000000	nan
2726.000000	nan
2727.000000	nan
2728.000000	nan
2729.000000	nan
2730.000000	nan
2731.000000	nan
2732.000000	nan
2733.000000	nan
2734.000000	nan
2735.000000	nan
2736.000000	nan
2737.000000	nan
2738.000000	nan
2739.000000	nan
2740.000000	nan
2741.000000	nan
2742.000000	nan
2743.000000	nan
2744.000000	nan
2745.000000	nan
2746.000000	nan
2747.000000	nan
2748.000000	nan
2749.000000	nan
2750.000000	nan
2751.000000	nan
2752.000000	nan
2753.000000	nan
2754.000000	nan
2755.000000	nan
2756.000000	nan
2757.000000	nan
2758.000000	nan
2759.000000	nan
2760.000000	nan
2761.000000	nan
2762.000000	nan
2763.000000	nan
2764.000000	nan
2765.000000	nan
2766.000000	nan
2767.000000	nan
2768.000000	nan
2769.000000	nan
2770.000000	nan
2771.000000	nan
2772.000000	nan
2773.000000	nan
2774.000000	nan
2775.000000	nan
2776.000000	nan
2777.000000	nan
2778.000000	nan
2779.000000	nan
2780.000000	nan
2781.000000	nan
2782.000000	nan
2783.000000	nan
2784.000000	nan
2785.000000	nan
2786.000000	nan
2787.000000	nan
2788.000000	nan
2789.000000	nan
2790.000000	nan
2791.000000	nan
2792.000000	nan
2793.000000	nan
2794.000000	nan
2795.000000	nan
2796.000000	nan
2797.000000	nan
2798.000000	nan
2799.000000	nan
2800.000000	nan
2801.000000	nan
2802.000000	nan
2803.000000	nan
2804.000000	nan
2805.000000	nan
2806.000000	nan
2807.000000	nan
2808.000000	nan
2809.000000	nan
2810.000000	nan
2811.000000	nan
2812.000000	nan
2813.000000	nan
2814.000000	nan
2815.000000	nan
2816.000000	nan
2817.000000	nan
2818.000000	nan
2819.000000	nan
2820.000000	nan
2821.000000	nan
2822.000000	nan
2823.000000	nan
2824.000000	nan
2825.000000	nan
2826.000000	nan
2827.000000	nan
2828.000000	nan
2829.000000	nan
2830.000000	nan
2831.000000	nan
2832.000000	nan
2833.000000	nan
2834.000000	nan
2835.000000	nan
2836.000000	nan
2837.000000	nan
2838.000000	nan
2839.000000	nan
2840.000000	nan
2841.000000	nan
2842.000000	nan
2843.000000	nan
2844.000000	nan
2845.000000	nan
2846.000000	nan
2847.000000	nan
2848.000000	nan
2849.000000	nan
2850.000000	nan
2851.000000	nan
2852.000000	nan
2853.000000	nan
2854.000000	nan
2855.000000	nan
2856.000000	nan
2857.000000	nan
2858.000000	nan
2859.000000	nan
2860.000000	nan
2861.000000	nan
2862.000000	nan
2863.000000	nan
2864.000000	nan
2865.000000	nan
2866.000000	nan
2867.000000	nan
2868.000000	nan
2869.000000	nan
2870.000000	nan
2871.000000	nan
2872.000000	nan
2873.000000	nan
2874.000000	nan
2875.000000	nan
2876.000000	nan
2877.000000	nan
2878.000000	nan
2879.000000	nan
2880.000000	nan
2881.000000	nan
2882.000000	nan
2883.000000	nan
2884.000000	nan
2885.000000	nan
2886.000000	nan
2887.000000	nan
2888.000000	nan
2889.000000	nan
2890.000000	nan
2891.000000	nan
2892.000000	nan
2893.000000	nan
2894.000000	nan
2895.000000	nan
2896.000000	nan
2897.000000	nan
2898.000000	nan
2899.000000	nan
2900.000000	nan
2901.000000	nan
2902.000000	nan
2903.000000	nan
2904.000000	nan
2905.000000	nan
2906.000000	nan
2907.000000	nan
2908.000000	nan
2909.000000	nan
2910.000000	nan
2911.000000	nan
2912.000000	nan
2913.000000	nan
2914.000000	nan
2915.000000	nan
2916.000000	nan
2917.000000	nan
2918.000000	nan
2919.000000	nan
2920.000000	nan
2921.000000	nan
2922.000000	nan
2923.000000	nan
2924.000000	nan
2925.000000	nan
2926.000000	nan
2927.000000	nan
2928.000000	nan
2929.000000	nan
2930.000000	nan
2931.000000	nan
2932.000000	nan
2933.000000	nan
2934.000000	nan
2935.000000	nan
2936.000000	nan
2937.000000	nan
2938.000000	nan
2939.000000	nan
2940.000000	nan
2941.000000	nan
2942.000000	nan
2943.000000	nan
2944.000000	nan
2945.000000	nan
2946.000000	nan
2947.000000	nan
2948.000000	nan
2949.000000	nan
2950.000000	nan
2951.000000	nan
2952.000000	nan
2953.000000	nan
2954.000000	nan
2955.000000	nan
2956.000000	nan
2957.000000	nan
2958.000000	nan
2959.000000	nan
2960.000000	nan
2961.000000	nan
2962.000000	nan
2963.000000	nan
2964.000000	nan
2965.000000	nan
2966.000000	nan
2967.000000	nan
2968.000000	nan
2969.000000	nan
2970.000000	nan
2971.000000	nan
2972.000000	nan
2973.000000	nan
2974.000000	nan
2975.000000	nan
2976.000000	nan
2977.000000	nan
2978.000000	nan
2979.000000	nan
2980.000000	nan
2981.000000	nan
2982.000000	nan
2983.000000	nan
2984.000000	nan
2985.000000	nan
2986.000000	nan
2987.000000	nan
2988.000000	nan
2989.000000	nan
2990.000000	nan
2991.000000	nan
2992.000000	nan
2993.000000	nan
2994.000000	nan
2995.000000	nan
2996.000000	nan
2997.000000	nan
2998.000000	nan
2999.000000	nan
3000.000000	nan
