PE UV       SUBTECH     SPECTRUM    ASCII       PEDS        4.00        
   -1
INBUCR0136-4.Sample.ASC
24/02/07
14:46:10.00
24/02/07
14:46:10.00
Vinicio Soto Monge
Pelidnota parallela. Color café con ambos élitros. Pelidnota parallela. Det: A. Solís. COSTA RICA, Prov. Puntarenas. Estación Altamira. 1 km. S del Cerro Biolley. 1450 m. 7 ABR - 10 MAY 1997 #46227. INBIOCRI002538670
250,000000
1
Lambda 1050
1050L1511233
PerkinElmer UV WinLab 6.3.2.0749 / 2.02.05 Lambda 900 UV/VIS/NIR, Aug  7 2015 09:38:08

0
0
3350/servo 860,8/2
0
0
UV/VIS
1
1
1
DoubleDePol,CommonBeamDepol,RBeamAtt,SBeamAtt,60mm sphere, WB InGaAs Detector
0
0
0
0
Program
Program
3350/servo 860,8/2
3350/0,2 860,8/0,2
3350/0,2 860,8/0,2
0
15.00
 
 
 
0
 
860,8
319,2
860,8
Front
100
on
S:100 R:100
0
0
0
0
 
0
 
 
 
0
 
 
0
0
0
0
0
 
 
 
 
0
0


0
0
#HDR
-1
-1
#GR
nm
%R
1.0
0.0
2500,000000
-1,000000
2251
8
15,055700
0,974600
#DATA

250.000000	2.999762
251.000000	2.987753
252.000000	3.006253
253.000000	2.973791
254.000000	2.965177
255.000000	2.941133
256.000000	2.936189
257.000000	2.954580
258.000000	2.932285
259.000000	2.924842
260.000000	2.904131
261.000000	2.881474
262.000000	2.853380
263.000000	2.865112
264.000000	2.855824
265.000000	2.847731
266.000000	2.817450
267.000000	2.808058
268.000000	2.791918
269.000000	2.792346
270.000000	2.784145
271.000000	2.778357
272.000000	2.766887
273.000000	2.762225
274.000000	2.751174
275.000000	2.715965
276.000000	2.746384
277.000000	2.733698
278.000000	2.708863
279.000000	2.732051
280.000000	2.718333
281.000000	2.703603
282.000000	2.705330
283.000000	2.735469
284.000000	2.689426
285.000000	2.697747
286.000000	2.691657
287.000000	2.690867
288.000000	2.678383
289.000000	2.724210
290.000000	2.670596
291.000000	2.688778
292.000000	2.701148
293.000000	2.689251
294.000000	2.687952
295.000000	2.679722
296.000000	2.694422
297.000000	2.691306
298.000000	2.688631
299.000000	2.693274
300.000000	2.653608
301.000000	2.676876
302.000000	2.655680
303.000000	2.709838
304.000000	2.662386
305.000000	2.646827
306.000000	2.631877
307.000000	2.669528
308.000000	2.633730
309.000000	2.648897
310.000000	2.651330
311.000000	2.662270
312.000000	2.654084
313.000000	2.646665
314.000000	2.616261
315.000000	2.628229
316.000000	2.625038
317.000000	2.344324
318.000000	2.554125
319.000000	2.526663
320.000000	2.421386
321.000000	2.409166
322.000000	2.525092
323.000000	2.484122
324.000000	2.345940
325.000000	2.430950
326.000000	2.467460
327.000000	2.495955
328.000000	2.503606
329.000000	2.546806
330.000000	2.477698
331.000000	2.508851
332.000000	2.499128
333.000000	2.591926
334.000000	2.518537
335.000000	2.565731
336.000000	2.531401
337.000000	2.573502
338.000000	2.539324
339.000000	2.547556
340.000000	2.561971
341.000000	2.579842
342.000000	2.596058
343.000000	2.569288
344.000000	2.555486
345.000000	2.558676
346.000000	2.600196
347.000000	2.566748
348.000000	2.528035
349.000000	2.544100
350.000000	2.552431
351.000000	2.516923
352.000000	2.586597
353.000000	2.560014
354.000000	2.553349
355.000000	2.544764
356.000000	2.576017
357.000000	2.506079
358.000000	2.550992
359.000000	2.593761
360.000000	2.578285
361.000000	2.537459
362.000000	2.554637
363.000000	2.573389
364.000000	2.576145
365.000000	2.606729
366.000000	2.586276
367.000000	2.613517
368.000000	2.570840
369.000000	2.614570
370.000000	2.628455
371.000000	2.630109
372.000000	2.623055
373.000000	2.656214
374.000000	2.664950
375.000000	2.684895
376.000000	2.621944
377.000000	2.613802
378.000000	2.615034
379.000000	2.612788
380.000000	2.609893
381.000000	2.606065
382.000000	2.606846
383.000000	2.606898
384.000000	2.606106
385.000000	2.604633
386.000000	2.610044
387.000000	2.605426
388.000000	2.602278
389.000000	2.610502
390.000000	2.608035
391.000000	2.605040
392.000000	2.607622
393.000000	2.606236
394.000000	2.603798
395.000000	2.602547
396.000000	2.600308
397.000000	2.597353
398.000000	2.596158
399.000000	2.594825
400.000000	2.600848
401.000000	2.598997
402.000000	2.601677
403.000000	2.595008
404.000000	2.597310
405.000000	2.599724
406.000000	2.600001
407.000000	2.599509
408.000000	2.598501
409.000000	2.599323
410.000000	2.607314
411.000000	2.608515
412.000000	2.610325
413.000000	2.615816
414.000000	2.622090
415.000000	2.627204
416.000000	2.630640
417.000000	2.642679
418.000000	2.654460
419.000000	2.660236
420.000000	2.664367
421.000000	2.674626
422.000000	2.689567
423.000000	2.698942
424.000000	2.709882
425.000000	2.723592
426.000000	2.739529
427.000000	2.752796
428.000000	2.763741
429.000000	2.777750
430.000000	2.789247
431.000000	2.805209
432.000000	2.823401
433.000000	2.841929
434.000000	2.858519
435.000000	2.872511
436.000000	2.888340
437.000000	2.906470
438.000000	2.925759
439.000000	2.946430
440.000000	2.966324
441.000000	2.985972
442.000000	3.006294
443.000000	3.029834
444.000000	3.055839
445.000000	3.075223
446.000000	3.095160
447.000000	3.114596
448.000000	3.138438
449.000000	3.162736
450.000000	3.180320
451.000000	3.208091
452.000000	3.238181
453.000000	3.260896
454.000000	3.284091
455.000000	3.310558
456.000000	3.338466
457.000000	3.366701
458.000000	3.389485
459.000000	3.413995
460.000000	3.445489
461.000000	3.475218
462.000000	3.499267
463.000000	3.527379
464.000000	3.556291
465.000000	3.584448
466.000000	3.612759
467.000000	3.641393
468.000000	3.677275
469.000000	3.708089
470.000000	3.738044
471.000000	3.767437
472.000000	3.799065
473.000000	3.834107
474.000000	3.872106
475.000000	3.904590
476.000000	3.938587
477.000000	3.972498
478.000000	4.006932
479.000000	4.041004
480.000000	4.078218
481.000000	4.123148
482.000000	4.161301
483.000000	4.197597
484.000000	4.236644
485.000000	4.269805
486.000000	4.300179
487.000000	4.332660
488.000000	4.363704
489.000000	4.396444
490.000000	4.431108
491.000000	4.466907
492.000000	4.501593
493.000000	4.536194
494.000000	4.571157
495.000000	4.605053
496.000000	4.638894
497.000000	4.677251
498.000000	4.716373
499.000000	4.750850
500.000000	4.790630
501.000000	4.832598
502.000000	4.875029
503.000000	4.919264
504.000000	4.956749
505.000000	4.991281
506.000000	5.035398
507.000000	5.083870
508.000000	5.132887
509.000000	5.175190
510.000000	5.219192
511.000000	5.271268
512.000000	5.319907
513.000000	5.368844
514.000000	5.425131
515.000000	5.475751
516.000000	5.531552
517.000000	5.584271
518.000000	5.644406
519.000000	5.694492
520.000000	5.753065
521.000000	5.817033
522.000000	5.872281
523.000000	5.928588
524.000000	5.988645
525.000000	6.044684
526.000000	6.107669
527.000000	6.162994
528.000000	6.225952
529.000000	6.286222
530.000000	6.343024
531.000000	6.408448
532.000000	6.469745
533.000000	6.532368
534.000000	6.593150
535.000000	6.653959
536.000000	6.720582
537.000000	6.784278
538.000000	6.848449
539.000000	6.914567
540.000000	6.973491
541.000000	7.042166
542.000000	7.107848
543.000000	7.173216
544.000000	7.245765
545.000000	7.311632
546.000000	7.378463
547.000000	7.447884
548.000000	7.520238
549.000000	7.583142
550.000000	7.654197
551.000000	7.722218
552.000000	7.786728
553.000000	7.861130
554.000000	7.940253
555.000000	8.007398
556.000000	8.083411
557.000000	8.154246
558.000000	8.226953
559.000000	8.292382
560.000000	8.430995
561.000000	8.514960
562.000000	8.589526
563.000000	8.670872
564.000000	8.748315
565.000000	8.827086
566.000000	8.900404
567.000000	8.978821
568.000000	9.052124
569.000000	9.131863
570.000000	9.204744
571.000000	9.294005
572.000000	9.378447
573.000000	9.455328
574.000000	9.530135
575.000000	9.611961
576.000000	9.696737
577.000000	9.772118
578.000000	9.850060
579.000000	9.934211
580.000000	10.022723
581.000000	10.103098
582.000000	10.187136
583.000000	10.268313
584.000000	10.356107
585.000000	10.446479
586.000000	10.525936
587.000000	10.613441
588.000000	10.686128
589.000000	10.781176
590.000000	10.862296
591.000000	10.940708
592.000000	11.037252
593.000000	11.131643
594.000000	11.222876
595.000000	11.300649
596.000000	11.389728
597.000000	11.477347
598.000000	11.564535
599.000000	11.645394
600.000000	11.740890
601.000000	11.835517
602.000000	11.910254
603.000000	12.021250
604.000000	12.096411
605.000000	12.194646
606.000000	12.288701
607.000000	12.386926
608.000000	12.477716
609.000000	12.553020
610.000000	12.653448
611.000000	12.751843
612.000000	12.837093
613.000000	12.936902
614.000000	13.025644
615.000000	13.124294
616.000000	13.210721
617.000000	13.306684
618.000000	13.402744
619.000000	13.494966
620.000000	13.594199
621.000000	13.684119
622.000000	13.787431
623.000000	13.874624
624.000000	13.971408
625.000000	14.059374
626.000000	14.169482
627.000000	14.260019
628.000000	14.353834
629.000000	14.445302
630.000000	14.551576
631.000000	14.637466
632.000000	14.748651
633.000000	14.858697
634.000000	14.946868
635.000000	15.048230
636.000000	15.146895
637.000000	15.246542
638.000000	15.343308
639.000000	15.440960
640.000000	15.559487
641.000000	15.658619
642.000000	15.762888
643.000000	15.868221
644.000000	15.983675
645.000000	16.079121
646.000000	16.183257
647.000000	16.278584
648.000000	16.388685
649.000000	16.505912
650.000000	16.608591
651.000000	16.711949
652.000000	16.813652
653.000000	16.936342
654.000000	17.046557
655.000000	17.145332
656.000000	17.256512
657.000000	17.358210
658.000000	17.466360
659.000000	17.566846
660.000000	17.672223
661.000000	17.789600
662.000000	17.902952
663.000000	18.011942
664.000000	18.120377
665.000000	18.219566
666.000000	18.313098
667.000000	18.424277
668.000000	18.536511
669.000000	18.645224
670.000000	18.746277
671.000000	18.849414
672.000000	18.955559
673.000000	19.071339
674.000000	19.175033
675.000000	19.267910
676.000000	19.374411
677.000000	19.484429
678.000000	19.588923
679.000000	19.690222
680.000000	19.773832
681.000000	19.891878
682.000000	20.008046
683.000000	20.116743
684.000000	20.224457
685.000000	20.317726
686.000000	20.408935
687.000000	20.510976
688.000000	20.611408
689.000000	20.703630
690.000000	20.790712
691.000000	20.911376
692.000000	21.038137
693.000000	21.123325
694.000000	21.216057
695.000000	21.313665
696.000000	21.417165
697.000000	21.520965
698.000000	21.614151
699.000000	21.707058
700.000000	21.805964
701.000000	21.903824
702.000000	21.999848
703.000000	22.115632
704.000000	22.215451
705.000000	22.306198
706.000000	22.391657
707.000000	22.482233
708.000000	22.585424
709.000000	22.678379
710.000000	22.771225
711.000000	22.871377
712.000000	22.958975
713.000000	23.058508
714.000000	23.167058
715.000000	23.261126
716.000000	23.351521
717.000000	23.439496
718.000000	23.540486
719.000000	23.651718
720.000000	23.738577
721.000000	23.824310
722.000000	23.915570
723.000000	24.019329
724.000000	24.125967
725.000000	24.229712
726.000000	24.316805
727.000000	24.399873
728.000000	24.520944
729.000000	24.614183
730.000000	24.675023
731.000000	24.757880
732.000000	24.863833
733.000000	24.972000
734.000000	25.081784
735.000000	25.174493
736.000000	25.259439
737.000000	25.348363
738.000000	25.446904
739.000000	25.541977
740.000000	25.637009
741.000000	25.733938
742.000000	25.829650
743.000000	25.923678
744.000000	26.006249
745.000000	26.098193
746.000000	26.199242
747.000000	26.294190
748.000000	26.386613
749.000000	26.470838
750.000000	26.578953
751.000000	26.686827
752.000000	26.764565
753.000000	26.858513
754.000000	26.948933
755.000000	27.033402
756.000000	27.128734
757.000000	27.214881
758.000000	27.329171
759.000000	27.437819
760.000000	27.512374
761.000000	27.628105
762.000000	27.730347
763.000000	27.816181
764.000000	27.891451
765.000000	27.968850
766.000000	28.071160
767.000000	28.149355
768.000000	28.255830
769.000000	28.368564
770.000000	28.472194
771.000000	28.563361
772.000000	28.655622
773.000000	28.765575
774.000000	28.811303
775.000000	28.916562
776.000000	29.024998
777.000000	29.126906
778.000000	29.223139
779.000000	29.322167
780.000000	29.408896
781.000000	29.515586
782.000000	29.561494
783.000000	29.696819
784.000000	29.791656
785.000000	29.864788
786.000000	29.980337
787.000000	30.034704
788.000000	30.117506
789.000000	30.202275
790.000000	30.311370
791.000000	30.429689
792.000000	30.502274
793.000000	30.583509
794.000000	30.664265
795.000000	30.768941
796.000000	30.877103
797.000000	30.926147
798.000000	31.019332
799.000000	31.114147
800.000000	31.206005
801.000000	31.250042
802.000000	31.393930
803.000000	31.515189
804.000000	31.547985
805.000000	31.682513
806.000000	31.747885
807.000000	31.828071
808.000000	31.874905
809.000000	31.936138
810.000000	32.046945
811.000000	32.129997
812.000000	32.257557
813.000000	32.325476
814.000000	32.335091
815.000000	32.452469
816.000000	32.547884
817.000000	32.617349
818.000000	32.668301
819.000000	32.804365
820.000000	32.856198
821.000000	32.980882
822.000000	33.026117
823.000000	33.092886
824.000000	33.180722
825.000000	33.299681
826.000000	33.350147
827.000000	33.425308
828.000000	33.509012
829.000000	33.604169
830.000000	33.670532
831.000000	33.677729
832.000000	33.739694
833.000000	33.816224
834.000000	33.880911
835.000000	34.072766
836.000000	34.090273
837.000000	34.108907
838.000000	34.126064
839.000000	34.228340
840.000000	34.403758
841.000000	34.325824
842.000000	34.410525
843.000000	34.374168
844.000000	34.409758
845.000000	34.574407
846.000000	34.621359
847.000000	34.740324
848.000000	34.701543
849.000000	34.961938
850.000000	35.011399
851.000000	34.839699
852.000000	34.982033
853.000000	35.161865
854.000000	35.071456
855.000000	35.091472
856.000000	35.328931
857.000000	34.998037
858.000000	36.258129
859.000000	35.477080
860.000000	35.796416
861.000000	35.814180
862.000000	35.565059
863.000000	35.786072
864.000000	35.632008
865.000000	35.599202
866.000000	35.558831
867.000000	35.551264
868.000000	35.660956
869.000000	35.700573
870.000000	35.633893
871.000000	35.612661
872.000000	35.509099
873.000000	35.578460
874.000000	35.624726
875.000000	35.478740
876.000000	35.548901
877.000000	35.606205
878.000000	35.572318
879.000000	35.598883
880.000000	35.645213
881.000000	35.508912
882.000000	35.577365
883.000000	35.512486
884.000000	35.565009
885.000000	35.534769
886.000000	35.579696
887.000000	35.559461
888.000000	35.591936
889.000000	35.537353
890.000000	35.669912
891.000000	35.573752
892.000000	35.507986
893.000000	35.399829
894.000000	35.518670
895.000000	35.484063
896.000000	35.557553
897.000000	35.513859
898.000000	35.475502
899.000000	35.413819
900.000000	35.399808
901.000000	35.467417
902.000000	35.447401
903.000000	35.457201
904.000000	35.419576
905.000000	35.399473
906.000000	35.344649
907.000000	35.410435
908.000000	35.347780
909.000000	35.414811
910.000000	35.388806
911.000000	35.473779
912.000000	35.432392
913.000000	35.395921
914.000000	35.398055
915.000000	35.472201
916.000000	35.426516
917.000000	35.405694
918.000000	35.402334
919.000000	35.398849
920.000000	35.346157
921.000000	35.362419
922.000000	35.380091
923.000000	35.383832
924.000000	35.368833
925.000000	35.396504
926.000000	35.439763
927.000000	35.437566
928.000000	35.421571
929.000000	35.409678
930.000000	35.422809
931.000000	35.433852
932.000000	35.413660
933.000000	35.424742
934.000000	35.425970
935.000000	35.365221
936.000000	35.352087
937.000000	35.347637
938.000000	35.363771
939.000000	35.350432
940.000000	35.370229
941.000000	35.393059
942.000000	35.379642
943.000000	35.352125
944.000000	35.372677
945.000000	35.338883
946.000000	35.335997
947.000000	35.350103
948.000000	35.353619
949.000000	35.340201
950.000000	35.306315
951.000000	35.319085
952.000000	35.310571
953.000000	35.319232
954.000000	35.309254
955.000000	35.299895
956.000000	35.276657
957.000000	35.292383
958.000000	35.290798
959.000000	35.264875
960.000000	35.251842
961.000000	35.262470
962.000000	35.270755
963.000000	35.237696
964.000000	35.219346
965.000000	35.219451
966.000000	35.211426
967.000000	35.207774
968.000000	35.214199
969.000000	35.224978
970.000000	35.190034
971.000000	35.192932
972.000000	35.190130
973.000000	35.177295
974.000000	35.167910
975.000000	35.154094
976.000000	35.153139
977.000000	35.151059
978.000000	35.147386
979.000000	35.132483
980.000000	35.117446
981.000000	35.104642
982.000000	35.091713
983.000000	35.087971
984.000000	35.089154
985.000000	35.078230
986.000000	35.058629
987.000000	35.071976
988.000000	35.073213
989.000000	35.074455
990.000000	35.068507
991.000000	35.074160
992.000000	35.074809
993.000000	35.054133
994.000000	35.040425
995.000000	35.033152
996.000000	35.037040
997.000000	35.054499
998.000000	35.042591
999.000000	35.032537
1000.000000	35.026352
1001.000000	35.007898
1002.000000	35.004231
1003.000000	34.993422
1004.000000	35.000439
1005.000000	34.996968
1006.000000	34.978812
1007.000000	34.980611
1008.000000	34.977683
1009.000000	34.958571
1010.000000	34.959254
1011.000000	34.974934
1012.000000	34.970826
1013.000000	34.966964
1014.000000	34.971971
1015.000000	34.974760
1016.000000	34.969509
1017.000000	34.973629
1018.000000	34.987257
1019.000000	34.979412
1020.000000	34.974784
1021.000000	34.991481
1022.000000	34.996059
1023.000000	34.999046
1024.000000	35.013065
1025.000000	35.013980
1026.000000	35.023268
1027.000000	35.036567
1028.000000	35.042597
1029.000000	35.052462
1030.000000	35.064954
1031.000000	35.074393
1032.000000	35.079783
1033.000000	35.081917
1034.000000	35.086942
1035.000000	35.104605
1036.000000	35.116622
1037.000000	35.132348
1038.000000	35.126277
1039.000000	35.115229
1040.000000	35.133721
1041.000000	35.157733
1042.000000	35.163145
1043.000000	35.155728
1044.000000	35.160543
1045.000000	35.181422
1046.000000	35.200440
1047.000000	35.208607
1048.000000	35.214973
1049.000000	35.221806
1050.000000	35.232426
1051.000000	35.240767
1052.000000	35.247712
1053.000000	35.265576
1054.000000	35.275934
1055.000000	35.296334
1056.000000	35.304279
1057.000000	35.313377
1058.000000	35.329574
1059.000000	35.355741
1060.000000	35.370162
1061.000000	35.368382
1062.000000	35.386841
1063.000000	35.405842
1064.000000	35.430417
1065.000000	35.432053
1066.000000	35.443295
1067.000000	35.461264
1068.000000	35.468523
1069.000000	35.462714
1070.000000	35.462514
1071.000000	35.466184
1072.000000	35.472618
1073.000000	35.496364
1074.000000	35.509777
1075.000000	35.533636
1076.000000	35.527445
1077.000000	35.546170
1078.000000	35.553628
1079.000000	35.554381
1080.000000	35.558424
1081.000000	35.549321
1082.000000	35.574910
1083.000000	35.587015
1084.000000	35.581447
1085.000000	35.582830
1086.000000	35.603067
1087.000000	35.616488
1088.000000	35.612031
1089.000000	35.633823
1090.000000	35.624262
1091.000000	35.622726
1092.000000	35.627134
1093.000000	35.635104
1094.000000	35.639779
1095.000000	35.638083
1096.000000	35.641493
1097.000000	35.642014
1098.000000	35.651652
1099.000000	35.637424
1100.000000	35.625383
1101.000000	35.644261
1102.000000	35.628469
1103.000000	35.636667
1104.000000	35.636677
1105.000000	35.632887
1106.000000	35.631968
1107.000000	35.620966
1108.000000	35.619897
1109.000000	35.619797
1110.000000	35.626351
1111.000000	35.620297
1112.000000	35.597151
1113.000000	35.596536
1114.000000	35.575443
1115.000000	35.570334
1116.000000	35.552538
1117.000000	35.534515
1118.000000	35.505671
1119.000000	35.504700
1120.000000	35.494422
1121.000000	35.455731
1122.000000	35.407326
1123.000000	35.375430
1124.000000	35.341469
1125.000000	35.308484
1126.000000	35.246214
1127.000000	35.189907
1128.000000	35.117139
1129.000000	35.052301
1130.000000	34.999130
1131.000000	34.957329
1132.000000	34.894161
1133.000000	34.825914
1134.000000	34.736771
1135.000000	34.647988
1136.000000	34.584402
1137.000000	34.497082
1138.000000	34.436520
1139.000000	34.377744
1140.000000	34.302408
1141.000000	34.250039
1142.000000	34.179804
1143.000000	34.111067
1144.000000	34.059512
1145.000000	33.988194
1146.000000	33.917557
1147.000000	33.847259
1148.000000	33.789663
1149.000000	33.722860
1150.000000	33.661423
1151.000000	33.604164
1152.000000	33.516002
1153.000000	33.448171
1154.000000	33.365502
1155.000000	33.276478
1156.000000	33.187587
1157.000000	33.117934
1158.000000	33.015604
1159.000000	32.935786
1160.000000	32.846423
1161.000000	32.745911
1162.000000	32.651174
1163.000000	32.557890
1164.000000	32.485413
1165.000000	32.402688
1166.000000	32.319710
1167.000000	32.223655
1168.000000	32.143954
1169.000000	32.073683
1170.000000	32.000679
1171.000000	31.945690
1172.000000	31.869947
1173.000000	31.796796
1174.000000	31.738094
1175.000000	31.688743
1176.000000	31.633724
1177.000000	31.597834
1178.000000	31.555010
1179.000000	31.511803
1180.000000	31.462466
1181.000000	31.429404
1182.000000	31.393917
1183.000000	31.379387
1184.000000	31.367396
1185.000000	31.362231
1186.000000	31.351467
1187.000000	31.356297
1188.000000	31.374089
1189.000000	31.393081
1190.000000	31.408395
1191.000000	31.437176
1192.000000	31.468559
1193.000000	31.498332
1194.000000	31.538037
1195.000000	31.563903
1196.000000	31.597688
1197.000000	31.626771
1198.000000	31.671296
1199.000000	31.704507
1200.000000	31.723097
1201.000000	31.753328
1202.000000	31.772740
1203.000000	31.810335
1204.000000	31.837663
1205.000000	31.866007
1206.000000	31.888072
1207.000000	31.929809
1208.000000	31.951086
1209.000000	31.993054
1210.000000	32.023040
1211.000000	32.049510
1212.000000	32.084058
1213.000000	32.113253
1214.000000	32.143693
1215.000000	32.171002
1216.000000	32.215667
1217.000000	32.247079
1218.000000	32.282583
1219.000000	32.329867
1220.000000	32.361640
1221.000000	32.403321
1222.000000	32.440372
1223.000000	32.474820
1224.000000	32.504260
1225.000000	32.543117
1226.000000	32.593115
1227.000000	32.628533
1228.000000	32.654661
1229.000000	32.679443
1230.000000	32.705174
1231.000000	32.738767
1232.000000	32.768135
1233.000000	32.797726
1234.000000	32.821792
1235.000000	32.850095
1236.000000	32.869526
1237.000000	32.887250
1238.000000	32.921453
1239.000000	32.940752
1240.000000	32.954894
1241.000000	32.980995
1242.000000	32.999345
1243.000000	33.019394
1244.000000	33.037880
1245.000000	33.054058
1246.000000	33.076582
1247.000000	33.099988
1248.000000	33.120667
1249.000000	33.131027
1250.000000	33.138731
1251.000000	33.150731
1252.000000	33.168061
1253.000000	33.182423
1254.000000	33.189332
1255.000000	33.188235
1256.000000	33.199107
1257.000000	33.212088
1258.000000	33.216501
1259.000000	33.217940
1260.000000	33.213632
1261.000000	33.210562
1262.000000	33.214476
1263.000000	33.214594
1264.000000	33.218925
1265.000000	33.227042
1266.000000	33.226227
1267.000000	33.219782
1268.000000	33.217975
1269.000000	33.231826
1270.000000	33.235194
1271.000000	33.238870
1272.000000	33.245050
1273.000000	33.237772
1274.000000	33.233513
1275.000000	33.239560
1276.000000	33.252159
1277.000000	33.255622
1278.000000	33.253972
1279.000000	33.261206
1280.000000	33.266343
1281.000000	33.282375
1282.000000	33.306580
1283.000000	33.313053
1284.000000	33.313628
1285.000000	33.323993
1286.000000	33.330457
1287.000000	33.341292
1288.000000	33.355303
1289.000000	33.355729
1290.000000	33.352734
1291.000000	33.369681
1292.000000	33.380904
1293.000000	33.376926
1294.000000	33.382737
1295.000000	33.384390
1296.000000	33.378553
1297.000000	33.376738
1298.000000	33.382641
1299.000000	33.379013
1300.000000	33.370130
1301.000000	33.362788
1302.000000	33.362486
1303.000000	33.358834
1304.000000	33.345668
1305.000000	33.339361
1306.000000	33.336144
1307.000000	33.315538
1308.000000	33.296170
1309.000000	33.287267
1310.000000	33.274569
1311.000000	33.255011
1312.000000	33.240043
1313.000000	33.222328
1314.000000	33.200329
1315.000000	33.185061
1316.000000	33.169251
1317.000000	33.140684
1318.000000	33.108963
1319.000000	33.080121
1320.000000	33.055579
1321.000000	33.024956
1322.000000	32.990820
1323.000000	32.949996
1324.000000	32.913495
1325.000000	32.871334
1326.000000	32.830266
1327.000000	32.770671
1328.000000	32.714333
1329.000000	32.665978
1330.000000	32.610218
1331.000000	32.556878
1332.000000	32.505666
1333.000000	32.448696
1334.000000	32.374541
1335.000000	32.295740
1336.000000	32.224369
1337.000000	32.159281
1338.000000	32.085036
1339.000000	32.010026
1340.000000	31.920179
1341.000000	31.844938
1342.000000	31.771539
1343.000000	31.686177
1344.000000	31.605921
1345.000000	31.524543
1346.000000	31.441550
1347.000000	31.347169
1348.000000	31.258818
1349.000000	31.182690
1350.000000	31.086840
1351.000000	31.006998
1352.000000	30.941951
1353.000000	30.867587
1354.000000	30.764354
1355.000000	30.672187
1356.000000	30.608382
1357.000000	30.535880
1358.000000	30.468988
1359.000000	30.415390
1360.000000	30.330206
1361.000000	30.193806
1362.000000	30.106572
1363.000000	30.033075
1364.000000	29.946176
1365.000000	29.865295
1366.000000	29.800443
1367.000000	29.708659
1368.000000	29.608476
1369.000000	29.548071
1370.000000	29.454630
1371.000000	29.340769
1372.000000	29.249751
1373.000000	29.165600
1374.000000	29.078638
1375.000000	28.960867
1376.000000	28.867458
1377.000000	28.779130
1378.000000	28.712863
1379.000000	28.606167
1380.000000	28.504178
1381.000000	28.344033
1382.000000	28.209691
1383.000000	28.072607
1384.000000	27.949016
1385.000000	27.837962
1386.000000	27.705840
1387.000000	27.559166
1388.000000	27.400493
1389.000000	27.279884
1390.000000	27.158788
1391.000000	27.020387
1392.000000	26.864532
1393.000000	26.732403
1394.000000	26.577363
1395.000000	26.348151
1396.000000	26.176173
1397.000000	26.082537
1398.000000	25.973918
1399.000000	25.777876
1400.000000	25.565979
1401.000000	25.394258
1402.000000	25.255527
1403.000000	25.083591
1404.000000	24.882625
1405.000000	24.691133
1406.000000	24.532295
1407.000000	24.346722
1408.000000	24.162550
1409.000000	23.956875
1410.000000	23.792304
1411.000000	23.651818
1412.000000	23.498469
1413.000000	23.327968
1414.000000	23.138956
1415.000000	22.999076
1416.000000	22.865570
1417.000000	22.730214
1418.000000	22.576715
1419.000000	22.441966
1420.000000	22.315815
1421.000000	22.200459
1422.000000	22.087434
1423.000000	21.967761
1424.000000	21.856846
1425.000000	21.749502
1426.000000	21.656978
1427.000000	21.550879
1428.000000	21.459216
1429.000000	21.387327
1430.000000	21.296512
1431.000000	21.214014
1432.000000	21.132083
1433.000000	21.055588
1434.000000	20.971063
1435.000000	20.902984
1436.000000	20.823791
1437.000000	20.759606
1438.000000	20.690268
1439.000000	20.627675
1440.000000	20.559389
1441.000000	20.496133
1442.000000	20.444586
1443.000000	20.392656
1444.000000	20.314773
1445.000000	20.257491
1446.000000	20.192616
1447.000000	20.147058
1448.000000	20.082359
1449.000000	20.040214
1450.000000	19.970723
1451.000000	19.923119
1452.000000	19.881789
1453.000000	19.833872
1454.000000	19.785186
1455.000000	19.736939
1456.000000	19.687607
1457.000000	19.636199
1458.000000	19.584781
1459.000000	19.533821
1460.000000	19.494995
1461.000000	19.442025
1462.000000	19.397590
1463.000000	19.352135
1464.000000	19.327951
1465.000000	19.273013
1466.000000	19.228190
1467.000000	19.180112
1468.000000	19.132082
1469.000000	19.087500
1470.000000	19.043097
1471.000000	19.005739
1472.000000	18.978614
1473.000000	18.948285
1474.000000	18.905505
1475.000000	18.871643
1476.000000	18.827611
1477.000000	18.794383
1478.000000	18.767483
1479.000000	18.739943
1480.000000	18.705115
1481.000000	18.676401
1482.000000	18.649357
1483.000000	18.636018
1484.000000	18.616797
1485.000000	18.591580
1486.000000	18.570949
1487.000000	18.558167
1488.000000	18.543668
1489.000000	18.532496
1490.000000	18.517992
1491.000000	18.505504
1492.000000	18.505267
1493.000000	18.499212
1494.000000	18.496093
1495.000000	18.493632
1496.000000	18.505628
1497.000000	18.513527
1498.000000	18.529644
1499.000000	18.547629
1500.000000	18.566047
1501.000000	18.575462
1502.000000	18.599503
1503.000000	18.630671
1504.000000	18.661707
1505.000000	18.698583
1506.000000	18.723199
1507.000000	18.749550
1508.000000	18.781152
1509.000000	18.814221
1510.000000	18.838863
1511.000000	18.879924
1512.000000	18.934849
1513.000000	18.964294
1514.000000	18.999354
1515.000000	19.045104
1516.000000	19.088554
1517.000000	19.128856
1518.000000	19.179393
1519.000000	19.210544
1520.000000	19.249205
1521.000000	19.291447
1522.000000	19.328097
1523.000000	19.367326
1524.000000	19.404631
1525.000000	19.443011
1526.000000	19.479780
1527.000000	19.514710
1528.000000	19.551741
1529.000000	19.586672
1530.000000	19.618499
1531.000000	19.647229
1532.000000	19.679406
1533.000000	19.713144
1534.000000	19.754913
1535.000000	19.791130
1536.000000	19.827026
1537.000000	19.860549
1538.000000	19.889063
1539.000000	19.927755
1540.000000	19.962602
1541.000000	20.001404
1542.000000	20.036225
1543.000000	20.069693
1544.000000	20.094712
1545.000000	20.129122
1546.000000	20.177142
1547.000000	20.209941
1548.000000	20.245581
1549.000000	20.280957
1550.000000	20.316599
1551.000000	20.352303
1552.000000	20.387115
1553.000000	20.418532
1554.000000	20.450518
1555.000000	20.483014
1556.000000	20.513797
1557.000000	20.541066
1558.000000	20.556928
1559.000000	20.568092
1560.000000	20.570404
1561.000000	20.578573
1562.000000	20.588490
1563.000000	20.598960
1564.000000	20.606741
1565.000000	20.615427
1566.000000	20.609515
1567.000000	20.609649
1568.000000	20.608132
1569.000000	20.605448
1570.000000	20.612810
1571.000000	20.617144
1572.000000	20.617164
1573.000000	20.625650
1574.000000	20.634994
1575.000000	20.646997
1576.000000	20.655745
1577.000000	20.656868
1578.000000	20.663473
1579.000000	20.694565
1580.000000	20.705536
1581.000000	20.721267
1582.000000	20.745147
1583.000000	20.771094
1584.000000	20.801823
1585.000000	20.828776
1586.000000	20.857316
1587.000000	20.890209
1588.000000	20.915649
1589.000000	20.954048
1590.000000	20.983693
1591.000000	21.020795
1592.000000	21.057476
1593.000000	21.104910
1594.000000	21.139359
1595.000000	21.165319
1596.000000	21.215092
1597.000000	21.249640
1598.000000	21.296189
1599.000000	21.340767
1600.000000	21.382115
1601.000000	21.423881
1602.000000	21.470462
1603.000000	21.511677
1604.000000	21.560011
1605.000000	21.606090
1606.000000	21.646339
1607.000000	21.679470
1608.000000	21.702156
1609.000000	21.749427
1610.000000	21.796137
1611.000000	21.847758
1612.000000	21.884551
1613.000000	21.917101
1614.000000	21.945811
1615.000000	21.987159
1616.000000	22.022110
1617.000000	22.039864
1618.000000	22.074649
1619.000000	22.102718
1620.000000	22.127801
1621.000000	22.143641
1622.000000	22.179062
1623.000000	22.198908
1624.000000	22.225666
1625.000000	22.253612
1626.000000	22.280836
1627.000000	22.318968
1628.000000	22.335528
1629.000000	22.357948
1630.000000	22.378083
1631.000000	22.395118
1632.000000	22.419843
1633.000000	22.440741
1634.000000	22.455152
1635.000000	22.471211
1636.000000	22.491378
1637.000000	22.506733
1638.000000	22.520050
1639.000000	22.523449
1640.000000	22.527093
1641.000000	22.537262
1642.000000	22.549137
1643.000000	22.563771
1644.000000	22.559840
1645.000000	22.567633
1646.000000	22.555409
1647.000000	22.546072
1648.000000	22.548635
1649.000000	22.521685
1650.000000	22.501117
1651.000000	22.473815
1652.000000	22.466829
1653.000000	22.444580
1654.000000	22.406138
1655.000000	22.368431
1656.000000	22.311456
1657.000000	22.274772
1658.000000	22.219912
1659.000000	22.152515
1660.000000	22.090890
1661.000000	22.012739
1662.000000	21.941891
1663.000000	21.875705
1664.000000	21.782410
1665.000000	21.684143
1666.000000	21.606674
1667.000000	21.526285
1668.000000	21.442963
1669.000000	21.342957
1670.000000	21.225372
1671.000000	21.117086
1672.000000	20.986426
1673.000000	20.908453
1674.000000	20.781139
1675.000000	20.660787
1676.000000	20.555933
1677.000000	20.467993
1678.000000	20.370038
1679.000000	20.270508
1680.000000	20.163819
1681.000000	20.067518
1682.000000	19.978808
1683.000000	19.896528
1684.000000	19.825817
1685.000000	19.744420
1686.000000	19.679044
1687.000000	19.617787
1688.000000	19.586644
1689.000000	19.565067
1690.000000	19.524533
1691.000000	19.503572
1692.000000	19.484909
1693.000000	19.461337
1694.000000	19.477507
1695.000000	19.454731
1696.000000	19.440242
1697.000000	19.441955
1698.000000	19.432706
1699.000000	19.425185
1700.000000	19.407400
1701.000000	19.380881
1702.000000	19.368669
1703.000000	19.315254
1704.000000	19.287026
1705.000000	19.248109
1706.000000	19.180550
1707.000000	19.131024
1708.000000	19.065150
1709.000000	19.010411
1710.000000	18.925293
1711.000000	18.847555
1712.000000	18.753671
1713.000000	18.688034
1714.000000	18.605850
1715.000000	18.519650
1716.000000	18.446519
1717.000000	18.352007
1718.000000	18.296829
1719.000000	18.225020
1720.000000	18.184768
1721.000000	18.129949
1722.000000	18.081280
1723.000000	18.023778
1724.000000	17.993692
1725.000000	17.973558
1726.000000	17.956558
1727.000000	17.951714
1728.000000	17.956501
1729.000000	17.965703
1730.000000	17.981450
1731.000000	18.012208
1732.000000	18.037888
1733.000000	18.090334
1734.000000	18.141350
1735.000000	18.183769
1736.000000	18.229049
1737.000000	18.291340
1738.000000	18.332792
1739.000000	18.389252
1740.000000	18.439485
1741.000000	18.494216
1742.000000	18.537698
1743.000000	18.585792
1744.000000	18.633135
1745.000000	18.672657
1746.000000	18.713096
1747.000000	18.763954
1748.000000	18.801922
1749.000000	18.843073
1750.000000	18.867975
1751.000000	18.893794
1752.000000	18.925871
1753.000000	18.955954
1754.000000	18.968552
1755.000000	18.991130
1756.000000	19.013889
1757.000000	19.031405
1758.000000	19.059586
1759.000000	19.077863
1760.000000	19.097563
1761.000000	19.124979
1762.000000	19.157746
1763.000000	19.179068
1764.000000	19.192304
1765.000000	19.220652
1766.000000	19.264854
1767.000000	19.299114
1768.000000	19.329175
1769.000000	19.362997
1770.000000	19.392972
1771.000000	19.424320
1772.000000	19.449565
1773.000000	19.474809
1774.000000	19.507210
1775.000000	19.530506
1776.000000	19.554278
1777.000000	19.580812
1778.000000	19.606001
1779.000000	19.607041
1780.000000	19.629528
1781.000000	19.661457
1782.000000	19.672978
1783.000000	19.693903
1784.000000	19.697702
1785.000000	19.705152
1786.000000	19.729051
1787.000000	19.744156
1788.000000	19.759373
1789.000000	19.779978
1790.000000	19.803006
1791.000000	19.814581
1792.000000	19.809584
1793.000000	19.825098
1794.000000	19.852794
1795.000000	19.871270
1796.000000	19.879996
1797.000000	19.914816
1798.000000	19.959079
1799.000000	19.970235
1800.000000	19.981172
1801.000000	19.994832
1802.000000	20.016991
1803.000000	20.058918
1804.000000	20.075825
1805.000000	20.083169
1806.000000	20.112421
1807.000000	20.134055
1808.000000	20.161419
1809.000000	20.184009
1810.000000	20.202920
1811.000000	20.218543
1812.000000	20.240420
1813.000000	20.266669
1814.000000	20.286022
1815.000000	20.290407
1816.000000	20.310011
1817.000000	20.348742
1818.000000	20.385398
1819.000000	20.385309
1820.000000	20.347454
1821.000000	20.327569
1822.000000	20.345537
1823.000000	20.410031
1824.000000	20.463018
1825.000000	20.483047
1826.000000	20.493730
1827.000000	20.529461
1828.000000	20.550033
1829.000000	20.554535
1830.000000	20.564804
1831.000000	20.608038
1832.000000	20.660781
1833.000000	20.709562
1834.000000	20.750641
1835.000000	20.761912
1836.000000	20.758143
1837.000000	20.772199
1838.000000	20.780909
1839.000000	20.786010
1840.000000	20.773700
1841.000000	20.728400
1842.000000	20.727871
1843.000000	20.794020
1844.000000	20.890560
1845.000000	20.956175
1846.000000	20.915799
1847.000000	20.840492
1848.000000	20.775986
1849.000000	20.802932
1850.000000	20.853648
1851.000000	20.859566
1852.000000	20.829594
1853.000000	20.833970
1854.000000	20.831968
1855.000000	20.842991
1856.000000	20.865507
1857.000000	20.840282
1858.000000	20.807353
1859.000000	20.762749
1860.000000	20.742107
1861.000000	20.722951
1862.000000	20.707512
1863.000000	20.715856
1864.000000	20.700652
1865.000000	20.658197
1866.000000	20.636407
1867.000000	20.563392
1868.000000	20.478187
1869.000000	20.331263
1870.000000	20.137132
1871.000000	19.979137
1872.000000	19.802273
1873.000000	19.585149
1874.000000	19.440259
1875.000000	19.250101
1876.000000	19.088557
1877.000000	18.932715
1878.000000	18.767529
1879.000000	18.608380
1880.000000	18.447479
1881.000000	18.260305
1882.000000	18.045021
1883.000000	17.873452
1884.000000	17.637564
1885.000000	17.473531
1886.000000	17.273898
1887.000000	17.100741
1888.000000	16.858052
1889.000000	16.691934
1890.000000	16.444927
1891.000000	16.163920
1892.000000	15.929526
1893.000000	15.694907
1894.000000	15.477575
1895.000000	15.240586
1896.000000	14.984934
1897.000000	14.729401
1898.000000	14.456993
1899.000000	14.164038
1900.000000	13.914926
1901.000000	13.663137
1902.000000	13.405180
1903.000000	13.153406
1904.000000	12.903510
1905.000000	12.625156
1906.000000	12.446125
1907.000000	12.222946
1908.000000	12.019164
1909.000000	11.850525
1910.000000	11.662492
1911.000000	11.485042
1912.000000	11.246944
1913.000000	11.044866
1914.000000	10.957018
1915.000000	10.795178
1916.000000	10.686267
1917.000000	10.583930
1918.000000	10.444383
1919.000000	10.356707
1920.000000	10.245976
1921.000000	10.140926
1922.000000	10.019457
1923.000000	9.924559
1924.000000	9.914095
1925.000000	9.863311
1926.000000	9.754513
1927.000000	9.695559
1928.000000	9.618921
1929.000000	9.594601
1930.000000	9.573840
1931.000000	9.590428
1932.000000	9.500766
1933.000000	9.491907
1934.000000	9.518636
1935.000000	9.503403
1936.000000	9.470581
1937.000000	9.461646
1938.000000	9.453900
1939.000000	9.482336
1940.000000	9.495339
1941.000000	9.526496
1942.000000	9.517690
1943.000000	9.477819
1944.000000	9.497889
1945.000000	9.562417
1946.000000	9.585204
1947.000000	9.638883
1948.000000	9.720008
1949.000000	9.735332
1950.000000	9.795221
1951.000000	9.836283
1952.000000	9.853100
1953.000000	9.914781
1954.000000	9.902765
1955.000000	10.017333
1956.000000	10.045068
1957.000000	10.124874
1958.000000	10.162183
1959.000000	10.189566
1960.000000	10.249981
1961.000000	10.307607
1962.000000	10.367151
1963.000000	10.444802
1964.000000	10.490564
1965.000000	10.513615
1966.000000	10.561321
1967.000000	10.632378
1968.000000	10.653857
1969.000000	10.727336
1970.000000	10.739651
1971.000000	10.784893
1972.000000	10.873820
1973.000000	10.936911
1974.000000	10.965427
1975.000000	11.053373
1976.000000	11.153555
1977.000000	11.169354
1978.000000	11.232083
1979.000000	11.302417
1980.000000	11.324938
1981.000000	11.384943
1982.000000	11.424951
1983.000000	11.455467
1984.000000	11.560759
1985.000000	11.575259
1986.000000	11.632028
1987.000000	11.715656
1988.000000	11.753510
1989.000000	11.786363
1990.000000	11.844269
1991.000000	11.874507
1992.000000	11.914644
1993.000000	12.022511
1994.000000	12.049530
1995.000000	12.088724
1996.000000	12.179437
1997.000000	12.195136
1998.000000	12.218173
1999.000000	12.259774
2000.000000	12.270861
2001.000000	12.294303
2002.000000	12.322992
2003.000000	12.358109
2004.000000	12.376633
2005.000000	12.359509
2006.000000	12.421182
2007.000000	12.457016
2008.000000	12.446556
2009.000000	12.459395
2010.000000	12.465664
2011.000000	12.445072
2012.000000	12.471448
2013.000000	12.490103
2014.000000	12.477787
2015.000000	12.470221
2016.000000	12.427958
2017.000000	12.396293
2018.000000	12.378175
2019.000000	12.369539
2020.000000	12.356424
2021.000000	12.317388
2022.000000	12.322889
2023.000000	12.256127
2024.000000	12.180178
2025.000000	12.183405
2026.000000	12.113283
2027.000000	12.043766
2028.000000	12.008745
2029.000000	11.991319
2030.000000	11.870133
2031.000000	11.788519
2032.000000	11.752317
2033.000000	11.709946
2034.000000	11.608965
2035.000000	11.559579
2036.000000	11.493031
2037.000000	11.404625
2038.000000	11.297656
2039.000000	11.262131
2040.000000	11.204641
2041.000000	11.088174
2042.000000	11.046080
2043.000000	10.970817
2044.000000	10.864193
2045.000000	10.804699
2046.000000	10.809206
2047.000000	10.798223
2048.000000	10.769113
2049.000000	10.767091
2050.000000	10.686716
2051.000000	10.618039
2052.000000	10.564442
2053.000000	10.540244
2054.000000	10.613950
2055.000000	10.677461
2056.000000	10.651034
2057.000000	10.599440
2058.000000	10.652628
2059.000000	10.705859
2060.000000	10.745737
2061.000000	10.733257
2062.000000	10.825864
2063.000000	10.985762
2064.000000	10.971992
2065.000000	10.989347
2066.000000	11.069387
2067.000000	11.140481
2068.000000	11.210468
2069.000000	11.337159
2070.000000	11.367221
2071.000000	11.347958
2072.000000	11.433619
2073.000000	11.511541
2074.000000	11.530594
2075.000000	11.503513
2076.000000	11.627900
2077.000000	11.694575
2078.000000	11.693126
2079.000000	11.736970
2080.000000	11.794537
2081.000000	11.882567
2082.000000	11.983834
2083.000000	12.025687
2084.000000	12.060001
2085.000000	12.078925
2086.000000	12.075090
2087.000000	12.084711
2088.000000	12.133662
2089.000000	12.141369
2090.000000	12.103386
2091.000000	12.077376
2092.000000	12.116269
2093.000000	12.190338
2094.000000	12.246726
2095.000000	12.162466
2096.000000	12.215044
2097.000000	12.257158
2098.000000	12.167496
2099.000000	12.078628
2100.000000	12.199755
2101.000000	12.207977
2102.000000	12.288082
2103.000000	12.266635
2104.000000	12.185839
2105.000000	12.200630
2106.000000	12.160907
2107.000000	12.153208
2108.000000	12.174371
2109.000000	12.302163
2110.000000	12.348743
2111.000000	12.368813
2112.000000	12.293466
2113.000000	12.283980
2114.000000	12.261752
2115.000000	12.279300
2116.000000	12.272203
2117.000000	12.364044
2118.000000	12.397660
2119.000000	12.349859
2120.000000	12.239169
2121.000000	12.235109
2122.000000	12.309578
2123.000000	12.308734
2124.000000	12.292727
2125.000000	12.256236
2126.000000	12.309050
2127.000000	12.284069
2128.000000	12.182394
2129.000000	12.038946
2130.000000	11.981066
2131.000000	12.123841
2132.000000	12.043494
2133.000000	11.930162
2134.000000	11.982074
2135.000000	11.846633
2136.000000	11.821276
2137.000000	11.753846
2138.000000	11.673837
2139.000000	11.656153
2140.000000	11.559071
2141.000000	11.604122
2142.000000	11.511642
2143.000000	11.501161
2144.000000	11.490016
2145.000000	11.467752
2146.000000	11.430623
2147.000000	11.224333
2148.000000	11.192918
2149.000000	11.090371
2150.000000	11.141664
2151.000000	11.017283
2152.000000	10.798301
2153.000000	10.854161
2154.000000	10.854430
2155.000000	10.741909
2156.000000	10.640841
2157.000000	10.542300
2158.000000	10.512447
2159.000000	10.498763
2160.000000	10.553685
2161.000000	10.524766
2162.000000	10.384944
2163.000000	10.373515
2164.000000	10.435734
2165.000000	10.261410
2166.000000	10.306971
2167.000000	10.167645
2168.000000	10.005562
2169.000000	10.090709
2170.000000	10.154086
2171.000000	10.186167
2172.000000	10.070743
2173.000000	10.196226
2174.000000	10.303734
2175.000000	10.059108
2176.000000	10.060828
2177.000000	10.072133
2178.000000	10.286290
2179.000000	10.192283
2180.000000	10.067096
2181.000000	10.256062
2182.000000	10.160664
2183.000000	10.199117
2184.000000	10.275950
2185.000000	10.179227
2186.000000	10.290768
2187.000000	10.298427
2188.000000	10.340317
2189.000000	10.471917
2190.000000	10.395942
2191.000000	10.410797
2192.000000	10.281969
2193.000000	10.241785
2194.000000	10.478282
2195.000000	10.480564
2196.000000	10.570232
2197.000000	10.579113
2198.000000	10.784573
2199.000000	10.558525
2200.000000	10.755214
2201.000000	10.521634
2202.000000	11.040706
2203.000000	10.931016
2204.000000	10.887402
2205.000000	10.919838
2206.000000	10.965754
2207.000000	10.894809
2208.000000	11.111493
2209.000000	11.213307
2210.000000	11.178871
2211.000000	11.088699
2212.000000	11.033929
2213.000000	11.104962
2214.000000	11.192170
2215.000000	11.192899
2216.000000	11.239496
2217.000000	11.303688
2218.000000	11.363916
2219.000000	11.393137
2220.000000	11.683230
2221.000000	11.511200
2222.000000	11.298561
2223.000000	11.397857
2224.000000	11.405193
2225.000000	11.439202
2226.000000	11.474676
2227.000000	11.627782
2228.000000	11.523080
2229.000000	11.515779
2230.000000	11.553210
2231.000000	11.741339
2232.000000	11.661511
2233.000000	11.690755
2234.000000	11.557986
2235.000000	11.651577
2236.000000	11.655702
2237.000000	11.652892
2238.000000	11.603942
2239.000000	11.511432
2240.000000	11.381099
2241.000000	11.569808
2242.000000	11.380188
2243.000000	11.416691
2244.000000	11.310522
2245.000000	11.292605
2246.000000	11.224430
2247.000000	11.293453
2248.000000	11.110725
2249.000000	10.987565
2250.000000	10.851007
2251.000000	10.886882
2252.000000	10.875423
2253.000000	10.696108
2254.000000	10.495094
2255.000000	10.552308
2256.000000	10.498711
2257.000000	10.393582
2258.000000	10.528865
2259.000000	10.458979
2260.000000	10.181315
2261.000000	10.177232
2262.000000	10.068027
2263.000000	10.044482
2264.000000	10.003864
2265.000000	10.003001
2266.000000	9.838426
2267.000000	9.843206
2268.000000	9.940320
2269.000000	9.952036
2270.000000	9.839778
2271.000000	9.691850
2272.000000	9.810020
2273.000000	9.788167
2274.000000	9.841273
2275.000000	9.700647
2276.000000	9.529158
2277.000000	9.507085
2278.000000	9.515958
2279.000000	9.733309
2280.000000	9.747315
2281.000000	9.666099
2282.000000	9.622246
2283.000000	9.666140
2284.000000	9.634998
2285.000000	9.694602
2286.000000	9.699405
2287.000000	9.660554
2288.000000	9.494968
2289.000000	9.437626
2290.000000	9.433009
2291.000000	9.547009
2292.000000	9.517603
2293.000000	9.551483
2294.000000	9.559557
2295.000000	9.612860
2296.000000	9.440687
2297.000000	9.470237
2298.000000	9.425178
2299.000000	9.403041
2300.000000	9.429678
2301.000000	9.431173
2302.000000	9.482434
2303.000000	9.450655
2304.000000	9.562882
2305.000000	9.676095
2306.000000	9.676057
2307.000000	9.550971
2308.000000	9.504520
2309.000000	9.734161
2310.000000	9.821646
2311.000000	9.860069
2312.000000	9.821151
2313.000000	9.791037
2314.000000	9.787861
2315.000000	9.744826
2316.000000	9.902240
2317.000000	9.986060
2318.000000	9.870359
2319.000000	10.043308
2320.000000	10.207306
2321.000000	10.216987
2322.000000	10.158469
2323.000000	10.092135
2324.000000	10.061110
2325.000000	10.095393
2326.000000	10.071974
2327.000000	10.042184
2328.000000	10.231799
2329.000000	10.216823
2330.000000	10.350390
2331.000000	10.417427
2332.000000	10.149466
2333.000000	10.187310
2334.000000	10.034145
2335.000000	10.136895
2336.000000	10.421246
2337.000000	10.431819
2338.000000	10.228482
2339.000000	10.235578
2340.000000	10.423768
2341.000000	10.513979
2342.000000	10.409625
2343.000000	10.577532
2344.000000	10.531225
2345.000000	10.328064
2346.000000	10.371081
2347.000000	10.588484
2348.000000	10.619714
2349.000000	10.473969
2350.000000	10.388800
2351.000000	10.483138
2352.000000	10.560633
2353.000000	10.754130
2354.000000	10.703272
2355.000000	10.504603
2356.000000	10.552883
2357.000000	10.694971
2358.000000	10.630633
2359.000000	10.743385
2360.000000	11.043065
2361.000000	11.140147
2362.000000	11.010575
2363.000000	11.027508
2364.000000	11.017144
2365.000000	11.011782
2366.000000	10.935773
2367.000000	10.978844
2368.000000	11.085675
2369.000000	11.268530
2370.000000	11.071807
2371.000000	11.120304
2372.000000	11.115655
2373.000000	11.060552
2374.000000	11.102544
2375.000000	11.092379
2376.000000	11.199669
2377.000000	11.417189
2378.000000	11.347432
2379.000000	11.519953
2380.000000	11.624048
2381.000000	11.620161
2382.000000	11.426024
2383.000000	11.366328
2384.000000	11.010753
2385.000000	11.156550
2386.000000	11.383991
2387.000000	11.566306
2388.000000	11.685390
2389.000000	11.572956
2390.000000	11.431970
2391.000000	11.621903
2392.000000	11.557880
2393.000000	11.526827
2394.000000	11.640836
2395.000000	11.567284
2396.000000	11.354704
2397.000000	11.357866
2398.000000	11.311827
2399.000000	11.663887
2400.000000	11.747309
2401.000000	11.543440
2402.000000	11.618599
2403.000000	11.943697
2404.000000	11.893467
2405.000000	11.981349
2406.000000	11.696256
2407.000000	11.968596
2408.000000	11.886753
2409.000000	12.027458
2410.000000	11.736337
2411.000000	11.314495
2412.000000	11.621989
2413.000000	12.451711
2414.000000	12.425550
2415.000000	12.082723
2416.000000	11.560075
2417.000000	11.685586
2418.000000	11.982114
2419.000000	11.747837
2420.000000	11.601880
2421.000000	11.601351
2422.000000	11.945793
2423.000000	12.200700
2424.000000	12.179327
2425.000000	12.106603
2426.000000	12.009770
2427.000000	12.237902
2428.000000	11.791602
2429.000000	12.034443
2430.000000	11.643526
2431.000000	12.045337
2432.000000	11.439430
2433.000000	12.028789
2434.000000	11.835500
2435.000000	12.617059
2436.000000	12.224497
2437.000000	11.982282
2438.000000	11.437942
2439.000000	11.369143
2440.000000	12.118381
2441.000000	12.397984
2442.000000	12.382170
2443.000000	12.211451
2444.000000	12.216928
2445.000000	11.904356
2446.000000	11.799828
2447.000000	12.054652
2448.000000	11.853847
2449.000000	11.933338
2450.000000	12.528973
2451.000000	13.028402
2452.000000	12.920785
2453.000000	11.895819
2454.000000	12.312543
2455.000000	12.892378
2456.000000	12.766939
2457.000000	12.616261
2458.000000	13.442214
2459.000000	12.906522
2460.000000	13.783020
2461.000000	13.689199
2462.000000	13.424321
2463.000000	14.122286
2464.000000	12.912443
2465.000000	13.821876
2466.000000	14.547924
2467.000000	14.331721
2468.000000	13.909212
2469.000000	13.641493
2470.000000	15.041444
2471.000000	14.142203
2472.000000	14.664379
2473.000000	14.818185
2474.000000	15.271565
2475.000000	15.481977
2476.000000	17.174351
2477.000000	17.463851
2478.000000	16.583319
2479.000000	16.784382
2480.000000	17.738287
2481.000000	17.329307
2482.000000	17.922927
2483.000000	17.961667
2484.000000	18.533874
2485.000000	17.330328
2486.000000	17.501819
2487.000000	19.334260
2488.000000	20.429120
2489.000000	20.635075
2490.000000	20.337312
2491.000000	20.709537
2492.000000	20.387641
2493.000000	20.646440
2494.000000	22.251710
2495.000000	20.829546
2496.000000	20.782437
2497.000000	21.428681
2498.000000	22.837018
2499.000000	23.929461
2500.000000	24.169104
2501.000000	nan
2502.000000	nan
2503.000000	nan
2504.000000	nan
2505.000000	nan
2506.000000	nan
2507.000000	nan
2508.000000	nan
2509.000000	nan
2510.000000	nan
2511.000000	nan
2512.000000	nan
2513.000000	nan
2514.000000	nan
2515.000000	nan
2516.000000	nan
2517.000000	nan
2518.000000	nan
2519.000000	nan
2520.000000	nan
2521.000000	nan
2522.000000	nan
2523.000000	nan
2524.000000	nan
2525.000000	nan
2526.000000	nan
2527.000000	nan
2528.000000	nan
2529.000000	nan
2530.000000	nan
2531.000000	nan
2532.000000	nan
2533.000000	nan
2534.000000	nan
2535.000000	nan
2536.000000	nan
2537.000000	nan
2538.000000	nan
2539.000000	nan
2540.000000	nan
2541.000000	nan
2542.000000	nan
2543.000000	nan
2544.000000	nan
2545.000000	nan
2546.000000	nan
2547.000000	nan
2548.000000	nan
2549.000000	nan
2550.000000	nan
2551.000000	nan
2552.000000	nan
2553.000000	nan
2554.000000	nan
2555.000000	nan
2556.000000	nan
2557.000000	nan
2558.000000	nan
2559.000000	nan
2560.000000	nan
2561.000000	nan
2562.000000	nan
2563.000000	nan
2564.000000	nan
2565.000000	nan
2566.000000	nan
2567.000000	nan
2568.000000	nan
2569.000000	nan
2570.000000	nan
2571.000000	nan
2572.000000	nan
2573.000000	nan
2574.000000	nan
2575.000000	nan
2576.000000	nan
2577.000000	nan
2578.000000	nan
2579.000000	nan
2580.000000	nan
2581.000000	nan
2582.000000	nan
2583.000000	nan
2584.000000	nan
2585.000000	nan
2586.000000	nan
2587.000000	nan
2588.000000	nan
2589.000000	nan
2590.000000	nan
2591.000000	nan
2592.000000	nan
2593.000000	nan
2594.000000	nan
2595.000000	nan
2596.000000	nan
2597.000000	nan
2598.000000	nan
2599.000000	nan
2600.000000	nan
2601.000000	nan
2602.000000	nan
2603.000000	nan
2604.000000	nan
2605.000000	nan
2606.000000	nan
2607.000000	nan
2608.000000	nan
2609.000000	nan
2610.000000	nan
2611.000000	nan
2612.000000	nan
2613.000000	nan
2614.000000	nan
2615.000000	nan
2616.000000	nan
2617.000000	nan
2618.000000	nan
2619.000000	nan
2620.000000	nan
2621.000000	nan
2622.000000	nan
2623.000000	nan
2624.000000	nan
2625.000000	nan
2626.000000	nan
2627.000000	nan
2628.000000	nan
2629.000000	nan
2630.000000	nan
2631.000000	nan
2632.000000	nan
2633.000000	nan
2634.000000	nan
2635.000000	nan
2636.000000	nan
2637.000000	nan
2638.000000	nan
2639.000000	nan
2640.000000	nan
2641.000000	nan
2642.000000	nan
2643.000000	nan
2644.000000	nan
2645.000000	nan
2646.000000	nan
2647.000000	nan
2648.000000	nan
2649.000000	nan
2650.000000	nan
2651.000000	nan
2652.000000	nan
2653.000000	nan
2654.000000	nan
2655.000000	nan
2656.000000	nan
2657.000000	nan
2658.000000	nan
2659.000000	nan
2660.000000	nan
2661.000000	nan
2662.000000	nan
2663.000000	nan
2664.000000	nan
2665.000000	nan
2666.000000	nan
2667.000000	nan
2668.000000	nan
2669.000000	nan
2670.000000	nan
2671.000000	nan
2672.000000	nan
2673.000000	nan
2674.000000	nan
2675.000000	nan
2676.000000	nan
2677.000000	nan
2678.000000	nan
2679.000000	nan
2680.000000	nan
2681.000000	nan
2682.000000	nan
2683.000000	nan
2684.000000	nan
2685.000000	nan
2686.000000	nan
2687.000000	nan
2688.000000	nan
2689.000000	nan
2690.000000	nan
2691.000000	nan
2692.000000	nan
2693.000000	nan
2694.000000	nan
2695.000000	nan
2696.000000	nan
2697.000000	nan
2698.000000	nan
2699.000000	nan
2700.000000	nan
2701.000000	nan
2702.000000	nan
2703.000000	nan
2704.000000	nan
2705.000000	nan
2706.000000	nan
2707.000000	nan
2708.000000	nan
2709.000000	nan
2710.000000	nan
2711.000000	nan
2712.000000	nan
2713.000000	nan
2714.000000	nan
2715.000000	nan
2716.000000	nan
2717.000000	nan
2718.000000	nan
2719.000000	nan
2720.000000	nan
2721.000000	nan
2722.000000	nan
2723.000000	nan
2724.000000	nan
2725.000000	nan
2726.000000	nan
2727.000000	nan
2728.000000	nan
2729.000000	nan
2730.000000	nan
2731.000000	nan
2732.000000	nan
2733.000000	nan
2734.000000	nan
2735.000000	nan
2736.000000	nan
2737.000000	nan
2738.000000	nan
2739.000000	nan
2740.000000	nan
2741.000000	nan
2742.000000	nan
2743.000000	nan
2744.000000	nan
2745.000000	nan
2746.000000	nan
2747.000000	nan
2748.000000	nan
2749.000000	nan
2750.000000	nan
2751.000000	nan
2752.000000	nan
2753.000000	nan
2754.000000	nan
2755.000000	nan
2756.000000	nan
2757.000000	nan
2758.000000	nan
2759.000000	nan
2760.000000	nan
2761.000000	nan
2762.000000	nan
2763.000000	nan
2764.000000	nan
2765.000000	nan
2766.000000	nan
2767.000000	nan
2768.000000	nan
2769.000000	nan
2770.000000	nan
2771.000000	nan
2772.000000	nan
2773.000000	nan
2774.000000	nan
2775.000000	nan
2776.000000	nan
2777.000000	nan
2778.000000	nan
2779.000000	nan
2780.000000	nan
2781.000000	nan
2782.000000	nan
2783.000000	nan
2784.000000	nan
2785.000000	nan
2786.000000	nan
2787.000000	nan
2788.000000	nan
2789.000000	nan
2790.000000	nan
2791.000000	nan
2792.000000	nan
2793.000000	nan
2794.000000	nan
2795.000000	nan
2796.000000	nan
2797.000000	nan
2798.000000	nan
2799.000000	nan
2800.000000	nan
2801.000000	nan
2802.000000	nan
2803.000000	nan
2804.000000	nan
2805.000000	nan
2806.000000	nan
2807.000000	nan
2808.000000	nan
2809.000000	nan
2810.000000	nan
2811.000000	nan
2812.000000	nan
2813.000000	nan
2814.000000	nan
2815.000000	nan
2816.000000	nan
2817.000000	nan
2818.000000	nan
2819.000000	nan
2820.000000	nan
2821.000000	nan
2822.000000	nan
2823.000000	nan
2824.000000	nan
2825.000000	nan
2826.000000	nan
2827.000000	nan
2828.000000	nan
2829.000000	nan
2830.000000	nan
2831.000000	nan
2832.000000	nan
2833.000000	nan
2834.000000	nan
2835.000000	nan
2836.000000	nan
2837.000000	nan
2838.000000	nan
2839.000000	nan
2840.000000	nan
2841.000000	nan
2842.000000	nan
2843.000000	nan
2844.000000	nan
2845.000000	nan
2846.000000	nan
2847.000000	nan
2848.000000	nan
2849.000000	nan
2850.000000	nan
2851.000000	nan
2852.000000	nan
2853.000000	nan
2854.000000	nan
2855.000000	nan
2856.000000	nan
2857.000000	nan
2858.000000	nan
2859.000000	nan
2860.000000	nan
2861.000000	nan
2862.000000	nan
2863.000000	nan
2864.000000	nan
2865.000000	nan
2866.000000	nan
2867.000000	nan
2868.000000	nan
2869.000000	nan
2870.000000	nan
2871.000000	nan
2872.000000	nan
2873.000000	nan
2874.000000	nan
2875.000000	nan
2876.000000	nan
2877.000000	nan
2878.000000	nan
2879.000000	nan
2880.000000	nan
2881.000000	nan
2882.000000	nan
2883.000000	nan
2884.000000	nan
2885.000000	nan
2886.000000	nan
2887.000000	nan
2888.000000	nan
2889.000000	nan
2890.000000	nan
2891.000000	nan
2892.000000	nan
2893.000000	nan
2894.000000	nan
2895.000000	nan
2896.000000	nan
2897.000000	nan
2898.000000	nan
2899.000000	nan
2900.000000	nan
2901.000000	nan
2902.000000	nan
2903.000000	nan
2904.000000	nan
2905.000000	nan
2906.000000	nan
2907.000000	nan
2908.000000	nan
2909.000000	nan
2910.000000	nan
2911.000000	nan
2912.000000	nan
2913.000000	nan
2914.000000	nan
2915.000000	nan
2916.000000	nan
2917.000000	nan
2918.000000	nan
2919.000000	nan
2920.000000	nan
2921.000000	nan
2922.000000	nan
2923.000000	nan
2924.000000	nan
2925.000000	nan
2926.000000	nan
2927.000000	nan
2928.000000	nan
2929.000000	nan
2930.000000	nan
2931.000000	nan
2932.000000	nan
2933.000000	nan
2934.000000	nan
2935.000000	nan
2936.000000	nan
2937.000000	nan
2938.000000	nan
2939.000000	nan
2940.000000	nan
2941.000000	nan
2942.000000	nan
2943.000000	nan
2944.000000	nan
2945.000000	nan
2946.000000	nan
2947.000000	nan
2948.000000	nan
2949.000000	nan
2950.000000	nan
2951.000000	nan
2952.000000	nan
2953.000000	nan
2954.000000	nan
2955.000000	nan
2956.000000	nan
2957.000000	nan
2958.000000	nan
2959.000000	nan
2960.000000	nan
2961.000000	nan
2962.000000	nan
2963.000000	nan
2964.000000	nan
2965.000000	nan
2966.000000	nan
2967.000000	nan
2968.000000	nan
2969.000000	nan
2970.000000	nan
2971.000000	nan
2972.000000	nan
2973.000000	nan
2974.000000	nan
2975.000000	nan
2976.000000	nan
2977.000000	nan
2978.000000	nan
2979.000000	nan
2980.000000	nan
2981.000000	nan
2982.000000	nan
2983.000000	nan
2984.000000	nan
2985.000000	nan
2986.000000	nan
2987.000000	nan
2988.000000	nan
2989.000000	nan
2990.000000	nan
2991.000000	nan
2992.000000	nan
2993.000000	nan
2994.000000	nan
2995.000000	nan
2996.000000	nan
2997.000000	nan
2998.000000	nan
2999.000000	nan
3000.000000	nan
