PE UV       SUBTECH     SPECTRUM    ASCII       PEDS        4.00        
   -1
INBUCR0214-4.Sample.ASC
24/02/08
09:24:11.00
24/02/08
09:24:11.00
Vinicio Soto Monge
C. marginata Det: A. Solís INB0003102404 INBIOCRI COSTA RICA. Costa Rica, Prov. Puntarenas, Coto Brus. Zona protectora Las Tablas, Est Biol Las alturas. 1550 m 15-24 MAR 1999, Corrales L_S_322800_591500 #52465
250,000000
1
Lambda 1050
1050L1511233
PerkinElmer UV WinLab 6.3.2.0749 / 2.02.05 Lambda 900 UV/VIS/NIR, Aug  7 2015 09:38:08

0
0
3350/servo 860,8/2
0
0
UV/VIS
1
1
1
DoubleDePol,CommonBeamDepol,RBeamAtt,SBeamAtt,60mm sphere, WB InGaAs Detector
0
0
0
0
Program
Program
3350/servo 860,8/2
3350/0,2 860,8/0,2
3350/0,2 860,8/0,2
0
15.00
 
 
 
0
 
860,8
319,2
860,8
Front
100
on
S:100 R:100
0
0
0
0
 
0
 
 
 
0
 
 
0
0
0
0
0
 
 
 
 
0
0


0
0
#HDR
-1
-1
#GR
nm
%R
1.0
0.0
2500,000000
-1,000000
2251
8
14,725500
1,451600
#DATA

250.000000	2.773833
251.000000	2.774137
252.000000	2.767467
253.000000	2.776183
254.000000	2.746736
255.000000	2.742122
256.000000	2.749619
257.000000	2.723335
258.000000	2.731446
259.000000	2.700612
260.000000	2.708539
261.000000	2.689501
262.000000	2.672928
263.000000	2.654620
264.000000	2.611633
265.000000	2.597755
266.000000	2.574578
267.000000	2.589995
268.000000	2.562154
269.000000	2.561842
270.000000	2.541030
271.000000	2.530641
272.000000	2.512539
273.000000	2.498771
274.000000	2.478939
275.000000	2.488439
276.000000	2.459170
277.000000	2.481896
278.000000	2.477162
279.000000	2.478466
280.000000	2.457936
281.000000	2.460042
282.000000	2.456270
283.000000	2.442963
284.000000	2.408961
285.000000	2.422012
286.000000	2.424056
287.000000	2.411347
288.000000	2.434663
289.000000	2.450481
290.000000	2.447626
291.000000	2.420327
292.000000	2.440828
293.000000	2.431252
294.000000	2.466231
295.000000	2.437698
296.000000	2.461399
297.000000	2.460260
298.000000	2.466151
299.000000	2.475349
300.000000	2.475570
301.000000	2.463411
302.000000	2.470968
303.000000	2.500038
304.000000	2.471359
305.000000	2.494677
306.000000	2.514786
307.000000	2.505415
308.000000	2.522343
309.000000	2.516306
310.000000	2.523661
311.000000	2.521238
312.000000	2.507937
313.000000	2.511749
314.000000	2.533817
315.000000	2.528152
316.000000	2.563292
317.000000	2.731946
318.000000	2.742195
319.000000	2.690526
320.000000	2.608527
321.000000	2.600008
322.000000	2.700153
323.000000	2.768001
324.000000	2.665397
325.000000	2.690479
326.000000	2.621894
327.000000	2.667064
328.000000	2.608326
329.000000	2.585408
330.000000	2.623231
331.000000	2.633369
332.000000	2.672122
333.000000	2.581946
334.000000	2.651002
335.000000	2.641388
336.000000	2.654131
337.000000	2.632365
338.000000	2.647742
339.000000	2.639412
340.000000	2.620528
341.000000	2.684402
342.000000	2.640267
343.000000	2.663829
344.000000	2.644816
345.000000	2.632699
346.000000	2.692155
347.000000	2.718082
348.000000	2.721884
349.000000	2.682583
350.000000	2.706847
351.000000	2.712594
352.000000	2.718367
353.000000	2.725077
354.000000	2.727359
355.000000	2.728544
356.000000	2.710844
357.000000	2.729499
358.000000	2.719425
359.000000	2.733788
360.000000	2.742528
361.000000	2.763678
362.000000	2.749431
363.000000	2.777113
364.000000	2.773686
365.000000	2.775636
366.000000	2.769660
367.000000	2.753930
368.000000	2.771597
369.000000	2.778463
370.000000	2.773550
371.000000	2.758301
372.000000	2.783260
373.000000	2.816563
374.000000	2.797549
375.000000	2.818152
376.000000	2.885795
377.000000	2.954468
378.000000	2.966963
379.000000	2.971985
380.000000	2.979549
381.000000	2.997301
382.000000	3.015191
383.000000	3.020295
384.000000	3.037502
385.000000	3.061418
386.000000	3.070530
387.000000	3.082547
388.000000	3.098585
389.000000	3.113318
390.000000	3.134640
391.000000	3.153187
392.000000	3.174797
393.000000	3.194575
394.000000	3.214491
395.000000	3.239365
396.000000	3.257327
397.000000	3.271757
398.000000	3.292633
399.000000	3.328263
400.000000	3.353760
401.000000	3.373876
402.000000	3.398310
403.000000	3.422560
404.000000	3.454301
405.000000	3.483733
406.000000	3.508504
407.000000	3.537804
408.000000	3.566335
409.000000	3.589802
410.000000	3.616396
411.000000	3.649359
412.000000	3.681762
413.000000	3.712407
414.000000	3.737970
415.000000	3.772069
416.000000	3.810710
417.000000	3.840912
418.000000	3.865063
419.000000	3.894130
420.000000	3.926107
421.000000	3.957245
422.000000	3.991536
423.000000	4.023892
424.000000	4.052752
425.000000	4.081616
426.000000	4.113182
427.000000	4.148267
428.000000	4.180348
429.000000	4.210175
430.000000	4.235469
431.000000	4.264018
432.000000	4.293128
433.000000	4.327567
434.000000	4.356823
435.000000	4.386902
436.000000	4.423270
437.000000	4.450044
438.000000	4.475820
439.000000	4.508570
440.000000	4.535786
441.000000	4.565455
442.000000	4.594347
443.000000	4.621303
444.000000	4.647006
445.000000	4.668585
446.000000	4.688800
447.000000	4.710696
448.000000	4.735413
449.000000	4.752553
450.000000	4.769776
451.000000	4.792282
452.000000	4.817964
453.000000	4.835594
454.000000	4.851361
455.000000	4.871502
456.000000	4.890914
457.000000	4.903774
458.000000	4.925418
459.000000	4.943417
460.000000	4.962456
461.000000	4.981610
462.000000	4.998713
463.000000	5.017913
464.000000	5.038619
465.000000	5.057858
466.000000	5.079264
467.000000	5.100766
468.000000	5.125638
469.000000	5.152420
470.000000	5.175611
471.000000	5.204238
472.000000	5.233177
473.000000	5.266633
474.000000	5.301986
475.000000	5.333625
476.000000	5.367905
477.000000	5.405994
478.000000	5.451420
479.000000	5.495859
480.000000	5.552763
481.000000	5.622405
482.000000	5.682298
483.000000	5.737904
484.000000	5.790082
485.000000	5.839871
486.000000	5.892786
487.000000	5.942829
488.000000	5.997850
489.000000	6.060121
490.000000	6.126742
491.000000	6.194491
492.000000	6.263200
493.000000	6.330710
494.000000	6.406895
495.000000	6.494293
496.000000	6.576157
497.000000	6.666767
498.000000	6.753285
499.000000	6.852959
500.000000	6.949515
501.000000	7.048896
502.000000	7.161635
503.000000	7.278634
504.000000	7.396757
505.000000	7.512500
506.000000	7.623258
507.000000	7.753754
508.000000	7.881942
509.000000	8.020168
510.000000	8.158856
511.000000	8.296761
512.000000	8.431813
513.000000	8.572402
514.000000	8.719770
515.000000	8.865576
516.000000	9.003284
517.000000	9.142566
518.000000	9.282498
519.000000	9.419473
520.000000	9.550882
521.000000	9.679671
522.000000	9.799079
523.000000	9.924975
524.000000	10.041940
525.000000	10.151801
526.000000	10.257299
527.000000	10.356447
528.000000	10.453814
529.000000	10.550394
530.000000	10.639106
531.000000	10.727858
532.000000	10.810186
533.000000	10.894544
534.000000	10.974786
535.000000	11.053808
536.000000	11.138898
537.000000	11.227480
538.000000	11.314135
539.000000	11.394815
540.000000	11.480108
541.000000	11.576173
542.000000	11.664874
543.000000	11.757254
544.000000	11.857897
545.000000	11.945739
546.000000	12.047704
547.000000	12.138711
548.000000	12.222369
549.000000	12.315679
550.000000	12.409248
551.000000	12.500339
552.000000	12.576308
553.000000	12.669995
554.000000	12.747998
555.000000	12.816035
556.000000	12.888264
557.000000	12.946532
558.000000	12.999088
559.000000	13.044652
560.000000	13.134953
561.000000	13.199537
562.000000	13.234989
563.000000	13.265589
564.000000	13.292079
565.000000	13.307139
566.000000	13.329485
567.000000	13.336266
568.000000	13.333907
569.000000	13.324595
570.000000	13.313755
571.000000	13.297841
572.000000	13.274433
573.000000	13.244909
574.000000	13.215284
575.000000	13.169513
576.000000	13.133418
577.000000	13.076091
578.000000	13.034416
579.000000	12.981008
580.000000	12.911816
581.000000	12.843873
582.000000	12.764971
583.000000	12.697306
584.000000	12.618357
585.000000	12.541003
586.000000	12.459174
587.000000	12.374911
588.000000	12.284696
589.000000	12.211395
590.000000	12.127846
591.000000	12.045710
592.000000	11.975882
593.000000	11.899084
594.000000	11.826976
595.000000	11.757740
596.000000	11.689001
597.000000	11.621415
598.000000	11.573719
599.000000	11.512758
600.000000	11.464758
601.000000	11.419242
602.000000	11.388679
603.000000	11.343181
604.000000	11.321184
605.000000	11.284164
606.000000	11.259425
607.000000	11.245144
608.000000	11.232238
609.000000	11.222869
610.000000	11.215440
611.000000	11.207547
612.000000	11.198871
613.000000	11.187666
614.000000	11.182080
615.000000	11.189341
616.000000	11.180612
617.000000	11.183873
618.000000	11.183628
619.000000	11.185600
620.000000	11.180822
621.000000	11.180675
622.000000	11.189971
623.000000	11.187725
624.000000	11.194236
625.000000	11.203046
626.000000	11.214375
627.000000	11.221052
628.000000	11.227285
629.000000	11.237798
630.000000	11.255727
631.000000	11.259912
632.000000	11.280683
633.000000	11.301349
634.000000	11.330080
635.000000	11.343383
636.000000	11.378136
637.000000	11.411485
638.000000	11.440215
639.000000	11.472359
640.000000	11.502431
641.000000	11.534997
642.000000	11.569957
643.000000	11.623579
644.000000	11.663286
645.000000	11.703815
646.000000	11.748489
647.000000	11.793268
648.000000	11.843203
649.000000	11.893558
650.000000	11.943108
651.000000	11.993850
652.000000	12.053070
653.000000	12.116814
654.000000	12.181992
655.000000	12.235381
656.000000	12.290926
657.000000	12.346489
658.000000	12.421340
659.000000	12.494706
660.000000	12.551044
661.000000	12.624355
662.000000	12.708839
663.000000	12.778706
664.000000	12.853640
665.000000	12.926272
666.000000	13.009399
667.000000	13.094970
668.000000	13.173010
669.000000	13.252234
670.000000	13.346802
671.000000	13.440149
672.000000	13.523361
673.000000	13.624475
674.000000	13.729740
675.000000	13.819122
676.000000	13.926627
677.000000	14.019969
678.000000	14.116415
679.000000	14.225771
680.000000	14.338552
681.000000	14.443865
682.000000	14.552376
683.000000	14.666140
684.000000	14.773933
685.000000	14.882899
686.000000	15.009467
687.000000	15.117562
688.000000	15.213010
689.000000	15.342470
690.000000	15.461342
691.000000	15.587800
692.000000	15.717227
693.000000	15.832810
694.000000	15.942194
695.000000	16.060104
696.000000	16.184664
697.000000	16.287765
698.000000	16.398806
699.000000	16.519251
700.000000	16.643330
701.000000	16.763742
702.000000	16.858728
703.000000	16.969967
704.000000	17.084476
705.000000	17.180656
706.000000	17.283410
707.000000	17.381484
708.000000	17.501862
709.000000	17.599539
710.000000	17.686371
711.000000	17.788910
712.000000	17.884031
713.000000	17.959946
714.000000	18.051095
715.000000	18.131228
716.000000	18.206905
717.000000	18.297859
718.000000	18.378814
719.000000	18.461170
720.000000	18.533784
721.000000	18.598588
722.000000	18.671369
723.000000	18.714928
724.000000	18.792049
725.000000	18.865324
726.000000	18.935939
727.000000	18.997464
728.000000	19.058001
729.000000	19.122482
730.000000	19.184884
731.000000	19.243917
732.000000	19.306537
733.000000	19.371863
734.000000	19.416315
735.000000	19.456681
736.000000	19.541123
737.000000	19.602542
738.000000	19.665124
739.000000	19.739623
740.000000	19.782215
741.000000	19.845937
742.000000	19.898271
743.000000	19.944980
744.000000	20.010851
745.000000	20.069287
746.000000	20.128616
747.000000	20.175975
748.000000	20.233830
749.000000	20.293593
750.000000	20.353601
751.000000	20.414720
752.000000	20.468079
753.000000	20.525186
754.000000	20.588264
755.000000	20.637133
756.000000	20.691389
757.000000	20.754566
758.000000	20.802074
759.000000	20.865547
760.000000	20.898944
761.000000	20.945299
762.000000	20.999197
763.000000	21.041377
764.000000	21.082993
765.000000	21.132202
766.000000	21.213656
767.000000	21.266933
768.000000	21.283537
769.000000	21.334135
770.000000	21.386081
771.000000	21.399011
772.000000	21.444975
773.000000	21.514982
774.000000	21.589069
775.000000	21.615404
776.000000	21.659383
777.000000	21.708486
778.000000	21.763546
779.000000	21.762185
780.000000	21.789975
781.000000	21.839894
782.000000	21.901965
783.000000	21.970373
784.000000	21.982667
785.000000	22.018372
786.000000	22.070580
787.000000	22.113302
788.000000	22.125084
789.000000	22.182876
790.000000	22.222400
791.000000	22.264691
792.000000	22.291914
793.000000	22.328853
794.000000	22.371930
795.000000	22.441486
796.000000	22.489089
797.000000	22.529049
798.000000	22.571128
799.000000	22.604492
800.000000	22.624811
801.000000	22.678370
802.000000	22.690266
803.000000	22.702539
804.000000	22.792761
805.000000	22.860389
806.000000	22.892064
807.000000	22.920367
808.000000	22.963723
809.000000	22.961316
810.000000	23.007277
811.000000	23.074597
812.000000	23.128654
813.000000	23.163664
814.000000	23.205079
815.000000	23.234678
816.000000	23.296872
817.000000	23.332020
818.000000	23.368949
819.000000	23.435068
820.000000	23.478528
821.000000	23.554783
822.000000	23.591099
823.000000	23.636914
824.000000	23.603592
825.000000	23.702721
826.000000	23.730750
827.000000	23.799981
828.000000	23.918015
829.000000	23.916075
830.000000	24.001844
831.000000	24.061365
832.000000	23.968548
833.000000	24.116192
834.000000	24.183383
835.000000	24.275577
836.000000	24.297368
837.000000	24.242677
838.000000	24.249075
839.000000	24.359162
840.000000	24.423315
841.000000	24.437616
842.000000	24.336646
843.000000	24.436859
844.000000	24.439222
845.000000	24.539960
846.000000	24.498638
847.000000	24.514664
848.000000	24.465821
849.000000	24.515001
850.000000	24.643612
851.000000	24.500527
852.000000	24.509044
853.000000	24.372010
854.000000	24.546832
855.000000	24.646646
856.000000	24.735125
857.000000	24.653324
858.000000	26.084220
859.000000	25.057843
860.000000	25.049096
861.000000	25.065259
862.000000	25.000858
863.000000	25.204310
864.000000	25.063045
865.000000	25.131159
866.000000	25.093491
867.000000	24.742285
868.000000	24.934590
869.000000	24.730611
870.000000	24.909631
871.000000	24.856524
872.000000	24.811125
873.000000	24.872459
874.000000	24.764048
875.000000	24.781148
876.000000	24.755200
877.000000	24.768765
878.000000	24.680269
879.000000	24.612389
880.000000	24.492432
881.000000	24.620219
882.000000	24.399758
883.000000	24.335334
884.000000	24.436152
885.000000	24.479028
886.000000	24.422809
887.000000	24.473400
888.000000	24.375369
889.000000	24.435098
890.000000	24.283579
891.000000	24.285379
892.000000	24.267798
893.000000	24.335472
894.000000	24.245441
895.000000	24.208691
896.000000	24.078222
897.000000	24.007068
898.000000	24.025348
899.000000	23.903551
900.000000	23.845404
901.000000	23.884228
902.000000	23.893909
903.000000	23.821949
904.000000	23.829251
905.000000	23.839179
906.000000	23.808275
907.000000	23.733384
908.000000	23.685222
909.000000	23.615074
910.000000	23.644154
911.000000	23.541900
912.000000	23.513671
913.000000	23.534495
914.000000	23.454830
915.000000	23.422037
916.000000	23.345104
917.000000	23.333530
918.000000	23.341683
919.000000	23.323158
920.000000	23.227854
921.000000	23.234139
922.000000	23.265208
923.000000	23.250486
924.000000	23.269774
925.000000	23.223417
926.000000	23.204521
927.000000	23.087798
928.000000	23.079872
929.000000	23.073247
930.000000	23.039370
931.000000	23.035169
932.000000	22.995539
933.000000	22.980192
934.000000	22.987834
935.000000	22.988692
936.000000	22.944534
937.000000	22.922052
938.000000	22.892276
939.000000	22.874543
940.000000	22.864575
941.000000	22.793942
942.000000	22.785972
943.000000	22.756484
944.000000	22.708309
945.000000	22.685494
946.000000	22.684973
947.000000	22.656825
948.000000	22.666226
949.000000	22.638318
950.000000	22.640832
951.000000	22.620277
952.000000	22.605575
953.000000	22.571716
954.000000	22.517855
955.000000	22.513730
956.000000	22.497593
957.000000	22.464953
958.000000	22.442762
959.000000	22.438832
960.000000	22.428530
961.000000	22.416672
962.000000	22.411714
963.000000	22.428460
964.000000	22.413162
965.000000	22.397922
966.000000	22.417674
967.000000	22.407547
968.000000	22.375571
969.000000	22.374800
970.000000	22.371084
971.000000	22.368914
972.000000	22.363081
973.000000	22.342805
974.000000	22.321398
975.000000	22.325895
976.000000	22.328153
977.000000	22.342842
978.000000	22.347903
979.000000	22.342954
980.000000	22.342166
981.000000	22.315187
982.000000	22.315297
983.000000	22.308362
984.000000	22.303653
985.000000	22.299922
986.000000	22.278725
987.000000	22.271441
988.000000	22.280189
989.000000	22.266686
990.000000	22.246825
991.000000	22.254404
992.000000	22.280721
993.000000	22.284322
994.000000	22.255400
995.000000	22.263758
996.000000	22.271399
997.000000	22.267806
998.000000	22.259229
999.000000	22.268905
1000.000000	22.261848
1001.000000	22.248472
1002.000000	22.251766
1003.000000	22.252754
1004.000000	22.244149
1005.000000	22.260497
1006.000000	22.281687
1007.000000	22.266975
1008.000000	22.257788
1009.000000	22.262536
1010.000000	22.271830
1011.000000	22.277552
1012.000000	22.281504
1013.000000	22.279965
1014.000000	22.269451
1015.000000	22.282520
1016.000000	22.295721
1017.000000	22.303168
1018.000000	22.315688
1019.000000	22.322825
1020.000000	22.327526
1021.000000	22.330396
1022.000000	22.347026
1023.000000	22.357611
1024.000000	22.356104
1025.000000	22.361263
1026.000000	22.374311
1027.000000	22.379001
1028.000000	22.377999
1029.000000	22.377797
1030.000000	22.394615
1031.000000	22.408842
1032.000000	22.410609
1033.000000	22.411297
1034.000000	22.426871
1035.000000	22.429895
1036.000000	22.441481
1037.000000	22.463214
1038.000000	22.467252
1039.000000	22.476749
1040.000000	22.480896
1041.000000	22.486394
1042.000000	22.487233
1043.000000	22.496541
1044.000000	22.519381
1045.000000	22.527531
1046.000000	22.524596
1047.000000	22.531704
1048.000000	22.536436
1049.000000	22.545232
1050.000000	22.551209
1051.000000	22.577585
1052.000000	22.583849
1053.000000	22.597347
1054.000000	22.602394
1055.000000	22.609044
1056.000000	22.622737
1057.000000	22.633246
1058.000000	22.658555
1059.000000	22.661826
1060.000000	22.679019
1061.000000	22.703520
1062.000000	22.717015
1063.000000	22.718630
1064.000000	22.724419
1065.000000	22.754111
1066.000000	22.766865
1067.000000	22.772468
1068.000000	22.792241
1069.000000	22.802424
1070.000000	22.803383
1071.000000	22.814206
1072.000000	22.822283
1073.000000	22.838638
1074.000000	22.835069
1075.000000	22.850101
1076.000000	22.850652
1077.000000	22.866690
1078.000000	22.881086
1079.000000	22.892316
1080.000000	22.891861
1081.000000	22.913463
1082.000000	22.917493
1083.000000	22.921391
1084.000000	22.932948
1085.000000	22.939616
1086.000000	22.952687
1087.000000	22.962727
1088.000000	22.965140
1089.000000	22.973607
1090.000000	22.975779
1091.000000	22.995423
1092.000000	23.018815
1093.000000	23.026534
1094.000000	23.030796
1095.000000	23.042435
1096.000000	23.052823
1097.000000	23.064332
1098.000000	23.072039
1099.000000	23.094530
1100.000000	23.099981
1101.000000	23.099167
1102.000000	23.116094
1103.000000	23.124457
1104.000000	23.133725
1105.000000	23.157444
1106.000000	23.162582
1107.000000	23.175877
1108.000000	23.190261
1109.000000	23.205198
1110.000000	23.206229
1111.000000	23.221580
1112.000000	23.242582
1113.000000	23.271004
1114.000000	23.279502
1115.000000	23.292469
1116.000000	23.290953
1117.000000	23.309588
1118.000000	23.300000
1119.000000	23.315653
1120.000000	23.305236
1121.000000	23.318063
1122.000000	23.317473
1123.000000	23.309300
1124.000000	23.300397
1125.000000	23.308613
1126.000000	23.313100
1127.000000	23.289041
1128.000000	23.281635
1129.000000	23.274982
1130.000000	23.256376
1131.000000	23.260587
1132.000000	23.254614
1133.000000	23.248419
1134.000000	23.221833
1135.000000	23.205043
1136.000000	23.186928
1137.000000	23.158612
1138.000000	23.159858
1139.000000	23.144629
1140.000000	23.127984
1141.000000	23.131979
1142.000000	23.115988
1143.000000	23.106763
1144.000000	23.106138
1145.000000	23.104945
1146.000000	23.083827
1147.000000	23.085880
1148.000000	23.071726
1149.000000	23.050892
1150.000000	23.037971
1151.000000	23.039951
1152.000000	23.013449
1153.000000	22.983963
1154.000000	22.962098
1155.000000	22.945094
1156.000000	22.935602
1157.000000	22.920751
1158.000000	22.893213
1159.000000	22.869613
1160.000000	22.843992
1161.000000	22.827211
1162.000000	22.796355
1163.000000	22.794092
1164.000000	22.742583
1165.000000	22.714785
1166.000000	22.695189
1167.000000	22.685820
1168.000000	22.647554
1169.000000	22.635066
1170.000000	22.611486
1171.000000	22.604704
1172.000000	22.586352
1173.000000	22.569941
1174.000000	22.558184
1175.000000	22.549477
1176.000000	22.529196
1177.000000	22.514964
1178.000000	22.502743
1179.000000	22.491518
1180.000000	22.493531
1181.000000	22.479544
1182.000000	22.483866
1183.000000	22.475922
1184.000000	22.473886
1185.000000	22.482959
1186.000000	22.495059
1187.000000	22.498113
1188.000000	22.523016
1189.000000	22.544088
1190.000000	22.566463
1191.000000	22.585406
1192.000000	22.622961
1193.000000	22.644752
1194.000000	22.675878
1195.000000	22.700667
1196.000000	22.715442
1197.000000	22.745294
1198.000000	22.758975
1199.000000	22.791342
1200.000000	22.810975
1201.000000	22.831371
1202.000000	22.859301
1203.000000	22.884126
1204.000000	22.887550
1205.000000	22.909771
1206.000000	22.942937
1207.000000	22.959310
1208.000000	22.978291
1209.000000	23.008434
1210.000000	23.029745
1211.000000	23.049441
1212.000000	23.081883
1213.000000	23.104757
1214.000000	23.133274
1215.000000	23.162374
1216.000000	23.184824
1217.000000	23.213123
1218.000000	23.239074
1219.000000	23.273835
1220.000000	23.309856
1221.000000	23.342096
1222.000000	23.373598
1223.000000	23.394133
1224.000000	23.445792
1225.000000	23.475952
1226.000000	23.502295
1227.000000	23.529297
1228.000000	23.555689
1229.000000	23.588087
1230.000000	23.610580
1231.000000	23.629120
1232.000000	23.642433
1233.000000	23.652503
1234.000000	23.672773
1235.000000	23.697772
1236.000000	23.715044
1237.000000	23.724195
1238.000000	23.740977
1239.000000	23.747505
1240.000000	23.751704
1241.000000	23.771569
1242.000000	23.786158
1243.000000	23.799997
1244.000000	23.806948
1245.000000	23.822208
1246.000000	23.836599
1247.000000	23.858495
1248.000000	23.866716
1249.000000	23.881535
1250.000000	23.908334
1251.000000	23.915974
1252.000000	23.922986
1253.000000	23.941140
1254.000000	23.947351
1255.000000	23.961936
1256.000000	23.985577
1257.000000	24.006363
1258.000000	24.007484
1259.000000	24.020823
1260.000000	24.041421
1261.000000	24.064264
1262.000000	24.075985
1263.000000	24.090676
1264.000000	24.107141
1265.000000	24.126215
1266.000000	24.136404
1267.000000	24.143155
1268.000000	24.156628
1269.000000	24.172785
1270.000000	24.189746
1271.000000	24.207343
1272.000000	24.214112
1273.000000	24.224554
1274.000000	24.237381
1275.000000	24.248426
1276.000000	24.257978
1277.000000	24.265866
1278.000000	24.271356
1279.000000	24.293875
1280.000000	24.308300
1281.000000	24.308773
1282.000000	24.316175
1283.000000	24.325552
1284.000000	24.339964
1285.000000	24.355044
1286.000000	24.360902
1287.000000	24.376359
1288.000000	24.394362
1289.000000	24.402242
1290.000000	24.411826
1291.000000	24.411053
1292.000000	24.420696
1293.000000	24.436235
1294.000000	24.442978
1295.000000	24.455344
1296.000000	24.466862
1297.000000	24.480172
1298.000000	24.480801
1299.000000	24.485107
1300.000000	24.496928
1301.000000	24.502609
1302.000000	24.511948
1303.000000	24.517913
1304.000000	24.530599
1305.000000	24.537930
1306.000000	24.537974
1307.000000	24.546116
1308.000000	24.558706
1309.000000	24.574692
1310.000000	24.583342
1311.000000	24.578848
1312.000000	24.583357
1313.000000	24.587492
1314.000000	24.584096
1315.000000	24.590680
1316.000000	24.593241
1317.000000	24.594120
1318.000000	24.587092
1319.000000	24.576898
1320.000000	24.578906
1321.000000	24.571686
1322.000000	24.550710
1323.000000	24.545199
1324.000000	24.544152
1325.000000	24.534739
1326.000000	24.517472
1327.000000	24.494088
1328.000000	24.479726
1329.000000	24.464635
1330.000000	24.435052
1331.000000	24.418704
1332.000000	24.396850
1333.000000	24.369346
1334.000000	24.338532
1335.000000	24.312854
1336.000000	24.291400
1337.000000	24.276506
1338.000000	24.251822
1339.000000	24.230353
1340.000000	24.205750
1341.000000	24.188340
1342.000000	24.151999
1343.000000	24.128894
1344.000000	24.108112
1345.000000	24.086388
1346.000000	24.060154
1347.000000	24.027662
1348.000000	23.998682
1349.000000	23.982743
1350.000000	23.966446
1351.000000	23.943631
1352.000000	23.912802
1353.000000	23.888341
1354.000000	23.851123
1355.000000	23.817325
1356.000000	23.772474
1357.000000	23.736405
1358.000000	23.700140
1359.000000	23.679136
1360.000000	23.628520
1361.000000	23.544880
1362.000000	23.490729
1363.000000	23.429964
1364.000000	23.372715
1365.000000	23.311859
1366.000000	23.291395
1367.000000	23.233230
1368.000000	23.159724
1369.000000	23.124909
1370.000000	23.079196
1371.000000	23.000506
1372.000000	22.947427
1373.000000	22.910369
1374.000000	22.864627
1375.000000	22.814441
1376.000000	22.750735
1377.000000	22.687299
1378.000000	22.661693
1379.000000	22.622413
1380.000000	22.568773
1381.000000	22.451325
1382.000000	22.354838
1383.000000	22.250632
1384.000000	22.206780
1385.000000	22.132859
1386.000000	22.073208
1387.000000	21.986165
1388.000000	21.891388
1389.000000	21.829514
1390.000000	21.786099
1391.000000	21.700715
1392.000000	21.623492
1393.000000	21.561860
1394.000000	21.508228
1395.000000	21.394165
1396.000000	21.279171
1397.000000	21.231554
1398.000000	21.192484
1399.000000	21.102651
1400.000000	20.948393
1401.000000	20.846222
1402.000000	20.796621
1403.000000	20.718487
1404.000000	20.584382
1405.000000	20.473421
1406.000000	20.361159
1407.000000	20.255783
1408.000000	20.136942
1409.000000	20.025675
1410.000000	19.910317
1411.000000	19.820976
1412.000000	19.732662
1413.000000	19.630170
1414.000000	19.502429
1415.000000	19.420260
1416.000000	19.340009
1417.000000	19.252274
1418.000000	19.165739
1419.000000	19.067495
1420.000000	18.984974
1421.000000	18.906918
1422.000000	18.839053
1423.000000	18.768233
1424.000000	18.694700
1425.000000	18.627198
1426.000000	18.552509
1427.000000	18.488595
1428.000000	18.428155
1429.000000	18.376359
1430.000000	18.317102
1431.000000	18.265665
1432.000000	18.206239
1433.000000	18.149404
1434.000000	18.105524
1435.000000	18.051589
1436.000000	18.008753
1437.000000	17.972993
1438.000000	17.913883
1439.000000	17.878006
1440.000000	17.829012
1441.000000	17.781369
1442.000000	17.728529
1443.000000	17.698742
1444.000000	17.672246
1445.000000	17.608063
1446.000000	17.569008
1447.000000	17.538672
1448.000000	17.521328
1449.000000	17.492344
1450.000000	17.452478
1451.000000	17.408793
1452.000000	17.383274
1453.000000	17.358925
1454.000000	17.321091
1455.000000	17.295827
1456.000000	17.271269
1457.000000	17.247135
1458.000000	17.225661
1459.000000	17.194021
1460.000000	17.157368
1461.000000	17.144592
1462.000000	17.098397
1463.000000	17.075555
1464.000000	17.058378
1465.000000	17.033709
1466.000000	17.013972
1467.000000	16.984928
1468.000000	16.966898
1469.000000	16.937846
1470.000000	16.912401
1471.000000	16.877779
1472.000000	16.852091
1473.000000	16.837513
1474.000000	16.815472
1475.000000	16.787224
1476.000000	16.766595
1477.000000	16.748347
1478.000000	16.731429
1479.000000	16.711346
1480.000000	16.695743
1481.000000	16.666119
1482.000000	16.648069
1483.000000	16.633379
1484.000000	16.618819
1485.000000	16.592013
1486.000000	16.578007
1487.000000	16.568307
1488.000000	16.552812
1489.000000	16.536605
1490.000000	16.520382
1491.000000	16.517436
1492.000000	16.515368
1493.000000	16.505195
1494.000000	16.498795
1495.000000	16.494551
1496.000000	16.496109
1497.000000	16.498305
1498.000000	16.504556
1499.000000	16.514377
1500.000000	16.508287
1501.000000	16.510406
1502.000000	16.517568
1503.000000	16.516771
1504.000000	16.528163
1505.000000	16.552106
1506.000000	16.568669
1507.000000	16.584547
1508.000000	16.600724
1509.000000	16.609393
1510.000000	16.620007
1511.000000	16.631540
1512.000000	16.656119
1513.000000	16.678237
1514.000000	16.699370
1515.000000	16.717647
1516.000000	16.742723
1517.000000	16.771668
1518.000000	16.795204
1519.000000	16.821852
1520.000000	16.839135
1521.000000	16.860023
1522.000000	16.876956
1523.000000	16.900308
1524.000000	16.924705
1525.000000	16.943900
1526.000000	16.961402
1527.000000	16.977956
1528.000000	17.002112
1529.000000	17.021664
1530.000000	17.040356
1531.000000	17.062802
1532.000000	17.074390
1533.000000	17.080624
1534.000000	17.099128
1535.000000	17.120712
1536.000000	17.138835
1537.000000	17.161535
1538.000000	17.185360
1539.000000	17.203073
1540.000000	17.221545
1541.000000	17.240744
1542.000000	17.260973
1543.000000	17.277035
1544.000000	17.288758
1545.000000	17.308854
1546.000000	17.334380
1547.000000	17.356679
1548.000000	17.382316
1549.000000	17.404157
1550.000000	17.433468
1551.000000	17.460055
1552.000000	17.471902
1553.000000	17.485954
1554.000000	17.513335
1555.000000	17.522659
1556.000000	17.539261
1557.000000	17.555699
1558.000000	17.564677
1559.000000	17.571416
1560.000000	17.587297
1561.000000	17.589456
1562.000000	17.593652
1563.000000	17.598129
1564.000000	17.598681
1565.000000	17.608029
1566.000000	17.611769
1567.000000	17.602507
1568.000000	17.593831
1569.000000	17.594982
1570.000000	17.593312
1571.000000	17.595967
1572.000000	17.597006
1573.000000	17.598769
1574.000000	17.596082
1575.000000	17.591316
1576.000000	17.597402
1577.000000	17.597673
1578.000000	17.599467
1579.000000	17.602706
1580.000000	17.612972
1581.000000	17.621604
1582.000000	17.618995
1583.000000	17.635421
1584.000000	17.651974
1585.000000	17.659989
1586.000000	17.684992
1587.000000	17.710063
1588.000000	17.720154
1589.000000	17.733261
1590.000000	17.756732
1591.000000	17.776410
1592.000000	17.787590
1593.000000	17.801373
1594.000000	17.827424
1595.000000	17.852351
1596.000000	17.871115
1597.000000	17.887395
1598.000000	17.906275
1599.000000	17.931975
1600.000000	17.960778
1601.000000	17.982637
1602.000000	17.996238
1603.000000	18.028000
1604.000000	18.047464
1605.000000	18.058508
1606.000000	18.085199
1607.000000	18.115252
1608.000000	18.137811
1609.000000	18.166684
1610.000000	18.186857
1611.000000	18.212907
1612.000000	18.228196
1613.000000	18.252932
1614.000000	18.261621
1615.000000	18.273367
1616.000000	18.294864
1617.000000	18.308238
1618.000000	18.318110
1619.000000	18.331429
1620.000000	18.345021
1621.000000	18.365507
1622.000000	18.383102
1623.000000	18.387337
1624.000000	18.403523
1625.000000	18.408786
1626.000000	18.418821
1627.000000	18.446393
1628.000000	18.455515
1629.000000	18.447915
1630.000000	18.471131
1631.000000	18.493664
1632.000000	18.511230
1633.000000	18.522509
1634.000000	18.520930
1635.000000	18.541032
1636.000000	18.535908
1637.000000	18.555276
1638.000000	18.559728
1639.000000	18.560003
1640.000000	18.566920
1641.000000	18.563755
1642.000000	18.565803
1643.000000	18.565804
1644.000000	18.572212
1645.000000	18.574924
1646.000000	18.587408
1647.000000	18.570178
1648.000000	18.569429
1649.000000	18.565502
1650.000000	18.555391
1651.000000	18.541894
1652.000000	18.521272
1653.000000	18.517384
1654.000000	18.498152
1655.000000	18.488833
1656.000000	18.472243
1657.000000	18.447388
1658.000000	18.406810
1659.000000	18.380483
1660.000000	18.336140
1661.000000	18.302257
1662.000000	18.267911
1663.000000	18.219302
1664.000000	18.176604
1665.000000	18.127892
1666.000000	18.071404
1667.000000	18.025196
1668.000000	17.970514
1669.000000	17.912302
1670.000000	17.846712
1671.000000	17.803431
1672.000000	17.732144
1673.000000	17.672361
1674.000000	17.584721
1675.000000	17.533060
1676.000000	17.481449
1677.000000	17.418944
1678.000000	17.345373
1679.000000	17.276155
1680.000000	17.204784
1681.000000	17.138962
1682.000000	17.079463
1683.000000	17.019281
1684.000000	16.947754
1685.000000	16.903684
1686.000000	16.846657
1687.000000	16.807723
1688.000000	16.753698
1689.000000	16.724946
1690.000000	16.699512
1691.000000	16.681223
1692.000000	16.641663
1693.000000	16.622597
1694.000000	16.610044
1695.000000	16.620446
1696.000000	16.595818
1697.000000	16.588753
1698.000000	16.577897
1699.000000	16.580166
1700.000000	16.564681
1701.000000	16.556154
1702.000000	16.551637
1703.000000	16.518499
1704.000000	16.508900
1705.000000	16.467820
1706.000000	16.468117
1707.000000	16.431040
1708.000000	16.394827
1709.000000	16.359393
1710.000000	16.307970
1711.000000	16.280663
1712.000000	16.232463
1713.000000	16.179877
1714.000000	16.118538
1715.000000	16.085906
1716.000000	16.016269
1717.000000	15.960680
1718.000000	15.927804
1719.000000	15.884767
1720.000000	15.840396
1721.000000	15.797896
1722.000000	15.762963
1723.000000	15.731711
1724.000000	15.699329
1725.000000	15.670904
1726.000000	15.654809
1727.000000	15.631859
1728.000000	15.624020
1729.000000	15.628654
1730.000000	15.629974
1731.000000	15.624657
1732.000000	15.637340
1733.000000	15.669827
1734.000000	15.673747
1735.000000	15.678925
1736.000000	15.694997
1737.000000	15.720737
1738.000000	15.756143
1739.000000	15.782849
1740.000000	15.825860
1741.000000	15.862339
1742.000000	15.896894
1743.000000	15.909493
1744.000000	15.934910
1745.000000	15.978985
1746.000000	16.008305
1747.000000	16.034343
1748.000000	16.058044
1749.000000	16.075385
1750.000000	16.083172
1751.000000	16.108782
1752.000000	16.131543
1753.000000	16.161515
1754.000000	16.158179
1755.000000	16.160183
1756.000000	16.163899
1757.000000	16.182801
1758.000000	16.206199
1759.000000	16.223956
1760.000000	16.227461
1761.000000	16.246181
1762.000000	16.265658
1763.000000	16.272890
1764.000000	16.294041
1765.000000	16.316398
1766.000000	16.324576
1767.000000	16.345463
1768.000000	16.392872
1769.000000	16.406314
1770.000000	16.412557
1771.000000	16.430226
1772.000000	16.451920
1773.000000	16.469204
1774.000000	16.479940
1775.000000	16.498227
1776.000000	16.509049
1777.000000	16.509965
1778.000000	16.520649
1779.000000	16.542619
1780.000000	16.548999
1781.000000	16.546670
1782.000000	16.545213
1783.000000	16.565285
1784.000000	16.586116
1785.000000	16.600950
1786.000000	16.607344
1787.000000	16.604703
1788.000000	16.612185
1789.000000	16.628375
1790.000000	16.640231
1791.000000	16.640346
1792.000000	16.653340
1793.000000	16.679412
1794.000000	16.691606
1795.000000	16.695505
1796.000000	16.712760
1797.000000	16.729165
1798.000000	16.751402
1799.000000	16.765285
1800.000000	16.770442
1801.000000	16.784502
1802.000000	16.795257
1803.000000	16.814578
1804.000000	16.834867
1805.000000	16.846166
1806.000000	16.853510
1807.000000	16.869234
1808.000000	16.891496
1809.000000	16.923766
1810.000000	16.950157
1811.000000	16.950651
1812.000000	16.942029
1813.000000	16.969010
1814.000000	16.993056
1815.000000	17.002783
1816.000000	17.033309
1817.000000	17.057436
1818.000000	17.087469
1819.000000	17.097358
1820.000000	17.068426
1821.000000	17.034161
1822.000000	17.032787
1823.000000	17.069836
1824.000000	17.130457
1825.000000	17.177495
1826.000000	17.187625
1827.000000	17.187613
1828.000000	17.197006
1829.000000	17.200119
1830.000000	17.195940
1831.000000	17.229072
1832.000000	17.276853
1833.000000	17.342452
1834.000000	17.375899
1835.000000	17.371783
1836.000000	17.351812
1837.000000	17.345465
1838.000000	17.363431
1839.000000	17.359753
1840.000000	17.334048
1841.000000	17.282189
1842.000000	17.260457
1843.000000	17.287540
1844.000000	17.365251
1845.000000	17.459426
1846.000000	17.418309
1847.000000	17.341855
1848.000000	17.274902
1849.000000	17.273740
1850.000000	17.305779
1851.000000	17.349600
1852.000000	17.372533
1853.000000	17.351227
1854.000000	17.345538
1855.000000	17.346333
1856.000000	17.392942
1857.000000	17.415670
1858.000000	17.400755
1859.000000	17.360211
1860.000000	17.341644
1861.000000	17.287040
1862.000000	17.288167
1863.000000	17.316091
1864.000000	17.320464
1865.000000	17.367862
1866.000000	17.373471
1867.000000	17.354070
1868.000000	17.304231
1869.000000	17.184180
1870.000000	17.102354
1871.000000	16.961717
1872.000000	16.824887
1873.000000	16.696701
1874.000000	16.571446
1875.000000	16.459037
1876.000000	16.375747
1877.000000	16.257833
1878.000000	16.157762
1879.000000	16.070196
1880.000000	15.997346
1881.000000	15.892938
1882.000000	15.753366
1883.000000	15.628895
1884.000000	15.544048
1885.000000	15.434094
1886.000000	15.322366
1887.000000	15.237773
1888.000000	15.135406
1889.000000	15.014294
1890.000000	14.894649
1891.000000	14.740435
1892.000000	14.574400
1893.000000	14.458824
1894.000000	14.331339
1895.000000	14.188558
1896.000000	14.095116
1897.000000	13.966790
1898.000000	13.779360
1899.000000	13.598043
1900.000000	13.396471
1901.000000	13.240231
1902.000000	13.069531
1903.000000	12.889418
1904.000000	12.730881
1905.000000	12.539782
1906.000000	12.341837
1907.000000	12.194153
1908.000000	12.058242
1909.000000	11.970982
1910.000000	11.861287
1911.000000	11.672521
1912.000000	11.593899
1913.000000	11.483067
1914.000000	11.377379
1915.000000	11.262038
1916.000000	11.213908
1917.000000	11.103736
1918.000000	11.043315
1919.000000	10.923429
1920.000000	10.858822
1921.000000	10.764591
1922.000000	10.679568
1923.000000	10.647986
1924.000000	10.559328
1925.000000	10.472063
1926.000000	10.428822
1927.000000	10.395415
1928.000000	10.335616
1929.000000	10.318234
1930.000000	10.254757
1931.000000	10.232780
1932.000000	10.265963
1933.000000	10.168349
1934.000000	10.172614
1935.000000	10.166912
1936.000000	10.179467
1937.000000	10.201350
1938.000000	10.192954
1939.000000	10.133689
1940.000000	10.123204
1941.000000	10.130196
1942.000000	10.148467
1943.000000	10.156271
1944.000000	10.168883
1945.000000	10.182795
1946.000000	10.164726
1947.000000	10.195533
1948.000000	10.208068
1949.000000	10.194477
1950.000000	10.216196
1951.000000	10.271574
1952.000000	10.270485
1953.000000	10.325737
1954.000000	10.353044
1955.000000	10.400842
1956.000000	10.454257
1957.000000	10.480770
1958.000000	10.506223
1959.000000	10.494612
1960.000000	10.538920
1961.000000	10.563776
1962.000000	10.614429
1963.000000	10.612559
1964.000000	10.615561
1965.000000	10.679849
1966.000000	10.728933
1967.000000	10.733733
1968.000000	10.806545
1969.000000	10.792535
1970.000000	10.818135
1971.000000	10.887384
1972.000000	10.885578
1973.000000	10.934795
1974.000000	10.947628
1975.000000	11.032218
1976.000000	11.028898
1977.000000	11.056561
1978.000000	11.122774
1979.000000	11.133951
1980.000000	11.195674
1981.000000	11.212264
1982.000000	11.231524
1983.000000	11.325293
1984.000000	11.363739
1985.000000	11.394977
1986.000000	11.405304
1987.000000	11.420440
1988.000000	11.470690
1989.000000	11.530999
1990.000000	11.574496
1991.000000	11.581726
1992.000000	11.579158
1993.000000	11.612695
1994.000000	11.639407
1995.000000	11.711165
1996.000000	11.748189
1997.000000	11.774942
1998.000000	11.838853
1999.000000	11.850539
2000.000000	11.873499
2001.000000	11.890196
2002.000000	11.931811
2003.000000	11.944603
2004.000000	11.970853
2005.000000	11.990909
2006.000000	12.030018
2007.000000	12.017013
2008.000000	11.990502
2009.000000	12.045467
2010.000000	12.097541
2011.000000	12.105919
2012.000000	12.054102
2013.000000	12.056854
2014.000000	12.130293
2015.000000	12.114753
2016.000000	12.112714
2017.000000	12.117410
2018.000000	12.118350
2019.000000	12.108846
2020.000000	12.093925
2021.000000	12.142230
2022.000000	12.132018
2023.000000	12.094564
2024.000000	12.047216
2025.000000	12.081031
2026.000000	12.080943
2027.000000	12.007247
2028.000000	12.000499
2029.000000	11.986020
2030.000000	11.969727
2031.000000	11.914163
2032.000000	11.845132
2033.000000	11.770760
2034.000000	11.718905
2035.000000	11.721833
2036.000000	11.745229
2037.000000	11.722901
2038.000000	11.733684
2039.000000	11.717035
2040.000000	11.653922
2041.000000	11.593652
2042.000000	11.583683
2043.000000	11.553034
2044.000000	11.529506
2045.000000	11.494202
2046.000000	11.451415
2047.000000	11.447070
2048.000000	11.429101
2049.000000	11.362685
2050.000000	11.321702
2051.000000	11.314123
2052.000000	11.280958
2053.000000	11.204738
2054.000000	11.228801
2055.000000	11.276980
2056.000000	11.224953
2057.000000	11.212977
2058.000000	11.253905
2059.000000	11.302326
2060.000000	11.369342
2061.000000	11.385659
2062.000000	11.385030
2063.000000	11.409039
2064.000000	11.453432
2065.000000	11.529215
2066.000000	11.521444
2067.000000	11.522791
2068.000000	11.625670
2069.000000	11.596394
2070.000000	11.633165
2071.000000	11.709824
2072.000000	11.745599
2073.000000	11.807454
2074.000000	11.905203
2075.000000	11.907063
2076.000000	11.899362
2077.000000	11.969926
2078.000000	12.002421
2079.000000	12.094053
2080.000000	12.155721
2081.000000	12.181533
2082.000000	12.194135
2083.000000	12.191226
2084.000000	12.186233
2085.000000	12.167318
2086.000000	12.223027
2087.000000	12.236437
2088.000000	12.188559
2089.000000	12.235199
2090.000000	12.257938
2091.000000	12.255807
2092.000000	12.323722
2093.000000	12.308599
2094.000000	12.343565
2095.000000	12.323960
2096.000000	12.358940
2097.000000	12.360029
2098.000000	12.418734
2099.000000	12.486133
2100.000000	12.509223
2101.000000	12.457914
2102.000000	12.433474
2103.000000	12.458942
2104.000000	12.424876
2105.000000	12.439408
2106.000000	12.481476
2107.000000	12.407395
2108.000000	12.445933
2109.000000	12.404484
2110.000000	12.411904
2111.000000	12.425182
2112.000000	12.389006
2113.000000	12.428801
2114.000000	12.470927
2115.000000	12.584645
2116.000000	12.593421
2117.000000	12.643996
2118.000000	12.675897
2119.000000	12.669754
2120.000000	12.547146
2121.000000	12.447487
2122.000000	12.548363
2123.000000	12.553010
2124.000000	12.448305
2125.000000	12.516739
2126.000000	12.564016
2127.000000	12.519437
2128.000000	12.487039
2129.000000	12.424469
2130.000000	12.424361
2131.000000	12.507051
2132.000000	12.562976
2133.000000	12.349596
2134.000000	12.466903
2135.000000	12.426189
2136.000000	12.278749
2137.000000	12.289071
2138.000000	12.193168
2139.000000	12.293751
2140.000000	12.426998
2141.000000	12.326479
2142.000000	12.244648
2143.000000	12.198086
2144.000000	12.192424
2145.000000	12.108984
2146.000000	12.069202
2147.000000	11.949528
2148.000000	12.074536
2149.000000	11.930925
2150.000000	11.871969
2151.000000	11.842755
2152.000000	11.865880
2153.000000	11.907949
2154.000000	11.862429
2155.000000	11.725046
2156.000000	11.774228
2157.000000	11.671396
2158.000000	11.530622
2159.000000	11.609462
2160.000000	11.633109
2161.000000	11.671313
2162.000000	11.500755
2163.000000	11.589111
2164.000000	11.644764
2165.000000	11.460440
2166.000000	11.395950
2167.000000	11.343543
2168.000000	11.317914
2169.000000	11.238808
2170.000000	11.349415
2171.000000	11.377536
2172.000000	11.261056
2173.000000	11.239151
2174.000000	11.286940
2175.000000	11.288421
2176.000000	11.438043
2177.000000	11.327964
2178.000000	11.404188
2179.000000	11.323942
2180.000000	11.168456
2181.000000	11.216682
2182.000000	11.252842
2183.000000	11.316910
2184.000000	11.255760
2185.000000	11.445105
2186.000000	11.284725
2187.000000	11.327061
2188.000000	11.427832
2189.000000	11.464977
2190.000000	11.314614
2191.000000	11.449781
2192.000000	11.553454
2193.000000	11.462439
2194.000000	11.570499
2195.000000	11.737742
2196.000000	11.739344
2197.000000	11.874524
2198.000000	11.783799
2199.000000	11.822320
2200.000000	11.859567
2201.000000	11.826572
2202.000000	11.849738
2203.000000	11.860240
2204.000000	11.914337
2205.000000	12.106440
2206.000000	11.937726
2207.000000	11.948246
2208.000000	11.927921
2209.000000	12.121193
2210.000000	12.162290
2211.000000	12.224690
2212.000000	12.054400
2213.000000	12.163498
2214.000000	12.137922
2215.000000	12.021717
2216.000000	12.236063
2217.000000	12.228512
2218.000000	12.354376
2219.000000	12.341382
2220.000000	12.272644
2221.000000	12.424218
2222.000000	12.245113
2223.000000	12.267942
2224.000000	12.349945
2225.000000	12.262597
2226.000000	12.196150
2227.000000	12.340590
2228.000000	12.310146
2229.000000	12.319164
2230.000000	12.319579
2231.000000	12.364539
2232.000000	12.272653
2233.000000	12.453513
2234.000000	12.184797
2235.000000	12.244292
2236.000000	12.248297
2237.000000	12.308809
2238.000000	12.271002
2239.000000	12.327542
2240.000000	12.354626
2241.000000	12.397607
2242.000000	12.318780
2243.000000	12.299655
2244.000000	12.318258
2245.000000	12.234528
2246.000000	12.268206
2247.000000	12.281175
2248.000000	12.158532
2249.000000	12.176953
2250.000000	11.996330
2251.000000	11.974075
2252.000000	11.931776
2253.000000	11.789417
2254.000000	11.848674
2255.000000	11.837489
2256.000000	11.785828
2257.000000	11.703972
2258.000000	11.718344
2259.000000	11.562565
2260.000000	11.596338
2261.000000	11.555090
2262.000000	11.518683
2263.000000	11.578495
2264.000000	11.541895
2265.000000	11.430155
2266.000000	11.442506
2267.000000	11.516217
2268.000000	11.478091
2269.000000	11.324745
2270.000000	11.354979
2271.000000	11.205091
2272.000000	11.189518
2273.000000	11.142611
2274.000000	11.088655
2275.000000	11.220644
2276.000000	11.126460
2277.000000	11.201001
2278.000000	11.139385
2279.000000	10.966152
2280.000000	11.099362
2281.000000	11.215660
2282.000000	11.205446
2283.000000	11.147332
2284.000000	11.290890
2285.000000	11.268941
2286.000000	11.200828
2287.000000	11.240889
2288.000000	11.216133
2289.000000	10.973966
2290.000000	11.004762
2291.000000	11.086924
2292.000000	10.912912
2293.000000	10.790747
2294.000000	11.021662
2295.000000	11.149124
2296.000000	11.117291
2297.000000	11.119065
2298.000000	11.188185
2299.000000	11.286919
2300.000000	11.333183
2301.000000	11.451190
2302.000000	11.458447
2303.000000	11.300969
2304.000000	11.270923
2305.000000	11.220339
2306.000000	11.287995
2307.000000	11.439795
2308.000000	11.409492
2309.000000	11.313821
2310.000000	11.214721
2311.000000	11.029249
2312.000000	11.168956
2313.000000	11.381864
2314.000000	11.418180
2315.000000	11.466706
2316.000000	11.438610
2317.000000	11.387048
2318.000000	11.429094
2319.000000	11.438713
2320.000000	11.472071
2321.000000	11.561498
2322.000000	11.620896
2323.000000	11.548038
2324.000000	11.486108
2325.000000	11.529548
2326.000000	11.644274
2327.000000	11.820280
2328.000000	11.810271
2329.000000	11.735499
2330.000000	11.847641
2331.000000	11.881060
2332.000000	11.909063
2333.000000	11.835828
2334.000000	11.776652
2335.000000	11.721474
2336.000000	11.858666
2337.000000	11.872533
2338.000000	11.771279
2339.000000	11.878556
2340.000000	11.811376
2341.000000	11.716170
2342.000000	11.771292
2343.000000	11.681269
2344.000000	11.586219
2345.000000	11.813551
2346.000000	11.954558
2347.000000	11.822046
2348.000000	11.941028
2349.000000	12.173959
2350.000000	12.004298
2351.000000	11.971093
2352.000000	12.180891
2353.000000	12.202996
2354.000000	12.095221
2355.000000	12.022966
2356.000000	12.497108
2357.000000	12.557017
2358.000000	12.302798
2359.000000	12.268005
2360.000000	12.145932
2361.000000	12.236674
2362.000000	12.301903
2363.000000	12.278329
2364.000000	12.268634
2365.000000	12.031077
2366.000000	11.984741
2367.000000	11.980918
2368.000000	12.186043
2369.000000	12.622287
2370.000000	12.551324
2371.000000	12.387417
2372.000000	12.463386
2373.000000	12.446821
2374.000000	12.456931
2375.000000	12.491572
2376.000000	12.628860
2377.000000	12.706146
2378.000000	12.507743
2379.000000	12.431005
2380.000000	12.640819
2381.000000	12.983298
2382.000000	12.871879
2383.000000	12.606848
2384.000000	12.574331
2385.000000	12.829617
2386.000000	12.766670
2387.000000	12.807003
2388.000000	12.692403
2389.000000	12.633050
2390.000000	12.690926
2391.000000	12.536335
2392.000000	12.420725
2393.000000	12.697785
2394.000000	12.386806
2395.000000	12.876394
2396.000000	13.355241
2397.000000	13.301898
2398.000000	13.337680
2399.000000	13.095905
2400.000000	13.267685
2401.000000	13.036606
2402.000000	12.966426
2403.000000	13.245752
2404.000000	13.252019
2405.000000	12.947712
2406.000000	13.102981
2407.000000	12.774584
2408.000000	12.906965
2409.000000	13.178674
2410.000000	13.085045
2411.000000	13.121109
2412.000000	12.748111
2413.000000	13.111972
2414.000000	13.278439
2415.000000	13.230021
2416.000000	13.363011
2417.000000	13.210892
2418.000000	13.504969
2419.000000	13.231748
2420.000000	13.220951
2421.000000	13.157057
2422.000000	13.173969
2423.000000	13.405214
2424.000000	13.600891
2425.000000	13.786275
2426.000000	13.860759
2427.000000	13.683253
2428.000000	13.835394
2429.000000	13.742813
2430.000000	13.535735
2431.000000	13.837537
2432.000000	13.834340
2433.000000	13.812219
2434.000000	13.767596
2435.000000	13.685564
2436.000000	13.806762
2437.000000	14.105890
2438.000000	13.896410
2439.000000	13.848207
2440.000000	13.268512
2441.000000	13.631326
2442.000000	13.254004
2443.000000	13.060720
2444.000000	12.595325
2445.000000	13.415791
2446.000000	13.562897
2447.000000	13.624876
2448.000000	13.568181
2449.000000	14.520859
2450.000000	14.472925
2451.000000	14.125930
2452.000000	14.752136
2453.000000	14.945235
2454.000000	14.869607
2455.000000	14.531969
2456.000000	15.345755
2457.000000	14.674932
2458.000000	14.421818
2459.000000	15.500685
2460.000000	14.689202
2461.000000	14.824441
2462.000000	15.194040
2463.000000	14.882926
2464.000000	15.271377
2465.000000	16.078898
2466.000000	15.925331
2467.000000	15.198761
2468.000000	15.069698
2469.000000	16.672638
2470.000000	16.690605
2471.000000	16.517469
2472.000000	16.334240
2473.000000	16.968871
2474.000000	16.861262
2475.000000	16.734946
2476.000000	17.786292
2477.000000	17.629603
2478.000000	18.061320
2479.000000	17.896363
2480.000000	18.034807
2481.000000	18.823480
2482.000000	19.755320
2483.000000	21.689875
2484.000000	19.983256
2485.000000	21.778042
2486.000000	21.035068
2487.000000	20.798399
2488.000000	19.897694
2489.000000	22.015750
2490.000000	22.243876
2491.000000	21.401317
2492.000000	22.877749
2493.000000	22.218053
2494.000000	23.122031
2495.000000	22.531736
2496.000000	21.791455
2497.000000	23.254326
2498.000000	22.898488
2499.000000	23.989200
2500.000000	23.486174
2501.000000	nan
2502.000000	nan
2503.000000	nan
2504.000000	nan
2505.000000	nan
2506.000000	nan
2507.000000	nan
2508.000000	nan
2509.000000	nan
2510.000000	nan
2511.000000	nan
2512.000000	nan
2513.000000	nan
2514.000000	nan
2515.000000	nan
2516.000000	nan
2517.000000	nan
2518.000000	nan
2519.000000	nan
2520.000000	nan
2521.000000	nan
2522.000000	nan
2523.000000	nan
2524.000000	nan
2525.000000	nan
2526.000000	nan
2527.000000	nan
2528.000000	nan
2529.000000	nan
2530.000000	nan
2531.000000	nan
2532.000000	nan
2533.000000	nan
2534.000000	nan
2535.000000	nan
2536.000000	nan
2537.000000	nan
2538.000000	nan
2539.000000	nan
2540.000000	nan
2541.000000	nan
2542.000000	nan
2543.000000	nan
2544.000000	nan
2545.000000	nan
2546.000000	nan
2547.000000	nan
2548.000000	nan
2549.000000	nan
2550.000000	nan
2551.000000	nan
2552.000000	nan
2553.000000	nan
2554.000000	nan
2555.000000	nan
2556.000000	nan
2557.000000	nan
2558.000000	nan
2559.000000	nan
2560.000000	nan
2561.000000	nan
2562.000000	nan
2563.000000	nan
2564.000000	nan
2565.000000	nan
2566.000000	nan
2567.000000	nan
2568.000000	nan
2569.000000	nan
2570.000000	nan
2571.000000	nan
2572.000000	nan
2573.000000	nan
2574.000000	nan
2575.000000	nan
2576.000000	nan
2577.000000	nan
2578.000000	nan
2579.000000	nan
2580.000000	nan
2581.000000	nan
2582.000000	nan
2583.000000	nan
2584.000000	nan
2585.000000	nan
2586.000000	nan
2587.000000	nan
2588.000000	nan
2589.000000	nan
2590.000000	nan
2591.000000	nan
2592.000000	nan
2593.000000	nan
2594.000000	nan
2595.000000	nan
2596.000000	nan
2597.000000	nan
2598.000000	nan
2599.000000	nan
2600.000000	nan
2601.000000	nan
2602.000000	nan
2603.000000	nan
2604.000000	nan
2605.000000	nan
2606.000000	nan
2607.000000	nan
2608.000000	nan
2609.000000	nan
2610.000000	nan
2611.000000	nan
2612.000000	nan
2613.000000	nan
2614.000000	nan
2615.000000	nan
2616.000000	nan
2617.000000	nan
2618.000000	nan
2619.000000	nan
2620.000000	nan
2621.000000	nan
2622.000000	nan
2623.000000	nan
2624.000000	nan
2625.000000	nan
2626.000000	nan
2627.000000	nan
2628.000000	nan
2629.000000	nan
2630.000000	nan
2631.000000	nan
2632.000000	nan
2633.000000	nan
2634.000000	nan
2635.000000	nan
2636.000000	nan
2637.000000	nan
2638.000000	nan
2639.000000	nan
2640.000000	nan
2641.000000	nan
2642.000000	nan
2643.000000	nan
2644.000000	nan
2645.000000	nan
2646.000000	nan
2647.000000	nan
2648.000000	nan
2649.000000	nan
2650.000000	nan
2651.000000	nan
2652.000000	nan
2653.000000	nan
2654.000000	nan
2655.000000	nan
2656.000000	nan
2657.000000	nan
2658.000000	nan
2659.000000	nan
2660.000000	nan
2661.000000	nan
2662.000000	nan
2663.000000	nan
2664.000000	nan
2665.000000	nan
2666.000000	nan
2667.000000	nan
2668.000000	nan
2669.000000	nan
2670.000000	nan
2671.000000	nan
2672.000000	nan
2673.000000	nan
2674.000000	nan
2675.000000	nan
2676.000000	nan
2677.000000	nan
2678.000000	nan
2679.000000	nan
2680.000000	nan
2681.000000	nan
2682.000000	nan
2683.000000	nan
2684.000000	nan
2685.000000	nan
2686.000000	nan
2687.000000	nan
2688.000000	nan
2689.000000	nan
2690.000000	nan
2691.000000	nan
2692.000000	nan
2693.000000	nan
2694.000000	nan
2695.000000	nan
2696.000000	nan
2697.000000	nan
2698.000000	nan
2699.000000	nan
2700.000000	nan
2701.000000	nan
2702.000000	nan
2703.000000	nan
2704.000000	nan
2705.000000	nan
2706.000000	nan
2707.000000	nan
2708.000000	nan
2709.000000	nan
2710.000000	nan
2711.000000	nan
2712.000000	nan
2713.000000	nan
2714.000000	nan
2715.000000	nan
2716.000000	nan
2717.000000	nan
2718.000000	nan
2719.000000	nan
2720.000000	nan
2721.000000	nan
2722.000000	nan
2723.000000	nan
2724.000000	nan
2725.000000	nan
2726.000000	nan
2727.000000	nan
2728.000000	nan
2729.000000	nan
2730.000000	nan
2731.000000	nan
2732.000000	nan
2733.000000	nan
2734.000000	nan
2735.000000	nan
2736.000000	nan
2737.000000	nan
2738.000000	nan
2739.000000	nan
2740.000000	nan
2741.000000	nan
2742.000000	nan
2743.000000	nan
2744.000000	nan
2745.000000	nan
2746.000000	nan
2747.000000	nan
2748.000000	nan
2749.000000	nan
2750.000000	nan
2751.000000	nan
2752.000000	nan
2753.000000	nan
2754.000000	nan
2755.000000	nan
2756.000000	nan
2757.000000	nan
2758.000000	nan
2759.000000	nan
2760.000000	nan
2761.000000	nan
2762.000000	nan
2763.000000	nan
2764.000000	nan
2765.000000	nan
2766.000000	nan
2767.000000	nan
2768.000000	nan
2769.000000	nan
2770.000000	nan
2771.000000	nan
2772.000000	nan
2773.000000	nan
2774.000000	nan
2775.000000	nan
2776.000000	nan
2777.000000	nan
2778.000000	nan
2779.000000	nan
2780.000000	nan
2781.000000	nan
2782.000000	nan
2783.000000	nan
2784.000000	nan
2785.000000	nan
2786.000000	nan
2787.000000	nan
2788.000000	nan
2789.000000	nan
2790.000000	nan
2791.000000	nan
2792.000000	nan
2793.000000	nan
2794.000000	nan
2795.000000	nan
2796.000000	nan
2797.000000	nan
2798.000000	nan
2799.000000	nan
2800.000000	nan
2801.000000	nan
2802.000000	nan
2803.000000	nan
2804.000000	nan
2805.000000	nan
2806.000000	nan
2807.000000	nan
2808.000000	nan
2809.000000	nan
2810.000000	nan
2811.000000	nan
2812.000000	nan
2813.000000	nan
2814.000000	nan
2815.000000	nan
2816.000000	nan
2817.000000	nan
2818.000000	nan
2819.000000	nan
2820.000000	nan
2821.000000	nan
2822.000000	nan
2823.000000	nan
2824.000000	nan
2825.000000	nan
2826.000000	nan
2827.000000	nan
2828.000000	nan
2829.000000	nan
2830.000000	nan
2831.000000	nan
2832.000000	nan
2833.000000	nan
2834.000000	nan
2835.000000	nan
2836.000000	nan
2837.000000	nan
2838.000000	nan
2839.000000	nan
2840.000000	nan
2841.000000	nan
2842.000000	nan
2843.000000	nan
2844.000000	nan
2845.000000	nan
2846.000000	nan
2847.000000	nan
2848.000000	nan
2849.000000	nan
2850.000000	nan
2851.000000	nan
2852.000000	nan
2853.000000	nan
2854.000000	nan
2855.000000	nan
2856.000000	nan
2857.000000	nan
2858.000000	nan
2859.000000	nan
2860.000000	nan
2861.000000	nan
2862.000000	nan
2863.000000	nan
2864.000000	nan
2865.000000	nan
2866.000000	nan
2867.000000	nan
2868.000000	nan
2869.000000	nan
2870.000000	nan
2871.000000	nan
2872.000000	nan
2873.000000	nan
2874.000000	nan
2875.000000	nan
2876.000000	nan
2877.000000	nan
2878.000000	nan
2879.000000	nan
2880.000000	nan
2881.000000	nan
2882.000000	nan
2883.000000	nan
2884.000000	nan
2885.000000	nan
2886.000000	nan
2887.000000	nan
2888.000000	nan
2889.000000	nan
2890.000000	nan
2891.000000	nan
2892.000000	nan
2893.000000	nan
2894.000000	nan
2895.000000	nan
2896.000000	nan
2897.000000	nan
2898.000000	nan
2899.000000	nan
2900.000000	nan
2901.000000	nan
2902.000000	nan
2903.000000	nan
2904.000000	nan
2905.000000	nan
2906.000000	nan
2907.000000	nan
2908.000000	nan
2909.000000	nan
2910.000000	nan
2911.000000	nan
2912.000000	nan
2913.000000	nan
2914.000000	nan
2915.000000	nan
2916.000000	nan
2917.000000	nan
2918.000000	nan
2919.000000	nan
2920.000000	nan
2921.000000	nan
2922.000000	nan
2923.000000	nan
2924.000000	nan
2925.000000	nan
2926.000000	nan
2927.000000	nan
2928.000000	nan
2929.000000	nan
2930.000000	nan
2931.000000	nan
2932.000000	nan
2933.000000	nan
2934.000000	nan
2935.000000	nan
2936.000000	nan
2937.000000	nan
2938.000000	nan
2939.000000	nan
2940.000000	nan
2941.000000	nan
2942.000000	nan
2943.000000	nan
2944.000000	nan
2945.000000	nan
2946.000000	nan
2947.000000	nan
2948.000000	nan
2949.000000	nan
2950.000000	nan
2951.000000	nan
2952.000000	nan
2953.000000	nan
2954.000000	nan
2955.000000	nan
2956.000000	nan
2957.000000	nan
2958.000000	nan
2959.000000	nan
2960.000000	nan
2961.000000	nan
2962.000000	nan
2963.000000	nan
2964.000000	nan
2965.000000	nan
2966.000000	nan
2967.000000	nan
2968.000000	nan
2969.000000	nan
2970.000000	nan
2971.000000	nan
2972.000000	nan
2973.000000	nan
2974.000000	nan
2975.000000	nan
2976.000000	nan
2977.000000	nan
2978.000000	nan
2979.000000	nan
2980.000000	nan
2981.000000	nan
2982.000000	nan
2983.000000	nan
2984.000000	nan
2985.000000	nan
2986.000000	nan
2987.000000	nan
2988.000000	nan
2989.000000	nan
2990.000000	nan
2991.000000	nan
2992.000000	nan
2993.000000	nan
2994.000000	nan
2995.000000	nan
2996.000000	nan
2997.000000	nan
2998.000000	nan
2999.000000	nan
3000.000000	nan
