PE UV       SUBTECH     SPECTRUM    ASCII       PEDS        4.00        
   -1
INBUCR0434-4.Sample.ASC
24/02/09
15:47:05.00
24/02/09
15:47:05.00
Vinicio Soto Monge
Chrysina luteomarginata. Det: A. Solíz. COSTA RICA. Prov. Limón, R. B. Hitoy Cerere, Valle La Estrella, Calavera Danta, 370 m. 13 de OCT 2004, B. Gamboa, D. Briceño, M. Moraga, Y. Cárdenas. Tp Luz #78493. INB0003888481 Sin élitros. 
250,000000
1
Lambda 1050
1050L1511233
PerkinElmer UV WinLab 6.3.2.0749 / 2.02.05 Lambda 900 UV/VIS/NIR, Aug  7 2015 09:38:08

0
0
3350/servo 860,8/2
0
0
UV/VIS
1
1
1
DoubleDePol,CommonBeamDepol,RBeamAtt,SBeamAtt,60mm sphere, WB InGaAs Detector
0
0
0
0
Program
Program
3350/servo 860,8/2
3350/0,2 860,8/0,2
3350/0,2 860,8/0,2
0
15.00
 
 
 
0
 
860,8
319,2
860,8
Front
100
on
S:100 R:100
0
0
0
0
 
0
 
 
 
0
 
 
0
0
0
0
0
 
 
 
 
0
0


0
0
#HDR
-1
-1
#GR
nm
%R
1.0
0.0
2500,000000
-1,000000
2251
8
15,418800
1,411100
#DATA

250.000000	5.639582
251.000000	5.658296
252.000000	5.647368
253.000000	5.642024
254.000000	5.649200
255.000000	5.656532
256.000000	5.656951
257.000000	5.649701
258.000000	5.650591
259.000000	5.649344
260.000000	5.653129
261.000000	5.654708
262.000000	5.658848
263.000000	5.655469
264.000000	5.657122
265.000000	5.669825
266.000000	5.667366
267.000000	5.673900
268.000000	5.673398
269.000000	5.675983
270.000000	5.661873
271.000000	5.670608
272.000000	5.678563
273.000000	5.680001
274.000000	5.687273
275.000000	5.683303
276.000000	5.698894
277.000000	5.684484
278.000000	5.692362
279.000000	5.692143
280.000000	5.689772
281.000000	5.698498
282.000000	5.693457
283.000000	5.696575
284.000000	5.693442
285.000000	5.694774
286.000000	5.704832
287.000000	5.700950
288.000000	5.697854
289.000000	5.706773
290.000000	5.716866
291.000000	5.704893
292.000000	5.709567
293.000000	5.709295
294.000000	5.708259
295.000000	5.703109
296.000000	5.710746
297.000000	5.714021
298.000000	5.712843
299.000000	5.719585
300.000000	5.736669
301.000000	5.725820
302.000000	5.710131
303.000000	5.712990
304.000000	5.713572
305.000000	5.723129
306.000000	5.719803
307.000000	5.722915
308.000000	5.721545
309.000000	5.722272
310.000000	5.723193
311.000000	5.720588
312.000000	5.718021
313.000000	5.713137
314.000000	5.718778
315.000000	5.720618
316.000000	5.698915
317.000000	5.513353
318.000000	5.415410
319.000000	5.393232
320.000000	5.553481
321.000000	5.530715
322.000000	5.604422
323.000000	5.617476
324.000000	5.654149
325.000000	5.663011
326.000000	5.578805
327.000000	5.616966
328.000000	5.651785
329.000000	5.640232
330.000000	5.632863
331.000000	5.636808
332.000000	5.666255
333.000000	5.640567
334.000000	5.598612
335.000000	5.675912
336.000000	5.670379
337.000000	5.630003
338.000000	5.652534
339.000000	5.692882
340.000000	5.651958
341.000000	5.722982
342.000000	5.695504
343.000000	5.666610
344.000000	5.682926
345.000000	5.672042
346.000000	5.664310
347.000000	5.686320
348.000000	5.688109
349.000000	5.689633
350.000000	5.660629
351.000000	5.671335
352.000000	5.691142
353.000000	5.703127
354.000000	5.720229
355.000000	5.671752
356.000000	5.697300
357.000000	5.708261
358.000000	5.709132
359.000000	5.705673
360.000000	5.705601
361.000000	5.685868
362.000000	5.701079
363.000000	5.727560
364.000000	5.719442
365.000000	5.734869
366.000000	5.733867
367.000000	5.720599
368.000000	5.738201
369.000000	5.763608
370.000000	5.788102
371.000000	5.793030
372.000000	5.788497
373.000000	5.813618
374.000000	5.835902
375.000000	5.790671
376.000000	5.719240
377.000000	5.806945
378.000000	5.807373
379.000000	5.808731
380.000000	5.806940
381.000000	5.805423
382.000000	5.803733
383.000000	5.806127
384.000000	5.807274
385.000000	5.806813
386.000000	5.807091
387.000000	5.807253
388.000000	5.808061
389.000000	5.808433
390.000000	5.808248
391.000000	5.808323
392.000000	5.806443
393.000000	5.806674
394.000000	5.806166
395.000000	5.810099
396.000000	5.810301
397.000000	5.808746
398.000000	5.810049
399.000000	5.810626
400.000000	5.809713
401.000000	5.809442
402.000000	5.811099
403.000000	5.812639
404.000000	6.461279
405.000000	6.460827
406.000000	6.460664
407.000000	6.459916
408.000000	6.460979
409.000000	6.461761
410.000000	6.461128
411.000000	6.459836
412.000000	6.462966
413.000000	6.463588
414.000000	6.461608
415.000000	6.461731
416.000000	6.462075
417.000000	6.463505
418.000000	6.462249
419.000000	6.459449
420.000000	6.457813
421.000000	6.459062
422.000000	6.458542
423.000000	6.458871
424.000000	6.459160
425.000000	6.457874
426.000000	6.457832
427.000000	6.457244
428.000000	6.456985
429.000000	6.455371
430.000000	6.454733
431.000000	6.453742
432.000000	6.453170
433.000000	6.453111
434.000000	6.451327
435.000000	6.451073
436.000000	6.450438
437.000000	6.449022
438.000000	6.446817
439.000000	6.445881
440.000000	6.446410
441.000000	6.444612
442.000000	6.444962
443.000000	6.444321
444.000000	6.442575
445.000000	6.441291
446.000000	6.439765
447.000000	6.438367
448.000000	6.436049
449.000000	6.435421
450.000000	6.434066
451.000000	6.431946
452.000000	6.431702
453.000000	6.429473
454.000000	6.427725
455.000000	6.427920
456.000000	6.426911
457.000000	6.424409
458.000000	6.422044
459.000000	6.419350
460.000000	6.418425
461.000000	6.418220
462.000000	6.416147
463.000000	6.413802
464.000000	6.412338
465.000000	6.412050
466.000000	6.410392
467.000000	6.408285
468.000000	6.407670
469.000000	6.406459
470.000000	6.405187
471.000000	6.404383
472.000000	6.404835
473.000000	6.404237
474.000000	6.403113
475.000000	6.402754
476.000000	6.401477
477.000000	6.400334
478.000000	6.400863
479.000000	6.401377
480.000000	6.401439
481.000000	6.403815
482.000000	6.405077
483.000000	6.403945
484.000000	6.402160
485.000000	6.399505
486.000000	6.395713
487.000000	6.392372
488.000000	6.389945
489.000000	6.387252
490.000000	6.382129
491.000000	6.377382
492.000000	6.373307
493.000000	6.370055
494.000000	6.367365
495.000000	6.363079
496.000000	6.359691
497.000000	6.356349
498.000000	6.352743
499.000000	6.999219
500.000000	6.994328
501.000000	6.991549
502.000000	6.988548
503.000000	6.985138
504.000000	6.983883
505.000000	6.980660
506.000000	6.976999
507.000000	6.974710
508.000000	6.972769
509.000000	6.969954
510.000000	6.967516
511.000000	6.965073
512.000000	6.964873
513.000000	6.962776
514.000000	6.961344
515.000000	6.960460
516.000000	6.959527
517.000000	6.959323
518.000000	6.959353
519.000000	6.958742
520.000000	6.957895
521.000000	6.955909
522.000000	6.954372
523.000000	6.952334
524.000000	6.952019
525.000000	6.950429
526.000000	6.947762
527.000000	6.944555
528.000000	6.942750
529.000000	6.940625
530.000000	6.938980
531.000000	6.935296
532.000000	6.931359
533.000000	6.928271
534.000000	6.924590
535.000000	6.920717
536.000000	7.566742
537.000000	7.563571
538.000000	7.560000
539.000000	7.556341
540.000000	7.551412
541.000000	7.547866
542.000000	7.543777
543.000000	7.541061
544.000000	7.537001
545.000000	7.533070
546.000000	7.528705
547.000000	7.525438
548.000000	7.521195
549.000000	7.518122
550.000000	7.515192
551.000000	7.510269
552.000000	7.506846
553.000000	7.502116
554.000000	7.499436
555.000000	7.495484
556.000000	7.490034
557.000000	7.486294
558.000000	7.484038
559.000000	7.480540
560.000000	7.497589
561.000000	7.496967
562.000000	7.492513
563.000000	7.490596
564.000000	7.485856
565.000000	8.132178
566.000000	8.126898
567.000000	8.123120
568.000000	8.119172
569.000000	8.116466
570.000000	8.111113
571.000000	8.108669
572.000000	8.105387
573.000000	8.100310
574.000000	8.095715
575.000000	8.091814
576.000000	8.088323
577.000000	8.084025
578.000000	8.079200
579.000000	8.074391
580.000000	8.070020
581.000000	8.066737
582.000000	8.061008
583.000000	8.056925
584.000000	8.053318
585.000000	8.048198
586.000000	8.044249
587.000000	8.039598
588.000000	8.035450
589.000000	8.030654
590.000000	8.025956
591.000000	8.020021
592.000000	8.018621
593.000000	8.013225
594.000000	8.006684
595.000000	8.001017
596.000000	7.999352
597.000000	7.993423
598.000000	7.988529
599.000000	7.982806
600.000000	7.977156
601.000000	7.972902
602.000000	7.967627
603.000000	7.964176
604.000000	7.957308
605.000000	7.954339
606.000000	7.950701
607.000000	7.939813
608.000000	7.937019
609.000000	7.933553
610.000000	7.926054
611.000000	7.922681
612.000000	7.917130
613.000000	7.912650
614.000000	7.906440
615.000000	7.904096
616.000000	7.896563
617.000000	7.892160
618.000000	7.885012
619.000000	7.882259
620.000000	7.875283
621.000000	7.870944
622.000000	7.863678
623.000000	7.856667
624.000000	7.853286
625.000000	7.848508
626.000000	7.842242
627.000000	7.834786
628.000000	7.827526
629.000000	7.823489
630.000000	7.815449
631.000000	7.808719
632.000000	7.803489
633.000000	7.793381
634.000000	7.788960
635.000000	7.784450
636.000000	7.774283
637.000000	7.768680
638.000000	7.762413
639.000000	8.403691
640.000000	8.395966
641.000000	8.386974
642.000000	8.377971
643.000000	8.370099
644.000000	8.360296
645.000000	8.354458
646.000000	8.347926
647.000000	8.338514
648.000000	8.332807
649.000000	8.324213
650.000000	8.314457
651.000000	8.306972
652.000000	8.301046
653.000000	8.289500
654.000000	8.282913
655.000000	8.272755
656.000000	8.261379
657.000000	8.255339
658.000000	8.245966
659.000000	8.236381
660.000000	8.229872
661.000000	8.218974
662.000000	8.209610
663.000000	8.850615
664.000000	8.842293
665.000000	8.833989
666.000000	8.821907
667.000000	8.814700
668.000000	8.805094
669.000000	8.793994
670.000000	8.784582
671.000000	8.776202
672.000000	8.766300
673.000000	8.753804
674.000000	8.744046
675.000000	8.733948
676.000000	8.724308
677.000000	8.711047
678.000000	8.703116
679.000000	8.693246
680.000000	8.683813
681.000000	9.322188
682.000000	9.312450
683.000000	9.301081
684.000000	9.290598
685.000000	9.279162
686.000000	9.271702
687.000000	9.260966
688.000000	9.249823
689.000000	9.238279
690.000000	9.230060
691.000000	9.220842
692.000000	9.210953
693.000000	9.199257
694.000000	9.189179
695.000000	9.177170
696.000000	9.813078
697.000000	9.810774
698.000000	9.798872
699.000000	9.787027
700.000000	9.775672
701.000000	9.763297
702.000000	9.755132
703.000000	9.747575
704.000000	9.739010
705.000000	9.728373
706.000000	9.718497
707.000000	9.702886
708.000000	9.694750
709.000000	9.688155
710.000000	9.676233
711.000000	9.662764
712.000000	10.298797
713.000000	10.290601
714.000000	10.279664
715.000000	10.268915
716.000000	10.256959
717.000000	10.244346
718.000000	10.236553
719.000000	10.228046
720.000000	10.218472
721.000000	10.208017
722.000000	10.194125
723.000000	10.184241
724.000000	10.170546
725.000000	10.158574
726.000000	10.149887
727.000000	10.140136
728.000000	10.776423
729.000000	10.766476
730.000000	10.757341
731.000000	10.748693
732.000000	10.731870
733.000000	10.719318
734.000000	10.709282
735.000000	10.698349
736.000000	10.689932
737.000000	10.679593
738.000000	10.669206
739.000000	10.655593
740.000000	10.639933
741.000000	10.628641
742.000000	10.624155
743.000000	10.613283
744.000000	11.242789
745.000000	11.236381
746.000000	11.222887
747.000000	11.208010
748.000000	11.201947
749.000000	11.187594
750.000000	11.175427
751.000000	11.167163
752.000000	11.157132
753.000000	11.145764
754.000000	11.129338
755.000000	11.118231
756.000000	11.110760
757.000000	11.098620
758.000000	11.086689
759.000000	11.074754
760.000000	11.705056
761.000000	11.694867
762.000000	11.683821
763.000000	11.669894
764.000000	11.657239
765.000000	11.642850
766.000000	11.633538
767.000000	11.620918
768.000000	11.606357
769.000000	11.600865
770.000000	11.588342
771.000000	11.575407
772.000000	11.560998
773.000000	11.546989
774.000000	11.542552
775.000000	11.527022
776.000000	12.155439
777.000000	12.145316
778.000000	12.133798
779.000000	12.121724
780.000000	12.109995
781.000000	12.099008
782.000000	12.088821
783.000000	12.073575
784.000000	12.061648
785.000000	12.051742
786.000000	12.041942
787.000000	12.025373
788.000000	12.012870
789.000000	11.996515
790.000000	11.982754
791.000000	11.974627
792.000000	12.602927
793.000000	12.599847
794.000000	12.589135
795.000000	12.569297
796.000000	12.554991
797.000000	12.545105
798.000000	12.530720
799.000000	12.520018
800.000000	12.509857
801.000000	12.498590
802.000000	12.480468
803.000000	12.475232
804.000000	12.466792
805.000000	12.456918
806.000000	12.434880
807.000000	12.416680
808.000000	12.396386
809.000000	13.024137
810.000000	12.999920
811.000000	12.997981
812.000000	12.987698
813.000000	12.972538
814.000000	12.968880
815.000000	12.948932
816.000000	12.953512
817.000000	12.944645
818.000000	12.931411
819.000000	12.915378
820.000000	12.900810
821.000000	12.895645
822.000000	12.881415
823.000000	12.869522
824.000000	12.857030
825.000000	12.847504
826.000000	12.841667
827.000000	12.830618
828.000000	13.480799
829.000000	13.463413
830.000000	13.443959
831.000000	13.445740
832.000000	13.430891
833.000000	13.429445
834.000000	13.432336
835.000000	13.404647
836.000000	13.405067
837.000000	13.406781
838.000000	13.387631
839.000000	13.374253
840.000000	13.358056
841.000000	13.349260
842.000000	13.368758
843.000000	13.345030
844.000000	13.328312
845.000000	13.336581
846.000000	13.407940
847.000000	13.383547
848.000000	13.366507
849.000000	14.026691
850.000000	13.971096
851.000000	13.364858
852.000000	14.001426
853.000000	13.990133
854.000000	14.029302
855.000000	14.032558
856.000000	14.027569
857.000000	13.852632
858.000000	19.308699
859.000000	13.737602
860.000000	14.214260
861.000000	14.205315
862.000000	14.186253
863.000000	13.674965
864.000000	14.162690
865.000000	14.143046
866.000000	14.131516
867.000000	13.635984
868.000000	13.631745
869.000000	13.618714
870.000000	13.120052
871.000000	13.607009
872.000000	13.604362
873.000000	13.101061
874.000000	13.094188
875.000000	13.091932
876.000000	13.082106
877.000000	13.080451
878.000000	13.567101
879.000000	13.066271
880.000000	13.060518
881.000000	13.053151
882.000000	13.538338
883.000000	13.037839
884.000000	13.038417
885.000000	12.534375
886.000000	12.528875
887.000000	12.519370
888.000000	12.519638
889.000000	12.513864
890.000000	12.503869
891.000000	12.498222
892.000000	12.481499
893.000000	12.478980
894.000000	12.482372
895.000000	12.469658
896.000000	12.459789
897.000000	12.451486
898.000000	12.442520
899.000000	12.438787
900.000000	12.432174
901.000000	12.426153
902.000000	11.923577
903.000000	12.411132
904.000000	11.901963
905.000000	11.889027
906.000000	11.883224
907.000000	11.880039
908.000000	11.861636
909.000000	11.859886
910.000000	11.856093
911.000000	11.845095
912.000000	11.825768
913.000000	11.820750
914.000000	11.810645
915.000000	11.802634
916.000000	11.791022
917.000000	11.774772
918.000000	11.768365
919.000000	11.763743
920.000000	11.750660
921.000000	11.732714
922.000000	11.730898
923.000000	11.716367
924.000000	11.711006
925.000000	11.697670
926.000000	11.692289
927.000000	11.684492
928.000000	11.677127
929.000000	11.667598
930.000000	11.663083
931.000000	11.656168
932.000000	11.639461
933.000000	11.632259
934.000000	11.620436
935.000000	11.606606
936.000000	11.602685
937.000000	11.594896
938.000000	11.589139
939.000000	11.583948
940.000000	11.569974
941.000000	11.565800
942.000000	11.564975
943.000000	11.563627
944.000000	11.548687
945.000000	11.535283
946.000000	11.527599
947.000000	11.523280
948.000000	11.520786
949.000000	11.510596
950.000000	11.504171
951.000000	11.501074
952.000000	11.491833
953.000000	11.481748
954.000000	11.484148
955.000000	11.467778
956.000000	11.460702
957.000000	11.451503
958.000000	11.442809
959.000000	11.444347
960.000000	11.439910
961.000000	11.432491
962.000000	11.915967
963.000000	11.911903
964.000000	11.901416
965.000000	11.899854
966.000000	11.897169
967.000000	11.890517
968.000000	11.886272
969.000000	11.880713
970.000000	11.874793
971.000000	11.871339
972.000000	11.865559
973.000000	11.866345
974.000000	11.861553
975.000000	11.852028
976.000000	11.842036
977.000000	11.837890
978.000000	11.839443
979.000000	11.835261
980.000000	11.829744
981.000000	11.822206
982.000000	11.816944
983.000000	11.813750
984.000000	11.807906
985.000000	11.803614
986.000000	11.799566
987.000000	11.796527
988.000000	11.793405
989.000000	11.791317
990.000000	11.784764
991.000000	11.777648
992.000000	11.772196
993.000000	11.767026
994.000000	11.761607
995.000000	11.759022
996.000000	11.754382
997.000000	11.749748
998.000000	11.747280
999.000000	11.745711
1000.000000	11.739059
1001.000000	11.730866
1002.000000	11.728503
1003.000000	11.727267
1004.000000	11.721955
1005.000000	11.718387
1006.000000	11.715037
1007.000000	11.711834
1008.000000	11.708986
1009.000000	11.705303
1010.000000	11.700952
1011.000000	11.698543
1012.000000	11.695147
1013.000000	11.690258
1014.000000	11.686239
1015.000000	11.685217
1016.000000	11.685551
1017.000000	11.679111
1018.000000	11.672273
1019.000000	11.667125
1020.000000	12.153076
1021.000000	12.151332
1022.000000	12.139222
1023.000000	12.132130
1024.000000	12.133374
1025.000000	12.133424
1026.000000	12.127098
1027.000000	12.118731
1028.000000	12.113044
1029.000000	12.110336
1030.000000	12.106507
1031.000000	12.099741
1032.000000	12.094516
1033.000000	12.088541
1034.000000	12.082810
1035.000000	12.076306
1036.000000	12.073652
1037.000000	12.071804
1038.000000	12.064230
1039.000000	12.058873
1040.000000	12.054355
1041.000000	12.049277
1042.000000	12.043526
1043.000000	12.039376
1044.000000	12.036572
1045.000000	12.031736
1046.000000	12.025954
1047.000000	12.022946
1048.000000	12.013887
1049.000000	12.005833
1050.000000	12.002161
1051.000000	11.997516
1052.000000	11.994750
1053.000000	11.992562
1054.000000	11.987197
1055.000000	11.977761
1056.000000	11.972690
1057.000000	11.967086
1058.000000	12.444943
1059.000000	12.444076
1060.000000	12.439730
1061.000000	12.430589
1062.000000	12.424435
1063.000000	12.420916
1064.000000	12.418856
1065.000000	12.416407
1066.000000	12.407782
1067.000000	12.403460
1068.000000	12.389327
1069.000000	12.381539
1070.000000	12.380576
1071.000000	12.374299
1072.000000	12.373337
1073.000000	12.367708
1074.000000	12.358894
1075.000000	12.356895
1076.000000	12.347819
1077.000000	12.341955
1078.000000	12.337493
1079.000000	12.335526
1080.000000	12.327128
1081.000000	12.319965
1082.000000	12.315008
1083.000000	12.308786
1084.000000	12.310540
1085.000000	12.303234
1086.000000	12.299322
1087.000000	12.291395
1088.000000	12.287899
1089.000000	12.284238
1090.000000	12.278479
1091.000000	12.276885
1092.000000	12.272630
1093.000000	12.267571
1094.000000	12.263939
1095.000000	12.257982
1096.000000	12.739633
1097.000000	12.740019
1098.000000	12.733267
1099.000000	12.728904
1100.000000	12.725507
1101.000000	12.719483
1102.000000	12.716804
1103.000000	12.713654
1104.000000	12.709839
1105.000000	12.700907
1106.000000	12.707551
1107.000000	12.706291
1108.000000	12.699068
1109.000000	12.698600
1110.000000	12.696916
1111.000000	12.692979
1112.000000	12.699667
1113.000000	12.691288
1114.000000	12.679740
1115.000000	12.684862
1116.000000	12.685597
1117.000000	12.684904
1118.000000	12.677120
1119.000000	12.671589
1120.000000	12.682028
1121.000000	12.672502
1122.000000	12.669651
1123.000000	12.669010
1124.000000	12.670957
1125.000000	12.672426
1126.000000	12.673487
1127.000000	12.675612
1128.000000	12.678823
1129.000000	12.681417
1130.000000	12.693421
1131.000000	12.706848
1132.000000	12.718621
1133.000000	12.719733
1134.000000	12.711587
1135.000000	12.224641
1136.000000	12.233726
1137.000000	12.249137
1138.000000	12.263582
1139.000000	12.273283
1140.000000	12.274827
1141.000000	12.281174
1142.000000	12.287260
1143.000000	12.292541
1144.000000	12.293112
1145.000000	12.294208
1146.000000	12.305274
1147.000000	12.301399
1148.000000	12.315223
1149.000000	12.321799
1150.000000	12.327656
1151.000000	12.323140
1152.000000	12.335415
1153.000000	12.337595
1154.000000	12.344830
1155.000000	12.353250
1156.000000	12.368041
1157.000000	11.896657
1158.000000	11.909453
1159.000000	11.916389
1160.000000	11.923001
1161.000000	11.944955
1162.000000	11.960738
1163.000000	11.974474
1164.000000	11.991346
1165.000000	12.002945
1166.000000	12.018772
1167.000000	12.039924
1168.000000	12.045124
1169.000000	12.059716
1170.000000	12.073138
1171.000000	12.082098
1172.000000	12.089857
1173.000000	11.597779
1174.000000	11.607688
1175.000000	11.616946
1176.000000	11.622219
1177.000000	11.642375
1178.000000	11.637712
1179.000000	11.639778
1180.000000	11.645144
1181.000000	11.656523
1182.000000	11.659393
1183.000000	11.665917
1184.000000	11.667006
1185.000000	11.672811
1186.000000	11.663633
1187.000000	11.650170
1188.000000	11.657038
1189.000000	11.657003
1190.000000	11.650282
1191.000000	11.643943
1192.000000	11.633942
1193.000000	11.618135
1194.000000	11.612710
1195.000000	12.092610
1196.000000	12.092503
1197.000000	12.074805
1198.000000	12.075179
1199.000000	12.060840
1200.000000	12.048995
1201.000000	12.044160
1202.000000	12.044239
1203.000000	12.028459
1204.000000	12.023453
1205.000000	12.009124
1206.000000	11.994495
1207.000000	11.991794
1208.000000	11.982403
1209.000000	11.969438
1210.000000	11.961337
1211.000000	11.953269
1212.000000	11.944899
1213.000000	11.934182
1214.000000	11.922803
1215.000000	11.916465
1216.000000	11.903920
1217.000000	11.896883
1218.000000	12.377479
1219.000000	12.374284
1220.000000	12.365220
1221.000000	12.354653
1222.000000	12.346439
1223.000000	12.345420
1224.000000	12.350213
1225.000000	12.343474
1226.000000	12.337542
1227.000000	12.332312
1228.000000	12.333003
1229.000000	12.327022
1230.000000	12.316793
1231.000000	12.312456
1232.000000	12.316733
1233.000000	12.318664
1234.000000	12.315243
1235.000000	12.310104
1236.000000	12.301633
1237.000000	12.301143
1238.000000	12.300102
1239.000000	12.297156
1240.000000	12.297073
1241.000000	12.294226
1242.000000	12.290074
1243.000000	12.284678
1244.000000	12.278307
1245.000000	12.269438
1246.000000	12.257703
1247.000000	12.246605
1248.000000	12.241538
1249.000000	12.241660
1250.000000	12.240061
1251.000000	12.719856
1252.000000	12.715001
1253.000000	12.708555
1254.000000	12.701899
1255.000000	12.697562
1256.000000	12.691830
1257.000000	12.690491
1258.000000	12.686316
1259.000000	12.682957
1260.000000	12.679362
1261.000000	12.676434
1262.000000	12.676230
1263.000000	12.677280
1264.000000	12.674980
1265.000000	12.678892
1266.000000	12.683945
1267.000000	12.682124
1268.000000	12.683434
1269.000000	12.688418
1270.000000	12.685417
1271.000000	12.684908
1272.000000	12.683878
1273.000000	12.680964
1274.000000	12.683133
1275.000000	12.682451
1276.000000	12.683953
1277.000000	12.685441
1278.000000	12.680732
1279.000000	12.680567
1280.000000	12.675889
1281.000000	12.673263
1282.000000	12.669515
1283.000000	12.663151
1284.000000	12.659117
1285.000000	12.658043
1286.000000	12.659841
1287.000000	12.657588
1288.000000	12.654517
1289.000000	12.652542
1290.000000	12.650460
1291.000000	12.644004
1292.000000	12.640394
1293.000000	12.637287
1294.000000	12.632553
1295.000000	12.629491
1296.000000	12.625294
1297.000000	12.625747
1298.000000	12.628263
1299.000000	12.625270
1300.000000	12.624605
1301.000000	12.628992
1302.000000	12.629601
1303.000000	12.628493
1304.000000	12.625635
1305.000000	12.623988
1306.000000	12.624014
1307.000000	12.624280
1308.000000	12.625226
1309.000000	12.626880
1310.000000	12.631178
1311.000000	12.636204
1312.000000	12.639368
1313.000000	12.643622
1314.000000	12.649468
1315.000000	12.651743
1316.000000	12.656858
1317.000000	12.659008
1318.000000	12.664103
1319.000000	12.668838
1320.000000	12.672359
1321.000000	12.679223
1322.000000	12.682271
1323.000000	12.692242
1324.000000	12.698391
1325.000000	12.702986
1326.000000	12.708127
1327.000000	12.715199
1328.000000	12.724952
1329.000000	12.244040
1330.000000	12.255055
1331.000000	12.263858
1332.000000	12.272370
1333.000000	12.282925
1334.000000	12.292750
1335.000000	12.299588
1336.000000	12.310102
1337.000000	12.325302
1338.000000	12.332507
1339.000000	12.346754
1340.000000	12.362907
1341.000000	12.378789
1342.000000	12.390684
1343.000000	12.407544
1344.000000	11.940017
1345.000000	11.959098
1346.000000	11.974945
1347.000000	11.986728
1348.000000	12.004562
1349.000000	12.029053
1350.000000	12.049136
1351.000000	12.073916
1352.000000	12.095428
1353.000000	12.109198
1354.000000	12.112384
1355.000000	12.119836
1356.000000	12.133905
1357.000000	11.663352
1358.000000	11.684715
1359.000000	11.718411
1360.000000	11.719617
1361.000000	11.683790
1362.000000	11.701545
1363.000000	11.733449
1364.000000	11.245512
1365.000000	11.265497
1366.000000	11.300651
1367.000000	11.309529
1368.000000	11.331680
1369.000000	11.364468
1370.000000	10.900035
1371.000000	10.919820
1372.000000	10.961912
1373.000000	11.011106
1374.000000	11.063130
1375.000000	10.611732
1376.000000	10.667892
1377.000000	10.717361
1378.000000	10.785045
1379.000000	10.823809
1380.000000	10.362895
1381.000000	10.360977
1382.000000	10.370152
1383.000000	10.374308
1384.000000	10.404377
1385.000000	10.427332
1386.000000	10.448722
1387.000000	9.946082
1388.000000	9.946490
1389.000000	9.976371
1390.000000	10.001897
1391.000000	10.003927
1392.000000	10.005524
1393.000000	10.023700
1394.000000	10.028649
1395.000000	9.996688
1396.000000	10.000262
1397.000000	10.054880
1398.000000	10.090963
1399.000000	9.593083
1400.000000	9.564003
1401.000000	9.589742
1402.000000	9.642311
1403.000000	9.683689
1404.000000	9.688035
1405.000000	9.707209
1406.000000	9.732640
1407.000000	9.758013
1408.000000	9.278926
1409.000000	9.289907
1410.000000	9.326393
1411.000000	9.372992
1412.000000	9.398703
1413.000000	9.414374
1414.000000	9.417128
1415.000000	9.450178
1416.000000	9.000515
1417.000000	9.020112
1418.000000	9.025902
1419.000000	9.040836
1420.000000	9.070047
1421.000000	9.097469
1422.000000	9.110875
1423.000000	9.128591
1424.000000	9.143890
1425.000000	9.168180
1426.000000	8.693267
1427.000000	8.699686
1428.000000	8.707312
1429.000000	8.730529
1430.000000	8.743495
1431.000000	8.751429
1432.000000	8.764754
1433.000000	8.772782
1434.000000	8.787116
1435.000000	8.805104
1436.000000	8.813280
1437.000000	8.814966
1438.000000	8.827868
1439.000000	8.838046
1440.000000	8.347141
1441.000000	8.358766
1442.000000	8.369780
1443.000000	8.381965
1444.000000	8.386753
1445.000000	8.389415
1446.000000	8.390373
1447.000000	8.414412
1448.000000	8.423362
1449.000000	8.427169
1450.000000	8.429748
1451.000000	8.432615
1452.000000	8.449870
1453.000000	8.455835
1454.000000	8.465246
1455.000000	8.471468
1456.000000	8.478490
1457.000000	8.487805
1458.000000	8.502466
1459.000000	8.514149
1460.000000	8.516950
1461.000000	8.024882
1462.000000	8.037342
1463.000000	8.045453
1464.000000	8.049032
1465.000000	8.052519
1466.000000	8.066617
1467.000000	8.070159
1468.000000	8.084371
1469.000000	8.089634
1470.000000	8.087562
1471.000000	8.093226
1472.000000	8.105511
1473.000000	8.112488
1474.000000	8.118770
1475.000000	8.131011
1476.000000	8.138858
1477.000000	8.142793
1478.000000	8.149832
1479.000000	8.159451
1480.000000	8.160880
1481.000000	8.172680
1482.000000	8.179644
1483.000000	8.188134
1484.000000	8.203230
1485.000000	8.210220
1486.000000	8.221082
1487.000000	8.224313
1488.000000	8.235539
1489.000000	8.244449
1490.000000	8.254155
1491.000000	7.761870
1492.000000	7.771090
1493.000000	7.774616
1494.000000	7.776262
1495.000000	7.786900
1496.000000	7.788145
1497.000000	7.793215
1498.000000	7.797161
1499.000000	7.795555
1500.000000	7.792992
1501.000000	7.789054
1502.000000	7.786587
1503.000000	7.782180
1504.000000	7.784492
1505.000000	7.779127
1506.000000	7.778342
1507.000000	8.273898
1508.000000	8.265202
1509.000000	8.261828
1510.000000	8.257492
1511.000000	8.252654
1512.000000	8.245772
1513.000000	8.241479
1514.000000	8.235267
1515.000000	8.231531
1516.000000	8.230418
1517.000000	8.222386
1518.000000	8.213682
1519.000000	8.207674
1520.000000	8.205361
1521.000000	8.203583
1522.000000	8.190860
1523.000000	8.178607
1524.000000	8.172494
1525.000000	8.169414
1526.000000	8.164344
1527.000000	8.161867
1528.000000	8.151925
1529.000000	8.140309
1530.000000	8.136550
1531.000000	8.130011
1532.000000	8.122964
1533.000000	8.118189
1534.000000	8.109919
1535.000000	8.100524
1536.000000	8.594331
1537.000000	8.590168
1538.000000	8.582599
1539.000000	8.571781
1540.000000	8.564262
1541.000000	8.560516
1542.000000	8.555067
1543.000000	8.544182
1544.000000	8.542892
1545.000000	8.536151
1546.000000	8.526041
1547.000000	8.518529
1548.000000	8.512583
1549.000000	8.503733
1550.000000	8.494673
1551.000000	8.487185
1552.000000	8.476509
1553.000000	8.471688
1554.000000	8.470579
1555.000000	8.466090
1556.000000	8.456264
1557.000000	8.449768
1558.000000	8.449666
1559.000000	8.448596
1560.000000	8.448383
1561.000000	8.445761
1562.000000	8.441559
1563.000000	8.440478
1564.000000	8.438014
1565.000000	8.433830
1566.000000	8.438410
1567.000000	8.440949
1568.000000	8.435271
1569.000000	8.431273
1570.000000	8.431560
1571.000000	8.432521
1572.000000	8.427440
1573.000000	8.423542
1574.000000	8.421104
1575.000000	8.418594
1576.000000	8.417459
1577.000000	8.413893
1578.000000	8.904871
1579.000000	8.897425
1580.000000	8.893138
1581.000000	8.888279
1582.000000	8.883388
1583.000000	8.877660
1584.000000	8.870810
1585.000000	8.867140
1586.000000	8.861537
1587.000000	8.854649
1588.000000	8.849328
1589.000000	8.843341
1590.000000	8.835242
1591.000000	8.828674
1592.000000	8.823315
1593.000000	8.818900
1594.000000	8.806995
1595.000000	8.796674
1596.000000	8.794344
1597.000000	8.788297
1598.000000	8.779499
1599.000000	8.772552
1600.000000	8.763549
1601.000000	8.755221
1602.000000	8.749808
1603.000000	8.742224
1604.000000	8.733826
1605.000000	8.725234
1606.000000	9.216229
1607.000000	9.210081
1608.000000	9.200911
1609.000000	9.192338
1610.000000	9.190517
1611.000000	9.182608
1612.000000	9.173955
1613.000000	9.176944
1614.000000	9.168740
1615.000000	9.161597
1616.000000	9.153364
1617.000000	9.147468
1618.000000	9.141875
1619.000000	9.136412
1620.000000	9.133697
1621.000000	9.123314
1622.000000	9.120803
1623.000000	9.117423
1624.000000	9.110602
1625.000000	9.105413
1626.000000	9.102656
1627.000000	9.094596
1628.000000	9.090302
1629.000000	9.086235
1630.000000	9.081810
1631.000000	9.078805
1632.000000	9.074309
1633.000000	9.070294
1634.000000	9.063314
1635.000000	9.060691
1636.000000	9.055669
1637.000000	9.056837
1638.000000	9.054058
1639.000000	9.054522
1640.000000	9.545561
1641.000000	9.539283
1642.000000	9.540834
1643.000000	9.539836
1644.000000	9.533731
1645.000000	9.539288
1646.000000	9.537051
1647.000000	9.532048
1648.000000	9.532622
1649.000000	9.532748
1650.000000	9.531436
1651.000000	9.038665
1652.000000	9.040485
1653.000000	9.043327
1654.000000	9.048382
1655.000000	9.049824
1656.000000	9.062206
1657.000000	9.063445
1658.000000	9.070158
1659.000000	9.085802
1660.000000	9.093773
1661.000000	9.110993
1662.000000	9.118752
1663.000000	9.135556
1664.000000	9.149559
1665.000000	9.164229
1666.000000	9.186656
1667.000000	9.201092
1668.000000	9.241249
1669.000000	8.768533
1670.000000	8.787476
1671.000000	8.806513
1672.000000	8.833273
1673.000000	8.859369
1674.000000	8.874981
1675.000000	8.901096
1676.000000	8.928583
1677.000000	8.945110
1678.000000	8.469226
1679.000000	8.494788
1680.000000	8.529376
1681.000000	8.552811
1682.000000	8.572334
1683.000000	8.594007
1684.000000	8.620100
1685.000000	8.632271
1686.000000	8.644480
1687.000000	8.658839
1688.000000	8.661720
1689.000000	8.662947
1690.000000	8.659667
1691.000000	8.658278
1692.000000	8.657115
1693.000000	8.652909
1694.000000	8.653460
1695.000000	8.648972
1696.000000	8.648719
1697.000000	8.651346
1698.000000	8.646048
1699.000000	8.645760
1700.000000	8.654054
1701.000000	8.652160
1702.000000	8.649476
1703.000000	8.650377
1704.000000	8.155489
1705.000000	8.157928
1706.000000	8.158274
1707.000000	8.164866
1708.000000	8.171681
1709.000000	8.178921
1710.000000	8.186967
1711.000000	8.194530
1712.000000	8.213368
1713.000000	8.228200
1714.000000	8.244516
1715.000000	8.267371
1716.000000	8.282455
1717.000000	8.299696
1718.000000	8.323154
1719.000000	8.336388
1720.000000	8.349134
1721.000000	8.365828
1722.000000	8.379602
1723.000000	7.882129
1724.000000	7.888501
1725.000000	7.894555
1726.000000	7.897689
1727.000000	7.899716
1728.000000	7.906637
1729.000000	7.898112
1730.000000	7.897327
1731.000000	7.893209
1732.000000	7.884949
1733.000000	7.882795
1734.000000	7.881281
1735.000000	7.877560
1736.000000	8.371336
1737.000000	8.357892
1738.000000	8.351974
1739.000000	8.341608
1740.000000	8.337274
1741.000000	8.323910
1742.000000	8.317487
1743.000000	8.302922
1744.000000	8.302310
1745.000000	8.293618
1746.000000	8.281705
1747.000000	8.270575
1748.000000	8.260685
1749.000000	8.253220
1750.000000	8.243678
1751.000000	8.235077
1752.000000	8.230024
1753.000000	8.224689
1754.000000	8.219522
1755.000000	8.217824
1756.000000	8.212881
1757.000000	8.203749
1758.000000	8.197853
1759.000000	8.196291
1760.000000	8.192824
1761.000000	8.191615
1762.000000	8.182817
1763.000000	8.176219
1764.000000	8.169332
1765.000000	8.165657
1766.000000	8.656941
1767.000000	8.646605
1768.000000	8.643195
1769.000000	8.637777
1770.000000	8.630840
1771.000000	8.623889
1772.000000	8.622009
1773.000000	8.620464
1774.000000	8.615071
1775.000000	8.610273
1776.000000	8.604109
1777.000000	8.599036
1778.000000	8.597323
1779.000000	8.593320
1780.000000	8.588818
1781.000000	8.591524
1782.000000	8.590892
1783.000000	8.591916
1784.000000	8.590225
1785.000000	8.586344
1786.000000	8.585808
1787.000000	8.586866
1788.000000	8.586835
1789.000000	8.590063
1790.000000	8.593885
1791.000000	8.591531
1792.000000	8.593031
1793.000000	8.594492
1794.000000	8.592163
1795.000000	8.590380
1796.000000	8.589977
1797.000000	8.589913
1798.000000	8.598240
1799.000000	8.597973
1800.000000	8.587339
1801.000000	8.584644
1802.000000	8.580931
1803.000000	8.585102
1804.000000	8.589110
1805.000000	8.578971
1806.000000	8.570252
1807.000000	8.571828
1808.000000	8.582655
1809.000000	8.587262
1810.000000	8.580558
1811.000000	8.570333
1812.000000	8.566170
1813.000000	8.571099
1814.000000	8.570780
1815.000000	8.560968
1816.000000	8.565628
1817.000000	8.587935
1818.000000	8.603676
1819.000000	8.587424
1820.000000	8.549204
1821.000000	8.520629
1822.000000	8.529716
1823.000000	8.567016
1824.000000	8.586513
1825.000000	8.587883
1826.000000	8.575053
1827.000000	8.561749
1828.000000	9.058089
1829.000000	9.046905
1830.000000	9.027689
1831.000000	9.032531
1832.000000	9.056634
1833.000000	9.080072
1834.000000	9.083671
1835.000000	9.070214
1836.000000	9.046582
1837.000000	9.031400
1838.000000	9.031338
1839.000000	9.021901
1840.000000	8.998724
1841.000000	8.964678
1842.000000	8.959512
1843.000000	8.998748
1844.000000	9.053309
1845.000000	9.086158
1846.000000	9.061093
1847.000000	8.996174
1848.000000	8.951237
1849.000000	8.958300
1850.000000	8.998022
1851.000000	9.029884
1852.000000	9.030880
1853.000000	9.018529
1854.000000	9.009252
1855.000000	9.015827
1856.000000	9.042295
1857.000000	9.053275
1858.000000	9.037295
1859.000000	9.021544
1860.000000	9.016261
1861.000000	9.026029
1862.000000	9.048508
1863.000000	9.088552
1864.000000	9.120175
1865.000000	8.650299
1866.000000	8.675088
1867.000000	8.696756
1868.000000	8.711096
1869.000000	8.699649
1870.000000	8.681817
1871.000000	8.676273
1872.000000	8.671162
1873.000000	8.673718
1874.000000	8.693299
1875.000000	8.204722
1876.000000	8.229367
1877.000000	8.262283
1878.000000	8.291634
1879.000000	8.331924
1880.000000	8.381555
1881.000000	8.418799
1882.000000	7.946146
1883.000000	7.970864
1884.000000	7.996964
1885.000000	8.030091
1886.000000	8.078442
1887.000000	7.631917
1888.000000	7.685572
1889.000000	7.728542
1890.000000	7.756563
1891.000000	7.790909
1892.000000	7.825762
1893.000000	7.371245
1894.000000	7.423820
1895.000000	7.490054
1896.000000	7.545982
1897.000000	7.586501
1898.000000	7.122523
1899.000000	7.143612
1900.000000	7.181321
1901.000000	7.219994
1902.000000	6.760150
1903.000000	6.798700
1904.000000	6.818049
1905.000000	6.828261
1906.000000	6.848661
1907.000000	6.883616
1908.000000	6.418586
1909.000000	6.461797
1910.000000	6.492129
1911.000000	6.511780
1912.000000	6.519260
1913.000000	6.524693
1914.000000	6.538455
1915.000000	6.561734
1916.000000	6.088829
1917.000000	6.112054
1918.000000	6.131872
1919.000000	6.140670
1920.000000	6.140511
1921.000000	6.147989
1922.000000	6.152448
1923.000000	6.166686
1924.000000	6.186976
1925.000000	6.201625
1926.000000	6.199512
1927.000000	6.200210
1928.000000	6.204131
1929.000000	6.209905
1930.000000	6.217257
1931.000000	6.222770
1932.000000	6.230679
1933.000000	6.240020
1934.000000	6.241913
1935.000000	6.250167
1936.000000	6.252724
1937.000000	5.748309
1938.000000	5.746188
1939.000000	6.237594
1940.000000	6.238111
1941.000000	6.247526
1942.000000	6.240406
1943.000000	6.241571
1944.000000	5.748731
1945.000000	5.748923
1946.000000	6.242821
1947.000000	5.740919
1948.000000	6.234669
1949.000000	6.242961
1950.000000	6.234631
1951.000000	6.239659
1952.000000	6.228174
1953.000000	6.229908
1954.000000	6.225000
1955.000000	6.224546
1956.000000	6.224849
1957.000000	6.224859
1958.000000	6.219477
1959.000000	6.216683
1960.000000	6.215135
1961.000000	6.215965
1962.000000	6.208590
1963.000000	6.198846
1964.000000	6.208593
1965.000000	6.202723
1966.000000	6.202219
1967.000000	6.199432
1968.000000	6.202258
1969.000000	6.198833
1970.000000	6.189154
1971.000000	6.190730
1972.000000	6.186635
1973.000000	6.177261
1974.000000	6.179565
1975.000000	6.182667
1976.000000	6.186150
1977.000000	6.182735
1978.000000	6.173750
1979.000000	6.178920
1980.000000	6.177816
1981.000000	6.164002
1982.000000	6.163601
1983.000000	6.163158
1984.000000	6.152124
1985.000000	6.158910
1986.000000	6.149510
1987.000000	6.647340
1988.000000	6.645419
1989.000000	6.643848
1990.000000	6.638466
1991.000000	6.636729
1992.000000	6.633544
1993.000000	6.632672
1994.000000	6.625954
1995.000000	6.618256
1996.000000	6.619216
1997.000000	6.618954
1998.000000	6.618189
1999.000000	6.610306
2000.000000	6.610187
2001.000000	6.604240
2002.000000	6.609351
2003.000000	6.606629
2004.000000	6.600734
2005.000000	6.596107
2006.000000	6.596095
2007.000000	6.593682
2008.000000	6.588860
2009.000000	6.597804
2010.000000	6.596703
2011.000000	6.591560
2012.000000	6.592905
2013.000000	6.596321
2014.000000	6.595964
2015.000000	6.595278
2016.000000	6.596264
2017.000000	6.596687
2018.000000	6.597883
2019.000000	6.604411
2020.000000	6.609934
2021.000000	6.610027
2022.000000	6.609888
2023.000000	6.620468
2024.000000	6.623861
2025.000000	6.630112
2026.000000	6.635523
2027.000000	6.640435
2028.000000	6.650098
2029.000000	6.651827
2030.000000	6.659232
2031.000000	6.665482
2032.000000	6.670002
2033.000000	6.673720
2034.000000	6.681184
2035.000000	6.692090
2036.000000	6.697555
2037.000000	6.697777
2038.000000	6.703368
2039.000000	6.706106
2040.000000	6.714446
2041.000000	6.723499
2042.000000	6.728348
2043.000000	6.740127
2044.000000	6.742450
2045.000000	6.744042
2046.000000	6.746456
2047.000000	6.753331
2048.000000	6.755688
2049.000000	6.759639
2050.000000	6.761726
2051.000000	6.760417
2052.000000	6.760440
2053.000000	6.759302
2054.000000	6.757584
2055.000000	6.757787
2056.000000	6.752104
2057.000000	6.751155
2058.000000	6.753128
2059.000000	6.746644
2060.000000	6.740979
2061.000000	6.740068
2062.000000	6.734717
2063.000000	6.727352
2064.000000	6.724394
2065.000000	6.717569
2066.000000	6.706763
2067.000000	6.704883
2068.000000	6.701182
2069.000000	6.692695
2070.000000	6.686490
2071.000000	6.683409
2072.000000	6.681557
2073.000000	6.678920
2074.000000	6.671868
2075.000000	6.667911
2076.000000	6.664302
2077.000000	7.161157
2078.000000	7.158976
2079.000000	7.155968
2080.000000	7.151139
2081.000000	7.145613
2082.000000	7.143092
2083.000000	7.142193
2084.000000	7.140925
2085.000000	7.142607
2086.000000	7.140819
2087.000000	7.135586
2088.000000	7.135981
2089.000000	7.141142
2090.000000	7.142044
2091.000000	7.140204
2092.000000	7.141008
2093.000000	7.140911
2094.000000	7.143855
2095.000000	7.146532
2096.000000	7.143604
2097.000000	7.142657
2098.000000	7.145127
2099.000000	7.144366
2100.000000	7.143854
2101.000000	7.143991
2102.000000	7.143887
2103.000000	7.143260
2104.000000	7.145121
2105.000000	7.151679
2106.000000	7.156554
2107.000000	7.155608
2108.000000	7.156809
2109.000000	7.661068
2110.000000	7.158819
2111.000000	7.162256
2112.000000	7.667669
2113.000000	7.670829
2114.000000	7.171929
2115.000000	7.671834
2116.000000	7.177018
2117.000000	7.177449
2118.000000	7.674607
2119.000000	7.678726
2120.000000	7.688252
2121.000000	7.694157
2122.000000	7.698179
2123.000000	7.696344
2124.000000	7.698331
2125.000000	7.706065
2126.000000	7.711521
2127.000000	7.216015
2128.000000	7.221908
2129.000000	7.226331
2130.000000	7.229721
2131.000000	7.736497
2132.000000	7.244026
2133.000000	7.247660
2134.000000	7.747807
2135.000000	7.255097
2136.000000	7.764305
2137.000000	7.267626
2138.000000	7.775363
2139.000000	7.281145
2140.000000	7.284557
2141.000000	7.293941
2142.000000	7.300785
2143.000000	7.301927
2144.000000	7.309800
2145.000000	7.318231
2146.000000	7.326263
2147.000000	7.333673
2148.000000	7.335015
2149.000000	7.341597
2150.000000	7.349359
2151.000000	7.352614
2152.000000	6.866824
2153.000000	6.875900
2154.000000	7.375940
2155.000000	7.381477
2156.000000	7.385171
2157.000000	7.389467
2158.000000	6.896283
2159.000000	6.906816
2160.000000	6.908845
2161.000000	6.912760
2162.000000	6.917758
2163.000000	6.922586
2164.000000	6.925788
2165.000000	6.925644
2166.000000	6.931700
2167.000000	6.934375
2168.000000	6.938517
2169.000000	6.942309
2170.000000	6.948127
2171.000000	6.951959
2172.000000	6.457405
2173.000000	6.953175
2174.000000	6.955173
2175.000000	6.459962
2176.000000	6.465998
2177.000000	6.462138
2178.000000	6.969749
2179.000000	6.973847
2180.000000	6.479845
2181.000000	6.482032
2182.000000	6.485535
2183.000000	6.497037
2184.000000	6.495851
2185.000000	6.501864
2186.000000	6.506164
2187.000000	6.514862
2188.000000	6.526386
2189.000000	6.035965
2190.000000	6.043170
2191.000000	6.055123
2192.000000	6.069014
2193.000000	6.071938
2194.000000	6.088684
2195.000000	6.108641
2196.000000	6.121306
2197.000000	6.127979
2198.000000	6.141686
2199.000000	5.652285
2200.000000	6.163001
2201.000000	5.678714
2202.000000	5.686237
2203.000000	5.690163
2204.000000	5.697752
2205.000000	5.700594
2206.000000	5.702621
2207.000000	5.710497
2208.000000	5.707055
2209.000000	5.707815
2210.000000	5.707013
2211.000000	5.696360
2212.000000	5.702800
2213.000000	5.695497
2214.000000	5.689961
2215.000000	5.683465
2216.000000	5.681842
2217.000000	5.180938
2218.000000	5.673522
2219.000000	5.667585
2220.000000	5.657078
2221.000000	5.653498
2222.000000	6.154543
2223.000000	5.649418
2224.000000	5.643194
2225.000000	5.636547
2226.000000	5.633322
2227.000000	6.125559
2228.000000	5.628493
2229.000000	6.125254
2230.000000	6.125988
2231.000000	6.125147
2232.000000	6.116446
2233.000000	6.132654
2234.000000	5.625296
2235.000000	6.130149
2236.000000	5.626277
2237.000000	5.629504
2238.000000	6.138947
2239.000000	6.138908
2240.000000	6.136676
2241.000000	6.144093
2242.000000	5.644538
2243.000000	6.157864
2244.000000	6.151059
2245.000000	6.157109
2246.000000	6.158560
2247.000000	6.161601
2248.000000	6.171444
2249.000000	6.167216
2250.000000	6.176546
2251.000000	6.174943
2252.000000	6.178135
2253.000000	6.184651
2254.000000	6.187370
2255.000000	6.184334
2256.000000	6.188433
2257.000000	6.185497
2258.000000	6.189209
2259.000000	6.187928
2260.000000	6.185491
2261.000000	6.194377
2262.000000	6.184693
2263.000000	6.185500
2264.000000	6.687777
2265.000000	6.678441
2266.000000	6.175258
2267.000000	6.681368
2268.000000	6.174857
2269.000000	6.169200
2270.000000	6.675167
2271.000000	6.670409
2272.000000	6.661435
2273.000000	6.654942
2274.000000	6.666380
2275.000000	6.663079
2276.000000	6.157133
2277.000000	6.657897
2278.000000	6.657909
2279.000000	6.652487
2280.000000	6.649059
2281.000000	6.648227
2282.000000	6.646075
2283.000000	6.647505
2284.000000	6.641932
2285.000000	6.642426
2286.000000	6.636940
2287.000000	6.631854
2288.000000	7.132165
2289.000000	7.134169
2290.000000	7.124450
2291.000000	7.120413
2292.000000	7.120760
2293.000000	7.111644
2294.000000	6.615034
2295.000000	7.105433
2296.000000	7.102674
2297.000000	7.098214
2298.000000	7.095295
2299.000000	7.094283
2300.000000	7.092206
2301.000000	7.084845
2302.000000	7.585292
2303.000000	7.577686
2304.000000	7.081228
2305.000000	7.074749
2306.000000	7.073686
2307.000000	7.571334
2308.000000	7.563085
2309.000000	7.560764
2310.000000	7.559813
2311.000000	7.559334
2312.000000	7.557283
2313.000000	7.554045
2314.000000	7.551384
2315.000000	7.550793
2316.000000	7.548295
2317.000000	8.047624
2318.000000	7.547985
2319.000000	8.045839
2320.000000	8.043915
2321.000000	8.042258
2322.000000	8.042509
2323.000000	8.044767
2324.000000	7.539426
2325.000000	7.536754
2326.000000	7.540617
2327.000000	8.040976
2328.000000	8.041872
2329.000000	8.044503
2330.000000	8.038348
2331.000000	8.037019
2332.000000	8.039804
2333.000000	8.040316
2334.000000	8.038812
2335.000000	8.038750
2336.000000	8.040514
2337.000000	8.041738
2338.000000	8.037339
2339.000000	8.036166
2340.000000	8.535109
2341.000000	8.535051
2342.000000	8.535954
2343.000000	8.533800
2344.000000	8.533461
2345.000000	8.033796
2346.000000	8.032273
2347.000000	8.530939
2348.000000	8.530111
2349.000000	8.529938
2350.000000	8.528247
2351.000000	8.522229
2352.000000	8.523006
2353.000000	8.523821
2354.000000	8.523726
2355.000000	8.521171
2356.000000	9.018146
2357.000000	8.520364
2358.000000	8.521942
2359.000000	8.512542
2360.000000	9.013053
2361.000000	9.014998
2362.000000	9.015232
2363.000000	8.517606
2364.000000	8.515906
2365.000000	8.517896
2366.000000	9.013594
2367.000000	9.010956
2368.000000	9.011751
2369.000000	8.513519
2370.000000	9.013174
2371.000000	9.013038
2372.000000	9.014217
2373.000000	9.013797
2374.000000	9.012248
2375.000000	9.011310
2376.000000	9.010571
2377.000000	8.513354
2378.000000	9.015036
2379.000000	9.512742
2380.000000	9.510089
2381.000000	9.009837
2382.000000	9.014148
2383.000000	9.517623
2384.000000	9.516898
2385.000000	9.017108
2386.000000	8.515107
2387.000000	9.010175
2388.000000	9.014376
2389.000000	9.518096
2390.000000	9.520221
2391.000000	9.523441
2392.000000	9.023643
2393.000000	9.020971
2394.000000	9.022167
2395.000000	9.528186
2396.000000	9.030124
2397.000000	9.031353
2398.000000	9.035576
2399.000000	9.532355
2400.000000	10.030858
2401.000000	10.031954
2402.000000	9.541279
2403.000000	9.546230
2404.000000	9.046143
2405.000000	9.048951
2406.000000	9.550594
2407.000000	9.553291
2408.000000	9.560963
2409.000000	9.560584
2410.000000	9.563591
2411.000000	9.565811
2412.000000	9.568767
2413.000000	10.068981
2414.000000	10.071918
2415.000000	10.080701
2416.000000	9.581641
2417.000000	9.587733
2418.000000	9.593354
2419.000000	9.592486
2420.000000	10.095005
2421.000000	10.096632
2422.000000	9.107771
2423.000000	9.114722
2424.000000	9.622220
2425.000000	10.627039
2426.000000	10.133709
2427.000000	10.633257
2428.000000	9.638007
2429.000000	10.142615
2430.000000	10.647582
2431.000000	10.652974
2432.000000	10.657876
2433.000000	10.662151
2434.000000	10.168411
2435.000000	10.171635
2436.000000	10.175809
2437.000000	9.679606
2438.000000	10.179402
2439.000000	10.682863
2440.000000	11.187651
2441.000000	10.688952
2442.000000	10.699256
2443.000000	10.206372
2444.000000	10.203287
2445.000000	10.708021
2446.000000	11.711568
2447.000000	11.214821
2448.000000	11.218452
2449.000000	10.717530
2450.000000	11.226049
2451.000000	11.226620
2452.000000	11.236220
2453.000000	11.736741
2454.000000	12.741527
2455.000000	12.243646
2456.000000	12.243481
2457.000000	12.251897
2458.000000	12.258979
2459.000000	12.750407
2460.000000	13.262307
2461.000000	12.758033
2462.000000	12.252133
2463.000000	12.753648
2464.000000	13.259652
2465.000000	13.263443
2466.000000	12.769860
2467.000000	13.270994
2468.000000	13.774973
2469.000000	14.259744
2470.000000	14.767696
2471.000000	13.764808
2472.000000	14.277350
2473.000000	15.769112
2474.000000	16.777341
2475.000000	16.271419
2476.000000	17.270921
2477.000000	15.265714
2478.000000	17.274112
2479.000000	15.770052
2480.000000	17.264002
2481.000000	17.277736
2482.000000	17.771482
2483.000000	18.270456
2484.000000	18.263161
2485.000000	19.243315
2486.000000	17.763094
2487.000000	17.757384
2488.000000	18.740467
2489.000000	19.262445
2490.000000	20.283698
2491.000000	20.746860
2492.000000	20.726406
2493.000000	21.234961
2494.000000	22.760543
2495.000000	22.195574
2496.000000	21.216399
2497.000000	22.704777
2498.000000	21.715787
2499.000000	23.688457
2500.000000	24.188561
2501.000000	nan
2502.000000	nan
2503.000000	nan
2504.000000	nan
2505.000000	nan
2506.000000	nan
2507.000000	nan
2508.000000	nan
2509.000000	nan
2510.000000	nan
2511.000000	nan
2512.000000	nan
2513.000000	nan
2514.000000	nan
2515.000000	nan
2516.000000	nan
2517.000000	nan
2518.000000	nan
2519.000000	nan
2520.000000	nan
2521.000000	nan
2522.000000	nan
2523.000000	nan
2524.000000	nan
2525.000000	nan
2526.000000	nan
2527.000000	nan
2528.000000	nan
2529.000000	nan
2530.000000	nan
2531.000000	nan
2532.000000	nan
2533.000000	nan
2534.000000	nan
2535.000000	nan
2536.000000	nan
2537.000000	nan
2538.000000	nan
2539.000000	nan
2540.000000	nan
2541.000000	nan
2542.000000	nan
2543.000000	nan
2544.000000	nan
2545.000000	nan
2546.000000	nan
2547.000000	nan
2548.000000	nan
2549.000000	nan
2550.000000	nan
2551.000000	nan
2552.000000	nan
2553.000000	nan
2554.000000	nan
2555.000000	nan
2556.000000	nan
2557.000000	nan
2558.000000	nan
2559.000000	nan
2560.000000	nan
2561.000000	nan
2562.000000	nan
2563.000000	nan
2564.000000	nan
2565.000000	nan
2566.000000	nan
2567.000000	nan
2568.000000	nan
2569.000000	nan
2570.000000	nan
2571.000000	nan
2572.000000	nan
2573.000000	nan
2574.000000	nan
2575.000000	nan
2576.000000	nan
2577.000000	nan
2578.000000	nan
2579.000000	nan
2580.000000	nan
2581.000000	nan
2582.000000	nan
2583.000000	nan
2584.000000	nan
2585.000000	nan
2586.000000	nan
2587.000000	nan
2588.000000	nan
2589.000000	nan
2590.000000	nan
2591.000000	nan
2592.000000	nan
2593.000000	nan
2594.000000	nan
2595.000000	nan
2596.000000	nan
2597.000000	nan
2598.000000	nan
2599.000000	nan
2600.000000	nan
2601.000000	nan
2602.000000	nan
2603.000000	nan
2604.000000	nan
2605.000000	nan
2606.000000	nan
2607.000000	nan
2608.000000	nan
2609.000000	nan
2610.000000	nan
2611.000000	nan
2612.000000	nan
2613.000000	nan
2614.000000	nan
2615.000000	nan
2616.000000	nan
2617.000000	nan
2618.000000	nan
2619.000000	nan
2620.000000	nan
2621.000000	nan
2622.000000	nan
2623.000000	nan
2624.000000	nan
2625.000000	nan
2626.000000	nan
2627.000000	nan
2628.000000	nan
2629.000000	nan
2630.000000	nan
2631.000000	nan
2632.000000	nan
2633.000000	nan
2634.000000	nan
2635.000000	nan
2636.000000	nan
2637.000000	nan
2638.000000	nan
2639.000000	nan
2640.000000	nan
2641.000000	nan
2642.000000	nan
2643.000000	nan
2644.000000	nan
2645.000000	nan
2646.000000	nan
2647.000000	nan
2648.000000	nan
2649.000000	nan
2650.000000	nan
2651.000000	nan
2652.000000	nan
2653.000000	nan
2654.000000	nan
2655.000000	nan
2656.000000	nan
2657.000000	nan
2658.000000	nan
2659.000000	nan
2660.000000	nan
2661.000000	nan
2662.000000	nan
2663.000000	nan
2664.000000	nan
2665.000000	nan
2666.000000	nan
2667.000000	nan
2668.000000	nan
2669.000000	nan
2670.000000	nan
2671.000000	nan
2672.000000	nan
2673.000000	nan
2674.000000	nan
2675.000000	nan
2676.000000	nan
2677.000000	nan
2678.000000	nan
2679.000000	nan
2680.000000	nan
2681.000000	nan
2682.000000	nan
2683.000000	nan
2684.000000	nan
2685.000000	nan
2686.000000	nan
2687.000000	nan
2688.000000	nan
2689.000000	nan
2690.000000	nan
2691.000000	nan
2692.000000	nan
2693.000000	nan
2694.000000	nan
2695.000000	nan
2696.000000	nan
2697.000000	nan
2698.000000	nan
2699.000000	nan
2700.000000	nan
2701.000000	nan
2702.000000	nan
2703.000000	nan
2704.000000	nan
2705.000000	nan
2706.000000	nan
2707.000000	nan
2708.000000	nan
2709.000000	nan
2710.000000	nan
2711.000000	nan
2712.000000	nan
2713.000000	nan
2714.000000	nan
2715.000000	nan
2716.000000	nan
2717.000000	nan
2718.000000	nan
2719.000000	nan
2720.000000	nan
2721.000000	nan
2722.000000	nan
2723.000000	nan
2724.000000	nan
2725.000000	nan
2726.000000	nan
2727.000000	nan
2728.000000	nan
2729.000000	nan
2730.000000	nan
2731.000000	nan
2732.000000	nan
2733.000000	nan
2734.000000	nan
2735.000000	nan
2736.000000	nan
2737.000000	nan
2738.000000	nan
2739.000000	nan
2740.000000	nan
2741.000000	nan
2742.000000	nan
2743.000000	nan
2744.000000	nan
2745.000000	nan
2746.000000	nan
2747.000000	nan
2748.000000	nan
2749.000000	nan
2750.000000	nan
2751.000000	nan
2752.000000	nan
2753.000000	nan
2754.000000	nan
2755.000000	nan
2756.000000	nan
2757.000000	nan
2758.000000	nan
2759.000000	nan
2760.000000	nan
2761.000000	nan
2762.000000	nan
2763.000000	nan
2764.000000	nan
2765.000000	nan
2766.000000	nan
2767.000000	nan
2768.000000	nan
2769.000000	nan
2770.000000	nan
2771.000000	nan
2772.000000	nan
2773.000000	nan
2774.000000	nan
2775.000000	nan
2776.000000	nan
2777.000000	nan
2778.000000	nan
2779.000000	nan
2780.000000	nan
2781.000000	nan
2782.000000	nan
2783.000000	nan
2784.000000	nan
2785.000000	nan
2786.000000	nan
2787.000000	nan
2788.000000	nan
2789.000000	nan
2790.000000	nan
2791.000000	nan
2792.000000	nan
2793.000000	nan
2794.000000	nan
2795.000000	nan
2796.000000	nan
2797.000000	nan
2798.000000	nan
2799.000000	nan
2800.000000	nan
2801.000000	nan
2802.000000	nan
2803.000000	nan
2804.000000	nan
2805.000000	nan
2806.000000	nan
2807.000000	nan
2808.000000	nan
2809.000000	nan
2810.000000	nan
2811.000000	nan
2812.000000	nan
2813.000000	nan
2814.000000	nan
2815.000000	nan
2816.000000	nan
2817.000000	nan
2818.000000	nan
2819.000000	nan
2820.000000	nan
2821.000000	nan
2822.000000	nan
2823.000000	nan
2824.000000	nan
2825.000000	nan
2826.000000	nan
2827.000000	nan
2828.000000	nan
2829.000000	nan
2830.000000	nan
2831.000000	nan
2832.000000	nan
2833.000000	nan
2834.000000	nan
2835.000000	nan
2836.000000	nan
2837.000000	nan
2838.000000	nan
2839.000000	nan
2840.000000	nan
2841.000000	nan
2842.000000	nan
2843.000000	nan
2844.000000	nan
2845.000000	nan
2846.000000	nan
2847.000000	nan
2848.000000	nan
2849.000000	nan
2850.000000	nan
2851.000000	nan
2852.000000	nan
2853.000000	nan
2854.000000	nan
2855.000000	nan
2856.000000	nan
2857.000000	nan
2858.000000	nan
2859.000000	nan
2860.000000	nan
2861.000000	nan
2862.000000	nan
2863.000000	nan
2864.000000	nan
2865.000000	nan
2866.000000	nan
2867.000000	nan
2868.000000	nan
2869.000000	nan
2870.000000	nan
2871.000000	nan
2872.000000	nan
2873.000000	nan
2874.000000	nan
2875.000000	nan
2876.000000	nan
2877.000000	nan
2878.000000	nan
2879.000000	nan
2880.000000	nan
2881.000000	nan
2882.000000	nan
2883.000000	nan
2884.000000	nan
2885.000000	nan
2886.000000	nan
2887.000000	nan
2888.000000	nan
2889.000000	nan
2890.000000	nan
2891.000000	nan
2892.000000	nan
2893.000000	nan
2894.000000	nan
2895.000000	nan
2896.000000	nan
2897.000000	nan
2898.000000	nan
2899.000000	nan
2900.000000	nan
2901.000000	nan
2902.000000	nan
2903.000000	nan
2904.000000	nan
2905.000000	nan
2906.000000	nan
2907.000000	nan
2908.000000	nan
2909.000000	nan
2910.000000	nan
2911.000000	nan
2912.000000	nan
2913.000000	nan
2914.000000	nan
2915.000000	nan
2916.000000	nan
2917.000000	nan
2918.000000	nan
2919.000000	nan
2920.000000	nan
2921.000000	nan
2922.000000	nan
2923.000000	nan
2924.000000	nan
2925.000000	nan
2926.000000	nan
2927.000000	nan
2928.000000	nan
2929.000000	nan
2930.000000	nan
2931.000000	nan
2932.000000	nan
2933.000000	nan
2934.000000	nan
2935.000000	nan
2936.000000	nan
2937.000000	nan
2938.000000	nan
2939.000000	nan
2940.000000	nan
2941.000000	nan
2942.000000	nan
2943.000000	nan
2944.000000	nan
2945.000000	nan
2946.000000	nan
2947.000000	nan
2948.000000	nan
2949.000000	nan
2950.000000	nan
2951.000000	nan
2952.000000	nan
2953.000000	nan
2954.000000	nan
2955.000000	nan
2956.000000	nan
2957.000000	nan
2958.000000	nan
2959.000000	nan
2960.000000	nan
2961.000000	nan
2962.000000	nan
2963.000000	nan
2964.000000	nan
2965.000000	nan
2966.000000	nan
2967.000000	nan
2968.000000	nan
2969.000000	nan
2970.000000	nan
2971.000000	nan
2972.000000	nan
2973.000000	nan
2974.000000	nan
2975.000000	nan
2976.000000	nan
2977.000000	nan
2978.000000	nan
2979.000000	nan
2980.000000	nan
2981.000000	nan
2982.000000	nan
2983.000000	nan
2984.000000	nan
2985.000000	nan
2986.000000	nan
2987.000000	nan
2988.000000	nan
2989.000000	nan
2990.000000	nan
2991.000000	nan
2992.000000	nan
2993.000000	nan
2994.000000	nan
2995.000000	nan
2996.000000	nan
2997.000000	nan
2998.000000	nan
2999.000000	nan
3000.000000	nan
