PE UV       SUBTECH     SPECTRUM    ASCII       PEDS        4.00        
   -1
INBUCR0422-4.Sample.ASC
24/02/09
13:28:09.00
24/02/09
13:28:09.00
Vinicio Soto Monge
Chrysina chrysargyrea. Det: A. Solís. COSTA RICA.  Prov. Guanacaste. A.C.G. Liberia. P. N. Gte. Est Mengo. Volcán Cacao. Bque Primario. 1000 m. 3-6 JUL 1987. Junzen. Manual.  #52577. INB0003358370.  Sin élitro izq
250,000000
1
Lambda 1050
1050L1511233
PerkinElmer UV WinLab 6.3.2.0749 / 2.02.05 Lambda 900 UV/VIS/NIR, Aug  7 2015 09:38:08

0
0
3350/servo 860,8/2
0
0
UV/VIS
1
1
1
DoubleDePol,CommonBeamDepol,RBeamAtt,SBeamAtt,60mm sphere, WB InGaAs Detector
0
0
0
0
Program
Program
3350/servo 860,8/2
3350/0,2 860,8/0,2
3350/0,2 860,8/0,2
0
15.00
 
 
 
0
 
860,8
319,2
860,8
Front
100
on
S:100 R:100
0
0
0
0
 
0
 
 
 
0
 
 
0
0
0
0
0
 
 
 
 
0
0


0
0
#HDR
-1
-1
#GR
nm
%R
1.0
0.0
2500,000000
-1,000000
2251
8
20,848300
1,998900
#DATA

250.000000	4.828093
251.000000	4.843013
252.000000	4.841448
253.000000	4.844941
254.000000	4.836751
255.000000	4.845423
256.000000	4.847937
257.000000	4.843625
258.000000	4.847792
259.000000	4.846890
260.000000	4.850738
261.000000	4.852114
262.000000	4.854423
263.000000	4.856689
264.000000	4.855086
265.000000	4.860817
266.000000	4.873544
267.000000	4.876120
268.000000	4.873724
269.000000	4.874029
270.000000	4.875220
271.000000	4.871347
272.000000	4.878401
273.000000	4.879675
274.000000	4.877773
275.000000	4.874522
276.000000	4.890395
277.000000	4.884388
278.000000	4.884488
279.000000	4.880893
280.000000	4.887433
281.000000	4.881787
282.000000	4.884835
283.000000	4.889996
284.000000	4.881651
285.000000	4.884190
286.000000	4.894679
287.000000	4.892601
288.000000	4.889173
289.000000	4.886237
290.000000	4.881138
291.000000	4.881301
292.000000	4.891958
293.000000	4.885815
294.000000	4.894693
295.000000	4.897205
296.000000	4.889786
297.000000	4.898285
298.000000	4.897104
299.000000	4.900318
300.000000	4.899911
301.000000	4.906590
302.000000	4.901133
303.000000	4.899490
304.000000	4.898886
305.000000	4.894000
306.000000	4.905620
307.000000	4.908932
308.000000	4.905753
309.000000	4.903299
310.000000	4.892715
311.000000	4.904641
312.000000	4.904815
313.000000	4.904094
314.000000	4.904638
315.000000	4.905659
316.000000	4.897956
317.000000	4.747068
318.000000	4.824016
319.000000	4.862950
320.000000	4.824834
321.000000	4.864779
322.000000	4.831955
323.000000	4.805962
324.000000	4.832202
325.000000	4.827042
326.000000	4.863932
327.000000	4.839779
328.000000	4.840455
329.000000	4.834951
330.000000	4.818805
331.000000	4.838730
332.000000	4.836401
333.000000	4.868114
334.000000	4.835123
335.000000	4.853455
336.000000	4.866407
337.000000	4.860385
338.000000	4.852807
339.000000	4.833711
340.000000	4.850088
341.000000	4.834270
342.000000	4.825415
343.000000	5.374361
344.000000	5.393845
345.000000	5.391821
346.000000	5.359993
347.000000	5.372431
348.000000	5.372804
349.000000	5.381267
350.000000	5.374412
351.000000	5.370009
352.000000	5.365088
353.000000	5.340347
354.000000	5.345062
355.000000	5.330768
356.000000	5.306281
357.000000	5.856867
358.000000	5.854191
359.000000	5.817937
360.000000	5.797531
361.000000	5.786653
362.000000	5.785266
363.000000	6.312767
364.000000	6.266608
365.000000	6.243289
366.000000	6.247680
367.000000	6.759565
368.000000	6.738086
369.000000	6.699185
370.000000	7.236265
371.000000	7.176634
372.000000	7.127680
373.000000	7.651444
374.000000	7.608843
375.000000	8.137291
376.000000	8.083979
377.000000	8.093591
378.000000	8.600227
379.000000	8.535907
380.000000	9.030494
381.000000	8.955824
382.000000	8.882865
383.000000	9.370946
384.000000	9.294659
385.000000	9.776910
386.000000	9.692630
387.000000	9.615603
388.000000	10.097968
389.000000	10.014040
390.000000	9.932238
391.000000	10.410930
392.000000	10.329170
393.000000	10.246230
394.000000	10.163594
395.000000	10.645514
396.000000	10.569373
397.000000	10.497652
398.000000	10.426904
399.000000	10.358880
400.000000	10.293665
401.000000	10.786323
402.000000	10.724787
403.000000	10.669081
404.000000	10.615076
405.000000	10.565693
406.000000	10.517578
407.000000	10.473249
408.000000	10.431513
409.000000	10.389945
410.000000	10.357400
411.000000	10.326592
412.000000	10.296376
413.000000	10.268276
414.000000	10.240507
415.000000	10.219129
416.000000	10.196076
417.000000	10.177334
418.000000	9.606434
419.000000	9.595331
420.000000	9.584666
421.000000	9.571463
422.000000	9.562833
423.000000	9.559241
424.000000	9.001310
425.000000	9.001482
426.000000	9.001649
427.000000	9.002891
428.000000	9.003960
429.000000	9.009646
430.000000	9.018228
431.000000	9.025916
432.000000	9.034348
433.000000	9.045364
434.000000	9.057301
435.000000	9.070452
436.000000	9.081902
437.000000	9.096034
438.000000	9.111885
439.000000	9.125895
440.000000	9.139659
441.000000	9.716773
442.000000	9.736229
443.000000	9.754951
444.000000	9.767597
445.000000	9.777380
446.000000	9.785685
447.000000	9.793142
448.000000	9.800596
449.000000	9.808090
450.000000	9.811609
451.000000	9.811405
452.000000	9.808854
453.000000	9.802105
454.000000	9.794141
455.000000	9.783810
456.000000	9.768284
457.000000	9.747058
458.000000	9.170768
459.000000	9.146130
460.000000	9.119368
461.000000	9.091883
462.000000	9.063021
463.000000	9.034616
464.000000	8.459271
465.000000	8.437876
466.000000	8.418026
467.000000	8.400748
468.000000	8.389121
469.000000	8.383702
470.000000	8.383281
471.000000	8.383680
472.000000	8.388696
473.000000	8.399895
474.000000	8.412915
475.000000	8.429730
476.000000	8.450498
477.000000	8.473846
478.000000	9.056869
479.000000	9.089351
480.000000	9.131085
481.000000	9.176852
482.000000	9.217773
483.000000	9.249528
484.000000	9.270664
485.000000	9.282985
486.000000	9.291692
487.000000	9.300000
488.000000	9.307579
489.000000	9.313510
490.000000	9.316933
491.000000	8.758728
492.000000	8.755317
493.000000	8.749203
494.000000	8.739322
495.000000	8.725911
496.000000	8.712495
497.000000	8.697885
498.000000	8.677408
499.000000	8.654825
500.000000	8.630936
501.000000	8.607608
502.000000	8.586458
503.000000	8.569321
504.000000	9.105145
505.000000	9.088917
506.000000	9.078352
507.000000	9.069949
508.000000	9.060556
509.000000	9.056395
510.000000	9.617162
511.000000	9.619841
512.000000	9.626526
513.000000	9.632450
514.000000	10.199989
515.000000	10.210295
516.000000	10.217466
517.000000	10.222728
518.000000	10.786607
519.000000	10.784881
520.000000	10.779976
521.000000	11.329882
522.000000	11.315760
523.000000	11.293377
524.000000	11.819813
525.000000	11.780842
526.000000	11.731071
527.000000	12.222643
528.000000	12.148952
529.000000	12.066844
530.000000	12.532297
531.000000	12.444876
532.000000	12.365474
533.000000	12.857460
534.000000	12.808313
535.000000	12.773419
536.000000	12.746864
537.000000	12.727171
538.000000	12.713564
539.000000	13.259480
540.000000	13.247762
541.000000	13.240486
542.000000	13.232415
543.000000	13.226458
544.000000	13.220941
545.000000	13.211164
546.000000	13.204679
547.000000	13.197511
548.000000	13.190930
549.000000	13.183639
550.000000	13.176436
551.000000	13.169678
552.000000	13.167321
553.000000	13.164744
554.000000	13.160433
555.000000	13.159372
556.000000	13.158846
557.000000	13.155735
558.000000	13.156110
559.000000	13.153612
560.000000	13.247429
561.000000	13.265007
562.000000	13.269084
563.000000	13.268778
564.000000	13.269257
565.000000	13.268533
566.000000	13.268307
567.000000	13.265615
568.000000	13.261789
569.000000	13.256237
570.000000	13.251999
571.000000	13.248407
572.000000	13.249734
573.000000	13.250104
574.000000	13.249222
575.000000	13.251329
576.000000	13.252397
577.000000	13.255814
578.000000	13.254699
579.000000	13.258152
580.000000	13.269283
581.000000	13.275943
582.000000	13.287087
583.000000	13.299200
584.000000	12.758700
585.000000	12.779614
586.000000	12.795910
587.000000	12.814005
588.000000	12.839581
589.000000	12.864696
590.000000	12.337589
591.000000	12.367507
592.000000	12.401971
593.000000	12.440522
594.000000	11.923939
595.000000	11.965727
596.000000	12.004005
597.000000	11.480938
598.000000	11.518619
599.000000	11.559167
600.000000	11.597899
601.000000	11.642645
602.000000	11.123531
603.000000	11.158200
604.000000	11.187210
605.000000	11.199535
606.000000	11.190686
607.000000	11.169357
608.000000	11.139549
609.000000	11.107222
610.000000	11.085452
611.000000	11.078877
612.000000	10.524637
613.000000	10.546683
614.000000	10.573709
615.000000	10.612404
616.000000	10.645050
617.000000	10.680880
618.000000	10.709788
619.000000	10.739110
620.000000	10.757935
621.000000	10.772972
622.000000	10.781565
623.000000	10.793622
624.000000	10.799797
625.000000	10.805285
626.000000	10.806855
627.000000	10.810538
628.000000	10.812446
629.000000	10.811004
630.000000	10.800726
631.000000	10.791366
632.000000	10.216374
633.000000	10.206228
634.000000	10.198629
635.000000	10.188425
636.000000	10.190758
637.000000	10.193435
638.000000	10.204310
639.000000	10.219904
640.000000	10.241208
641.000000	10.256787
642.000000	10.273251
643.000000	10.285043
644.000000	10.848735
645.000000	10.848225
646.000000	10.842058
647.000000	10.827490
648.000000	10.813316
649.000000	10.795023
650.000000	10.774903
651.000000	10.757824
652.000000	10.744162
653.000000	10.736883
654.000000	10.726555
655.000000	10.723097
656.000000	10.720923
657.000000	10.713845
658.000000	10.712278
659.000000	10.705170
660.000000	10.694447
661.000000	10.680145
662.000000	10.665251
663.000000	10.645635
664.000000	10.628470
665.000000	10.614654
666.000000	10.602109
667.000000	11.153917
668.000000	11.149996
669.000000	11.143135
670.000000	11.138635
671.000000	11.135328
672.000000	11.130823
673.000000	11.121321
674.000000	11.109526
675.000000	11.096719
676.000000	11.077258
677.000000	11.617201
678.000000	11.593573
679.000000	11.571846
680.000000	11.546088
681.000000	11.523644
682.000000	11.505926
683.000000	11.490498
684.000000	11.476393
685.000000	11.461374
686.000000	12.011253
687.000000	12.003733
688.000000	11.993238
689.000000	11.980096
690.000000	11.967262
691.000000	11.954650
692.000000	11.936125
693.000000	11.918126
694.000000	11.894321
695.000000	11.876665
696.000000	11.857634
697.000000	11.841523
698.000000	11.823050
699.000000	11.802630
700.000000	11.794177
701.000000	11.780692
702.000000	11.766171
703.000000	12.313548
704.000000	12.301383
705.000000	12.285170
706.000000	12.268304
707.000000	12.250795
708.000000	12.230304
709.000000	12.214246
710.000000	12.747923
711.000000	12.717348
712.000000	12.696620
713.000000	12.681828
714.000000	12.664737
715.000000	12.639427
716.000000	13.182420
717.000000	13.173918
718.000000	13.158012
719.000000	13.138934
720.000000	13.129162
721.000000	13.112748
722.000000	13.097513
723.000000	13.084065
724.000000	13.632111
725.000000	13.613893
726.000000	13.600504
727.000000	13.587977
728.000000	13.565474
729.000000	13.546671
730.000000	13.534115
731.000000	13.514611
732.000000	13.502007
733.000000	13.491510
734.000000	13.481609
735.000000	13.467568
736.000000	13.451774
737.000000	13.432940
738.000000	13.418544
739.000000	13.402566
740.000000	13.386862
741.000000	13.929704
742.000000	13.917846
743.000000	13.897198
744.000000	13.873689
745.000000	13.858839
746.000000	13.845626
747.000000	13.831005
748.000000	13.817330
749.000000	13.802679
750.000000	13.789519
751.000000	14.334618
752.000000	14.318101
753.000000	14.306489
754.000000	14.293091
755.000000	14.278245
756.000000	14.265989
757.000000	14.816705
758.000000	14.807592
759.000000	14.792783
760.000000	14.773481
761.000000	14.757264
762.000000	14.742113
763.000000	15.289580
764.000000	15.276583
765.000000	15.269497
766.000000	15.259812
767.000000	15.244625
768.000000	15.233347
769.000000	15.215954
770.000000	15.765055
771.000000	15.752833
772.000000	15.735638
773.000000	15.721565
774.000000	15.709620
775.000000	15.697283
776.000000	15.678256
777.000000	15.666312
778.000000	16.214047
779.000000	16.193695
780.000000	16.183653
781.000000	16.173912
782.000000	16.161696
783.000000	16.142490
784.000000	16.129444
785.000000	16.122512
786.000000	16.114019
787.000000	16.097626
788.000000	16.073990
789.000000	16.053983
790.000000	16.047691
791.000000	16.037047
792.000000	16.583492
793.000000	16.567902
794.000000	16.557152
795.000000	16.537817
796.000000	16.519499
797.000000	16.508498
798.000000	16.493703
799.000000	16.486696
800.000000	16.469459
801.000000	16.457251
802.000000	16.445425
803.000000	16.430986
804.000000	16.427429
805.000000	16.412519
806.000000	16.410904
807.000000	16.404401
808.000000	16.339027
809.000000	16.342374
810.000000	16.901157
811.000000	16.317966
812.000000	16.307473
813.000000	16.861840
814.000000	16.855215
815.000000	16.843399
816.000000	16.828934
817.000000	16.823552
818.000000	16.803626
819.000000	16.796233
820.000000	16.802479
821.000000	16.791932
822.000000	16.778531
823.000000	16.771027
824.000000	16.768732
825.000000	16.185202
826.000000	16.733773
827.000000	16.725646
828.000000	16.730786
829.000000	16.161438
830.000000	16.154291
831.000000	16.156460
832.000000	16.140146
833.000000	16.143614
834.000000	16.122004
835.000000	16.115433
836.000000	16.118114
837.000000	16.106016
838.000000	16.096348
839.000000	16.113074
840.000000	16.094764
841.000000	16.079322
842.000000	16.057375
843.000000	16.074844
844.000000	16.078865
845.000000	16.056483
846.000000	16.052937
847.000000	16.028909
848.000000	16.055517
849.000000	16.023390
850.000000	15.481537
851.000000	15.452430
852.000000	15.440989
853.000000	15.453321
854.000000	15.455165
855.000000	15.437815
856.000000	15.443485
857.000000	14.883604
858.000000	18.332146
859.000000	15.597315
860.000000	15.082390
861.000000	15.047030
862.000000	15.005274
863.000000	14.976450
864.000000	14.465890
865.000000	14.437081
866.000000	14.418451
867.000000	14.387266
868.000000	13.887973
869.000000	13.865454
870.000000	13.842465
871.000000	14.306049
872.000000	13.806619
873.000000	13.304452
874.000000	13.277948
875.000000	13.740396
876.000000	13.242649
877.000000	13.229820
878.000000	13.221320
879.000000	12.718740
880.000000	12.707304
881.000000	12.683405
882.000000	12.672775
883.000000	12.186886
884.000000	12.177334
885.000000	12.645018
886.000000	12.147968
887.000000	12.135797
888.000000	12.132645
889.000000	12.121401
890.000000	12.120939
891.000000	12.109486
892.000000	12.104239
893.000000	12.092477
894.000000	12.086641
895.000000	11.601563
896.000000	12.072365
897.000000	12.074261
898.000000	12.059597
899.000000	11.579901
900.000000	11.579187
901.000000	11.574214
902.000000	11.578649
903.000000	11.575988
904.000000	11.088230
905.000000	11.554314
906.000000	11.555662
907.000000	11.549561
908.000000	11.534908
909.000000	11.528042
910.000000	11.536459
911.000000	11.534746
912.000000	11.523180
913.000000	11.047061
914.000000	11.516800
915.000000	11.035068
916.000000	11.030920
917.000000	11.514017
918.000000	11.504638
919.000000	11.499534
920.000000	11.027493
921.000000	11.028286
922.000000	11.025564
923.000000	11.026728
924.000000	11.491375
925.000000	11.498880
926.000000	11.507852
927.000000	11.515882
928.000000	11.514690
929.000000	11.514709
930.000000	11.523547
931.000000	11.523444
932.000000	11.519302
933.000000	11.042619
934.000000	11.524939
935.000000	11.514089
936.000000	11.032637
937.000000	11.032464
938.000000	11.523057
939.000000	11.530710
940.000000	11.539450
941.000000	11.539203
942.000000	11.542679
943.000000	11.554596
944.000000	11.562012
945.000000	11.561165
946.000000	11.563195
947.000000	11.561975
948.000000	11.563043
949.000000	11.565460
950.000000	11.565876
951.000000	11.571867
952.000000	11.575513
953.000000	11.576584
954.000000	11.583974
955.000000	11.583778
956.000000	11.591605
957.000000	11.590501
958.000000	11.587091
959.000000	11.597314
960.000000	11.602707
961.000000	11.602498
962.000000	11.602073
963.000000	11.609846
964.000000	11.614136
965.000000	11.613274
966.000000	11.618953
967.000000	11.625329
968.000000	11.626246
969.000000	11.629982
970.000000	11.633324
971.000000	11.634107
972.000000	11.637938
973.000000	12.118190
974.000000	12.125820
975.000000	12.133879
976.000000	12.135569
977.000000	12.136843
978.000000	12.137682
979.000000	12.134869
980.000000	12.138954
981.000000	12.136543
982.000000	12.146971
983.000000	12.154488
984.000000	12.153547
985.000000	12.150292
986.000000	12.154960
987.000000	12.164376
988.000000	12.164852
989.000000	12.156983
990.000000	12.158683
991.000000	12.157569
992.000000	12.156271
993.000000	12.167108
994.000000	12.168378
995.000000	12.167699
996.000000	12.167342
997.000000	12.166638
998.000000	12.167983
999.000000	12.166040
1000.000000	12.166297
1001.000000	12.165945
1002.000000	12.164199
1003.000000	12.163361
1004.000000	12.164730
1005.000000	12.174239
1006.000000	12.171835
1007.000000	12.650532
1008.000000	12.654046
1009.000000	12.655051
1010.000000	12.653727
1011.000000	12.653754
1012.000000	12.650450
1013.000000	12.645717
1014.000000	12.650940
1015.000000	12.652722
1016.000000	12.647444
1017.000000	12.647002
1018.000000	12.646636
1019.000000	12.644078
1020.000000	12.644539
1021.000000	12.638697
1022.000000	12.630161
1023.000000	12.631792
1024.000000	12.631789
1025.000000	12.626723
1026.000000	12.625835
1027.000000	12.621518
1028.000000	12.620109
1029.000000	12.620639
1030.000000	12.613931
1031.000000	12.607301
1032.000000	12.601990
1033.000000	12.600328
1034.000000	12.598885
1035.000000	12.593604
1036.000000	12.590213
1037.000000	13.074463
1038.000000	13.070381
1039.000000	13.066502
1040.000000	13.064752
1041.000000	13.060942
1042.000000	13.057013
1043.000000	13.057869
1044.000000	13.054704
1045.000000	13.051157
1046.000000	13.045360
1047.000000	13.038392
1048.000000	13.033714
1049.000000	13.030153
1050.000000	13.029008
1051.000000	13.023796
1052.000000	13.020681
1053.000000	13.017129
1054.000000	13.012450
1055.000000	13.009406
1056.000000	13.004206
1057.000000	13.007021
1058.000000	13.004448
1059.000000	12.994504
1060.000000	12.987268
1061.000000	12.982968
1062.000000	12.980148
1063.000000	12.974769
1064.000000	12.966776
1065.000000	12.966566
1066.000000	13.451856
1067.000000	13.443481
1068.000000	13.436633
1069.000000	13.434220
1070.000000	13.434709
1071.000000	13.428679
1072.000000	13.416263
1073.000000	13.411532
1074.000000	13.406465
1075.000000	13.408609
1076.000000	13.404477
1077.000000	13.396287
1078.000000	13.384873
1079.000000	13.382502
1080.000000	13.388445
1081.000000	13.380290
1082.000000	13.376432
1083.000000	13.374991
1084.000000	13.369506
1085.000000	13.363131
1086.000000	13.359082
1087.000000	13.353191
1088.000000	13.349871
1089.000000	13.344560
1090.000000	13.343829
1091.000000	13.345210
1092.000000	13.335401
1093.000000	13.329482
1094.000000	13.332854
1095.000000	13.322446
1096.000000	13.320269
1097.000000	13.321997
1098.000000	13.312835
1099.000000	13.311425
1100.000000	13.309579
1101.000000	13.308234
1102.000000	13.300988
1103.000000	13.782728
1104.000000	13.779387
1105.000000	13.779461
1106.000000	13.778157
1107.000000	13.775202
1108.000000	13.773121
1109.000000	13.765762
1110.000000	13.765113
1111.000000	13.764014
1112.000000	13.766266
1113.000000	13.768697
1114.000000	13.763517
1115.000000	13.757231
1116.000000	13.754217
1117.000000	13.756423
1118.000000	13.761640
1119.000000	13.755128
1120.000000	13.758938
1121.000000	13.757281
1122.000000	13.750826
1123.000000	13.754737
1124.000000	13.762182
1125.000000	13.765939
1126.000000	13.774999
1127.000000	13.771235
1128.000000	13.765600
1129.000000	13.768860
1130.000000	13.779024
1131.000000	13.804185
1132.000000	13.325953
1133.000000	13.326248
1134.000000	13.320148
1135.000000	13.315762
1136.000000	13.319842
1137.000000	13.333633
1138.000000	13.353239
1139.000000	13.356331
1140.000000	13.357494
1141.000000	13.361224
1142.000000	13.377975
1143.000000	13.376405
1144.000000	13.381716
1145.000000	13.378953
1146.000000	13.381483
1147.000000	13.383196
1148.000000	13.386208
1149.000000	13.384616
1150.000000	13.390134
1151.000000	13.396235
1152.000000	13.393949
1153.000000	13.409491
1154.000000	13.410991
1155.000000	13.420135
1156.000000	12.934653
1157.000000	12.957684
1158.000000	12.974371
1159.000000	12.983206
1160.000000	12.995948
1161.000000	13.006932
1162.000000	13.022856
1163.000000	13.036145
1164.000000	13.048458
1165.000000	13.058309
1166.000000	13.078113
1167.000000	13.084170
1168.000000	13.102180
1169.000000	13.104629
1170.000000	13.116510
1171.000000	13.120123
1172.000000	13.130385
1173.000000	12.647241
1174.000000	12.652672
1175.000000	12.659665
1176.000000	12.664141
1177.000000	12.667564
1178.000000	12.663214
1179.000000	12.670343
1180.000000	12.679380
1181.000000	12.683549
1182.000000	12.679192
1183.000000	12.689260
1184.000000	12.694780
1185.000000	12.694831
1186.000000	12.689698
1187.000000	12.691484
1188.000000	12.682062
1189.000000	12.687254
1190.000000	12.677256
1191.000000	12.669800
1192.000000	12.654818
1193.000000	12.652968
1194.000000	12.642965
1195.000000	13.132187
1196.000000	13.117546
1197.000000	13.111134
1198.000000	13.105486
1199.000000	13.102877
1200.000000	13.087321
1201.000000	13.086230
1202.000000	13.087249
1203.000000	13.078373
1204.000000	13.073847
1205.000000	13.061732
1206.000000	13.065219
1207.000000	13.055473
1208.000000	13.046249
1209.000000	13.042947
1210.000000	13.029158
1211.000000	13.027989
1212.000000	13.013544
1213.000000	13.012181
1214.000000	13.010009
1215.000000	13.008709
1216.000000	13.003388
1217.000000	13.488034
1218.000000	13.482611
1219.000000	13.485969
1220.000000	13.475455
1221.000000	13.472422
1222.000000	13.470230
1223.000000	13.470591
1224.000000	13.476130
1225.000000	13.477710
1226.000000	13.474165
1227.000000	13.468456
1228.000000	13.471810
1229.000000	13.470876
1230.000000	13.469737
1231.000000	13.466336
1232.000000	13.465218
1233.000000	13.464476
1234.000000	13.468558
1235.000000	13.469611
1236.000000	13.471085
1237.000000	13.462543
1238.000000	13.460225
1239.000000	13.458026
1240.000000	13.454782
1241.000000	13.451695
1242.000000	13.452255
1243.000000	13.446055
1244.000000	13.436965
1245.000000	13.434675
1246.000000	13.421946
1247.000000	13.415309
1248.000000	13.412232
1249.000000	13.407059
1250.000000	13.402852
1251.000000	13.399338
1252.000000	13.883422
1253.000000	13.880744
1254.000000	13.877091
1255.000000	13.872259
1256.000000	13.864490
1257.000000	13.862896
1258.000000	13.858149
1259.000000	13.850023
1260.000000	13.847866
1261.000000	13.847189
1262.000000	13.845210
1263.000000	13.839743
1264.000000	13.836676
1265.000000	13.836632
1266.000000	13.837783
1267.000000	13.837870
1268.000000	13.835227
1269.000000	13.834372
1270.000000	13.837566
1271.000000	13.836994
1272.000000	13.836184
1273.000000	13.833954
1274.000000	13.831919
1275.000000	13.831883
1276.000000	13.830996
1277.000000	13.826532
1278.000000	13.827242
1279.000000	13.823811
1280.000000	13.821161
1281.000000	13.821861
1282.000000	13.815620
1283.000000	13.813012
1284.000000	13.812411
1285.000000	13.807301
1286.000000	13.806711
1287.000000	13.803572
1288.000000	13.800873
1289.000000	13.790996
1290.000000	13.783508
1291.000000	13.782729
1292.000000	13.782396
1293.000000	13.782946
1294.000000	13.781960
1295.000000	13.779974
1296.000000	13.772751
1297.000000	13.769960
1298.000000	13.771126
1299.000000	13.770893
1300.000000	13.771206
1301.000000	13.770485
1302.000000	13.769016
1303.000000	13.769119
1304.000000	13.763736
1305.000000	13.762742
1306.000000	13.764470
1307.000000	13.763641
1308.000000	13.765162
1309.000000	13.767803
1310.000000	13.770124
1311.000000	13.777244
1312.000000	13.788449
1313.000000	13.794006
1314.000000	13.797708
1315.000000	13.800410
1316.000000	13.803919
1317.000000	13.811655
1318.000000	13.817057
1319.000000	13.822756
1320.000000	13.828365
1321.000000	13.831078
1322.000000	13.836169
1323.000000	13.841678
1324.000000	13.847015
1325.000000	13.855409
1326.000000	13.862118
1327.000000	13.872015
1328.000000	13.881290
1329.000000	13.890580
1330.000000	13.412518
1331.000000	13.420231
1332.000000	13.433919
1333.000000	13.447467
1334.000000	13.457642
1335.000000	13.470076
1336.000000	13.481223
1337.000000	13.499103
1338.000000	13.516965
1339.000000	13.526031
1340.000000	13.536298
1341.000000	13.561598
1342.000000	13.580805
1343.000000	13.589406
1344.000000	13.610666
1345.000000	13.150477
1346.000000	13.163927
1347.000000	13.175340
1348.000000	13.199470
1349.000000	13.228941
1350.000000	13.253434
1351.000000	13.277010
1352.000000	13.302821
1353.000000	13.321482
1354.000000	13.315336
1355.000000	13.321945
1356.000000	12.856558
1357.000000	12.881284
1358.000000	12.897304
1359.000000	12.930843
1360.000000	12.923641
1361.000000	12.879837
1362.000000	12.893898
1363.000000	12.439711
1364.000000	12.441167
1365.000000	12.456311
1366.000000	12.495212
1367.000000	12.498822
1368.000000	12.524921
1369.000000	12.086113
1370.000000	12.113914
1371.000000	12.143821
1372.000000	12.196940
1373.000000	12.267841
1374.000000	11.850975
1375.000000	11.907518
1376.000000	11.985868
1377.000000	12.055852
1378.000000	11.657971
1379.000000	11.715331
1380.000000	11.752104
1381.000000	11.746649
1382.000000	11.266383
1383.000000	11.267529
1384.000000	11.294737
1385.000000	11.316795
1386.000000	11.335897
1387.000000	11.315372
1388.000000	11.303706
1389.000000	11.330800
1390.000000	10.872089
1391.000000	10.857020
1392.000000	10.853801
1393.000000	10.873590
1394.000000	10.877170
1395.000000	10.825189
1396.000000	10.835486
1397.000000	10.894295
1398.000000	10.936232
1399.000000	10.910318
1400.000000	10.872334
1401.000000	10.418087
1402.000000	10.483882
1403.000000	10.520531
1404.000000	10.520675
1405.000000	10.542850
1406.000000	10.571494
1407.000000	10.593995
1408.000000	10.615301
1409.000000	10.153859
1410.000000	10.189656
1411.000000	10.238057
1412.000000	10.273438
1413.000000	10.286191
1414.000000	10.293955
1415.000000	10.337784
1416.000000	10.384681
1417.000000	9.910523
1418.000000	9.925346
1419.000000	9.936158
1420.000000	9.974459
1421.000000	10.009777
1422.000000	10.027752
1423.000000	10.041539
1424.000000	10.058280
1425.000000	10.090927
1426.000000	9.632068
1427.000000	9.638748
1428.000000	9.654023
1429.000000	9.674808
1430.000000	9.688117
1431.000000	9.691854
1432.000000	9.712334
1433.000000	9.722865
1434.000000	9.752484
1435.000000	9.757490
1436.000000	9.772832
1437.000000	9.789294
1438.000000	9.791756
1439.000000	9.321282
1440.000000	9.321059
1441.000000	9.337903
1442.000000	9.345332
1443.000000	9.366358
1444.000000	9.370450
1445.000000	9.362988
1446.000000	9.378275
1447.000000	9.395876
1448.000000	9.419617
1449.000000	9.421328
1450.000000	9.422994
1451.000000	9.427345
1452.000000	9.448542
1453.000000	9.461749
1454.000000	9.468129
1455.000000	9.478502
1456.000000	9.489287
1457.000000	9.011820
1458.000000	9.023317
1459.000000	9.039172
1460.000000	9.046881
1461.000000	9.054838
1462.000000	9.067443
1463.000000	9.076345
1464.000000	9.089978
1465.000000	9.102751
1466.000000	9.108948
1467.000000	9.123689
1468.000000	9.140435
1469.000000	9.140106
1470.000000	9.144818
1471.000000	9.157803
1472.000000	9.171008
1473.000000	9.177048
1474.000000	9.195134
1475.000000	9.206098
1476.000000	9.208393
1477.000000	9.215669
1478.000000	9.222301
1479.000000	9.225152
1480.000000	9.231637
1481.000000	8.749859
1482.000000	8.749982
1483.000000	8.767731
1484.000000	8.769522
1485.000000	8.766991
1486.000000	8.770632
1487.000000	8.767940
1488.000000	8.775947
1489.000000	8.780879
1490.000000	8.779876
1491.000000	8.783212
1492.000000	8.789287
1493.000000	8.790237
1494.000000	8.786739
1495.000000	8.779386
1496.000000	8.773320
1497.000000	8.768663
1498.000000	8.772126
1499.000000	8.770158
1500.000000	8.764768
1501.000000	8.756401
1502.000000	8.744507
1503.000000	8.737480
1504.000000	8.729432
1505.000000	8.718112
1506.000000	8.705506
1507.000000	8.698062
1508.000000	9.180285
1509.000000	9.171440
1510.000000	9.161566
1511.000000	9.145057
1512.000000	9.135542
1513.000000	9.128189
1514.000000	9.114222
1515.000000	9.103874
1516.000000	9.094522
1517.000000	9.083675
1518.000000	9.075345
1519.000000	9.064854
1520.000000	9.057777
1521.000000	9.047541
1522.000000	9.037380
1523.000000	9.027370
1524.000000	9.019280
1525.000000	9.015094
1526.000000	9.004147
1527.000000	9.000610
1528.000000	8.996471
1529.000000	8.987540
1530.000000	8.982884
1531.000000	8.974636
1532.000000	8.965224
1533.000000	8.960875
1534.000000	8.954873
1535.000000	9.438955
1536.000000	9.435231
1537.000000	9.430442
1538.000000	9.423868
1539.000000	9.416706
1540.000000	9.413108
1541.000000	9.410594
1542.000000	9.408326
1543.000000	9.404017
1544.000000	9.396991
1545.000000	9.387836
1546.000000	9.376583
1547.000000	9.369969
1548.000000	9.363790
1549.000000	9.354435
1550.000000	9.343891
1551.000000	9.336117
1552.000000	9.330747
1553.000000	9.322044
1554.000000	9.317634
1555.000000	9.311598
1556.000000	9.303198
1557.000000	9.300345
1558.000000	9.299224
1559.000000	9.300489
1560.000000	9.299276
1561.000000	9.300338
1562.000000	9.305797
1563.000000	9.308469
1564.000000	9.310772
1565.000000	9.316024
1566.000000	9.314344
1567.000000	9.314357
1568.000000	9.318207
1569.000000	9.321542
1570.000000	9.320415
1571.000000	9.323848
1572.000000	9.330192
1573.000000	9.333596
1574.000000	9.328285
1575.000000	9.323671
1576.000000	9.324854
1577.000000	9.322791
1578.000000	9.319734
1579.000000	9.317519
1580.000000	9.801335
1581.000000	9.308711
1582.000000	9.796386
1583.000000	9.787765
1584.000000	9.779418
1585.000000	9.776698
1586.000000	9.771212
1587.000000	9.758864
1588.000000	9.753366
1589.000000	9.751375
1590.000000	9.746309
1591.000000	9.741631
1592.000000	9.736231
1593.000000	9.730403
1594.000000	9.727434
1595.000000	9.718928
1596.000000	9.708834
1597.000000	9.699568
1598.000000	9.691184
1599.000000	9.687946
1600.000000	9.679756
1601.000000	9.674273
1602.000000	9.663781
1603.000000	9.653754
1604.000000	9.644005
1605.000000	9.635563
1606.000000	9.624840
1607.000000	10.105081
1608.000000	10.097381
1609.000000	10.091038
1610.000000	10.084171
1611.000000	10.079778
1612.000000	10.071510
1613.000000	10.061936
1614.000000	10.060298
1615.000000	10.051272
1616.000000	10.050900
1617.000000	10.051928
1618.000000	10.047580
1619.000000	10.042381
1620.000000	10.036742
1621.000000	10.033387
1622.000000	10.030142
1623.000000	10.025619
1624.000000	10.019821
1625.000000	10.015132
1626.000000	10.010652
1627.000000	10.009213
1628.000000	10.005112
1629.000000	10.003122
1630.000000	9.999464
1631.000000	9.994256
1632.000000	9.987757
1633.000000	9.982409
1634.000000	9.985938
1635.000000	9.982993
1636.000000	9.979141
1637.000000	9.978833
1638.000000	9.976063
1639.000000	9.981761
1640.000000	9.982585
1641.000000	9.982749
1642.000000	9.984126
1643.000000	9.983849
1644.000000	9.984863
1645.000000	9.981247
1646.000000	9.983972
1647.000000	9.983841
1648.000000	9.984475
1649.000000	9.985711
1650.000000	9.990824
1651.000000	9.992716
1652.000000	10.000168
1653.000000	10.006995
1654.000000	10.011172
1655.000000	10.020464
1656.000000	10.034447
1657.000000	10.039710
1658.000000	10.050174
1659.000000	10.070336
1660.000000	10.080615
1661.000000	10.094438
1662.000000	10.116672
1663.000000	10.137201
1664.000000	10.155073
1665.000000	10.173500
1666.000000	9.708123
1667.000000	9.730393
1668.000000	9.767988
1669.000000	9.791193
1670.000000	9.813316
1671.000000	9.834364
1672.000000	9.859517
1673.000000	9.869981
1674.000000	9.403231
1675.000000	9.425339
1676.000000	9.446806
1677.000000	9.465551
1678.000000	9.488187
1679.000000	9.515835
1680.000000	9.538065
1681.000000	9.568304
1682.000000	9.601259
1683.000000	9.623719
1684.000000	9.160265
1685.000000	9.179065
1686.000000	9.183542
1687.000000	9.186102
1688.000000	9.179105
1689.000000	9.178179
1690.000000	9.159333
1691.000000	9.154131
1692.000000	9.133200
1693.000000	9.123077
1694.000000	9.102394
1695.000000	9.108285
1696.000000	9.100324
1697.000000	9.091544
1698.000000	9.093718
1699.000000	9.093212
1700.000000	9.082934
1701.000000	9.093322
1702.000000	9.092304
1703.000000	9.100110
1704.000000	9.109534
1705.000000	9.115463
1706.000000	9.130750
1707.000000	9.139944
1708.000000	8.661963
1709.000000	8.680200
1710.000000	8.691681
1711.000000	8.716284
1712.000000	8.743117
1713.000000	8.760060
1714.000000	8.791534
1715.000000	8.824011
1716.000000	8.845556
1717.000000	8.882168
1718.000000	8.900087
1719.000000	8.932667
1720.000000	8.953703
1721.000000	8.968973
1722.000000	8.979711
1723.000000	8.978666
1724.000000	8.970383
1725.000000	8.971160
1726.000000	8.470047
1727.000000	8.465197
1728.000000	8.457144
1729.000000	8.446034
1730.000000	8.434360
1731.000000	8.427135
1732.000000	8.417718
1733.000000	8.896030
1734.000000	8.895514
1735.000000	8.882447
1736.000000	8.872617
1737.000000	8.858837
1738.000000	8.848267
1739.000000	8.840182
1740.000000	8.817724
1741.000000	8.805975
1742.000000	8.794109
1743.000000	8.788628
1744.000000	8.778282
1745.000000	8.765820
1746.000000	8.754664
1747.000000	8.746531
1748.000000	8.745376
1749.000000	8.740709
1750.000000	8.739212
1751.000000	8.739888
1752.000000	8.734173
1753.000000	8.732972
1754.000000	8.736783
1755.000000	8.739489
1756.000000	8.732638
1757.000000	8.733311
1758.000000	8.737315
1759.000000	8.736570
1760.000000	8.739333
1761.000000	8.736229
1762.000000	8.731602
1763.000000	8.731900
1764.000000	9.219155
1765.000000	9.209292
1766.000000	9.199822
1767.000000	9.202828
1768.000000	9.200332
1769.000000	9.196054
1770.000000	9.188038
1771.000000	9.179831
1772.000000	9.174819
1773.000000	9.168090
1774.000000	9.160240
1775.000000	9.151500
1776.000000	9.142916
1777.000000	9.138971
1778.000000	9.128699
1779.000000	9.126096
1780.000000	9.121899
1781.000000	9.119320
1782.000000	9.120358
1783.000000	9.117380
1784.000000	9.118017
1785.000000	9.114709
1786.000000	9.116388
1787.000000	9.117736
1788.000000	9.120681
1789.000000	9.120140
1790.000000	9.119857
1791.000000	9.121657
1792.000000	9.117606
1793.000000	9.108459
1794.000000	9.102635
1795.000000	9.101808
1796.000000	9.103208
1797.000000	9.109755
1798.000000	9.113369
1799.000000	9.108364
1800.000000	9.096347
1801.000000	9.092306
1802.000000	9.090886
1803.000000	9.101255
1804.000000	9.102724
1805.000000	9.089667
1806.000000	9.079753
1807.000000	9.081010
1808.000000	9.095949
1809.000000	9.104744
1810.000000	9.096909
1811.000000	9.078652
1812.000000	9.076546
1813.000000	9.086389
1814.000000	9.572744
1815.000000	9.567473
1816.000000	9.579788
1817.000000	9.606320
1818.000000	9.631425
1819.000000	9.613038
1820.000000	9.560178
1821.000000	9.526637
1822.000000	9.545213
1823.000000	9.593167
1824.000000	9.622169
1825.000000	9.626383
1826.000000	9.618042
1827.000000	9.605943
1828.000000	9.600047
1829.000000	9.584654
1830.000000	9.561047
1831.000000	9.567403
1832.000000	9.595692
1833.000000	9.627765
1834.000000	9.640511
1835.000000	9.625711
1836.000000	9.595327
1837.000000	9.578377
1838.000000	9.580358
1839.000000	9.572068
1840.000000	9.534575
1841.000000	9.486454
1842.000000	9.482580
1843.000000	9.536736
1844.000000	9.610330
1845.000000	9.648025
1846.000000	9.616008
1847.000000	9.534088
1848.000000	9.473678
1849.000000	9.481429
1850.000000	9.536445
1851.000000	9.579794
1852.000000	9.583171
1853.000000	9.572441
1854.000000	9.563615
1855.000000	9.564495
1856.000000	9.592598
1857.000000	9.614382
1858.000000	9.598607
1859.000000	9.577778
1860.000000	9.564015
1861.000000	9.573765
1862.000000	9.602765
1863.000000	9.648433
1864.000000	9.700363
1865.000000	9.741115
1866.000000	9.771963
1867.000000	9.303919
1868.000000	9.323165
1869.000000	9.313106
1870.000000	9.289484
1871.000000	9.284797
1872.000000	9.272254
1873.000000	9.275523
1874.000000	9.297016
1875.000000	8.815329
1876.000000	8.838996
1877.000000	8.882158
1878.000000	8.927156
1879.000000	8.976019
1880.000000	8.547370
1881.000000	8.598509
1882.000000	8.636370
1883.000000	8.673644
1884.000000	8.710862
1885.000000	8.265362
1886.000000	8.325783
1887.000000	8.407046
1888.000000	8.485453
1889.000000	8.048784
1890.000000	8.101373
1891.000000	8.142435
1892.000000	8.189821
1893.000000	7.768167
1894.000000	7.850222
1895.000000	7.945681
1896.000000	8.037466
1897.000000	7.614521
1898.000000	7.661403
1899.000000	7.703958
1900.000000	7.752451
1901.000000	7.826460
1902.000000	7.402993
1903.000000	7.458557
1904.000000	7.491840
1905.000000	7.020888
1906.000000	7.057675
1907.000000	7.098800
1908.000000	7.154690
1909.000000	7.223903
1910.000000	6.774582
1911.000000	6.806086
1912.000000	6.821985
1913.000000	6.825871
1914.000000	6.839788
1915.000000	6.877991
1916.000000	6.921475
1917.000000	6.959615
1918.000000	6.487834
1919.000000	6.497364
1920.000000	6.500321
1921.000000	6.502799
1922.000000	6.510649
1923.000000	6.531248
1924.000000	6.557824
1925.000000	6.564084
1926.000000	6.569904
1927.000000	6.578525
1928.000000	6.573538
1929.000000	6.570552
1930.000000	6.570935
1931.000000	6.575623
1932.000000	6.582626
1933.000000	6.585996
1934.000000	6.100017
1935.000000	6.594117
1936.000000	6.093256
1937.000000	6.089298
1938.000000	6.562777
1939.000000	6.063576
1940.000000	6.054576
1941.000000	6.047754
1942.000000	6.047490
1943.000000	6.044110
1944.000000	6.039030
1945.000000	6.022519
1946.000000	6.505629
1947.000000	6.498130
1948.000000	6.492115
1949.000000	6.482347
1950.000000	6.476073
1951.000000	6.464666
1952.000000	6.452780
1953.000000	6.444080
1954.000000	6.422642
1955.000000	6.412430
1956.000000	6.404211
1957.000000	6.392783
1958.000000	6.381155
1959.000000	6.376349
1960.000000	6.360368
1961.000000	6.360168
1962.000000	6.336791
1963.000000	6.329830
1964.000000	6.324511
1965.000000	6.315137
1966.000000	6.306065
1967.000000	6.298580
1968.000000	6.290116
1969.000000	6.284196
1970.000000	6.270499
1971.000000	6.260151
1972.000000	6.744371
1973.000000	6.733604
1974.000000	6.725638
1975.000000	6.720265
1976.000000	6.705888
1977.000000	6.696287
1978.000000	6.686364
1979.000000	6.672985
1980.000000	6.659629
1981.000000	6.651894
1982.000000	6.647382
1983.000000	6.635183
1984.000000	6.626305
1985.000000	6.614683
1986.000000	6.603864
1987.000000	6.594991
1988.000000	6.585013
1989.000000	6.574062
1990.000000	6.563673
1991.000000	7.045735
1992.000000	7.044820
1993.000000	7.039161
1994.000000	7.026817
1995.000000	7.023908
1996.000000	7.016331
1997.000000	7.009992
1998.000000	7.004668
1999.000000	7.003182
2000.000000	6.998860
2001.000000	6.994277
2002.000000	6.990429
2003.000000	6.986536
2004.000000	6.987652
2005.000000	6.986188
2006.000000	6.990168
2007.000000	6.986492
2008.000000	6.992420
2009.000000	6.991133
2010.000000	6.993891
2011.000000	7.005076
2012.000000	7.009128
2013.000000	7.007827
2014.000000	7.014549
2015.000000	7.030068
2016.000000	7.032974
2017.000000	7.045151
2018.000000	7.054895
2019.000000	7.067164
2020.000000	7.074903
2021.000000	7.086114
2022.000000	7.100615
2023.000000	7.113006
2024.000000	7.126176
2025.000000	7.143973
2026.000000	7.158221
2027.000000	7.174160
2028.000000	7.188983
2029.000000	7.196075
2030.000000	7.222051
2031.000000	7.242941
2032.000000	7.258847
2033.000000	6.775479
2034.000000	6.793197
2035.000000	6.811032
2036.000000	6.835465
2037.000000	6.857528
2038.000000	6.876988
2039.000000	6.901817
2040.000000	6.920648
2041.000000	6.943595
2042.000000	6.967811
2043.000000	6.988533
2044.000000	7.008533
2045.000000	7.027853
2046.000000	7.048108
2047.000000	7.061795
2048.000000	7.074660
2049.000000	7.081476
2050.000000	7.093679
2051.000000	7.101230
2052.000000	7.100936
2053.000000	7.102432
2054.000000	7.102272
2055.000000	7.092543
2056.000000	7.089097
2057.000000	7.084546
2058.000000	7.072812
2059.000000	7.062597
2060.000000	7.055376
2061.000000	7.038410
2062.000000	7.023231
2063.000000	7.013973
2064.000000	6.998426
2065.000000	6.984473
2066.000000	6.969015
2067.000000	6.957420
2068.000000	7.444200
2069.000000	6.936450
2070.000000	6.922986
2071.000000	7.409060
2072.000000	7.401001
2073.000000	7.390441
2074.000000	7.380656
2075.000000	7.375956
2076.000000	7.377154
2077.000000	7.375596
2078.000000	7.370954
2079.000000	7.366571
2080.000000	7.362911
2081.000000	7.358475
2082.000000	7.359165
2083.000000	7.364358
2084.000000	7.369507
2085.000000	7.369266
2086.000000	7.371781
2087.000000	7.375624
2088.000000	7.382606
2089.000000	7.388663
2090.000000	7.388971
2091.000000	7.390082
2092.000000	7.395770
2093.000000	7.400855
2094.000000	7.406377
2095.000000	7.413706
2096.000000	7.417651
2097.000000	7.418366
2098.000000	7.420686
2099.000000	7.422810
2100.000000	7.426983
2101.000000	7.427566
2102.000000	7.429222
2103.000000	7.928397
2104.000000	7.434459
2105.000000	7.438224
2106.000000	7.935539
2107.000000	7.935248
2108.000000	7.939128
2109.000000	7.946640
2110.000000	7.953291
2111.000000	7.953388
2112.000000	7.953783
2113.000000	7.957018
2114.000000	7.966341
2115.000000	7.972471
2116.000000	7.975451
2117.000000	7.483659
2118.000000	7.987685
2119.000000	7.993269
2120.000000	7.996269
2121.000000	8.001140
2122.000000	8.011002
2123.000000	8.024195
2124.000000	7.529327
2125.000000	7.536898
2126.000000	7.552225
2127.000000	7.563538
2128.000000	8.069848
2129.000000	7.583865
2130.000000	8.088045
2131.000000	8.099614
2132.000000	8.106825
2133.000000	8.114117
2134.000000	7.631917
2135.000000	7.642210
2136.000000	8.152043
2137.000000	7.669093
2138.000000	7.678042
2139.000000	7.686866
2140.000000	7.699524
2141.000000	7.715871
2142.000000	7.729589
2143.000000	7.743241
2144.000000	7.755649
2145.000000	7.767388
2146.000000	7.788533
2147.000000	7.800722
2148.000000	7.813042
2149.000000	7.329114
2150.000000	7.341978
2151.000000	7.850901
2152.000000	7.359767
2153.000000	7.377064
2154.000000	7.385301
2155.000000	7.393541
2156.000000	7.404125
2157.000000	7.413736
2158.000000	7.417869
2159.000000	7.423123
2160.000000	7.428629
2161.000000	7.439632
2162.000000	7.449267
2163.000000	7.453522
2164.000000	7.455160
2165.000000	7.458266
2166.000000	6.964502
2167.000000	7.468842
2168.000000	6.973049
2169.000000	7.477207
2170.000000	6.984509
2171.000000	6.988642
2172.000000	6.995322
2173.000000	6.994897
2174.000000	7.001860
2175.000000	7.008307
2176.000000	7.006891
2177.000000	7.012971
2178.000000	7.013727
2179.000000	7.016844
2180.000000	7.024086
2181.000000	6.531968
2182.000000	7.031404
2183.000000	7.046084
2184.000000	6.555611
2185.000000	6.567968
2186.000000	6.576782
2187.000000	6.589979
2188.000000	6.608811
2189.000000	6.619893
2190.000000	6.642477
2191.000000	6.659078
2192.000000	6.679360
2193.000000	6.207682
2194.000000	6.224902
2195.000000	6.251263
2196.000000	6.271383
2197.000000	6.294089
2198.000000	5.821462
2199.000000	5.845549
2200.000000	5.869348
2201.000000	5.882871
2202.000000	5.903563
2203.000000	5.912942
2204.000000	5.930540
2205.000000	5.928029
2206.000000	5.937048
2207.000000	5.941842
2208.000000	5.942526
2209.000000	5.940518
2210.000000	5.931006
2211.000000	5.935136
2212.000000	5.422215
2213.000000	5.912535
2214.000000	5.393129
2215.000000	5.874485
2216.000000	5.867170
2217.000000	5.858039
2218.000000	5.837205
2219.000000	5.828464
2220.000000	5.812659
2221.000000	6.301130
2222.000000	5.787837
2223.000000	5.775245
2224.000000	5.756662
2225.000000	5.753976
2226.000000	5.751527
2227.000000	5.735119
2228.000000	6.228708
2229.000000	6.223132
2230.000000	5.719861
2231.000000	6.213697
2232.000000	6.213311
2233.000000	6.214962
2234.000000	6.216187
2235.000000	6.218124
2236.000000	6.218265
2237.000000	6.222131
2238.000000	6.227522
2239.000000	6.229754
2240.000000	6.244841
2241.000000	6.253578
2242.000000	6.262437
2243.000000	6.268346
2244.000000	6.279013
2245.000000	6.279794
2246.000000	6.297736
2247.000000	6.308842
2248.000000	6.314858
2249.000000	6.330691
2250.000000	6.345440
2251.000000	6.352234
2252.000000	6.360546
2253.000000	6.374793
2254.000000	6.385111
2255.000000	6.390536
2256.000000	6.399459
2257.000000	6.405947
2258.000000	6.409898
2259.000000	6.418584
2260.000000	6.423147
2261.000000	6.430751
2262.000000	6.430501
2263.000000	6.428487
2264.000000	6.420001
2265.000000	6.425151
2266.000000	6.423828
2267.000000	6.421374
2268.000000	6.918016
2269.000000	6.913723
2270.000000	6.911552
2271.000000	6.908814
2272.000000	6.909877
2273.000000	6.904425
2274.000000	6.900987
2275.000000	6.897587
2276.000000	6.890602
2277.000000	6.890350
2278.000000	6.891439
2279.000000	6.890697
2280.000000	6.890628
2281.000000	6.889808
2282.000000	6.883457
2283.000000	6.880296
2284.000000	6.881671
2285.000000	6.883166
2286.000000	6.881995
2287.000000	6.880173
2288.000000	6.888743
2289.000000	6.881784
2290.000000	6.879792
2291.000000	6.875183
2292.000000	7.375167
2293.000000	7.376282
2294.000000	7.377617
2295.000000	7.375421
2296.000000	7.376593
2297.000000	7.368350
2298.000000	7.364837
2299.000000	7.362850
2300.000000	7.353855
2301.000000	7.347211
2302.000000	7.352712
2303.000000	7.348734
2304.000000	7.338902
2305.000000	7.335823
2306.000000	7.334076
2307.000000	7.324867
2308.000000	7.312877
2309.000000	7.310081
2310.000000	7.302203
2311.000000	7.301636
2312.000000	7.798106
2313.000000	7.793756
2314.000000	7.787413
2315.000000	7.789857
2316.000000	7.790284
2317.000000	7.785770
2318.000000	7.787882
2319.000000	7.788453
2320.000000	7.789329
2321.000000	7.794118
2322.000000	8.294359
2323.000000	7.795733
2324.000000	8.304363
2325.000000	8.307731
2326.000000	8.306397
2327.000000	8.311755
2328.000000	8.314295
2329.000000	8.316445
2330.000000	8.313738
2331.000000	8.813500
2332.000000	8.318426
2333.000000	8.311944
2334.000000	8.307418
2335.000000	8.311156
2336.000000	8.312943
2337.000000	8.315483
2338.000000	8.311432
2339.000000	8.808808
2340.000000	8.805916
2341.000000	8.804975
2342.000000	8.303350
2343.000000	8.298894
2344.000000	8.795191
2345.000000	8.290200
2346.000000	8.280277
2347.000000	8.268974
2348.000000	8.770715
2349.000000	8.778620
2350.000000	8.788707
2351.000000	8.790704
2352.000000	8.779575
2353.000000	8.773059
2354.000000	8.770363
2355.000000	8.767610
2356.000000	8.762320
2357.000000	8.757066
2358.000000	8.257991
2359.000000	8.260022
2360.000000	8.763781
2361.000000	9.264032
2362.000000	9.262292
2363.000000	9.260460
2364.000000	8.758266
2365.000000	8.762310
2366.000000	8.763150
2367.000000	9.254708
2368.000000	8.757737
2369.000000	8.755951
2370.000000	8.751205
2371.000000	9.252607
2372.000000	8.751953
2373.000000	8.750213
2374.000000	9.249249
2375.000000	9.243962
2376.000000	9.240474
2377.000000	9.235913
2378.000000	9.236246
2379.000000	8.741910
2380.000000	8.738935
2381.000000	8.736679
2382.000000	9.239818
2383.000000	9.245589
2384.000000	9.244943
2385.000000	9.246384
2386.000000	9.747430
2387.000000	9.747185
2388.000000	9.247804
2389.000000	9.248436
2390.000000	9.252317
2391.000000	9.254744
2392.000000	9.257671
2393.000000	9.762658
2394.000000	9.765418
2395.000000	9.767244
2396.000000	9.273733
2397.000000	9.278406
2398.000000	9.775789
2399.000000	9.274465
2400.000000	9.283047
2401.000000	9.294578
2402.000000	9.299394
2403.000000	9.799223
2404.000000	9.799363
2405.000000	9.304359
2406.000000	9.309627
2407.000000	9.818162
2408.000000	9.826015
2409.000000	9.329135
2410.000000	9.336755
2411.000000	9.844416
2412.000000	9.850280
2413.000000	9.857092
2414.000000	9.866875
2415.000000	9.876162
2416.000000	9.885792
2417.000000	9.901412
2418.000000	9.906437
2419.000000	10.419691
2420.000000	9.933126
2421.000000	9.938302
2422.000000	9.948282
2423.000000	9.959104
2424.000000	9.971046
2425.000000	9.483251
2426.000000	9.989067
2427.000000	10.002076
2428.000000	10.516399
2429.000000	10.529623
2430.000000	10.537452
2431.000000	10.050604
2432.000000	10.057982
2433.000000	10.069653
2434.000000	10.082366
2435.000000	10.094467
2436.000000	10.102714
2437.000000	10.615440
2438.000000	10.624160
2439.000000	10.637287
2440.000000	10.657960
2441.000000	11.166667
2442.000000	11.181402
2443.000000	11.189428
2444.000000	11.198450
2445.000000	11.714663
2446.000000	10.717614
2447.000000	11.236121
2448.000000	10.749716
2449.000000	11.244598
2450.000000	10.757908
2451.000000	11.269721
2452.000000	11.285009
2453.000000	11.786132
2454.000000	11.292214
2455.000000	11.294876
2456.000000	11.304517
2457.000000	11.314730
2458.000000	12.319800
2459.000000	12.328754
2460.000000	12.835867
2461.000000	12.832003
2462.000000	12.349865
2463.000000	12.348106
2464.000000	12.851491
2465.000000	13.364060
2466.000000	12.869962
2467.000000	13.374353
2468.000000	13.880492
2469.000000	14.375591
2470.000000	14.879345
2471.000000	15.379207
2472.000000	15.387249
2473.000000	16.379697
2474.000000	15.887030
2475.000000	14.874914
2476.000000	15.397182
2477.000000	15.880985
2478.000000	16.400106
2479.000000	16.405280
2480.000000	16.377427
2481.000000	17.857068
2482.000000	16.879421
2483.000000	17.398857
2484.000000	16.877169
2485.000000	16.386199
2486.000000	18.881689
2487.000000	18.375994
2488.000000	18.872122
2489.000000	19.856106
2490.000000	19.378581
2491.000000	20.853537
2492.000000	21.334827
2493.000000	21.343207
2494.000000	21.337550
2495.000000	21.329178
2496.000000	21.315243
2497.000000	21.838518
2498.000000	22.346614
2499.000000	22.294205
2500.000000	22.811702
2501.000000	nan
2502.000000	nan
2503.000000	nan
2504.000000	nan
2505.000000	nan
2506.000000	nan
2507.000000	nan
2508.000000	nan
2509.000000	nan
2510.000000	nan
2511.000000	nan
2512.000000	nan
2513.000000	nan
2514.000000	nan
2515.000000	nan
2516.000000	nan
2517.000000	nan
2518.000000	nan
2519.000000	nan
2520.000000	nan
2521.000000	nan
2522.000000	nan
2523.000000	nan
2524.000000	nan
2525.000000	nan
2526.000000	nan
2527.000000	nan
2528.000000	nan
2529.000000	nan
2530.000000	nan
2531.000000	nan
2532.000000	nan
2533.000000	nan
2534.000000	nan
2535.000000	nan
2536.000000	nan
2537.000000	nan
2538.000000	nan
2539.000000	nan
2540.000000	nan
2541.000000	nan
2542.000000	nan
2543.000000	nan
2544.000000	nan
2545.000000	nan
2546.000000	nan
2547.000000	nan
2548.000000	nan
2549.000000	nan
2550.000000	nan
2551.000000	nan
2552.000000	nan
2553.000000	nan
2554.000000	nan
2555.000000	nan
2556.000000	nan
2557.000000	nan
2558.000000	nan
2559.000000	nan
2560.000000	nan
2561.000000	nan
2562.000000	nan
2563.000000	nan
2564.000000	nan
2565.000000	nan
2566.000000	nan
2567.000000	nan
2568.000000	nan
2569.000000	nan
2570.000000	nan
2571.000000	nan
2572.000000	nan
2573.000000	nan
2574.000000	nan
2575.000000	nan
2576.000000	nan
2577.000000	nan
2578.000000	nan
2579.000000	nan
2580.000000	nan
2581.000000	nan
2582.000000	nan
2583.000000	nan
2584.000000	nan
2585.000000	nan
2586.000000	nan
2587.000000	nan
2588.000000	nan
2589.000000	nan
2590.000000	nan
2591.000000	nan
2592.000000	nan
2593.000000	nan
2594.000000	nan
2595.000000	nan
2596.000000	nan
2597.000000	nan
2598.000000	nan
2599.000000	nan
2600.000000	nan
2601.000000	nan
2602.000000	nan
2603.000000	nan
2604.000000	nan
2605.000000	nan
2606.000000	nan
2607.000000	nan
2608.000000	nan
2609.000000	nan
2610.000000	nan
2611.000000	nan
2612.000000	nan
2613.000000	nan
2614.000000	nan
2615.000000	nan
2616.000000	nan
2617.000000	nan
2618.000000	nan
2619.000000	nan
2620.000000	nan
2621.000000	nan
2622.000000	nan
2623.000000	nan
2624.000000	nan
2625.000000	nan
2626.000000	nan
2627.000000	nan
2628.000000	nan
2629.000000	nan
2630.000000	nan
2631.000000	nan
2632.000000	nan
2633.000000	nan
2634.000000	nan
2635.000000	nan
2636.000000	nan
2637.000000	nan
2638.000000	nan
2639.000000	nan
2640.000000	nan
2641.000000	nan
2642.000000	nan
2643.000000	nan
2644.000000	nan
2645.000000	nan
2646.000000	nan
2647.000000	nan
2648.000000	nan
2649.000000	nan
2650.000000	nan
2651.000000	nan
2652.000000	nan
2653.000000	nan
2654.000000	nan
2655.000000	nan
2656.000000	nan
2657.000000	nan
2658.000000	nan
2659.000000	nan
2660.000000	nan
2661.000000	nan
2662.000000	nan
2663.000000	nan
2664.000000	nan
2665.000000	nan
2666.000000	nan
2667.000000	nan
2668.000000	nan
2669.000000	nan
2670.000000	nan
2671.000000	nan
2672.000000	nan
2673.000000	nan
2674.000000	nan
2675.000000	nan
2676.000000	nan
2677.000000	nan
2678.000000	nan
2679.000000	nan
2680.000000	nan
2681.000000	nan
2682.000000	nan
2683.000000	nan
2684.000000	nan
2685.000000	nan
2686.000000	nan
2687.000000	nan
2688.000000	nan
2689.000000	nan
2690.000000	nan
2691.000000	nan
2692.000000	nan
2693.000000	nan
2694.000000	nan
2695.000000	nan
2696.000000	nan
2697.000000	nan
2698.000000	nan
2699.000000	nan
2700.000000	nan
2701.000000	nan
2702.000000	nan
2703.000000	nan
2704.000000	nan
2705.000000	nan
2706.000000	nan
2707.000000	nan
2708.000000	nan
2709.000000	nan
2710.000000	nan
2711.000000	nan
2712.000000	nan
2713.000000	nan
2714.000000	nan
2715.000000	nan
2716.000000	nan
2717.000000	nan
2718.000000	nan
2719.000000	nan
2720.000000	nan
2721.000000	nan
2722.000000	nan
2723.000000	nan
2724.000000	nan
2725.000000	nan
2726.000000	nan
2727.000000	nan
2728.000000	nan
2729.000000	nan
2730.000000	nan
2731.000000	nan
2732.000000	nan
2733.000000	nan
2734.000000	nan
2735.000000	nan
2736.000000	nan
2737.000000	nan
2738.000000	nan
2739.000000	nan
2740.000000	nan
2741.000000	nan
2742.000000	nan
2743.000000	nan
2744.000000	nan
2745.000000	nan
2746.000000	nan
2747.000000	nan
2748.000000	nan
2749.000000	nan
2750.000000	nan
2751.000000	nan
2752.000000	nan
2753.000000	nan
2754.000000	nan
2755.000000	nan
2756.000000	nan
2757.000000	nan
2758.000000	nan
2759.000000	nan
2760.000000	nan
2761.000000	nan
2762.000000	nan
2763.000000	nan
2764.000000	nan
2765.000000	nan
2766.000000	nan
2767.000000	nan
2768.000000	nan
2769.000000	nan
2770.000000	nan
2771.000000	nan
2772.000000	nan
2773.000000	nan
2774.000000	nan
2775.000000	nan
2776.000000	nan
2777.000000	nan
2778.000000	nan
2779.000000	nan
2780.000000	nan
2781.000000	nan
2782.000000	nan
2783.000000	nan
2784.000000	nan
2785.000000	nan
2786.000000	nan
2787.000000	nan
2788.000000	nan
2789.000000	nan
2790.000000	nan
2791.000000	nan
2792.000000	nan
2793.000000	nan
2794.000000	nan
2795.000000	nan
2796.000000	nan
2797.000000	nan
2798.000000	nan
2799.000000	nan
2800.000000	nan
2801.000000	nan
2802.000000	nan
2803.000000	nan
2804.000000	nan
2805.000000	nan
2806.000000	nan
2807.000000	nan
2808.000000	nan
2809.000000	nan
2810.000000	nan
2811.000000	nan
2812.000000	nan
2813.000000	nan
2814.000000	nan
2815.000000	nan
2816.000000	nan
2817.000000	nan
2818.000000	nan
2819.000000	nan
2820.000000	nan
2821.000000	nan
2822.000000	nan
2823.000000	nan
2824.000000	nan
2825.000000	nan
2826.000000	nan
2827.000000	nan
2828.000000	nan
2829.000000	nan
2830.000000	nan
2831.000000	nan
2832.000000	nan
2833.000000	nan
2834.000000	nan
2835.000000	nan
2836.000000	nan
2837.000000	nan
2838.000000	nan
2839.000000	nan
2840.000000	nan
2841.000000	nan
2842.000000	nan
2843.000000	nan
2844.000000	nan
2845.000000	nan
2846.000000	nan
2847.000000	nan
2848.000000	nan
2849.000000	nan
2850.000000	nan
2851.000000	nan
2852.000000	nan
2853.000000	nan
2854.000000	nan
2855.000000	nan
2856.000000	nan
2857.000000	nan
2858.000000	nan
2859.000000	nan
2860.000000	nan
2861.000000	nan
2862.000000	nan
2863.000000	nan
2864.000000	nan
2865.000000	nan
2866.000000	nan
2867.000000	nan
2868.000000	nan
2869.000000	nan
2870.000000	nan
2871.000000	nan
2872.000000	nan
2873.000000	nan
2874.000000	nan
2875.000000	nan
2876.000000	nan
2877.000000	nan
2878.000000	nan
2879.000000	nan
2880.000000	nan
2881.000000	nan
2882.000000	nan
2883.000000	nan
2884.000000	nan
2885.000000	nan
2886.000000	nan
2887.000000	nan
2888.000000	nan
2889.000000	nan
2890.000000	nan
2891.000000	nan
2892.000000	nan
2893.000000	nan
2894.000000	nan
2895.000000	nan
2896.000000	nan
2897.000000	nan
2898.000000	nan
2899.000000	nan
2900.000000	nan
2901.000000	nan
2902.000000	nan
2903.000000	nan
2904.000000	nan
2905.000000	nan
2906.000000	nan
2907.000000	nan
2908.000000	nan
2909.000000	nan
2910.000000	nan
2911.000000	nan
2912.000000	nan
2913.000000	nan
2914.000000	nan
2915.000000	nan
2916.000000	nan
2917.000000	nan
2918.000000	nan
2919.000000	nan
2920.000000	nan
2921.000000	nan
2922.000000	nan
2923.000000	nan
2924.000000	nan
2925.000000	nan
2926.000000	nan
2927.000000	nan
2928.000000	nan
2929.000000	nan
2930.000000	nan
2931.000000	nan
2932.000000	nan
2933.000000	nan
2934.000000	nan
2935.000000	nan
2936.000000	nan
2937.000000	nan
2938.000000	nan
2939.000000	nan
2940.000000	nan
2941.000000	nan
2942.000000	nan
2943.000000	nan
2944.000000	nan
2945.000000	nan
2946.000000	nan
2947.000000	nan
2948.000000	nan
2949.000000	nan
2950.000000	nan
2951.000000	nan
2952.000000	nan
2953.000000	nan
2954.000000	nan
2955.000000	nan
2956.000000	nan
2957.000000	nan
2958.000000	nan
2959.000000	nan
2960.000000	nan
2961.000000	nan
2962.000000	nan
2963.000000	nan
2964.000000	nan
2965.000000	nan
2966.000000	nan
2967.000000	nan
2968.000000	nan
2969.000000	nan
2970.000000	nan
2971.000000	nan
2972.000000	nan
2973.000000	nan
2974.000000	nan
2975.000000	nan
2976.000000	nan
2977.000000	nan
2978.000000	nan
2979.000000	nan
2980.000000	nan
2981.000000	nan
2982.000000	nan
2983.000000	nan
2984.000000	nan
2985.000000	nan
2986.000000	nan
2987.000000	nan
2988.000000	nan
2989.000000	nan
2990.000000	nan
2991.000000	nan
2992.000000	nan
2993.000000	nan
2994.000000	nan
2995.000000	nan
2996.000000	nan
2997.000000	nan
2998.000000	nan
2999.000000	nan
3000.000000	nan
