PE UV       SUBTECH     SPECTRUM    ASCII       PEDS        4.00        
   -1
INBUCR0113-5.Sample.ASC
24/02/12
13:19:24.00
24/02/12
13:19:24.00
Vinicio Soto Monge
Strigidia glabra. Color verde metálico con ambos élitros (Det: A. Solís) COSTA RICA Prov. Guanacaste. Cañas. Laguna La Vieja Finca M. Campos. 600-700m 13 JUN 2007 J.A Azofeifa M. Campos . Tp. Luz Mercurio L_N_292100_421100 #91629. INB0004090554
250,000000
1
Lambda 1050
1050L1511233
PerkinElmer UV WinLab 6.3.2.0749 / 2.02.05 Lambda 900 UV/VIS/NIR, Aug  7 2015 09:38:08

0
0
3350/servo 860,8/2
0
0
UV/VIS
1
1
1
DoubleDePol,CommonBeamDepol,RBeamAtt,SBeamAtt,60mm sphere, WB InGaAs Detector
0
0
0
0
Program
Program
3350/servo 860,8/2
3350/0,2 860,8/0,2
3350/0,2 860,8/0,2
0
15.00
 
 
 
0
 
860,8
150
860,8
Front
100
on
S:100 R:100
0
0
0
0
 
0
 
 
 
0
 
 
0
0
0
0
0
 
 
 
 
0
0


0
0
#HDR
-1
-1
#GR
nm
%R
1.0
0.0
2500,000000
-1,000000
2251
8
21,392800
1,640800
#DATA

250.000000	3.922409
251.000000	3.919865
252.000000	3.947286
253.000000	3.941765
254.000000	3.996121
255.000000	3.973876
256.000000	3.932690
257.000000	3.966790
258.000000	3.954418
259.000000	3.970309
260.000000	3.944499
261.000000	3.915720
262.000000	3.966922
263.000000	3.981265
264.000000	4.059543
265.000000	4.063936
266.000000	4.106223
267.000000	4.077249
268.000000	4.007839
269.000000	4.082684
270.000000	4.034709
271.000000	4.026326
272.000000	4.023999
273.000000	4.076818
274.000000	4.107701
275.000000	4.088239
276.000000	4.123131
277.000000	4.057281
278.000000	4.094267
279.000000	4.126404
280.000000	4.141628
281.000000	4.137944
282.000000	4.154513
283.000000	4.142851
284.000000	4.140024
285.000000	4.179642
286.000000	4.166271
287.000000	4.173110
288.000000	4.168707
289.000000	4.151694
290.000000	4.152134
291.000000	4.118692
292.000000	4.156478
293.000000	4.147156
294.000000	4.141082
295.000000	4.150243
296.000000	4.210749
297.000000	4.197443
298.000000	4.196759
299.000000	4.161744
300.000000	4.177611
301.000000	4.214853
302.000000	4.243438
303.000000	4.167836
304.000000	4.205696
305.000000	4.218451
306.000000	4.224342
307.000000	4.229071
308.000000	4.266270
309.000000	4.246444
310.000000	4.214470
311.000000	4.251443
312.000000	4.230016
313.000000	4.278733
314.000000	4.279456
315.000000	4.277944
316.000000	4.272300
317.000000	4.158268
318.000000	4.150276
319.000000	4.433422
320.000000	4.132119
321.000000	4.169343
322.000000	4.326915
323.000000	4.298801
324.000000	4.234725
325.000000	4.337302
326.000000	4.410727
327.000000	4.307331
328.000000	4.301854
329.000000	4.170016
330.000000	4.261311
331.000000	4.186987
332.000000	4.239970
333.000000	4.314818
334.000000	4.375348
335.000000	4.436377
336.000000	4.294707
337.000000	4.289013
338.000000	4.345747
339.000000	4.326423
340.000000	4.279722
341.000000	4.404668
342.000000	4.307879
343.000000	4.330044
344.000000	4.411795
345.000000	4.367713
346.000000	4.343832
347.000000	4.432882
348.000000	4.400781
349.000000	4.374539
350.000000	4.385842
351.000000	4.368472
352.000000	4.378229
353.000000	4.393483
354.000000	4.451494
355.000000	4.366281
356.000000	4.423967
357.000000	4.441122
358.000000	4.437973
359.000000	4.413242
360.000000	4.412851
361.000000	4.399246
362.000000	4.401732
363.000000	4.422687
364.000000	4.436341
365.000000	4.498605
366.000000	4.469444
367.000000	4.481379
368.000000	4.473959
369.000000	4.449919
370.000000	4.436049
371.000000	4.479545
372.000000	4.514655
373.000000	4.534553
374.000000	4.520851
375.000000	4.564262
376.000000	4.501977
377.000000	4.535603
378.000000	4.552561
379.000000	4.541297
380.000000	4.543838
381.000000	4.540527
382.000000	4.557501
383.000000	4.556329
384.000000	4.567445
385.000000	4.561327
386.000000	4.569779
387.000000	4.569534
388.000000	4.571323
389.000000	4.581717
390.000000	4.580581
391.000000	4.584405
392.000000	4.581569
393.000000	4.580043
394.000000	4.593273
395.000000	4.602384
396.000000	4.592167
397.000000	4.592673
398.000000	4.602878
399.000000	4.608695
400.000000	4.609543
401.000000	4.602979
402.000000	4.607367
403.000000	4.611846
404.000000	4.614197
405.000000	4.622872
406.000000	4.621007
407.000000	4.620821
408.000000	4.617406
409.000000	4.625920
410.000000	4.630012
411.000000	4.636846
412.000000	4.638174
413.000000	4.639936
414.000000	4.640827
415.000000	4.646152
416.000000	4.650676
417.000000	4.656595
418.000000	4.660252
419.000000	4.663658
420.000000	4.658174
421.000000	4.654576
422.000000	4.660965
423.000000	4.663114
424.000000	4.667108
425.000000	4.671271
426.000000	4.676122
427.000000	4.675347
428.000000	4.675084
429.000000	4.676502
430.000000	4.677472
431.000000	4.685261
432.000000	4.683140
433.000000	4.682068
434.000000	4.691259
435.000000	4.698174
436.000000	4.700633
437.000000	4.693660
438.000000	4.695794
439.000000	4.705476
440.000000	4.707241
441.000000	4.705996
442.000000	4.709049
443.000000	4.715403
444.000000	4.718048
445.000000	4.713565
446.000000	4.712168
447.000000	4.720861
448.000000	4.724694
449.000000	4.728488
450.000000	4.728737
451.000000	4.733542
452.000000	4.739524
453.000000	4.738588
454.000000	4.737537
455.000000	4.740532
456.000000	4.745408
457.000000	4.748327
458.000000	4.753018
459.000000	4.754858
460.000000	4.756122
461.000000	4.757538
462.000000	4.762348
463.000000	4.765125
464.000000	4.765812
465.000000	4.767976
466.000000	4.771936
467.000000	4.771966
468.000000	4.774344
469.000000	4.776854
470.000000	4.770362
471.000000	4.769935
472.000000	4.767947
473.000000	4.763432
474.000000	4.762720
475.000000	4.760359
476.000000	4.756257
477.000000	4.754895
478.000000	4.750005
479.000000	4.742778
480.000000	4.742676
481.000000	4.751886
482.000000	4.760859
483.000000	4.772104
484.000000	4.782887
485.000000	4.792565
486.000000	4.805753
487.000000	4.820091
488.000000	4.837631
489.000000	4.854817
490.000000	4.871294
491.000000	4.885532
492.000000	4.902178
493.000000	4.920515
494.000000	4.938203
495.000000	4.963997
496.000000	4.988346
497.000000	5.012656
498.000000	5.039657
499.000000	5.067562
500.000000	5.100735
501.000000	5.137121
502.000000	5.172625
503.000000	5.211349
504.000000	5.258251
505.000000	5.302389
506.000000	5.348653
507.000000	5.394998
508.000000	5.445628
509.000000	5.500581
510.000000	5.558481
511.000000	5.624723
512.000000	5.688673
513.000000	5.764381
514.000000	5.841206
515.000000	5.927960
516.000000	6.019749
517.000000	6.114384
518.000000	6.220375
519.000000	6.339062
520.000000	6.462659
521.000000	6.589374
522.000000	6.720523
523.000000	6.859979
524.000000	7.000020
525.000000	7.133634
526.000000	7.264889
527.000000	7.383445
528.000000	7.492925
529.000000	7.587478
530.000000	7.665492
531.000000	7.719795
532.000000	7.757200
533.000000	7.767593
534.000000	7.759204
535.000000	7.724704
536.000000	7.663988
537.000000	7.587333
538.000000	7.488507
539.000000	7.367662
540.000000	7.227167
541.000000	7.079330
542.000000	6.911370
543.000000	6.737169
544.000000	6.556830
545.000000	6.374144
546.000000	6.190960
547.000000	6.009208
548.000000	5.834893
549.000000	5.662179
550.000000	5.511239
551.000000	5.369431
552.000000	5.247025
553.000000	5.138699
554.000000	5.050679
555.000000	4.995199
556.000000	4.946481
557.000000	4.919693
558.000000	4.913552
559.000000	4.923584
560.000000	5.010459
561.000000	5.074219
562.000000	5.138317
563.000000	5.219272
564.000000	5.306787
565.000000	5.414624
566.000000	5.524114
567.000000	5.633507
568.000000	5.730413
569.000000	5.822000
570.000000	5.898334
571.000000	5.949222
572.000000	5.980160
573.000000	5.988262
574.000000	5.976302
575.000000	5.939287
576.000000	5.890364
577.000000	5.827271
578.000000	5.749071
579.000000	5.672331
580.000000	5.599247
581.000000	5.516585
582.000000	5.445436
583.000000	5.393254
584.000000	5.337223
585.000000	5.294796
586.000000	5.269146
587.000000	5.252233
588.000000	5.245294
589.000000	5.249818
590.000000	5.275815
591.000000	5.307760
592.000000	5.353770
593.000000	5.412877
594.000000	5.472140
595.000000	5.540829
596.000000	5.614089
597.000000	5.687467
598.000000	5.757244
599.000000	5.824024
600.000000	5.867828
601.000000	5.911812
602.000000	5.938957
603.000000	5.953930
604.000000	5.955170
605.000000	5.943434
606.000000	5.924501
607.000000	5.894019
608.000000	5.849963
609.000000	5.809347
610.000000	5.764372
611.000000	5.723893
612.000000	5.692925
613.000000	5.649530
614.000000	5.622838
615.000000	5.599484
616.000000	5.590441
617.000000	5.583720
618.000000	5.596839
619.000000	5.619121
620.000000	5.642412
621.000000	5.682932
622.000000	5.735127
623.000000	5.777841
624.000000	5.841431
625.000000	5.904724
626.000000	5.955739
627.000000	6.006260
628.000000	6.067825
629.000000	6.117185
630.000000	6.158481
631.000000	6.203099
632.000000	6.229451
633.000000	6.251856
634.000000	6.258952
635.000000	6.262902
636.000000	6.254309
637.000000	6.256685
638.000000	6.244874
639.000000	6.235702
640.000000	6.230130
641.000000	6.217869
642.000000	6.216699
643.000000	6.216565
644.000000	6.233514
645.000000	6.246742
646.000000	6.267078
647.000000	6.303963
648.000000	6.352883
649.000000	6.408319
650.000000	6.461682
651.000000	6.532421
652.000000	6.605638
653.000000	6.681737
654.000000	6.760527
655.000000	6.830715
656.000000	6.906577
657.000000	6.986060
658.000000	7.057753
659.000000	7.122435
660.000000	7.180646
661.000000	7.232282
662.000000	7.281242
663.000000	7.336751
664.000000	7.375077
665.000000	7.404529
666.000000	7.440650
667.000000	7.476075
668.000000	7.508665
669.000000	7.541830
670.000000	7.586542
671.000000	7.634763
672.000000	7.694508
673.000000	7.745667
674.000000	7.807260
675.000000	7.873671
676.000000	7.950324
677.000000	8.043116
678.000000	8.138740
679.000000	8.223257
680.000000	8.321883
681.000000	8.439621
682.000000	8.543702
683.000000	8.651550
684.000000	8.758969
685.000000	8.873014
686.000000	8.976504
687.000000	9.069964
688.000000	9.170883
689.000000	9.257868
690.000000	9.346553
691.000000	9.437048
692.000000	9.520944
693.000000	9.594170
694.000000	9.673605
695.000000	9.742483
696.000000	9.817027
697.000000	9.897129
698.000000	9.974779
699.000000	10.047282
700.000000	10.138701
701.000000	10.238410
702.000000	10.340076
703.000000	10.432243
704.000000	10.537991
705.000000	10.654087
706.000000	10.758774
707.000000	10.881763
708.000000	11.015342
709.000000	11.144561
710.000000	11.276315
711.000000	11.408162
712.000000	11.530520
713.000000	11.662170
714.000000	11.791678
715.000000	11.896996
716.000000	12.004489
717.000000	12.106759
718.000000	12.207926
719.000000	12.285451
720.000000	12.343096
721.000000	12.416702
722.000000	12.479900
723.000000	12.540904
724.000000	12.600944
725.000000	12.645930
726.000000	12.683091
727.000000	12.700499
728.000000	12.722707
729.000000	12.754199
730.000000	12.783676
731.000000	12.799653
732.000000	12.803925
733.000000	12.808601
734.000000	12.821496
735.000000	12.817205
736.000000	12.779169
737.000000	12.765116
738.000000	12.749982
739.000000	12.696338
740.000000	12.628975
741.000000	12.568027
742.000000	12.490206
743.000000	12.406778
744.000000	12.323209
745.000000	12.220318
746.000000	12.122176
747.000000	12.029309
748.000000	11.942687
749.000000	11.854744
750.000000	11.762344
751.000000	11.687818
752.000000	11.609030
753.000000	11.545286
754.000000	11.491823
755.000000	11.435051
756.000000	11.393156
757.000000	11.356613
758.000000	11.345937
759.000000	11.345036
760.000000	11.313146
761.000000	11.284757
762.000000	11.311185
763.000000	11.334954
764.000000	11.339902
765.000000	11.370067
766.000000	11.387828
767.000000	11.415300
768.000000	11.459016
769.000000	11.503200
770.000000	11.574071
771.000000	11.641144
772.000000	11.686599
773.000000	11.763119
774.000000	11.852313
775.000000	11.929516
776.000000	11.996130
777.000000	12.053603
778.000000	12.135464
779.000000	12.237239
780.000000	12.288534
781.000000	12.342533
782.000000	12.441832
783.000000	12.511765
784.000000	12.579936
785.000000	12.644044
786.000000	12.697782
787.000000	12.778418
788.000000	12.857235
789.000000	12.922653
790.000000	12.993367
791.000000	13.073641
792.000000	13.164583
793.000000	13.214556
794.000000	13.261517
795.000000	13.338990
796.000000	13.438283
797.000000	13.483211
798.000000	13.533345
799.000000	13.591400
800.000000	13.653529
801.000000	13.753255
802.000000	13.823535
803.000000	13.884005
804.000000	13.956446
805.000000	14.016099
806.000000	14.059908
807.000000	14.149307
808.000000	14.223429
809.000000	14.240804
810.000000	14.319768
811.000000	14.419250
812.000000	14.470780
813.000000	14.555828
814.000000	14.572305
815.000000	14.609134
816.000000	14.688472
817.000000	14.718514
818.000000	14.790123
819.000000	14.900398
820.000000	14.946649
821.000000	15.001838
822.000000	15.074527
823.000000	15.117841
824.000000	15.179364
825.000000	15.295489
826.000000	15.337177
827.000000	15.386004
828.000000	15.410295
829.000000	15.467834
830.000000	15.543650
831.000000	15.603687
832.000000	15.748255
833.000000	15.788951
834.000000	15.822949
835.000000	15.876608
836.000000	15.901371
837.000000	16.010055
838.000000	16.048828
839.000000	16.080748
840.000000	16.174443
841.000000	16.200185
842.000000	16.308862
843.000000	16.342477
844.000000	16.353057
845.000000	16.466325
846.000000	16.464901
847.000000	16.536560
848.000000	16.650276
849.000000	16.668997
850.000000	16.768891
851.000000	16.809099
852.000000	16.862102
853.000000	16.963396
854.000000	16.927383
855.000000	16.978818
856.000000	17.134719
857.000000	17.031387
858.000000	18.682976
859.000000	17.155227
860.000000	17.556416
861.000000	17.533137
862.000000	17.240659
863.000000	17.310863
864.000000	17.031477
865.000000	17.013905
866.000000	17.307298
867.000000	17.104428
868.000000	17.248344
869.000000	17.364158
870.000000	17.097473
871.000000	17.020419
872.000000	16.834326
873.000000	16.719388
874.000000	16.551069
875.000000	16.531851
876.000000	16.568198
877.000000	16.509704
878.000000	16.446782
879.000000	16.439959
880.000000	16.538891
881.000000	16.540607
882.000000	16.652824
883.000000	16.437999
884.000000	16.683065
885.000000	16.489641
886.000000	16.443064
887.000000	16.411975
888.000000	16.334418
889.000000	16.325829
890.000000	16.469846
891.000000	16.340931
892.000000	16.383793
893.000000	16.218275
894.000000	16.088131
895.000000	16.282678
896.000000	16.169109
897.000000	15.998070
898.000000	16.030879
899.000000	16.155780
900.000000	16.229188
901.000000	16.134943
902.000000	16.112294
903.000000	16.231979
904.000000	16.140604
905.000000	16.143018
906.000000	16.127824
907.000000	16.098676
908.000000	16.076699
909.000000	16.034069
910.000000	16.077689
911.000000	16.003579
912.000000	15.878675
913.000000	16.016069
914.000000	15.996620
915.000000	15.993528
916.000000	16.045913
917.000000	15.988622
918.000000	16.031869
919.000000	16.025846
920.000000	16.059949
921.000000	16.073452
922.000000	16.054441
923.000000	16.078838
924.000000	16.068065
925.000000	16.069485
926.000000	16.041411
927.000000	15.982133
928.000000	16.098470
929.000000	16.068367
930.000000	16.061283
931.000000	16.061509
932.000000	16.059483
933.000000	16.121961
934.000000	16.082376
935.000000	16.042664
936.000000	16.075134
937.000000	16.051985
938.000000	16.048013
939.000000	16.131329
940.000000	16.094168
941.000000	16.147242
942.000000	16.177104
943.000000	16.112339
944.000000	16.166820
945.000000	16.165905
946.000000	16.206383
947.000000	16.149052
948.000000	16.172875
949.000000	16.168152
950.000000	16.193799
951.000000	16.195775
952.000000	16.158583
953.000000	16.167771
954.000000	16.224584
955.000000	16.243470
956.000000	16.245521
957.000000	16.253181
958.000000	16.269797
959.000000	16.279373
960.000000	16.294477
961.000000	16.322441
962.000000	16.327284
963.000000	16.321953
964.000000	16.349720
965.000000	16.348910
966.000000	16.345916
967.000000	16.354546
968.000000	16.374806
969.000000	16.391828
970.000000	16.387831
971.000000	16.391876
972.000000	16.398402
973.000000	16.438260
974.000000	16.461590
975.000000	16.464528
976.000000	16.462059
977.000000	16.452998
978.000000	16.488927
979.000000	16.529532
980.000000	16.509942
981.000000	16.504668
982.000000	16.530401
983.000000	16.553861
984.000000	16.555539
985.000000	16.562805
986.000000	16.584961
987.000000	16.608900
988.000000	16.615464
989.000000	16.612760
990.000000	16.611039
991.000000	16.638725
992.000000	16.657496
993.000000	16.683622
994.000000	16.712310
995.000000	16.701232
996.000000	16.691364
997.000000	16.715521
998.000000	16.729068
999.000000	16.756166
1000.000000	16.756767
1001.000000	16.755489
1002.000000	16.790893
1003.000000	16.794597
1004.000000	16.803813
1005.000000	16.814036
1006.000000	16.833081
1007.000000	16.848472
1008.000000	16.856256
1009.000000	16.871590
1010.000000	16.891873
1011.000000	16.897913
1012.000000	16.883288
1013.000000	16.882475
1014.000000	16.908626
1015.000000	16.943438
1016.000000	16.959983
1017.000000	16.981984
1018.000000	17.010662
1019.000000	17.027940
1020.000000	17.017539
1021.000000	17.016856
1022.000000	17.035599
1023.000000	17.063574
1024.000000	17.074201
1025.000000	17.095563
1026.000000	17.103011
1027.000000	17.107038
1028.000000	17.120797
1029.000000	17.132336
1030.000000	17.142405
1031.000000	17.158095
1032.000000	17.180276
1033.000000	17.210961
1034.000000	17.235339
1035.000000	17.252501
1036.000000	17.261201
1037.000000	17.255826
1038.000000	17.278134
1039.000000	17.293398
1040.000000	17.291734
1041.000000	17.300283
1042.000000	17.329032
1043.000000	17.353419
1044.000000	17.352624
1045.000000	17.353440
1046.000000	17.380771
1047.000000	17.398603
1048.000000	17.401399
1049.000000	17.418182
1050.000000	17.433662
1051.000000	17.461234
1052.000000	17.478416
1053.000000	17.491175
1054.000000	17.490323
1055.000000	17.508438
1056.000000	17.537949
1057.000000	17.562510
1058.000000	17.593854
1059.000000	17.614530
1060.000000	17.625881
1061.000000	17.617552
1062.000000	17.642835
1063.000000	17.670629
1064.000000	17.697937
1065.000000	17.697042
1066.000000	17.696333
1067.000000	17.716222
1068.000000	17.739844
1069.000000	17.777761
1070.000000	17.786261
1071.000000	17.785722
1072.000000	17.798694
1073.000000	17.807591
1074.000000	17.825389
1075.000000	17.816578
1076.000000	17.835575
1077.000000	17.843142
1078.000000	17.862494
1079.000000	17.872226
1080.000000	17.873705
1081.000000	17.869156
1082.000000	17.889927
1083.000000	17.907807
1084.000000	17.910412
1085.000000	17.899102
1086.000000	17.904091
1087.000000	17.918997
1088.000000	17.938111
1089.000000	17.949025
1090.000000	17.949081
1091.000000	17.959644
1092.000000	17.967688
1093.000000	17.975633
1094.000000	17.992826
1095.000000	18.012670
1096.000000	18.021698
1097.000000	18.026711
1098.000000	18.046100
1099.000000	18.046012
1100.000000	18.050201
1101.000000	18.083062
1102.000000	18.090508
1103.000000	18.112033
1104.000000	18.123032
1105.000000	18.124124
1106.000000	18.148095
1107.000000	18.163769
1108.000000	18.193936
1109.000000	18.207882
1110.000000	18.223642
1111.000000	18.239669
1112.000000	18.244224
1113.000000	18.267562
1114.000000	18.275152
1115.000000	18.286459
1116.000000	18.282679
1117.000000	18.291843
1118.000000	18.291171
1119.000000	18.289122
1120.000000	18.293430
1121.000000	18.288283
1122.000000	18.263014
1123.000000	18.274491
1124.000000	18.268650
1125.000000	18.269286
1126.000000	18.259720
1127.000000	18.244704
1128.000000	18.225513
1129.000000	18.203786
1130.000000	18.210162
1131.000000	18.216195
1132.000000	18.231217
1133.000000	18.238509
1134.000000	18.196695
1135.000000	18.143751
1136.000000	18.144073
1137.000000	18.164152
1138.000000	18.163071
1139.000000	18.163895
1140.000000	18.142377
1141.000000	18.149262
1142.000000	18.138771
1143.000000	18.126116
1144.000000	18.115215
1145.000000	18.113913
1146.000000	18.077412
1147.000000	18.081452
1148.000000	18.064706
1149.000000	18.050230
1150.000000	18.018982
1151.000000	18.006166
1152.000000	17.992833
1153.000000	17.966228
1154.000000	17.950506
1155.000000	17.922285
1156.000000	17.905820
1157.000000	17.895141
1158.000000	17.880018
1159.000000	17.855554
1160.000000	17.838262
1161.000000	17.834727
1162.000000	17.809792
1163.000000	17.804823
1164.000000	17.800962
1165.000000	17.767500
1166.000000	17.761208
1167.000000	17.733951
1168.000000	17.727417
1169.000000	17.715573
1170.000000	17.695698
1171.000000	17.684516
1172.000000	17.656912
1173.000000	17.645760
1174.000000	17.633525
1175.000000	17.618739
1176.000000	17.600756
1177.000000	17.595745
1178.000000	17.593500
1179.000000	17.579785
1180.000000	17.571599
1181.000000	17.584858
1182.000000	17.583320
1183.000000	17.592426
1184.000000	17.599421
1185.000000	17.605520
1186.000000	17.606442
1187.000000	17.606631
1188.000000	17.668599
1189.000000	17.676998
1190.000000	17.690194
1191.000000	17.695561
1192.000000	17.699125
1193.000000	17.709028
1194.000000	17.717004
1195.000000	17.721635
1196.000000	17.726875
1197.000000	17.736581
1198.000000	17.734295
1199.000000	17.752972
1200.000000	17.763914
1201.000000	17.760374
1202.000000	17.762679
1203.000000	17.768027
1204.000000	17.773934
1205.000000	17.779056
1206.000000	17.797776
1207.000000	17.821871
1208.000000	17.839741
1209.000000	17.855317
1210.000000	17.861570
1211.000000	17.887852
1212.000000	17.912018
1213.000000	17.932151
1214.000000	17.957813
1215.000000	17.997314
1216.000000	18.029386
1217.000000	18.060631
1218.000000	18.081501
1219.000000	18.105883
1220.000000	18.140492
1221.000000	18.170396
1222.000000	18.191282
1223.000000	18.220365
1224.000000	18.254110
1225.000000	18.272909
1226.000000	18.284749
1227.000000	18.303910
1228.000000	18.318718
1229.000000	18.339986
1230.000000	18.341290
1231.000000	18.351225
1232.000000	18.357663
1233.000000	18.351541
1234.000000	18.355901
1235.000000	18.351492
1236.000000	18.346151
1237.000000	18.337950
1238.000000	18.330580
1239.000000	18.324851
1240.000000	18.318692
1241.000000	18.303270
1242.000000	18.285310
1243.000000	18.273981
1244.000000	18.264689
1245.000000	18.260499
1246.000000	18.251002
1247.000000	18.246357
1248.000000	18.243123
1249.000000	18.236471
1250.000000	18.240477
1251.000000	18.251748
1252.000000	18.259770
1253.000000	18.274256
1254.000000	18.298665
1255.000000	18.308072
1256.000000	18.317269
1257.000000	18.326744
1258.000000	18.345073
1259.000000	18.366939
1260.000000	18.393560
1261.000000	18.422075
1262.000000	18.448040
1263.000000	18.461701
1264.000000	18.475870
1265.000000	18.490645
1266.000000	18.509531
1267.000000	18.528493
1268.000000	18.544379
1269.000000	18.558877
1270.000000	18.582325
1271.000000	18.594930
1272.000000	18.599927
1273.000000	18.608361
1274.000000	18.614608
1275.000000	18.623508
1276.000000	18.625774
1277.000000	18.619937
1278.000000	18.613242
1279.000000	18.618392
1280.000000	18.620767
1281.000000	18.610574
1282.000000	18.609639
1283.000000	18.609765
1284.000000	18.599386
1285.000000	18.591536
1286.000000	18.587143
1287.000000	18.583472
1288.000000	18.576059
1289.000000	18.567028
1290.000000	18.562392
1291.000000	18.567196
1292.000000	18.577741
1293.000000	18.584646
1294.000000	18.591752
1295.000000	18.590670
1296.000000	18.599999
1297.000000	18.606840
1298.000000	18.607581
1299.000000	18.622406
1300.000000	18.639373
1301.000000	18.654444
1302.000000	18.666797
1303.000000	18.681637
1304.000000	18.699679
1305.000000	18.713017
1306.000000	18.719386
1307.000000	18.732763
1308.000000	18.747128
1309.000000	18.755787
1310.000000	18.763575
1311.000000	18.772419
1312.000000	18.774772
1313.000000	18.775259
1314.000000	18.781871
1315.000000	18.795016
1316.000000	18.799851
1317.000000	18.799466
1318.000000	18.787961
1319.000000	18.775442
1320.000000	18.773365
1321.000000	18.759478
1322.000000	18.736582
1323.000000	18.719158
1324.000000	18.704945
1325.000000	18.697032
1326.000000	18.667812
1327.000000	18.634779
1328.000000	18.603948
1329.000000	18.579066
1330.000000	18.552275
1331.000000	18.534366
1332.000000	18.518836
1333.000000	18.487243
1334.000000	18.462284
1335.000000	18.452196
1336.000000	18.442734
1337.000000	18.428598
1338.000000	18.428272
1339.000000	18.424493
1340.000000	18.428292
1341.000000	18.431561
1342.000000	18.432456
1343.000000	18.451391
1344.000000	18.466047
1345.000000	18.486565
1346.000000	18.501166
1347.000000	18.519367
1348.000000	18.524882
1349.000000	18.548485
1350.000000	18.564136
1351.000000	18.559643
1352.000000	18.550079
1353.000000	18.535388
1354.000000	18.489193
1355.000000	18.422577
1356.000000	18.374798
1357.000000	18.321427
1358.000000	18.248680
1359.000000	18.187873
1360.000000	18.067740
1361.000000	17.909262
1362.000000	17.822825
1363.000000	17.753796
1364.000000	17.674362
1365.000000	17.611301
1366.000000	17.568133
1367.000000	17.508777
1368.000000	17.485653
1369.000000	17.485795
1370.000000	17.481425
1371.000000	17.452188
1372.000000	17.463185
1373.000000	17.488460
1374.000000	17.523593
1375.000000	17.540271
1376.000000	17.558408
1377.000000	17.565841
1378.000000	17.607429
1379.000000	17.588182
1380.000000	17.563945
1381.000000	17.459693
1382.000000	17.357873
1383.000000	17.247051
1384.000000	17.173221
1385.000000	17.106559
1386.000000	17.023335
1387.000000	16.909583
1388.000000	16.808141
1389.000000	16.740199
1390.000000	16.696338
1391.000000	16.597172
1392.000000	16.513619
1393.000000	16.450951
1394.000000	16.366905
1395.000000	16.225965
1396.000000	16.119534
1397.000000	16.079583
1398.000000	16.023042
1399.000000	15.906532
1400.000000	15.772088
1401.000000	15.696458
1402.000000	15.662429
1403.000000	15.574130
1404.000000	15.467177
1405.000000	15.371235
1406.000000	15.272235
1407.000000	15.189073
1408.000000	15.086661
1409.000000	14.985527
1410.000000	14.909763
1411.000000	14.851257
1412.000000	14.772826
1413.000000	14.669012
1414.000000	14.567801
1415.000000	14.499372
1416.000000	14.455874
1417.000000	14.379119
1418.000000	14.272151
1419.000000	14.206374
1420.000000	14.149230
1421.000000	14.088769
1422.000000	14.017209
1423.000000	13.954828
1424.000000	13.900496
1425.000000	13.844935
1426.000000	13.789648
1427.000000	13.722290
1428.000000	13.655704
1429.000000	13.611014
1430.000000	13.551367
1431.000000	13.492604
1432.000000	13.452277
1433.000000	13.397292
1434.000000	13.350251
1435.000000	13.300418
1436.000000	13.259255
1437.000000	13.193129
1438.000000	13.152998
1439.000000	13.109649
1440.000000	13.073890
1441.000000	13.012686
1442.000000	12.961493
1443.000000	12.945861
1444.000000	12.890333
1445.000000	12.826469
1446.000000	12.795369
1447.000000	12.779506
1448.000000	12.759839
1449.000000	12.716131
1450.000000	12.680132
1451.000000	12.644275
1452.000000	12.618554
1453.000000	12.608552
1454.000000	12.584860
1455.000000	12.573102
1456.000000	12.552975
1457.000000	12.540794
1458.000000	12.522177
1459.000000	12.505693
1460.000000	12.479548
1461.000000	12.452429
1462.000000	12.422128
1463.000000	12.406733
1464.000000	12.384829
1465.000000	12.356783
1466.000000	12.339176
1467.000000	12.318496
1468.000000	12.310775
1469.000000	12.287560
1470.000000	12.240007
1471.000000	12.206344
1472.000000	12.172940
1473.000000	12.170724
1474.000000	12.155685
1475.000000	12.129129
1476.000000	12.104630
1477.000000	12.078101
1478.000000	12.068762
1479.000000	12.047875
1480.000000	12.018776
1481.000000	12.001134
1482.000000	11.981281
1483.000000	11.962999
1484.000000	11.953294
1485.000000	11.943191
1486.000000	11.915713
1487.000000	11.904775
1488.000000	11.906084
1489.000000	11.901668
1490.000000	11.896109
1491.000000	11.878652
1492.000000	11.870187
1493.000000	11.874427
1494.000000	11.879302
1495.000000	11.867347
1496.000000	11.861914
1497.000000	11.862531
1498.000000	11.869526
1499.000000	11.878690
1500.000000	11.882337
1501.000000	11.882211
1502.000000	11.891293
1503.000000	11.897563
1504.000000	11.918056
1505.000000	11.929796
1506.000000	11.931594
1507.000000	11.945443
1508.000000	11.962039
1509.000000	11.978350
1510.000000	11.994944
1511.000000	12.017946
1512.000000	12.034427
1513.000000	12.052012
1514.000000	12.078272
1515.000000	12.093805
1516.000000	12.126944
1517.000000	12.153109
1518.000000	12.163647
1519.000000	12.186138
1520.000000	12.217812
1521.000000	12.246318
1522.000000	12.268932
1523.000000	12.287369
1524.000000	12.314019
1525.000000	12.331955
1526.000000	12.342609
1527.000000	12.363876
1528.000000	12.390110
1529.000000	12.411902
1530.000000	12.423204
1531.000000	12.437588
1532.000000	12.456881
1533.000000	12.468215
1534.000000	12.486278
1535.000000	12.512479
1536.000000	12.534828
1537.000000	12.552245
1538.000000	12.569260
1539.000000	12.589126
1540.000000	12.606396
1541.000000	12.624061
1542.000000	12.635516
1543.000000	12.644134
1544.000000	12.659510
1545.000000	12.676963
1546.000000	12.684718
1547.000000	12.701500
1548.000000	12.718716
1549.000000	12.722285
1550.000000	12.718120
1551.000000	12.728313
1552.000000	12.752586
1553.000000	12.766315
1554.000000	12.766641
1555.000000	12.773573
1556.000000	12.788867
1557.000000	12.804690
1558.000000	12.817381
1559.000000	12.822431
1560.000000	12.825861
1561.000000	12.833569
1562.000000	12.842550
1563.000000	12.853005
1564.000000	12.851204
1565.000000	12.855512
1566.000000	12.867544
1567.000000	12.864346
1568.000000	12.868641
1569.000000	12.874481
1570.000000	12.872982
1571.000000	12.871682
1572.000000	12.877425
1573.000000	12.880055
1574.000000	12.885742
1575.000000	12.893852
1576.000000	12.894155
1577.000000	12.896272
1578.000000	12.906141
1579.000000	12.909315
1580.000000	12.912479
1581.000000	12.911269
1582.000000	12.915588
1583.000000	12.926283
1584.000000	12.938520
1585.000000	12.956169
1586.000000	12.962332
1587.000000	12.971910
1588.000000	12.997558
1589.000000	13.016454
1590.000000	13.025536
1591.000000	13.041594
1592.000000	13.060614
1593.000000	13.084139
1594.000000	13.108157
1595.000000	13.126045
1596.000000	13.130317
1597.000000	13.153935
1598.000000	13.175086
1599.000000	13.197633
1600.000000	13.209089
1601.000000	13.237209
1602.000000	13.245698
1603.000000	13.265963
1604.000000	13.291449
1605.000000	13.315617
1606.000000	13.335082
1607.000000	13.354619
1608.000000	13.363834
1609.000000	13.373746
1610.000000	13.391219
1611.000000	13.416509
1612.000000	13.437410
1613.000000	13.443083
1614.000000	13.465577
1615.000000	13.480326
1616.000000	13.492965
1617.000000	13.501768
1618.000000	13.503039
1619.000000	13.527361
1620.000000	13.544281
1621.000000	13.549612
1622.000000	13.546655
1623.000000	13.569301
1624.000000	13.582118
1625.000000	13.591422
1626.000000	13.616956
1627.000000	13.616538
1628.000000	13.627909
1629.000000	13.634207
1630.000000	13.649989
1631.000000	13.675436
1632.000000	13.680838
1633.000000	13.678226
1634.000000	13.687554
1635.000000	13.704496
1636.000000	13.716098
1637.000000	13.729429
1638.000000	13.740564
1639.000000	13.741459
1640.000000	13.752073
1641.000000	13.768622
1642.000000	13.784155
1643.000000	13.783532
1644.000000	13.777079
1645.000000	13.802790
1646.000000	13.796229
1647.000000	13.799059
1648.000000	13.799341
1649.000000	13.787197
1650.000000	13.790292
1651.000000	13.782828
1652.000000	13.769760
1653.000000	13.752638
1654.000000	13.750532
1655.000000	13.740301
1656.000000	13.731527
1657.000000	13.712773
1658.000000	13.689585
1659.000000	13.670185
1660.000000	13.646387
1661.000000	13.630865
1662.000000	13.598429
1663.000000	13.564623
1664.000000	13.542995
1665.000000	13.491206
1666.000000	13.458782
1667.000000	13.416867
1668.000000	13.349526
1669.000000	13.336650
1670.000000	13.289808
1671.000000	13.224216
1672.000000	13.176592
1673.000000	13.134430
1674.000000	13.055148
1675.000000	12.978777
1676.000000	12.929651
1677.000000	12.881433
1678.000000	12.843682
1679.000000	12.827621
1680.000000	12.771968
1681.000000	12.723560
1682.000000	12.686370
1683.000000	12.664207
1684.000000	12.650793
1685.000000	12.602882
1686.000000	12.588031
1687.000000	12.551791
1688.000000	12.492325
1689.000000	12.442551
1690.000000	12.382581
1691.000000	12.347931
1692.000000	12.309561
1693.000000	12.289010
1694.000000	12.279086
1695.000000	12.246489
1696.000000	12.258433
1697.000000	12.223402
1698.000000	12.235492
1699.000000	12.229219
1700.000000	12.220202
1701.000000	12.220940
1702.000000	12.212911
1703.000000	12.206191
1704.000000	12.179333
1705.000000	12.151162
1706.000000	12.155568
1707.000000	12.125958
1708.000000	12.096646
1709.000000	12.093239
1710.000000	12.071829
1711.000000	12.024079
1712.000000	12.004167
1713.000000	11.972343
1714.000000	11.947286
1715.000000	11.906707
1716.000000	11.905156
1717.000000	11.883183
1718.000000	11.835312
1719.000000	11.814972
1720.000000	11.788653
1721.000000	11.753776
1722.000000	11.703309
1723.000000	11.660456
1724.000000	11.654380
1725.000000	11.614120
1726.000000	11.579789
1727.000000	11.555415
1728.000000	11.527181
1729.000000	11.531940
1730.000000	11.522190
1731.000000	11.535601
1732.000000	11.540554
1733.000000	11.549499
1734.000000	11.558124
1735.000000	11.567114
1736.000000	11.597917
1737.000000	11.642732
1738.000000	11.652232
1739.000000	11.646425
1740.000000	11.674189
1741.000000	11.708576
1742.000000	11.728716
1743.000000	11.736168
1744.000000	11.742813
1745.000000	11.776527
1746.000000	11.786245
1747.000000	11.832230
1748.000000	11.862560
1749.000000	11.904149
1750.000000	11.914685
1751.000000	11.937878
1752.000000	11.951032
1753.000000	11.971440
1754.000000	11.988780
1755.000000	12.002155
1756.000000	12.012024
1757.000000	12.020645
1758.000000	12.048479
1759.000000	12.067528
1760.000000	12.085891
1761.000000	12.101417
1762.000000	12.108795
1763.000000	12.132092
1764.000000	12.141353
1765.000000	12.139205
1766.000000	12.150696
1767.000000	12.148662
1768.000000	12.164364
1769.000000	12.170867
1770.000000	12.187913
1771.000000	12.196070
1772.000000	12.199977
1773.000000	12.201605
1774.000000	12.221419
1775.000000	12.232359
1776.000000	12.239208
1777.000000	12.235500
1778.000000	12.213874
1779.000000	12.219532
1780.000000	12.246134
1781.000000	12.264044
1782.000000	12.282157
1783.000000	12.288409
1784.000000	12.302288
1785.000000	12.311950
1786.000000	12.329594
1787.000000	12.347973
1788.000000	12.358129
1789.000000	12.378158
1790.000000	12.384449
1791.000000	12.390146
1792.000000	12.407180
1793.000000	12.431792
1794.000000	12.443763
1795.000000	12.466056
1796.000000	12.484519
1797.000000	12.505557
1798.000000	12.541052
1799.000000	12.556331
1800.000000	12.532350
1801.000000	12.529449
1802.000000	12.555511
1803.000000	12.584174
1804.000000	12.613370
1805.000000	12.641988
1806.000000	12.650744
1807.000000	12.678617
1808.000000	12.707536
1809.000000	12.730623
1810.000000	12.754237
1811.000000	12.743004
1812.000000	12.739701
1813.000000	12.761205
1814.000000	12.779840
1815.000000	12.789159
1816.000000	12.810959
1817.000000	12.851362
1818.000000	12.890764
1819.000000	12.892863
1820.000000	12.838132
1821.000000	12.801499
1822.000000	12.847405
1823.000000	12.927002
1824.000000	12.982012
1825.000000	13.003468
1826.000000	13.026986
1827.000000	13.023838
1828.000000	13.033716
1829.000000	13.038271
1830.000000	13.043308
1831.000000	13.053437
1832.000000	13.074071
1833.000000	13.114590
1834.000000	13.153987
1835.000000	13.139364
1836.000000	13.064567
1837.000000	13.040547
1838.000000	13.059810
1839.000000	13.040839
1840.000000	12.968776
1841.000000	12.897209
1842.000000	12.872285
1843.000000	12.924392
1844.000000	13.025303
1845.000000	13.068578
1846.000000	13.027443
1847.000000	12.954642
1848.000000	12.905141
1849.000000	12.887361
1850.000000	12.930850
1851.000000	12.983086
1852.000000	13.002209
1853.000000	13.013060
1854.000000	13.042797
1855.000000	13.041096
1856.000000	13.081148
1857.000000	13.118882
1858.000000	13.095573
1859.000000	13.115922
1860.000000	13.116065
1861.000000	13.119764
1862.000000	13.133312
1863.000000	13.177705
1864.000000	13.215474
1865.000000	13.227553
1866.000000	13.168438
1867.000000	13.123278
1868.000000	13.033723
1869.000000	12.917030
1870.000000	12.757196
1871.000000	12.609066
1872.000000	12.465957
1873.000000	12.321746
1874.000000	12.183493
1875.000000	12.084686
1876.000000	12.012043
1877.000000	11.897831
1878.000000	11.812970
1879.000000	11.767878
1880.000000	11.748526
1881.000000	11.694360
1882.000000	11.644544
1883.000000	11.559049
1884.000000	11.474669
1885.000000	11.431063
1886.000000	11.387580
1887.000000	11.363007
1888.000000	11.322271
1889.000000	11.231087
1890.000000	11.134639
1891.000000	11.041786
1892.000000	10.920447
1893.000000	10.844578
1894.000000	10.759206
1895.000000	10.648288
1896.000000	10.531569
1897.000000	10.409708
1898.000000	10.227569
1899.000000	10.033217
1900.000000	9.889637
1901.000000	9.721364
1902.000000	9.616836
1903.000000	9.431322
1904.000000	9.300348
1905.000000	9.100254
1906.000000	8.977590
1907.000000	8.813021
1908.000000	8.721398
1909.000000	8.627572
1910.000000	8.491221
1911.000000	8.353919
1912.000000	8.232946
1913.000000	8.136789
1914.000000	8.009820
1915.000000	7.934665
1916.000000	7.872136
1917.000000	7.800986
1918.000000	7.738417
1919.000000	7.676530
1920.000000	7.573991
1921.000000	7.475192
1922.000000	7.405140
1923.000000	7.372848
1924.000000	7.348329
1925.000000	7.369454
1926.000000	7.272796
1927.000000	7.239360
1928.000000	7.203114
1929.000000	7.131644
1930.000000	7.089608
1931.000000	7.047661
1932.000000	7.059646
1933.000000	7.076823
1934.000000	7.040105
1935.000000	7.018609
1936.000000	7.036371
1937.000000	7.011813
1938.000000	7.008687
1939.000000	7.002358
1940.000000	7.010842
1941.000000	6.994187
1942.000000	6.985261
1943.000000	7.056160
1944.000000	7.044425
1945.000000	7.062604
1946.000000	7.070322
1947.000000	7.074178
1948.000000	7.122874
1949.000000	7.147601
1950.000000	7.137284
1951.000000	7.178118
1952.000000	7.165865
1953.000000	7.202358
1954.000000	7.211057
1955.000000	7.269913
1956.000000	7.296593
1957.000000	7.322274
1958.000000	7.355991
1959.000000	7.353705
1960.000000	7.398342
1961.000000	7.415349
1962.000000	7.444946
1963.000000	7.503075
1964.000000	7.541184
1965.000000	7.576746
1966.000000	7.575348
1967.000000	7.596523
1968.000000	7.605976
1969.000000	7.623102
1970.000000	7.690878
1971.000000	7.756408
1972.000000	7.779534
1973.000000	7.777350
1974.000000	7.815861
1975.000000	7.841332
1976.000000	7.923847
1977.000000	7.923915
1978.000000	7.900771
1979.000000	7.975804
1980.000000	8.017780
1981.000000	8.014207
1982.000000	8.031050
1983.000000	8.032279
1984.000000	8.090070
1985.000000	8.132556
1986.000000	8.157550
1987.000000	8.211610
1988.000000	8.243271
1989.000000	8.283873
1990.000000	8.264284
1991.000000	8.321084
1992.000000	8.315698
1993.000000	8.372400
1994.000000	8.408014
1995.000000	8.417396
1996.000000	8.467708
1997.000000	8.458645
1998.000000	8.475852
1999.000000	8.533865
2000.000000	8.482830
2001.000000	8.540516
2002.000000	8.516192
2003.000000	8.544765
2004.000000	8.593915
2005.000000	8.647613
2006.000000	8.601393
2007.000000	8.649362
2008.000000	8.669070
2009.000000	8.688506
2010.000000	8.695781
2011.000000	8.658793
2012.000000	8.704278
2013.000000	8.682465
2014.000000	8.710365
2015.000000	8.712040
2016.000000	8.705366
2017.000000	8.710362
2018.000000	8.714945
2019.000000	8.714693
2020.000000	8.701813
2021.000000	8.633279
2022.000000	8.642615
2023.000000	8.662888
2024.000000	8.633532
2025.000000	8.645306
2026.000000	8.662620
2027.000000	8.637943
2028.000000	8.573197
2029.000000	8.520050
2030.000000	8.476340
2031.000000	8.478723
2032.000000	8.474945
2033.000000	8.465169
2034.000000	8.407980
2035.000000	8.372991
2036.000000	8.319487
2037.000000	8.364635
2038.000000	8.389505
2039.000000	8.325573
2040.000000	8.230871
2041.000000	8.234783
2042.000000	8.257260
2043.000000	8.222166
2044.000000	8.149674
2045.000000	8.112472
2046.000000	8.037329
2047.000000	8.061288
2048.000000	8.065412
2049.000000	8.070092
2050.000000	8.031643
2051.000000	8.028115
2052.000000	7.981742
2053.000000	7.950925
2054.000000	7.914718
2055.000000	7.940042
2056.000000	7.913373
2057.000000	7.900998
2058.000000	7.933114
2059.000000	7.976682
2060.000000	7.998895
2061.000000	7.996651
2062.000000	7.952982
2063.000000	7.978228
2064.000000	8.014981
2065.000000	8.030909
2066.000000	8.014764
2067.000000	8.084872
2068.000000	8.174612
2069.000000	8.272598
2070.000000	8.299024
2071.000000	8.386326
2072.000000	8.387124
2073.000000	8.313201
2074.000000	8.310875
2075.000000	8.387854
2076.000000	8.440797
2077.000000	8.496304
2078.000000	8.554965
2079.000000	8.570196
2080.000000	8.548365
2081.000000	8.494516
2082.000000	8.514891
2083.000000	8.641980
2084.000000	8.765091
2085.000000	8.754650
2086.000000	8.658673
2087.000000	8.720895
2088.000000	8.802683
2089.000000	8.806050
2090.000000	8.819384
2091.000000	8.925890
2092.000000	8.849372
2093.000000	8.783905
2094.000000	8.798860
2095.000000	8.768182
2096.000000	8.800642
2097.000000	8.806604
2098.000000	8.767873
2099.000000	8.792726
2100.000000	8.904138
2101.000000	8.892814
2102.000000	8.893729
2103.000000	8.894567
2104.000000	8.950825
2105.000000	8.998761
2106.000000	8.960874
2107.000000	8.985351
2108.000000	8.963724
2109.000000	8.915932
2110.000000	8.931056
2111.000000	8.921640
2112.000000	8.969562
2113.000000	9.057025
2114.000000	9.046941
2115.000000	9.047333
2116.000000	8.985270
2117.000000	8.930584
2118.000000	9.014452
2119.000000	9.093669
2120.000000	9.075654
2121.000000	9.055369
2122.000000	9.076322
2123.000000	9.042546
2124.000000	9.064559
2125.000000	9.095350
2126.000000	9.051367
2127.000000	8.981260
2128.000000	9.044776
2129.000000	9.053817
2130.000000	9.084866
2131.000000	9.030189
2132.000000	9.058828
2133.000000	8.985223
2134.000000	8.925604
2135.000000	8.901714
2136.000000	8.970331
2137.000000	8.981645
2138.000000	8.885958
2139.000000	8.795425
2140.000000	8.834156
2141.000000	8.815895
2142.000000	8.928523
2143.000000	8.818136
2144.000000	8.793028
2145.000000	8.635770
2146.000000	8.566678
2147.000000	8.600984
2148.000000	8.621425
2149.000000	8.611016
2150.000000	8.595336
2151.000000	8.519518
2152.000000	8.434741
2153.000000	8.342209
2154.000000	8.193624
2155.000000	8.238650
2156.000000	8.262605
2157.000000	8.353528
2158.000000	8.337696
2159.000000	8.353252
2160.000000	8.355075
2161.000000	8.265983
2162.000000	8.113223
2163.000000	8.133694
2164.000000	8.147030
2165.000000	8.100406
2166.000000	8.015137
2167.000000	7.966460
2168.000000	7.856869
2169.000000	7.912305
2170.000000	7.948091
2171.000000	8.068399
2172.000000	7.913601
2173.000000	7.775237
2174.000000	7.831271
2175.000000	7.926693
2176.000000	7.839185
2177.000000	7.718423
2178.000000	7.738945
2179.000000	7.779732
2180.000000	7.770042
2181.000000	7.717434
2182.000000	7.701443
2183.000000	7.586360
2184.000000	7.723584
2185.000000	7.795606
2186.000000	7.721164
2187.000000	7.666966
2188.000000	7.829791
2189.000000	7.773076
2190.000000	7.791619
2191.000000	7.709202
2192.000000	7.665794
2193.000000	7.592651
2194.000000	7.687377
2195.000000	7.807114
2196.000000	7.816449
2197.000000	7.687579
2198.000000	7.690982
2199.000000	7.634095
2200.000000	7.669629
2201.000000	7.709722
2202.000000	7.722349
2203.000000	7.783880
2204.000000	7.893636
2205.000000	7.761710
2206.000000	7.698415
2207.000000	7.620447
2208.000000	7.718096
2209.000000	7.773545
2210.000000	7.886489
2211.000000	7.812648
2212.000000	7.619122
2213.000000	7.623990
2214.000000	7.732989
2215.000000	7.853572
2216.000000	7.920799
2217.000000	7.886267
2218.000000	7.806539
2219.000000	7.795033
2220.000000	7.885782
2221.000000	7.945838
2222.000000	7.986487
2223.000000	7.912971
2224.000000	7.965769
2225.000000	8.032197
2226.000000	8.195257
2227.000000	8.020750
2228.000000	8.184794
2229.000000	8.121406
2230.000000	8.093842
2231.000000	8.193864
2232.000000	8.242176
2233.000000	8.252971
2234.000000	8.247049
2235.000000	8.209956
2236.000000	8.144239
2237.000000	8.018181
2238.000000	8.182916
2239.000000	8.217274
2240.000000	8.187980
2241.000000	8.249495
2242.000000	8.178936
2243.000000	8.291392
2244.000000	8.205374
2245.000000	8.211186
2246.000000	8.279208
2247.000000	8.097427
2248.000000	7.996445
2249.000000	8.029814
2250.000000	8.114891
2251.000000	8.079525
2252.000000	8.064575
2253.000000	8.047483
2254.000000	7.851050
2255.000000	7.808833
2256.000000	7.800935
2257.000000	7.909972
2258.000000	8.012499
2259.000000	7.988794
2260.000000	7.777358
2261.000000	7.793609
2262.000000	7.763861
2263.000000	7.753404
2264.000000	7.757687
2265.000000	7.746694
2266.000000	7.734764
2267.000000	7.698293
2268.000000	7.832639
2269.000000	7.739585
2270.000000	7.792462
2271.000000	7.633546
2272.000000	7.561060
2273.000000	7.555737
2274.000000	7.586989
2275.000000	7.600280
2276.000000	7.652293
2277.000000	7.818303
2278.000000	7.923456
2279.000000	7.687711
2280.000000	7.728812
2281.000000	7.742559
2282.000000	7.748112
2283.000000	7.814984
2284.000000	7.817766
2285.000000	7.734330
2286.000000	7.961114
2287.000000	7.853100
2288.000000	7.795137
2289.000000	7.817122
2290.000000	7.782601
2291.000000	7.802197
2292.000000	7.638975
2293.000000	7.714397
2294.000000	7.923862
2295.000000	8.086493
2296.000000	8.091608
2297.000000	7.926909
2298.000000	8.025703
2299.000000	7.979945
2300.000000	8.103787
2301.000000	8.126750
2302.000000	8.185984
2303.000000	8.219189
2304.000000	8.248107
2305.000000	8.205030
2306.000000	8.194112
2307.000000	8.190657
2308.000000	8.098250
2309.000000	8.183003
2310.000000	8.182517
2311.000000	8.195972
2312.000000	8.277136
2313.000000	8.380952
2314.000000	8.400566
2315.000000	8.472013
2316.000000	8.295940
2317.000000	8.166786
2318.000000	8.215110
2319.000000	8.481045
2320.000000	8.666292
2321.000000	8.563768
2322.000000	8.373335
2323.000000	8.393804
2324.000000	8.521162
2325.000000	8.745880
2326.000000	8.703464
2327.000000	8.591397
2328.000000	8.807788
2329.000000	8.839768
2330.000000	8.887308
2331.000000	8.880179
2332.000000	8.689334
2333.000000	8.648209
2334.000000	8.590153
2335.000000	8.624151
2336.000000	8.743933
2337.000000	8.959855
2338.000000	9.248613
2339.000000	9.280121
2340.000000	9.303905
2341.000000	9.129298
2342.000000	8.849745
2343.000000	8.850949
2344.000000	8.991930
2345.000000	9.150001
2346.000000	9.349800
2347.000000	9.327605
2348.000000	9.196828
2349.000000	9.192203
2350.000000	9.028214
2351.000000	9.030635
2352.000000	9.265536
2353.000000	9.315332
2354.000000	9.299240
2355.000000	9.556710
2356.000000	9.623966
2357.000000	9.461609
2358.000000	9.416105
2359.000000	9.354163
2360.000000	9.263696
2361.000000	9.392896
2362.000000	9.638376
2363.000000	9.674219
2364.000000	9.712581
2365.000000	9.626749
2366.000000	9.523147
2367.000000	9.587763
2368.000000	9.446224
2369.000000	9.557550
2370.000000	9.715699
2371.000000	9.597171
2372.000000	9.536935
2373.000000	9.446023
2374.000000	9.488180
2375.000000	9.587963
2376.000000	9.773958
2377.000000	9.906758
2378.000000	9.878144
2379.000000	9.545322
2380.000000	9.615903
2381.000000	9.900914
2382.000000	9.896551
2383.000000	9.931585
2384.000000	9.903175
2385.000000	9.833413
2386.000000	10.038170
2387.000000	10.027918
2388.000000	10.117190
2389.000000	10.093420
2390.000000	10.136839
2391.000000	9.935210
2392.000000	9.841411
2393.000000	9.877853
2394.000000	9.691121
2395.000000	9.810011
2396.000000	9.991416
2397.000000	10.082460
2398.000000	10.073114
2399.000000	10.119100
2400.000000	10.354561
2401.000000	10.502375
2402.000000	10.178331
2403.000000	9.954134
2404.000000	10.065668
2405.000000	10.032146
2406.000000	10.266477
2407.000000	10.375778
2408.000000	10.231343
2409.000000	10.075460
2410.000000	10.156157
2411.000000	10.051029
2412.000000	9.892046
2413.000000	10.143769
2414.000000	10.199218
2415.000000	10.163109
2416.000000	10.109425
2417.000000	10.203586
2418.000000	10.333759
2419.000000	10.175478
2420.000000	10.166895
2421.000000	10.398310
2422.000000	10.202065
2423.000000	10.390719
2424.000000	10.279676
2425.000000	10.518002
2426.000000	10.262413
2427.000000	10.611506
2428.000000	10.647212
2429.000000	10.123918
2430.000000	10.211269
2431.000000	10.284209
2432.000000	9.905475
2433.000000	10.523337
2434.000000	10.588367
2435.000000	10.425720
2436.000000	10.557805
2437.000000	10.873846
2438.000000	10.932723
2439.000000	10.619604
2440.000000	10.534713
2441.000000	10.653484
2442.000000	10.382507
2443.000000	10.322706
2444.000000	10.327297
2445.000000	10.397612
2446.000000	10.677918
2447.000000	11.321954
2448.000000	10.012159
2449.000000	10.652991
2450.000000	10.833325
2451.000000	10.648243
2452.000000	10.734385
2453.000000	11.018813
2454.000000	11.255752
2455.000000	11.704155
2456.000000	11.483823
2457.000000	10.507739
2458.000000	11.513977
2459.000000	11.392698
2460.000000	11.644573
2461.000000	11.462399
2462.000000	10.809581
2463.000000	11.438939
2464.000000	11.391603
2465.000000	12.796123
2466.000000	12.274376
2467.000000	12.117764
2468.000000	12.548367
2469.000000	12.517759
2470.000000	12.615318
2471.000000	12.429234
2472.000000	13.335918
2473.000000	13.244708
2474.000000	12.755541
2475.000000	13.664307
2476.000000	13.355746
2477.000000	14.121379
2478.000000	13.812372
2479.000000	14.300260
2480.000000	15.232970
2481.000000	14.459395
2482.000000	15.150186
2483.000000	14.406799
2484.000000	15.571679
2485.000000	15.254331
2486.000000	13.878519
2487.000000	16.675107
2488.000000	15.799348
2489.000000	17.294685
2490.000000	16.518823
2491.000000	17.095520
2492.000000	17.641047
2493.000000	17.100070
2494.000000	19.065484
2495.000000	19.216955
2496.000000	18.320311
2497.000000	19.340339
2498.000000	22.564590
2499.000000	20.396034
2500.000000	22.150101
2501.000000	nan
2502.000000	nan
2503.000000	nan
2504.000000	nan
2505.000000	nan
2506.000000	nan
2507.000000	nan
2508.000000	nan
2509.000000	nan
2510.000000	nan
2511.000000	nan
2512.000000	nan
2513.000000	nan
2514.000000	nan
2515.000000	nan
2516.000000	nan
2517.000000	nan
2518.000000	nan
2519.000000	nan
2520.000000	nan
2521.000000	nan
2522.000000	nan
2523.000000	nan
2524.000000	nan
2525.000000	nan
2526.000000	nan
2527.000000	nan
2528.000000	nan
2529.000000	nan
2530.000000	nan
2531.000000	nan
2532.000000	nan
2533.000000	nan
2534.000000	nan
2535.000000	nan
2536.000000	nan
2537.000000	nan
2538.000000	nan
2539.000000	nan
2540.000000	nan
2541.000000	nan
2542.000000	nan
2543.000000	nan
2544.000000	nan
2545.000000	nan
2546.000000	nan
2547.000000	nan
2548.000000	nan
2549.000000	nan
2550.000000	nan
2551.000000	nan
2552.000000	nan
2553.000000	nan
2554.000000	nan
2555.000000	nan
2556.000000	nan
2557.000000	nan
2558.000000	nan
2559.000000	nan
2560.000000	nan
2561.000000	nan
2562.000000	nan
2563.000000	nan
2564.000000	nan
2565.000000	nan
2566.000000	nan
2567.000000	nan
2568.000000	nan
2569.000000	nan
2570.000000	nan
2571.000000	nan
2572.000000	nan
2573.000000	nan
2574.000000	nan
2575.000000	nan
2576.000000	nan
2577.000000	nan
2578.000000	nan
2579.000000	nan
2580.000000	nan
2581.000000	nan
2582.000000	nan
2583.000000	nan
2584.000000	nan
2585.000000	nan
2586.000000	nan
2587.000000	nan
2588.000000	nan
2589.000000	nan
2590.000000	nan
2591.000000	nan
2592.000000	nan
2593.000000	nan
2594.000000	nan
2595.000000	nan
2596.000000	nan
2597.000000	nan
2598.000000	nan
2599.000000	nan
2600.000000	nan
2601.000000	nan
2602.000000	nan
2603.000000	nan
2604.000000	nan
2605.000000	nan
2606.000000	nan
2607.000000	nan
2608.000000	nan
2609.000000	nan
2610.000000	nan
2611.000000	nan
2612.000000	nan
2613.000000	nan
2614.000000	nan
2615.000000	nan
2616.000000	nan
2617.000000	nan
2618.000000	nan
2619.000000	nan
2620.000000	nan
2621.000000	nan
2622.000000	nan
2623.000000	nan
2624.000000	nan
2625.000000	nan
2626.000000	nan
2627.000000	nan
2628.000000	nan
2629.000000	nan
2630.000000	nan
2631.000000	nan
2632.000000	nan
2633.000000	nan
2634.000000	nan
2635.000000	nan
2636.000000	nan
2637.000000	nan
2638.000000	nan
2639.000000	nan
2640.000000	nan
2641.000000	nan
2642.000000	nan
2643.000000	nan
2644.000000	nan
2645.000000	nan
2646.000000	nan
2647.000000	nan
2648.000000	nan
2649.000000	nan
2650.000000	nan
2651.000000	nan
2652.000000	nan
2653.000000	nan
2654.000000	nan
2655.000000	nan
2656.000000	nan
2657.000000	nan
2658.000000	nan
2659.000000	nan
2660.000000	nan
2661.000000	nan
2662.000000	nan
2663.000000	nan
2664.000000	nan
2665.000000	nan
2666.000000	nan
2667.000000	nan
2668.000000	nan
2669.000000	nan
2670.000000	nan
2671.000000	nan
2672.000000	nan
2673.000000	nan
2674.000000	nan
2675.000000	nan
2676.000000	nan
2677.000000	nan
2678.000000	nan
2679.000000	nan
2680.000000	nan
2681.000000	nan
2682.000000	nan
2683.000000	nan
2684.000000	nan
2685.000000	nan
2686.000000	nan
2687.000000	nan
2688.000000	nan
2689.000000	nan
2690.000000	nan
2691.000000	nan
2692.000000	nan
2693.000000	nan
2694.000000	nan
2695.000000	nan
2696.000000	nan
2697.000000	nan
2698.000000	nan
2699.000000	nan
2700.000000	nan
2701.000000	nan
2702.000000	nan
2703.000000	nan
2704.000000	nan
2705.000000	nan
2706.000000	nan
2707.000000	nan
2708.000000	nan
2709.000000	nan
2710.000000	nan
2711.000000	nan
2712.000000	nan
2713.000000	nan
2714.000000	nan
2715.000000	nan
2716.000000	nan
2717.000000	nan
2718.000000	nan
2719.000000	nan
2720.000000	nan
2721.000000	nan
2722.000000	nan
2723.000000	nan
2724.000000	nan
2725.000000	nan
2726.000000	nan
2727.000000	nan
2728.000000	nan
2729.000000	nan
2730.000000	nan
2731.000000	nan
2732.000000	nan
2733.000000	nan
2734.000000	nan
2735.000000	nan
2736.000000	nan
2737.000000	nan
2738.000000	nan
2739.000000	nan
2740.000000	nan
2741.000000	nan
2742.000000	nan
2743.000000	nan
2744.000000	nan
2745.000000	nan
2746.000000	nan
2747.000000	nan
2748.000000	nan
2749.000000	nan
2750.000000	nan
2751.000000	nan
2752.000000	nan
2753.000000	nan
2754.000000	nan
2755.000000	nan
2756.000000	nan
2757.000000	nan
2758.000000	nan
2759.000000	nan
2760.000000	nan
2761.000000	nan
2762.000000	nan
2763.000000	nan
2764.000000	nan
2765.000000	nan
2766.000000	nan
2767.000000	nan
2768.000000	nan
2769.000000	nan
2770.000000	nan
2771.000000	nan
2772.000000	nan
2773.000000	nan
2774.000000	nan
2775.000000	nan
2776.000000	nan
2777.000000	nan
2778.000000	nan
2779.000000	nan
2780.000000	nan
2781.000000	nan
2782.000000	nan
2783.000000	nan
2784.000000	nan
2785.000000	nan
2786.000000	nan
2787.000000	nan
2788.000000	nan
2789.000000	nan
2790.000000	nan
2791.000000	nan
2792.000000	nan
2793.000000	nan
2794.000000	nan
2795.000000	nan
2796.000000	nan
2797.000000	nan
2798.000000	nan
2799.000000	nan
2800.000000	nan
2801.000000	nan
2802.000000	nan
2803.000000	nan
2804.000000	nan
2805.000000	nan
2806.000000	nan
2807.000000	nan
2808.000000	nan
2809.000000	nan
2810.000000	nan
2811.000000	nan
2812.000000	nan
2813.000000	nan
2814.000000	nan
2815.000000	nan
2816.000000	nan
2817.000000	nan
2818.000000	nan
2819.000000	nan
2820.000000	nan
2821.000000	nan
2822.000000	nan
2823.000000	nan
2824.000000	nan
2825.000000	nan
2826.000000	nan
2827.000000	nan
2828.000000	nan
2829.000000	nan
2830.000000	nan
2831.000000	nan
2832.000000	nan
2833.000000	nan
2834.000000	nan
2835.000000	nan
2836.000000	nan
2837.000000	nan
2838.000000	nan
2839.000000	nan
2840.000000	nan
2841.000000	nan
2842.000000	nan
2843.000000	nan
2844.000000	nan
2845.000000	nan
2846.000000	nan
2847.000000	nan
2848.000000	nan
2849.000000	nan
2850.000000	nan
2851.000000	nan
2852.000000	nan
2853.000000	nan
2854.000000	nan
2855.000000	nan
2856.000000	nan
2857.000000	nan
2858.000000	nan
2859.000000	nan
2860.000000	nan
2861.000000	nan
2862.000000	nan
2863.000000	nan
2864.000000	nan
2865.000000	nan
2866.000000	nan
2867.000000	nan
2868.000000	nan
2869.000000	nan
2870.000000	nan
2871.000000	nan
2872.000000	nan
2873.000000	nan
2874.000000	nan
2875.000000	nan
2876.000000	nan
2877.000000	nan
2878.000000	nan
2879.000000	nan
2880.000000	nan
2881.000000	nan
2882.000000	nan
2883.000000	nan
2884.000000	nan
2885.000000	nan
2886.000000	nan
2887.000000	nan
2888.000000	nan
2889.000000	nan
2890.000000	nan
2891.000000	nan
2892.000000	nan
2893.000000	nan
2894.000000	nan
2895.000000	nan
2896.000000	nan
2897.000000	nan
2898.000000	nan
2899.000000	nan
2900.000000	nan
2901.000000	nan
2902.000000	nan
2903.000000	nan
2904.000000	nan
2905.000000	nan
2906.000000	nan
2907.000000	nan
2908.000000	nan
2909.000000	nan
2910.000000	nan
2911.000000	nan
2912.000000	nan
2913.000000	nan
2914.000000	nan
2915.000000	nan
2916.000000	nan
2917.000000	nan
2918.000000	nan
2919.000000	nan
2920.000000	nan
2921.000000	nan
2922.000000	nan
2923.000000	nan
2924.000000	nan
2925.000000	nan
2926.000000	nan
2927.000000	nan
2928.000000	nan
2929.000000	nan
2930.000000	nan
2931.000000	nan
2932.000000	nan
2933.000000	nan
2934.000000	nan
2935.000000	nan
2936.000000	nan
2937.000000	nan
2938.000000	nan
2939.000000	nan
2940.000000	nan
2941.000000	nan
2942.000000	nan
2943.000000	nan
2944.000000	nan
2945.000000	nan
2946.000000	nan
2947.000000	nan
2948.000000	nan
2949.000000	nan
2950.000000	nan
2951.000000	nan
2952.000000	nan
2953.000000	nan
2954.000000	nan
2955.000000	nan
2956.000000	nan
2957.000000	nan
2958.000000	nan
2959.000000	nan
2960.000000	nan
2961.000000	nan
2962.000000	nan
2963.000000	nan
2964.000000	nan
2965.000000	nan
2966.000000	nan
2967.000000	nan
2968.000000	nan
2969.000000	nan
2970.000000	nan
2971.000000	nan
2972.000000	nan
2973.000000	nan
2974.000000	nan
2975.000000	nan
2976.000000	nan
2977.000000	nan
2978.000000	nan
2979.000000	nan
2980.000000	nan
2981.000000	nan
2982.000000	nan
2983.000000	nan
2984.000000	nan
2985.000000	nan
2986.000000	nan
2987.000000	nan
2988.000000	nan
2989.000000	nan
2990.000000	nan
2991.000000	nan
2992.000000	nan
2993.000000	nan
2994.000000	nan
2995.000000	nan
2996.000000	nan
2997.000000	nan
2998.000000	nan
2999.000000	nan
3000.000000	nan
