PE UV       SUBTECH     SPECTRUM    ASCII       PEDS        4.00        
   -1
INBUCR0132-4.Sample.ASC
24/02/07
12:35:23.00
24/02/07
12:35:23.00
Vinicio Soto Monge
Color café con ambos élitros (Det: A. Solís) COSTA RICA Prov. Limón. Veragua Rainforest. Campamento. 400-440 m. 24-27 FEB 2009. R. Villalobos. Tp. Luz Mercurio. L_N_212220_625230 #95892 INB0004200339 INBIOCRI COSTA RICA 
250,000000
1
Lambda 1050
1050L1511233
PerkinElmer UV WinLab 6.3.2.0749 / 2.02.05 Lambda 900 UV/VIS/NIR, Aug  7 2015 09:38:08

0
0
3350/servo 860,8/2
0
0
UV/VIS
1
1
1
DoubleDePol,CommonBeamDepol,RBeamAtt,SBeamAtt,60mm sphere, WB InGaAs Detector
0
0
0
0
Program
Program
3350/servo 860,8/2
3350/0,2 860,8/0,2
3350/0,2 860,8/0,2
0
15.00
 
 
 
0
 
860,8
319,2
860,8
Front
100
on
S:100 R:100
0
0
0
0
 
0
 
 
 
0
 
 
0
0
0
0
0
 
 
 
 
0
0


0
0
#HDR
-1
-1
#GR
nm
%R
1.0
0.0
2500,000000
-1,000000
2251
8
16,320100
1,256600
#DATA

250.000000	2.688172
251.000000	2.676073
252.000000	2.682433
253.000000	2.694045
254.000000	2.667554
255.000000	2.658505
256.000000	2.664689
257.000000	2.633054
258.000000	2.619289
259.000000	2.612500
260.000000	2.600429
261.000000	2.571761
262.000000	2.585465
263.000000	2.564743
264.000000	2.530501
265.000000	2.518034
266.000000	2.517287
267.000000	2.500720
268.000000	2.479734
269.000000	2.471730
270.000000	2.474647
271.000000	2.476453
272.000000	2.444220
273.000000	2.434073
274.000000	2.428053
275.000000	2.433696
276.000000	2.423875
277.000000	2.427683
278.000000	2.394201
279.000000	2.412498
280.000000	2.414401
281.000000	2.416702
282.000000	2.391493
283.000000	2.387284
284.000000	2.398322
285.000000	2.397828
286.000000	2.395363
287.000000	2.388783
288.000000	2.391028
289.000000	2.392981
290.000000	2.394309
291.000000	2.379845
292.000000	2.394184
293.000000	2.390869
294.000000	2.379246
295.000000	2.401429
296.000000	2.385343
297.000000	2.399909
298.000000	2.396397
299.000000	2.394396
300.000000	2.387415
301.000000	2.404081
302.000000	2.405618
303.000000	2.372394
304.000000	2.373123
305.000000	2.368439
306.000000	2.380152
307.000000	2.364558
308.000000	2.368648
309.000000	2.390994
310.000000	2.368672
311.000000	2.354768
312.000000	2.363503
313.000000	2.369876
314.000000	2.386406
315.000000	2.397989
316.000000	2.370986
317.000000	2.400865
318.000000	2.311767
319.000000	2.409590
320.000000	2.443869
321.000000	2.484223
322.000000	2.465834
323.000000	2.371354
324.000000	2.407844
325.000000	2.425902
326.000000	2.440206
327.000000	2.429763
328.000000	2.408408
329.000000	2.378994
330.000000	2.387468
331.000000	2.431680
332.000000	2.420381
333.000000	2.368855
334.000000	2.399349
335.000000	2.432477
336.000000	2.409335
337.000000	2.396891
338.000000	2.415397
339.000000	2.378449
340.000000	2.405913
341.000000	2.439650
342.000000	2.419533
343.000000	2.414365
344.000000	2.422854
345.000000	2.424609
346.000000	2.411121
347.000000	2.380073
348.000000	2.403232
349.000000	2.411854
350.000000	2.435114
351.000000	2.437896
352.000000	2.421166
353.000000	2.404024
354.000000	2.426343
355.000000	2.438624
356.000000	2.445372
357.000000	2.437394
358.000000	2.430398
359.000000	2.434572
360.000000	2.451425
361.000000	2.432186
362.000000	2.435179
363.000000	2.421840
364.000000	2.441495
365.000000	2.448103
366.000000	2.439400
367.000000	2.451864
368.000000	2.469464
369.000000	2.449041
370.000000	2.451755
371.000000	2.452653
372.000000	2.453568
373.000000	2.453348
374.000000	2.486240
375.000000	2.494442
376.000000	2.505818
377.000000	2.472638
378.000000	2.465166
379.000000	2.463620
380.000000	2.467054
381.000000	2.463575
382.000000	2.473632
383.000000	2.471242
384.000000	2.466382
385.000000	2.471647
386.000000	2.470464
387.000000	2.470411
388.000000	2.472372
389.000000	2.470909
390.000000	2.474514
391.000000	2.481479
392.000000	2.481816
393.000000	2.479370
394.000000	2.482998
395.000000	2.483999
396.000000	2.489297
397.000000	2.487023
398.000000	2.491454
399.000000	2.491566
400.000000	2.494516
401.000000	2.498364
402.000000	2.501554
403.000000	2.505601
404.000000	2.508507
405.000000	2.513121
406.000000	2.515717
407.000000	2.524165
408.000000	2.526145
409.000000	2.527509
410.000000	2.536858
411.000000	2.545195
412.000000	2.555947
413.000000	2.563401
414.000000	2.567076
415.000000	2.570809
416.000000	2.582653
417.000000	2.592108
418.000000	2.598131
419.000000	2.610570
420.000000	2.622572
421.000000	2.632870
422.000000	2.643060
423.000000	2.655157
424.000000	2.668589
425.000000	2.681125
426.000000	2.692927
427.000000	2.707028
428.000000	2.720616
429.000000	2.735853
430.000000	2.751677
431.000000	2.767232
432.000000	2.779336
433.000000	2.795101
434.000000	2.812701
435.000000	2.830886
436.000000	2.849872
437.000000	2.868706
438.000000	2.882584
439.000000	2.899226
440.000000	2.915415
441.000000	2.930204
442.000000	2.951560
443.000000	2.971684
444.000000	2.991385
445.000000	3.010355
446.000000	3.029549
447.000000	3.045144
448.000000	3.060870
449.000000	3.082520
450.000000	3.100610
451.000000	3.122434
452.000000	3.143231
453.000000	3.159104
454.000000	3.182758
455.000000	3.203943
456.000000	3.221719
457.000000	3.248267
458.000000	3.271041
459.000000	3.290477
460.000000	3.313128
461.000000	3.330935
462.000000	3.352805
463.000000	3.375379
464.000000	3.395125
465.000000	3.417599
466.000000	3.440703
467.000000	3.461750
468.000000	3.486572
469.000000	3.511459
470.000000	3.535011
471.000000	3.559840
472.000000	3.584586
473.000000	3.610477
474.000000	3.638374
475.000000	3.667783
476.000000	3.695195
477.000000	3.725752
478.000000	3.752786
479.000000	3.780383
480.000000	3.812500
481.000000	3.849783
482.000000	3.888825
483.000000	3.916118
484.000000	3.936418
485.000000	3.959077
486.000000	3.987220
487.000000	4.010159
488.000000	4.033708
489.000000	4.056841
490.000000	4.081297
491.000000	4.108075
492.000000	4.131775
493.000000	4.159567
494.000000	4.188546
495.000000	4.211134
496.000000	4.238829
497.000000	4.268387
498.000000	4.298551
499.000000	4.332540
500.000000	4.359067
501.000000	4.394315
502.000000	4.425182
503.000000	4.451158
504.000000	4.487159
505.000000	4.521989
506.000000	4.561287
507.000000	4.590634
508.000000	4.630260
509.000000	4.668915
510.000000	4.712127
511.000000	4.753194
512.000000	4.799212
513.000000	4.839392
514.000000	4.885774
515.000000	4.933884
516.000000	4.981928
517.000000	5.032716
518.000000	5.080591
519.000000	5.129596
520.000000	5.180966
521.000000	5.234199
522.000000	5.289421
523.000000	5.344804
524.000000	5.402000
525.000000	5.452537
526.000000	5.500525
527.000000	5.557740
528.000000	5.611441
529.000000	5.666578
530.000000	5.717771
531.000000	5.773700
532.000000	5.831586
533.000000	5.886317
534.000000	5.944315
535.000000	5.999359
536.000000	6.054615
537.000000	6.109031
538.000000	6.163274
539.000000	6.220893
540.000000	6.275381
541.000000	6.339208
542.000000	6.396409
543.000000	6.450731
544.000000	6.514114
545.000000	6.571082
546.000000	6.633796
547.000000	6.690176
548.000000	6.748127
549.000000	6.809502
550.000000	6.871526
551.000000	6.930923
552.000000	6.996689
553.000000	7.058616
554.000000	7.121211
555.000000	7.180806
556.000000	7.247059
557.000000	7.309100
558.000000	7.374776
559.000000	7.436705
560.000000	7.534529
561.000000	7.608248
562.000000	7.673055
563.000000	7.750964
564.000000	7.813736
565.000000	7.889663
566.000000	7.949047
567.000000	8.017715
568.000000	8.088922
569.000000	8.155835
570.000000	8.228777
571.000000	8.303400
572.000000	8.369971
573.000000	8.450637
574.000000	8.520756
575.000000	8.583126
576.000000	8.655350
577.000000	8.729215
578.000000	8.798117
579.000000	8.875319
580.000000	8.951163
581.000000	9.018283
582.000000	9.089060
583.000000	9.171670
584.000000	9.250384
585.000000	9.326902
586.000000	9.398485
587.000000	9.474220
588.000000	9.553208
589.000000	9.628618
590.000000	9.703432
591.000000	9.780977
592.000000	9.857758
593.000000	9.937859
594.000000	10.013038
595.000000	10.089065
596.000000	10.164888
597.000000	10.249254
598.000000	10.328648
599.000000	10.402699
600.000000	10.479059
601.000000	10.568584
602.000000	10.643744
603.000000	10.721541
604.000000	10.815648
605.000000	10.894334
606.000000	10.972354
607.000000	11.045444
608.000000	11.128499
609.000000	11.215229
610.000000	11.303218
611.000000	11.377785
612.000000	11.455283
613.000000	11.545211
614.000000	11.622082
615.000000	11.703795
616.000000	11.787731
617.000000	11.876143
618.000000	11.946389
619.000000	12.022267
620.000000	12.113273
621.000000	12.204027
622.000000	12.284572
623.000000	12.362332
624.000000	12.453171
625.000000	12.526835
626.000000	12.619471
627.000000	12.699552
628.000000	12.790118
629.000000	12.877321
630.000000	12.957189
631.000000	13.054715
632.000000	13.147076
633.000000	13.228695
634.000000	13.309609
635.000000	13.408717
636.000000	13.490474
637.000000	13.578796
638.000000	13.663521
639.000000	13.766020
640.000000	13.859533
641.000000	13.952733
642.000000	14.038528
643.000000	14.122618
644.000000	14.223462
645.000000	14.314701
646.000000	14.422865
647.000000	14.505079
648.000000	14.595304
649.000000	14.694932
650.000000	14.788313
651.000000	14.888280
652.000000	14.976916
653.000000	15.081220
654.000000	15.176725
655.000000	15.262754
656.000000	15.352550
657.000000	15.448189
658.000000	15.546384
659.000000	15.631106
660.000000	15.716117
661.000000	15.809218
662.000000	15.910632
663.000000	16.013077
664.000000	16.105920
665.000000	16.195836
666.000000	16.292598
667.000000	16.371878
668.000000	16.462137
669.000000	16.565499
670.000000	16.656734
671.000000	16.739876
672.000000	16.828943
673.000000	16.934643
674.000000	17.017437
675.000000	17.109238
676.000000	17.200612
677.000000	17.279173
678.000000	17.369709
679.000000	17.458500
680.000000	17.539411
681.000000	17.635777
682.000000	17.721074
683.000000	17.810145
684.000000	17.900275
685.000000	17.988470
686.000000	18.066814
687.000000	18.142398
688.000000	18.231313
689.000000	18.330143
690.000000	18.428222
691.000000	18.509493
692.000000	18.583838
693.000000	18.682674
694.000000	18.755294
695.000000	18.826005
696.000000	18.927561
697.000000	19.000174
698.000000	19.091477
699.000000	19.171668
700.000000	19.265354
701.000000	19.348271
702.000000	19.415229
703.000000	19.508634
704.000000	19.592454
705.000000	19.679273
706.000000	19.770602
707.000000	19.837923
708.000000	19.909380
709.000000	19.989956
710.000000	20.075059
711.000000	20.184830
712.000000	20.266076
713.000000	20.333448
714.000000	20.420118
715.000000	20.490499
716.000000	20.566431
717.000000	20.656531
718.000000	20.738468
719.000000	20.808703
720.000000	20.872157
721.000000	20.950056
722.000000	21.051632
723.000000	21.146832
724.000000	21.222905
725.000000	21.295714
726.000000	21.372340
727.000000	21.456234
728.000000	21.537017
729.000000	21.606465
730.000000	21.675750
731.000000	21.751714
732.000000	21.844714
733.000000	21.937607
734.000000	22.019403
735.000000	22.075254
736.000000	22.141823
737.000000	22.237640
738.000000	22.307256
739.000000	22.379321
740.000000	22.452757
741.000000	22.517052
742.000000	22.608792
743.000000	22.702388
744.000000	22.776981
745.000000	22.865149
746.000000	22.936197
747.000000	23.000332
748.000000	23.075019
749.000000	23.157918
750.000000	23.232125
751.000000	23.301365
752.000000	23.381913
753.000000	23.462875
754.000000	23.527929
755.000000	23.613421
756.000000	23.705432
757.000000	23.762894
758.000000	23.847509
759.000000	23.941703
760.000000	24.004627
761.000000	24.071264
762.000000	24.135499
763.000000	24.221852
764.000000	24.312705
765.000000	24.376692
766.000000	24.442724
767.000000	24.507776
768.000000	24.595454
769.000000	24.684047
770.000000	24.755301
771.000000	24.811061
772.000000	24.892643
773.000000	24.959356
774.000000	25.029718
775.000000	25.111512
776.000000	25.164593
777.000000	25.273791
778.000000	25.342304
779.000000	25.410512
780.000000	25.461673
781.000000	25.561567
782.000000	25.637038
783.000000	25.693262
784.000000	25.777380
785.000000	25.870501
786.000000	25.966639
787.000000	25.996771
788.000000	26.060204
789.000000	26.108879
790.000000	26.197348
791.000000	26.228403
792.000000	26.348458
793.000000	26.424671
794.000000	26.480345
795.000000	26.578268
796.000000	26.643522
797.000000	26.709355
798.000000	26.761718
799.000000	26.825423
800.000000	26.897038
801.000000	26.941585
802.000000	27.025196
803.000000	27.108982
804.000000	27.172998
805.000000	27.301650
806.000000	27.297894
807.000000	27.366120
808.000000	27.427330
809.000000	27.493450
810.000000	27.602188
811.000000	27.679201
812.000000	27.722444
813.000000	27.779969
814.000000	27.853584
815.000000	27.822515
816.000000	27.870585
817.000000	28.015937
818.000000	28.060763
819.000000	28.095867
820.000000	28.188321
821.000000	28.243191
822.000000	28.271590
823.000000	28.324608
824.000000	28.372913
825.000000	28.507988
826.000000	28.527164
827.000000	28.570754
828.000000	28.640220
829.000000	28.672363
830.000000	28.739304
831.000000	28.814653
832.000000	28.806434
833.000000	28.871388
834.000000	28.904717
835.000000	29.010798
836.000000	28.984863
837.000000	29.091898
838.000000	29.162071
839.000000	29.234300
840.000000	29.264328
841.000000	29.260635
842.000000	29.326049
843.000000	29.404815
844.000000	29.462165
845.000000	29.501078
846.000000	29.502936
847.000000	29.488784
848.000000	29.541044
849.000000	29.553870
850.000000	29.578242
851.000000	29.677051
852.000000	29.551560
853.000000	29.770364
854.000000	29.750915
855.000000	29.787949
856.000000	29.834517
857.000000	29.926399
858.000000	31.354686
859.000000	30.433657
860.000000	30.470418
861.000000	30.744512
862.000000	30.907027
863.000000	30.757701
864.000000	30.945085
865.000000	30.830748
866.000000	30.692816
867.000000	30.712376
868.000000	30.644442
869.000000	30.646896
870.000000	30.493995
871.000000	30.340811
872.000000	30.364126
873.000000	30.351513
874.000000	30.465685
875.000000	30.536389
876.000000	30.095501
877.000000	30.171905
878.000000	30.174099
879.000000	30.146584
880.000000	30.271493
881.000000	30.204346
882.000000	30.146568
883.000000	30.065063
884.000000	29.991717
885.000000	30.102650
886.000000	30.075202
887.000000	29.986173
888.000000	29.926493
889.000000	29.830576
890.000000	30.034822
891.000000	29.921604
892.000000	29.947850
893.000000	29.863145
894.000000	29.802568
895.000000	29.673926
896.000000	29.848581
897.000000	29.917071
898.000000	29.809751
899.000000	29.733106
900.000000	29.675607
901.000000	29.694854
902.000000	29.666662
903.000000	29.737160
904.000000	29.754235
905.000000	29.714192
906.000000	29.681714
907.000000	29.614993
908.000000	29.556435
909.000000	29.632527
910.000000	29.595450
911.000000	29.519745
912.000000	29.488424
913.000000	29.508372
914.000000	29.496427
915.000000	29.522701
916.000000	29.505304
917.000000	29.493255
918.000000	29.459817
919.000000	29.389809
920.000000	29.457344
921.000000	29.470086
922.000000	29.446088
923.000000	29.433674
924.000000	29.323819
925.000000	29.350754
926.000000	29.351468
927.000000	29.438507
928.000000	29.402318
929.000000	29.349613
930.000000	29.301665
931.000000	29.387203
932.000000	29.396855
933.000000	29.394025
934.000000	29.403449
935.000000	29.365015
936.000000	29.297631
937.000000	29.322894
938.000000	29.302032
939.000000	29.303533
940.000000	29.277577
941.000000	29.255261
942.000000	29.251656
943.000000	29.290391
944.000000	29.310203
945.000000	29.293468
946.000000	29.258628
947.000000	29.219044
948.000000	29.227772
949.000000	29.270124
950.000000	29.276962
951.000000	29.289542
952.000000	29.244977
953.000000	29.207658
954.000000	29.211651
955.000000	29.205830
956.000000	29.230727
957.000000	29.217371
958.000000	29.184478
959.000000	29.185435
960.000000	29.193160
961.000000	29.200296
962.000000	29.202470
963.000000	29.214605
964.000000	29.187526
965.000000	29.166093
966.000000	29.164620
967.000000	29.173200
968.000000	29.196431
969.000000	29.202769
970.000000	29.161219
971.000000	29.157835
972.000000	29.187543
973.000000	29.191803
974.000000	29.175296
975.000000	29.167826
976.000000	29.147217
977.000000	29.143457
978.000000	29.162590
979.000000	29.184716
980.000000	29.176713
981.000000	29.148072
982.000000	29.138596
983.000000	29.145953
984.000000	29.153724
985.000000	29.185613
986.000000	29.168621
987.000000	29.148264
988.000000	29.157148
989.000000	29.165754
990.000000	29.154429
991.000000	29.161887
992.000000	29.175700
993.000000	29.156362
994.000000	29.141727
995.000000	29.141698
996.000000	29.150633
997.000000	29.170591
998.000000	29.165777
999.000000	29.146677
1000.000000	29.144946
1001.000000	29.157333
1002.000000	29.169251
1003.000000	29.158310
1004.000000	29.126764
1005.000000	29.116393
1006.000000	29.146401
1007.000000	29.159838
1008.000000	29.161040
1009.000000	29.168316
1010.000000	29.169111
1011.000000	29.167521
1012.000000	29.170010
1013.000000	29.182231
1014.000000	29.184698
1015.000000	29.189227
1016.000000	29.202507
1017.000000	29.191037
1018.000000	29.198229
1019.000000	29.221756
1020.000000	29.240700
1021.000000	29.242914
1022.000000	29.237611
1023.000000	29.236228
1024.000000	29.266893
1025.000000	29.284122
1026.000000	29.286060
1027.000000	29.301998
1028.000000	29.311041
1029.000000	29.311861
1030.000000	29.319454
1031.000000	29.336666
1032.000000	29.349766
1033.000000	29.348299
1034.000000	29.349809
1035.000000	29.364923
1036.000000	29.380283
1037.000000	29.395303
1038.000000	29.410944
1039.000000	29.414239
1040.000000	29.412818
1041.000000	29.425755
1042.000000	29.447042
1043.000000	29.468461
1044.000000	29.478112
1045.000000	29.467001
1046.000000	29.472729
1047.000000	29.503868
1048.000000	29.520578
1049.000000	29.537326
1050.000000	29.538805
1051.000000	29.542063
1052.000000	29.544397
1053.000000	29.581777
1054.000000	29.588254
1055.000000	29.586380
1056.000000	29.594053
1057.000000	29.605769
1058.000000	29.625193
1059.000000	29.653323
1060.000000	29.663797
1061.000000	29.677852
1062.000000	29.687263
1063.000000	29.702948
1064.000000	29.715988
1065.000000	29.733970
1066.000000	29.760933
1067.000000	29.769312
1068.000000	29.770939
1069.000000	29.764932
1070.000000	29.787274
1071.000000	29.793136
1072.000000	29.816585
1073.000000	29.839788
1074.000000	29.830634
1075.000000	29.827988
1076.000000	29.853264
1077.000000	29.863333
1078.000000	29.874752
1079.000000	29.890263
1080.000000	29.884593
1081.000000	29.899688
1082.000000	29.923730
1083.000000	29.941766
1084.000000	29.951412
1085.000000	29.946774
1086.000000	29.949630
1087.000000	29.964481
1088.000000	29.971946
1089.000000	29.986728
1090.000000	29.983318
1091.000000	29.998725
1092.000000	30.008918
1093.000000	30.029096
1094.000000	30.028481
1095.000000	30.033724
1096.000000	30.034975
1097.000000	30.029629
1098.000000	30.050379
1099.000000	30.063511
1100.000000	30.062110
1101.000000	30.070438
1102.000000	30.066668
1103.000000	30.076749
1104.000000	30.102754
1105.000000	30.112282
1106.000000	30.115822
1107.000000	30.118979
1108.000000	30.125134
1109.000000	30.132731
1110.000000	30.121397
1111.000000	30.134088
1112.000000	30.148910
1113.000000	30.149107
1114.000000	30.142758
1115.000000	30.145855
1116.000000	30.142056
1117.000000	30.155124
1118.000000	30.134537
1119.000000	30.130767
1120.000000	30.115232
1121.000000	30.109958
1122.000000	30.099837
1123.000000	30.092694
1124.000000	30.063577
1125.000000	30.028996
1126.000000	30.001496
1127.000000	29.985566
1128.000000	29.954116
1129.000000	29.922083
1130.000000	29.888828
1131.000000	29.857806
1132.000000	29.840909
1133.000000	29.805675
1134.000000	29.767328
1135.000000	29.728656
1136.000000	29.679823
1137.000000	29.638088
1138.000000	29.616256
1139.000000	29.574629
1140.000000	29.563401
1141.000000	29.512758
1142.000000	29.485139
1143.000000	29.468317
1144.000000	29.434797
1145.000000	29.402054
1146.000000	29.350956
1147.000000	29.299118
1148.000000	29.270687
1149.000000	29.251014
1150.000000	29.231592
1151.000000	29.191576
1152.000000	29.140964
1153.000000	29.088030
1154.000000	29.053282
1155.000000	29.004098
1156.000000	28.958543
1157.000000	28.916871
1158.000000	28.853366
1159.000000	28.798822
1160.000000	28.747489
1161.000000	28.703044
1162.000000	28.651047
1163.000000	28.604377
1164.000000	28.536411
1165.000000	28.491416
1166.000000	28.440500
1167.000000	28.395521
1168.000000	28.351298
1169.000000	28.309777
1170.000000	28.239713
1171.000000	28.204213
1172.000000	28.162623
1173.000000	28.119003
1174.000000	28.075611
1175.000000	28.033692
1176.000000	28.005462
1177.000000	27.976776
1178.000000	27.961770
1179.000000	27.931247
1180.000000	27.910811
1181.000000	27.876035
1182.000000	27.869721
1183.000000	27.855286
1184.000000	27.853566
1185.000000	27.850376
1186.000000	27.842720
1187.000000	27.831943
1188.000000	27.844630
1189.000000	27.870349
1190.000000	27.892073
1191.000000	27.911057
1192.000000	27.926663
1193.000000	27.947946
1194.000000	27.953597
1195.000000	27.992486
1196.000000	28.026892
1197.000000	28.049880
1198.000000	28.066198
1199.000000	28.082547
1200.000000	28.113305
1201.000000	28.125946
1202.000000	28.154598
1203.000000	28.165050
1204.000000	28.195174
1205.000000	28.222854
1206.000000	28.232601
1207.000000	28.248013
1208.000000	28.280408
1209.000000	28.310264
1210.000000	28.326451
1211.000000	28.334709
1212.000000	28.357572
1213.000000	28.379486
1214.000000	28.404833
1215.000000	28.428190
1216.000000	28.446676
1217.000000	28.476522
1218.000000	28.508867
1219.000000	28.545975
1220.000000	28.567362
1221.000000	28.600993
1222.000000	28.631366
1223.000000	28.661749
1224.000000	28.697478
1225.000000	28.723888
1226.000000	28.747213
1227.000000	28.776965
1228.000000	28.815202
1229.000000	28.851485
1230.000000	28.887176
1231.000000	28.918199
1232.000000	28.945771
1233.000000	28.968361
1234.000000	28.989368
1235.000000	29.011130
1236.000000	29.034552
1237.000000	29.045977
1238.000000	29.067661
1239.000000	29.088605
1240.000000	29.107175
1241.000000	29.139685
1242.000000	29.161228
1243.000000	29.162203
1244.000000	29.173238
1245.000000	29.190658
1246.000000	29.213859
1247.000000	29.238936
1248.000000	29.252422
1249.000000	29.266664
1250.000000	29.276258
1251.000000	29.301569
1252.000000	29.315633
1253.000000	29.322836
1254.000000	29.334852
1255.000000	29.359294
1256.000000	29.364399
1257.000000	29.364973
1258.000000	29.381317
1259.000000	29.390287
1260.000000	29.387370
1261.000000	29.382876
1262.000000	29.393662
1263.000000	29.406845
1264.000000	29.417151
1265.000000	29.427285
1266.000000	29.437431
1267.000000	29.454280
1268.000000	29.466299
1269.000000	29.468447
1270.000000	29.470045
1271.000000	29.483894
1272.000000	29.495252
1273.000000	29.496778
1274.000000	29.504933
1275.000000	29.515492
1276.000000	29.521115
1277.000000	29.525838
1278.000000	29.539982
1279.000000	29.550387
1280.000000	29.551433
1281.000000	29.557093
1282.000000	29.564458
1283.000000	29.576960
1284.000000	29.588194
1285.000000	29.594070
1286.000000	29.607903
1287.000000	29.615513
1288.000000	29.618162
1289.000000	29.630715
1290.000000	29.638932
1291.000000	29.652921
1292.000000	29.662389
1293.000000	29.664910
1294.000000	29.668239
1295.000000	29.678974
1296.000000	29.683117
1297.000000	29.684094
1298.000000	29.687214
1299.000000	29.677936
1300.000000	29.672194
1301.000000	29.685165
1302.000000	29.696942
1303.000000	29.699963
1304.000000	29.701515
1305.000000	29.699748
1306.000000	29.692763
1307.000000	29.694028
1308.000000	29.702507
1309.000000	29.696236
1310.000000	29.686900
1311.000000	29.671971
1312.000000	29.669245
1313.000000	29.662847
1314.000000	29.637416
1315.000000	29.626090
1316.000000	29.615967
1317.000000	29.604143
1318.000000	29.606455
1319.000000	29.598281
1320.000000	29.572923
1321.000000	29.551721
1322.000000	29.535158
1323.000000	29.522719
1324.000000	29.494314
1325.000000	29.459380
1326.000000	29.429334
1327.000000	29.396408
1328.000000	29.366036
1329.000000	29.340125
1330.000000	29.308925
1331.000000	29.271916
1332.000000	29.228809
1333.000000	29.177155
1334.000000	29.143878
1335.000000	29.096198
1336.000000	29.040764
1337.000000	28.993099
1338.000000	28.936586
1339.000000	28.882537
1340.000000	28.827205
1341.000000	28.767163
1342.000000	28.705304
1343.000000	28.647021
1344.000000	28.577972
1345.000000	28.532548
1346.000000	28.487109
1347.000000	28.422324
1348.000000	28.350820
1349.000000	28.299173
1350.000000	28.251989
1351.000000	28.187174
1352.000000	28.130293
1353.000000	28.075663
1354.000000	27.985995
1355.000000	27.910124
1356.000000	27.864361
1357.000000	27.829510
1358.000000	27.788359
1359.000000	27.745143
1360.000000	27.665539
1361.000000	27.542506
1362.000000	27.478401
1363.000000	27.435066
1364.000000	27.358906
1365.000000	27.284154
1366.000000	27.251728
1367.000000	27.188323
1368.000000	27.137728
1369.000000	27.105685
1370.000000	27.027004
1371.000000	26.935154
1372.000000	26.892894
1373.000000	26.847994
1374.000000	26.764777
1375.000000	26.696725
1376.000000	26.636182
1377.000000	26.575273
1378.000000	26.534030
1379.000000	26.481888
1380.000000	26.410743
1381.000000	26.279473
1382.000000	26.148813
1383.000000	26.041772
1384.000000	25.958657
1385.000000	25.868147
1386.000000	25.775362
1387.000000	25.646461
1388.000000	25.513435
1389.000000	25.426329
1390.000000	25.361789
1391.000000	25.234054
1392.000000	25.098778
1393.000000	25.002660
1394.000000	24.870446
1395.000000	24.689415
1396.000000	24.537639
1397.000000	24.459397
1398.000000	24.363446
1399.000000	24.198652
1400.000000	24.016780
1401.000000	23.877970
1402.000000	23.785775
1403.000000	23.639580
1404.000000	23.465279
1405.000000	23.324385
1406.000000	23.173307
1407.000000	23.017116
1408.000000	22.863084
1409.000000	22.678033
1410.000000	22.517037
1411.000000	22.395475
1412.000000	22.274434
1413.000000	22.098825
1414.000000	21.937834
1415.000000	21.804670
1416.000000	21.684233
1417.000000	21.557511
1418.000000	21.412667
1419.000000	21.283624
1420.000000	21.166249
1421.000000	21.060194
1422.000000	20.945868
1423.000000	20.830424
1424.000000	20.699753
1425.000000	20.599810
1426.000000	20.513280
1427.000000	20.417483
1428.000000	20.329767
1429.000000	20.249641
1430.000000	20.164874
1431.000000	20.072479
1432.000000	20.016930
1433.000000	19.945321
1434.000000	19.866332
1435.000000	19.791207
1436.000000	19.716155
1437.000000	19.634492
1438.000000	19.571209
1439.000000	19.508840
1440.000000	19.430655
1441.000000	19.376742
1442.000000	19.321608
1443.000000	19.274177
1444.000000	19.219620
1445.000000	19.140296
1446.000000	19.069992
1447.000000	19.034990
1448.000000	18.978647
1449.000000	18.939776
1450.000000	18.868352
1451.000000	18.798979
1452.000000	18.763708
1453.000000	18.709849
1454.000000	18.663056
1455.000000	18.602135
1456.000000	18.551954
1457.000000	18.509610
1458.000000	18.455976
1459.000000	18.409395
1460.000000	18.366339
1461.000000	18.322494
1462.000000	18.266371
1463.000000	18.202847
1464.000000	18.161592
1465.000000	18.114108
1466.000000	18.069125
1467.000000	18.016668
1468.000000	17.963533
1469.000000	17.934932
1470.000000	17.883484
1471.000000	17.840136
1472.000000	17.795700
1473.000000	17.749648
1474.000000	17.717425
1475.000000	17.682370
1476.000000	17.640877
1477.000000	17.609996
1478.000000	17.574985
1479.000000	17.542456
1480.000000	17.506093
1481.000000	17.474163
1482.000000	17.460401
1483.000000	17.431686
1484.000000	17.399988
1485.000000	17.380272
1486.000000	17.380761
1487.000000	17.360035
1488.000000	17.345386
1489.000000	17.329280
1490.000000	17.321230
1491.000000	17.320926
1492.000000	17.317237
1493.000000	17.310094
1494.000000	17.318571
1495.000000	17.324239
1496.000000	17.339645
1497.000000	17.353638
1498.000000	17.353102
1499.000000	17.360096
1500.000000	17.380480
1501.000000	17.401581
1502.000000	17.423771
1503.000000	17.457904
1504.000000	17.487437
1505.000000	17.509836
1506.000000	17.548674
1507.000000	17.571583
1508.000000	17.606526
1509.000000	17.647938
1510.000000	17.694460
1511.000000	17.733082
1512.000000	17.772178
1513.000000	17.801084
1514.000000	17.840581
1515.000000	17.881656
1516.000000	17.923675
1517.000000	17.956509
1518.000000	17.992425
1519.000000	18.034113
1520.000000	18.076725
1521.000000	18.121470
1522.000000	18.163005
1523.000000	18.200954
1524.000000	18.225145
1525.000000	18.266996
1526.000000	18.315088
1527.000000	18.346575
1528.000000	18.367063
1529.000000	18.391076
1530.000000	18.428523
1531.000000	18.462466
1532.000000	18.492464
1533.000000	18.526944
1534.000000	18.555390
1535.000000	18.588767
1536.000000	18.618560
1537.000000	18.647766
1538.000000	18.669803
1539.000000	18.698414
1540.000000	18.730834
1541.000000	18.758776
1542.000000	18.796754
1543.000000	18.821288
1544.000000	18.840844
1545.000000	18.863374
1546.000000	18.897780
1547.000000	18.930731
1548.000000	18.964470
1549.000000	18.994158
1550.000000	19.020697
1551.000000	19.055327
1552.000000	19.077792
1553.000000	19.097782
1554.000000	19.117084
1555.000000	19.142484
1556.000000	19.170226
1557.000000	19.192752
1558.000000	19.208325
1559.000000	19.212358
1560.000000	19.223703
1561.000000	19.241791
1562.000000	19.250403
1563.000000	19.253133
1564.000000	19.254936
1565.000000	19.251491
1566.000000	19.250036
1567.000000	19.251307
1568.000000	19.246167
1569.000000	19.242087
1570.000000	19.237858
1571.000000	19.233187
1572.000000	19.235405
1573.000000	19.248373
1574.000000	19.246013
1575.000000	19.245939
1576.000000	19.245756
1577.000000	19.265100
1578.000000	19.273514
1579.000000	19.277810
1580.000000	19.283995
1581.000000	19.288179
1582.000000	19.309000
1583.000000	19.339246
1584.000000	19.356900
1585.000000	19.364036
1586.000000	19.391393
1587.000000	19.429246
1588.000000	19.456723
1589.000000	19.484554
1590.000000	19.493291
1591.000000	19.529966
1592.000000	19.566560
1593.000000	19.599151
1594.000000	19.627651
1595.000000	19.651359
1596.000000	19.690903
1597.000000	19.726731
1598.000000	19.766572
1599.000000	19.805113
1600.000000	19.833649
1601.000000	19.868441
1602.000000	19.912761
1603.000000	19.958616
1604.000000	19.995611
1605.000000	20.021604
1606.000000	20.052653
1607.000000	20.091679
1608.000000	20.143922
1609.000000	20.173213
1610.000000	20.202307
1611.000000	20.231506
1612.000000	20.263793
1613.000000	20.292956
1614.000000	20.322999
1615.000000	20.351821
1616.000000	20.360719
1617.000000	20.388577
1618.000000	20.414207
1619.000000	20.450712
1620.000000	20.475949
1621.000000	20.507394
1622.000000	20.523981
1623.000000	20.541621
1624.000000	20.571476
1625.000000	20.589304
1626.000000	20.605479
1627.000000	20.622317
1628.000000	20.644915
1629.000000	20.660342
1630.000000	20.682729
1631.000000	20.704099
1632.000000	20.689682
1633.000000	20.716794
1634.000000	20.733653
1635.000000	20.753518
1636.000000	20.746796
1637.000000	20.749938
1638.000000	20.766561
1639.000000	20.771878
1640.000000	20.787734
1641.000000	20.791136
1642.000000	20.787141
1643.000000	20.796237
1644.000000	20.780112
1645.000000	20.780057
1646.000000	20.764717
1647.000000	20.736226
1648.000000	20.732697
1649.000000	20.706898
1650.000000	20.699714
1651.000000	20.687489
1652.000000	20.646009
1653.000000	20.609432
1654.000000	20.573398
1655.000000	20.538395
1656.000000	20.504355
1657.000000	20.451050
1658.000000	20.376921
1659.000000	20.310705
1660.000000	20.249493
1661.000000	20.198905
1662.000000	20.104265
1663.000000	20.019451
1664.000000	19.916988
1665.000000	19.838041
1666.000000	19.760326
1667.000000	19.653881
1668.000000	19.564617
1669.000000	19.454609
1670.000000	19.381476
1671.000000	19.277324
1672.000000	19.192577
1673.000000	19.102535
1674.000000	19.010010
1675.000000	18.862569
1676.000000	18.806084
1677.000000	18.710331
1678.000000	18.626159
1679.000000	18.526311
1680.000000	18.438082
1681.000000	18.367107
1682.000000	18.299800
1683.000000	18.202072
1684.000000	18.138387
1685.000000	18.069810
1686.000000	18.010708
1687.000000	17.968469
1688.000000	17.937157
1689.000000	17.896062
1690.000000	17.883784
1691.000000	17.858942
1692.000000	17.839761
1693.000000	17.851534
1694.000000	17.844325
1695.000000	17.828728
1696.000000	17.819474
1697.000000	17.825436
1698.000000	17.828967
1699.000000	17.824452
1700.000000	17.803326
1701.000000	17.782268
1702.000000	17.780545
1703.000000	17.772130
1704.000000	17.743466
1705.000000	17.709933
1706.000000	17.655084
1707.000000	17.598195
1708.000000	17.550783
1709.000000	17.503410
1710.000000	17.421460
1711.000000	17.346380
1712.000000	17.261504
1713.000000	17.212932
1714.000000	17.140563
1715.000000	17.046638
1716.000000	16.953863
1717.000000	16.877627
1718.000000	16.816851
1719.000000	16.744681
1720.000000	16.682512
1721.000000	16.621598
1722.000000	16.561756
1723.000000	16.512778
1724.000000	16.470266
1725.000000	16.455616
1726.000000	16.450458
1727.000000	16.453173
1728.000000	16.431420
1729.000000	16.467793
1730.000000	16.490454
1731.000000	16.498594
1732.000000	16.519223
1733.000000	16.549713
1734.000000	16.616929
1735.000000	16.654418
1736.000000	16.727604
1737.000000	16.775925
1738.000000	16.818506
1739.000000	16.876786
1740.000000	16.939790
1741.000000	17.008365
1742.000000	17.053891
1743.000000	17.096057
1744.000000	17.149413
1745.000000	17.214190
1746.000000	17.263485
1747.000000	17.310594
1748.000000	17.351856
1749.000000	17.395921
1750.000000	17.424201
1751.000000	17.460527
1752.000000	17.495037
1753.000000	17.509711
1754.000000	17.525410
1755.000000	17.541757
1756.000000	17.562983
1757.000000	17.589355
1758.000000	17.601098
1759.000000	17.597485
1760.000000	17.615186
1761.000000	17.632329
1762.000000	17.649761
1763.000000	17.665137
1764.000000	17.690103
1765.000000	17.699329
1766.000000	17.734074
1767.000000	17.781136
1768.000000	17.814685
1769.000000	17.824027
1770.000000	17.830268
1771.000000	17.865676
1772.000000	17.908683
1773.000000	17.939477
1774.000000	17.978779
1775.000000	18.005849
1776.000000	18.024551
1777.000000	18.061765
1778.000000	18.099486
1779.000000	18.120688
1780.000000	18.129328
1781.000000	18.151546
1782.000000	18.172008
1783.000000	18.193593
1784.000000	18.227302
1785.000000	18.233509
1786.000000	18.238836
1787.000000	18.255306
1788.000000	18.276244
1789.000000	18.299288
1790.000000	18.307717
1791.000000	18.312384
1792.000000	18.329396
1793.000000	18.343960
1794.000000	18.362843
1795.000000	18.383110
1796.000000	18.393213
1797.000000	18.413830
1798.000000	18.444669
1799.000000	18.463212
1800.000000	18.469438
1801.000000	18.466169
1802.000000	18.482140
1803.000000	18.520515
1804.000000	18.545600
1805.000000	18.550702
1806.000000	18.551305
1807.000000	18.568390
1808.000000	18.607251
1809.000000	18.651302
1810.000000	18.671644
1811.000000	18.664028
1812.000000	18.669551
1813.000000	18.689925
1814.000000	18.715110
1815.000000	18.738739
1816.000000	18.759059
1817.000000	18.798461
1818.000000	18.834881
1819.000000	18.833792
1820.000000	18.788461
1821.000000	18.748616
1822.000000	18.773329
1823.000000	18.842836
1824.000000	18.891376
1825.000000	18.909642
1826.000000	18.905007
1827.000000	18.888774
1828.000000	18.912900
1829.000000	18.931528
1830.000000	18.937076
1831.000000	18.968528
1832.000000	19.022408
1833.000000	19.069570
1834.000000	19.117826
1835.000000	19.133553
1836.000000	19.130000
1837.000000	19.133104
1838.000000	19.152433
1839.000000	19.155936
1840.000000	19.135330
1841.000000	19.112012
1842.000000	19.120912
1843.000000	19.199176
1844.000000	19.326651
1845.000000	19.363115
1846.000000	19.339345
1847.000000	19.259844
1848.000000	19.189689
1849.000000	19.195530
1850.000000	19.253423
1851.000000	19.311966
1852.000000	19.305085
1853.000000	19.282023
1854.000000	19.260048
1855.000000	19.259201
1856.000000	19.315014
1857.000000	19.353109
1858.000000	19.291764
1859.000000	19.225884
1860.000000	19.204055
1861.000000	19.185678
1862.000000	19.208045
1863.000000	19.220550
1864.000000	19.209040
1865.000000	19.172477
1866.000000	19.151643
1867.000000	19.143465
1868.000000	19.063407
1869.000000	18.953168
1870.000000	18.797643
1871.000000	18.654027
1872.000000	18.474491
1873.000000	18.324981
1874.000000	18.197439
1875.000000	18.047260
1876.000000	17.926287
1877.000000	17.783397
1878.000000	17.653628
1879.000000	17.542598
1880.000000	17.391054
1881.000000	17.203504
1882.000000	17.022568
1883.000000	16.853235
1884.000000	16.676193
1885.000000	16.500324
1886.000000	16.297435
1887.000000	16.127593
1888.000000	15.948420
1889.000000	15.776167
1890.000000	15.536551
1891.000000	15.258916
1892.000000	15.056412
1893.000000	14.823945
1894.000000	14.598883
1895.000000	14.383190
1896.000000	14.149335
1897.000000	13.920867
1898.000000	13.643596
1899.000000	13.392561
1900.000000	13.141274
1901.000000	12.887693
1902.000000	12.646541
1903.000000	12.415808
1904.000000	12.172763
1905.000000	11.875449
1906.000000	11.688450
1907.000000	11.415270
1908.000000	11.226371
1909.000000	11.092838
1910.000000	10.974752
1911.000000	10.770027
1912.000000	10.554974
1913.000000	10.361066
1914.000000	10.232945
1915.000000	10.129305
1916.000000	10.011614
1917.000000	9.889891
1918.000000	9.775778
1919.000000	9.702494
1920.000000	9.629666
1921.000000	9.499079
1922.000000	9.407308
1923.000000	9.368777
1924.000000	9.276767
1925.000000	9.206251
1926.000000	9.160041
1927.000000	9.115489
1928.000000	9.051282
1929.000000	8.989745
1930.000000	8.938797
1931.000000	8.915286
1932.000000	8.910166
1933.000000	8.906600
1934.000000	8.917463
1935.000000	8.862303
1936.000000	8.850085
1937.000000	8.876028
1938.000000	8.894277
1939.000000	8.907565
1940.000000	8.911080
1941.000000	8.887021
1942.000000	8.939381
1943.000000	8.964432
1944.000000	8.996239
1945.000000	8.985923
1946.000000	9.047847
1947.000000	9.095581
1948.000000	9.113893
1949.000000	9.122563
1950.000000	9.152327
1951.000000	9.200363
1952.000000	9.300805
1953.000000	9.326854
1954.000000	9.348980
1955.000000	9.419036
1956.000000	9.438646
1957.000000	9.460472
1958.000000	9.529438
1959.000000	9.587582
1960.000000	9.632827
1961.000000	9.652650
1962.000000	9.740599
1963.000000	9.790124
1964.000000	9.832954
1965.000000	9.867792
1966.000000	9.904172
1967.000000	9.993165
1968.000000	10.045639
1969.000000	10.096694
1970.000000	10.125351
1971.000000	10.113385
1972.000000	10.177843
1973.000000	10.246445
1974.000000	10.312666
1975.000000	10.374031
1976.000000	10.389377
1977.000000	10.441921
1978.000000	10.510788
1979.000000	10.551993
1980.000000	10.600895
1981.000000	10.654987
1982.000000	10.686235
1983.000000	10.748266
1984.000000	10.820435
1985.000000	10.824489
1986.000000	10.910504
1987.000000	10.960450
1988.000000	10.995372
1989.000000	11.077882
1990.000000	11.126346
1991.000000	11.159002
1992.000000	11.164004
1993.000000	11.155699
1994.000000	11.252869
1995.000000	11.344225
1996.000000	11.350432
1997.000000	11.397371
1998.000000	11.431338
1999.000000	11.432838
2000.000000	11.484896
2001.000000	11.528397
2002.000000	11.531231
2003.000000	11.512733
2004.000000	11.530176
2005.000000	11.539165
2006.000000	11.591486
2007.000000	11.643527
2008.000000	11.620657
2009.000000	11.584070
2010.000000	11.597047
2011.000000	11.630851
2012.000000	11.606687
2013.000000	11.624742
2014.000000	11.591349
2015.000000	11.569769
2016.000000	11.544665
2017.000000	11.517602
2018.000000	11.442858
2019.000000	11.436875
2020.000000	11.403077
2021.000000	11.381071
2022.000000	11.326880
2023.000000	11.310175
2024.000000	11.261851
2025.000000	11.163041
2026.000000	11.163058
2027.000000	11.144720
2028.000000	11.087878
2029.000000	10.999740
2030.000000	10.866733
2031.000000	10.827664
2032.000000	10.779540
2033.000000	10.735474
2034.000000	10.666731
2035.000000	10.576349
2036.000000	10.493595
2037.000000	10.395994
2038.000000	10.334799
2039.000000	10.269638
2040.000000	10.154256
2041.000000	10.085444
2042.000000	10.096488
2043.000000	10.024019
2044.000000	9.893726
2045.000000	9.814620
2046.000000	9.790438
2047.000000	9.808626
2048.000000	9.710541
2049.000000	9.603200
2050.000000	9.571460
2051.000000	9.556853
2052.000000	9.544978
2053.000000	9.512647
2054.000000	9.539631
2055.000000	9.565084
2056.000000	9.555368
2057.000000	9.510067
2058.000000	9.571455
2059.000000	9.661821
2060.000000	9.742546
2061.000000	9.785632
2062.000000	9.714141
2063.000000	9.739285
2064.000000	9.899675
2065.000000	9.967676
2066.000000	9.982066
2067.000000	9.974771
2068.000000	10.067167
2069.000000	10.176358
2070.000000	10.238212
2071.000000	10.288652
2072.000000	10.340884
2073.000000	10.399844
2074.000000	10.441254
2075.000000	10.472156
2076.000000	10.492957
2077.000000	10.475788
2078.000000	10.526328
2079.000000	10.675788
2080.000000	10.760157
2081.000000	10.676201
2082.000000	10.702797
2083.000000	10.770498
2084.000000	10.814388
2085.000000	10.907847
2086.000000	10.885817
2087.000000	10.831023
2088.000000	10.800884
2089.000000	10.866412
2090.000000	10.980942
2091.000000	10.929037
2092.000000	10.850319
2093.000000	10.822802
2094.000000	10.919624
2095.000000	10.952084
2096.000000	10.929212
2097.000000	10.916425
2098.000000	10.930248
2099.000000	10.957193
2100.000000	10.965069
2101.000000	10.993918
2102.000000	10.942662
2103.000000	10.912241
2104.000000	11.018299
2105.000000	11.019214
2106.000000	10.925604
2107.000000	10.913110
2108.000000	10.917943
2109.000000	10.967286
2110.000000	10.998503
2111.000000	11.106630
2112.000000	11.057356
2113.000000	10.977012
2114.000000	10.909202
2115.000000	10.908048
2116.000000	11.000045
2117.000000	10.989849
2118.000000	10.969976
2119.000000	10.865558
2120.000000	10.864834
2121.000000	11.023258
2122.000000	11.043488
2123.000000	10.977855
2124.000000	11.026093
2125.000000	10.994207
2126.000000	10.912998
2127.000000	10.967285
2128.000000	10.855114
2129.000000	10.758007
2130.000000	10.816951
2131.000000	10.755394
2132.000000	10.802150
2133.000000	10.768270
2134.000000	10.589727
2135.000000	10.713501
2136.000000	10.644627
2137.000000	10.558054
2138.000000	10.549847
2139.000000	10.494419
2140.000000	10.329277
2141.000000	10.299786
2142.000000	10.380013
2143.000000	10.295705
2144.000000	10.125550
2145.000000	9.997551
2146.000000	10.006447
2147.000000	9.832183
2148.000000	9.948041
2149.000000	9.772178
2150.000000	9.563158
2151.000000	9.632957
2152.000000	9.755639
2153.000000	9.784711
2154.000000	9.691595
2155.000000	9.599553
2156.000000	9.585855
2157.000000	9.360182
2158.000000	9.303819
2159.000000	9.344867
2160.000000	9.165798
2161.000000	9.219923
2162.000000	9.302429
2163.000000	9.220509
2164.000000	9.285104
2165.000000	9.157745
2166.000000	9.127919
2167.000000	9.026622
2168.000000	8.932198
2169.000000	8.822333
2170.000000	8.924285
2171.000000	9.013625
2172.000000	9.074595
2173.000000	9.216746
2174.000000	8.886647
2175.000000	8.897694
2176.000000	8.917824
2177.000000	8.774056
2178.000000	9.057632
2179.000000	9.095256
2180.000000	9.026804
2181.000000	8.930017
2182.000000	8.977721
2183.000000	9.095024
2184.000000	9.016943
2185.000000	9.084151
2186.000000	9.103119
2187.000000	9.194220
2188.000000	9.331897
2189.000000	9.176389
2190.000000	9.074631
2191.000000	8.962971
2192.000000	9.262805
2193.000000	9.322679
2194.000000	9.217529
2195.000000	9.142498
2196.000000	8.983329
2197.000000	9.505585
2198.000000	9.406133
2199.000000	9.352632
2200.000000	9.281413
2201.000000	9.363952
2202.000000	9.497599
2203.000000	9.449075
2204.000000	9.548219
2205.000000	9.400698
2206.000000	9.641002
2207.000000	9.734421
2208.000000	9.791264
2209.000000	9.660184
2210.000000	9.736865
2211.000000	9.827415
2212.000000	9.844752
2213.000000	10.001628
2214.000000	9.772300
2215.000000	9.674189
2216.000000	9.984817
2217.000000	10.102437
2218.000000	9.932528
2219.000000	9.773994
2220.000000	9.808119
2221.000000	10.044401
2222.000000	10.198832
2223.000000	10.185753
2224.000000	10.132264
2225.000000	9.922072
2226.000000	9.979160
2227.000000	10.094220
2228.000000	10.312347
2229.000000	10.300605
2230.000000	10.316417
2231.000000	10.298289
2232.000000	10.272685
2233.000000	10.149432
2234.000000	10.337360
2235.000000	10.329178
2236.000000	10.324305
2237.000000	10.370193
2238.000000	10.563153
2239.000000	10.184136
2240.000000	10.075207
2241.000000	10.035151
2242.000000	10.074710
2243.000000	10.073800
2244.000000	10.066348
2245.000000	9.897309
2246.000000	9.907978
2247.000000	9.912963
2248.000000	9.741424
2249.000000	9.726393
2250.000000	9.630598
2251.000000	9.562277
2252.000000	9.564217
2253.000000	9.576677
2254.000000	9.341474
2255.000000	9.164620
2256.000000	9.083539
2257.000000	9.094903
2258.000000	9.247761
2259.000000	9.081214
2260.000000	8.858281
2261.000000	8.881152
2262.000000	8.980172
2263.000000	8.688714
2264.000000	8.601650
2265.000000	8.586426
2266.000000	8.612837
2267.000000	8.745970
2268.000000	8.628744
2269.000000	8.614585
2270.000000	8.498365
2271.000000	8.654515
2272.000000	8.547070
2273.000000	8.667727
2274.000000	8.445319
2275.000000	8.458020
2276.000000	8.543615
2277.000000	8.597886
2278.000000	8.415785
2279.000000	8.323355
2280.000000	8.363238
2281.000000	8.699696
2282.000000	8.678927
2283.000000	8.575171
2284.000000	8.235958
2285.000000	8.282734
2286.000000	8.304942
2287.000000	8.316811
2288.000000	8.304654
2289.000000	8.246545
2290.000000	8.357262
2291.000000	8.437138
2292.000000	8.568093
2293.000000	8.204292
2294.000000	8.249486
2295.000000	8.405087
2296.000000	8.176861
2297.000000	8.284096
2298.000000	8.320780
2299.000000	8.436447
2300.000000	8.566138
2301.000000	8.544796
2302.000000	8.461077
2303.000000	8.315268
2304.000000	8.458248
2305.000000	8.457363
2306.000000	8.440100
2307.000000	8.414374
2308.000000	8.418352
2309.000000	8.425791
2310.000000	8.386485
2311.000000	8.600892
2312.000000	8.718446
2313.000000	8.769034
2314.000000	8.848108
2315.000000	8.845175
2316.000000	8.938160
2317.000000	8.864623
2318.000000	8.718607
2319.000000	8.892768
2320.000000	9.000052
2321.000000	8.902283
2322.000000	8.739281
2323.000000	8.680363
2324.000000	8.844034
2325.000000	8.862893
2326.000000	8.973196
2327.000000	8.921627
2328.000000	8.796067
2329.000000	8.812186
2330.000000	8.800759
2331.000000	8.928901
2332.000000	9.023153
2333.000000	9.016407
2334.000000	9.166463
2335.000000	9.194561
2336.000000	9.125463
2337.000000	9.004234
2338.000000	8.829806
2339.000000	9.091127
2340.000000	9.259054
2341.000000	9.203241
2342.000000	9.171839
2343.000000	9.385140
2344.000000	9.565621
2345.000000	9.472238
2346.000000	9.495417
2347.000000	9.412951
2348.000000	9.633104
2349.000000	9.808306
2350.000000	9.591325
2351.000000	9.277813
2352.000000	9.371904
2353.000000	9.411181
2354.000000	9.521668
2355.000000	9.608275
2356.000000	9.417795
2357.000000	9.526787
2358.000000	9.685662
2359.000000	9.795217
2360.000000	9.708861
2361.000000	9.496348
2362.000000	9.852963
2363.000000	10.115721
2364.000000	10.092425
2365.000000	9.903409
2366.000000	9.915954
2367.000000	10.041756
2368.000000	9.907153
2369.000000	9.887713
2370.000000	9.774963
2371.000000	9.753081
2372.000000	9.928531
2373.000000	10.228168
2374.000000	10.089445
2375.000000	9.998630
2376.000000	10.238094
2377.000000	10.378360
2378.000000	10.485221
2379.000000	10.173396
2380.000000	10.051934
2381.000000	10.150967
2382.000000	10.623597
2383.000000	10.545203
2384.000000	10.221317
2385.000000	10.083889
2386.000000	10.264153
2387.000000	10.350283
2388.000000	10.403914
2389.000000	10.353011
2390.000000	10.358833
2391.000000	10.449843
2392.000000	10.299568
2393.000000	10.087292
2394.000000	10.395666
2395.000000	10.614906
2396.000000	10.676275
2397.000000	10.287039
2398.000000	10.160898
2399.000000	10.255156
2400.000000	10.476806
2401.000000	10.592937
2402.000000	10.578911
2403.000000	10.459432
2404.000000	10.558161
2405.000000	10.740045
2406.000000	10.917920
2407.000000	10.902253
2408.000000	10.944107
2409.000000	11.280100
2410.000000	10.887974
2411.000000	10.784088
2412.000000	10.672823
2413.000000	10.907718
2414.000000	11.106319
2415.000000	10.705001
2416.000000	10.344886
2417.000000	10.924724
2418.000000	11.106699
2419.000000	11.350977
2420.000000	11.064477
2421.000000	10.337068
2422.000000	10.562985
2423.000000	10.678878
2424.000000	11.124477
2425.000000	10.802574
2426.000000	10.108172
2427.000000	10.562209
2428.000000	10.790456
2429.000000	10.629869
2430.000000	10.624978
2431.000000	10.529738
2432.000000	10.624558
2433.000000	10.868716
2434.000000	10.835749
2435.000000	10.262326
2436.000000	10.793020
2437.000000	11.227405
2438.000000	11.185509
2439.000000	10.463821
2440.000000	10.267227
2441.000000	11.245632
2442.000000	10.966471
2443.000000	10.721122
2444.000000	10.999743
2445.000000	11.250255
2446.000000	11.671282
2447.000000	11.568079
2448.000000	11.171099
2449.000000	11.143792
2450.000000	11.803655
2451.000000	11.643967
2452.000000	11.307794
2453.000000	11.704980
2454.000000	11.825321
2455.000000	12.285162
2456.000000	11.568973
2457.000000	11.506132
2458.000000	11.653700
2459.000000	11.656339
2460.000000	12.678588
2461.000000	11.788420
2462.000000	12.627806
2463.000000	12.648802
2464.000000	13.037363
2465.000000	12.255555
2466.000000	12.985884
2467.000000	13.987662
2468.000000	13.569897
2469.000000	12.906120
2470.000000	12.059630
2471.000000	13.474963
2472.000000	15.309423
2473.000000	15.355180
2474.000000	14.385101
2475.000000	14.591815
2476.000000	15.955124
2477.000000	15.636440
2478.000000	16.847462
2479.000000	15.522495
2480.000000	15.215069
2481.000000	17.326456
2482.000000	16.631920
2483.000000	15.492407
2484.000000	16.600146
2485.000000	17.164552
2486.000000	18.732639
2487.000000	17.827527
2488.000000	17.161152
2489.000000	18.769676
2490.000000	20.343609
2491.000000	19.644465
2492.000000	19.210378
2493.000000	19.862411
2494.000000	21.638880
2495.000000	21.699633
2496.000000	19.959862
2497.000000	21.027819
2498.000000	22.006656
2499.000000	21.220127
2500.000000	22.966527
2501.000000	nan
2502.000000	nan
2503.000000	nan
2504.000000	nan
2505.000000	nan
2506.000000	nan
2507.000000	nan
2508.000000	nan
2509.000000	nan
2510.000000	nan
2511.000000	nan
2512.000000	nan
2513.000000	nan
2514.000000	nan
2515.000000	nan
2516.000000	nan
2517.000000	nan
2518.000000	nan
2519.000000	nan
2520.000000	nan
2521.000000	nan
2522.000000	nan
2523.000000	nan
2524.000000	nan
2525.000000	nan
2526.000000	nan
2527.000000	nan
2528.000000	nan
2529.000000	nan
2530.000000	nan
2531.000000	nan
2532.000000	nan
2533.000000	nan
2534.000000	nan
2535.000000	nan
2536.000000	nan
2537.000000	nan
2538.000000	nan
2539.000000	nan
2540.000000	nan
2541.000000	nan
2542.000000	nan
2543.000000	nan
2544.000000	nan
2545.000000	nan
2546.000000	nan
2547.000000	nan
2548.000000	nan
2549.000000	nan
2550.000000	nan
2551.000000	nan
2552.000000	nan
2553.000000	nan
2554.000000	nan
2555.000000	nan
2556.000000	nan
2557.000000	nan
2558.000000	nan
2559.000000	nan
2560.000000	nan
2561.000000	nan
2562.000000	nan
2563.000000	nan
2564.000000	nan
2565.000000	nan
2566.000000	nan
2567.000000	nan
2568.000000	nan
2569.000000	nan
2570.000000	nan
2571.000000	nan
2572.000000	nan
2573.000000	nan
2574.000000	nan
2575.000000	nan
2576.000000	nan
2577.000000	nan
2578.000000	nan
2579.000000	nan
2580.000000	nan
2581.000000	nan
2582.000000	nan
2583.000000	nan
2584.000000	nan
2585.000000	nan
2586.000000	nan
2587.000000	nan
2588.000000	nan
2589.000000	nan
2590.000000	nan
2591.000000	nan
2592.000000	nan
2593.000000	nan
2594.000000	nan
2595.000000	nan
2596.000000	nan
2597.000000	nan
2598.000000	nan
2599.000000	nan
2600.000000	nan
2601.000000	nan
2602.000000	nan
2603.000000	nan
2604.000000	nan
2605.000000	nan
2606.000000	nan
2607.000000	nan
2608.000000	nan
2609.000000	nan
2610.000000	nan
2611.000000	nan
2612.000000	nan
2613.000000	nan
2614.000000	nan
2615.000000	nan
2616.000000	nan
2617.000000	nan
2618.000000	nan
2619.000000	nan
2620.000000	nan
2621.000000	nan
2622.000000	nan
2623.000000	nan
2624.000000	nan
2625.000000	nan
2626.000000	nan
2627.000000	nan
2628.000000	nan
2629.000000	nan
2630.000000	nan
2631.000000	nan
2632.000000	nan
2633.000000	nan
2634.000000	nan
2635.000000	nan
2636.000000	nan
2637.000000	nan
2638.000000	nan
2639.000000	nan
2640.000000	nan
2641.000000	nan
2642.000000	nan
2643.000000	nan
2644.000000	nan
2645.000000	nan
2646.000000	nan
2647.000000	nan
2648.000000	nan
2649.000000	nan
2650.000000	nan
2651.000000	nan
2652.000000	nan
2653.000000	nan
2654.000000	nan
2655.000000	nan
2656.000000	nan
2657.000000	nan
2658.000000	nan
2659.000000	nan
2660.000000	nan
2661.000000	nan
2662.000000	nan
2663.000000	nan
2664.000000	nan
2665.000000	nan
2666.000000	nan
2667.000000	nan
2668.000000	nan
2669.000000	nan
2670.000000	nan
2671.000000	nan
2672.000000	nan
2673.000000	nan
2674.000000	nan
2675.000000	nan
2676.000000	nan
2677.000000	nan
2678.000000	nan
2679.000000	nan
2680.000000	nan
2681.000000	nan
2682.000000	nan
2683.000000	nan
2684.000000	nan
2685.000000	nan
2686.000000	nan
2687.000000	nan
2688.000000	nan
2689.000000	nan
2690.000000	nan
2691.000000	nan
2692.000000	nan
2693.000000	nan
2694.000000	nan
2695.000000	nan
2696.000000	nan
2697.000000	nan
2698.000000	nan
2699.000000	nan
2700.000000	nan
2701.000000	nan
2702.000000	nan
2703.000000	nan
2704.000000	nan
2705.000000	nan
2706.000000	nan
2707.000000	nan
2708.000000	nan
2709.000000	nan
2710.000000	nan
2711.000000	nan
2712.000000	nan
2713.000000	nan
2714.000000	nan
2715.000000	nan
2716.000000	nan
2717.000000	nan
2718.000000	nan
2719.000000	nan
2720.000000	nan
2721.000000	nan
2722.000000	nan
2723.000000	nan
2724.000000	nan
2725.000000	nan
2726.000000	nan
2727.000000	nan
2728.000000	nan
2729.000000	nan
2730.000000	nan
2731.000000	nan
2732.000000	nan
2733.000000	nan
2734.000000	nan
2735.000000	nan
2736.000000	nan
2737.000000	nan
2738.000000	nan
2739.000000	nan
2740.000000	nan
2741.000000	nan
2742.000000	nan
2743.000000	nan
2744.000000	nan
2745.000000	nan
2746.000000	nan
2747.000000	nan
2748.000000	nan
2749.000000	nan
2750.000000	nan
2751.000000	nan
2752.000000	nan
2753.000000	nan
2754.000000	nan
2755.000000	nan
2756.000000	nan
2757.000000	nan
2758.000000	nan
2759.000000	nan
2760.000000	nan
2761.000000	nan
2762.000000	nan
2763.000000	nan
2764.000000	nan
2765.000000	nan
2766.000000	nan
2767.000000	nan
2768.000000	nan
2769.000000	nan
2770.000000	nan
2771.000000	nan
2772.000000	nan
2773.000000	nan
2774.000000	nan
2775.000000	nan
2776.000000	nan
2777.000000	nan
2778.000000	nan
2779.000000	nan
2780.000000	nan
2781.000000	nan
2782.000000	nan
2783.000000	nan
2784.000000	nan
2785.000000	nan
2786.000000	nan
2787.000000	nan
2788.000000	nan
2789.000000	nan
2790.000000	nan
2791.000000	nan
2792.000000	nan
2793.000000	nan
2794.000000	nan
2795.000000	nan
2796.000000	nan
2797.000000	nan
2798.000000	nan
2799.000000	nan
2800.000000	nan
2801.000000	nan
2802.000000	nan
2803.000000	nan
2804.000000	nan
2805.000000	nan
2806.000000	nan
2807.000000	nan
2808.000000	nan
2809.000000	nan
2810.000000	nan
2811.000000	nan
2812.000000	nan
2813.000000	nan
2814.000000	nan
2815.000000	nan
2816.000000	nan
2817.000000	nan
2818.000000	nan
2819.000000	nan
2820.000000	nan
2821.000000	nan
2822.000000	nan
2823.000000	nan
2824.000000	nan
2825.000000	nan
2826.000000	nan
2827.000000	nan
2828.000000	nan
2829.000000	nan
2830.000000	nan
2831.000000	nan
2832.000000	nan
2833.000000	nan
2834.000000	nan
2835.000000	nan
2836.000000	nan
2837.000000	nan
2838.000000	nan
2839.000000	nan
2840.000000	nan
2841.000000	nan
2842.000000	nan
2843.000000	nan
2844.000000	nan
2845.000000	nan
2846.000000	nan
2847.000000	nan
2848.000000	nan
2849.000000	nan
2850.000000	nan
2851.000000	nan
2852.000000	nan
2853.000000	nan
2854.000000	nan
2855.000000	nan
2856.000000	nan
2857.000000	nan
2858.000000	nan
2859.000000	nan
2860.000000	nan
2861.000000	nan
2862.000000	nan
2863.000000	nan
2864.000000	nan
2865.000000	nan
2866.000000	nan
2867.000000	nan
2868.000000	nan
2869.000000	nan
2870.000000	nan
2871.000000	nan
2872.000000	nan
2873.000000	nan
2874.000000	nan
2875.000000	nan
2876.000000	nan
2877.000000	nan
2878.000000	nan
2879.000000	nan
2880.000000	nan
2881.000000	nan
2882.000000	nan
2883.000000	nan
2884.000000	nan
2885.000000	nan
2886.000000	nan
2887.000000	nan
2888.000000	nan
2889.000000	nan
2890.000000	nan
2891.000000	nan
2892.000000	nan
2893.000000	nan
2894.000000	nan
2895.000000	nan
2896.000000	nan
2897.000000	nan
2898.000000	nan
2899.000000	nan
2900.000000	nan
2901.000000	nan
2902.000000	nan
2903.000000	nan
2904.000000	nan
2905.000000	nan
2906.000000	nan
2907.000000	nan
2908.000000	nan
2909.000000	nan
2910.000000	nan
2911.000000	nan
2912.000000	nan
2913.000000	nan
2914.000000	nan
2915.000000	nan
2916.000000	nan
2917.000000	nan
2918.000000	nan
2919.000000	nan
2920.000000	nan
2921.000000	nan
2922.000000	nan
2923.000000	nan
2924.000000	nan
2925.000000	nan
2926.000000	nan
2927.000000	nan
2928.000000	nan
2929.000000	nan
2930.000000	nan
2931.000000	nan
2932.000000	nan
2933.000000	nan
2934.000000	nan
2935.000000	nan
2936.000000	nan
2937.000000	nan
2938.000000	nan
2939.000000	nan
2940.000000	nan
2941.000000	nan
2942.000000	nan
2943.000000	nan
2944.000000	nan
2945.000000	nan
2946.000000	nan
2947.000000	nan
2948.000000	nan
2949.000000	nan
2950.000000	nan
2951.000000	nan
2952.000000	nan
2953.000000	nan
2954.000000	nan
2955.000000	nan
2956.000000	nan
2957.000000	nan
2958.000000	nan
2959.000000	nan
2960.000000	nan
2961.000000	nan
2962.000000	nan
2963.000000	nan
2964.000000	nan
2965.000000	nan
2966.000000	nan
2967.000000	nan
2968.000000	nan
2969.000000	nan
2970.000000	nan
2971.000000	nan
2972.000000	nan
2973.000000	nan
2974.000000	nan
2975.000000	nan
2976.000000	nan
2977.000000	nan
2978.000000	nan
2979.000000	nan
2980.000000	nan
2981.000000	nan
2982.000000	nan
2983.000000	nan
2984.000000	nan
2985.000000	nan
2986.000000	nan
2987.000000	nan
2988.000000	nan
2989.000000	nan
2990.000000	nan
2991.000000	nan
2992.000000	nan
2993.000000	nan
2994.000000	nan
2995.000000	nan
2996.000000	nan
2997.000000	nan
2998.000000	nan
2999.000000	nan
3000.000000	nan
