PE UV       SUBTECH     SPECTRUM    ASCII       PEDS        4.00        
   -1
INBUCR0145-2.Sample.ASC
24/04/29
15:04:26.00
24/04/29
15:04:26.00
Vinicio Soto Monge
C. kalinini
250,000000
1
Lambda 1050
1050L1511233
PerkinElmer UV WinLab 6.3.2.0749 / 2.02.05 Lambda 900 UV/VIS/NIR, Aug  7 2015 09:38:08

0
0
3350/servo 860,8/2
0
0
UV/VIS
1
1
1
DoubleDePol,CommonBeamDepol,RBeamAtt,SBeamAtt,60mm sphere, WB InGaAs Detector
0
0
0
0
Program
Program
3350/servo 860,8/2
3350/0,2 860,8/0,2
3350/0,2 860,8/0,2
0
15.00
 
 
 
0
 
860,8
319,2
860,8
Front
100
on
S:100 R:100
0
0
0
0
 
0
 
 
 
0
 
 
0
0
0
0
0
 
 
 
 
0
0


0
0
#HDR
-1
-1
#GR
nm
%R
1.0
0.0
2500,000000
-1,000000
2251
8
86,290300
5,575000
#DATA
2500,000000	12,521600
2499,000000	12,576000
2498,000000	12,431300
2497,000000	12,513500
2496,000000	12,449400
2495,000000	12,411400
2494,000000	12,396000
2493,000000	12,380800
2492,000000	12,358300
2491,000000	12,244200
2490,000000	12,422900
2489,000000	12,347800
2488,000000	12,347700
2487,000000	12,339400
2486,000000	12,309100
2485,000000	12,327400
2484,000000	12,367300
2483,000000	12,361200
2482,000000	12,404400
2481,000000	12,409200
2480,000000	12,425800
2479,000000	12,426800
2478,000000	12,419600
2477,000000	12,519100
2476,000000	12,539400
2475,000000	12,523300
2474,000000	12,545500
2473,000000	12,563800
2472,000000	12,566300
2471,000000	12,655500
2470,000000	12,687800
2469,000000	12,739500
2468,000000	12,814100
2467,000000	12,791700
2466,000000	12,873500
2465,000000	12,958300
2464,000000	13,010800
2463,000000	12,990200
2462,000000	13,074900
2461,000000	13,171700
2460,000000	13,235200
2459,000000	13,295600
2458,000000	13,329900
2457,000000	13,432700
2456,000000	13,452300
2455,000000	13,557400
2454,000000	13,657700
2453,000000	13,731600
2452,000000	13,823800
2451,000000	13,889700
2450,000000	13,974300
2449,000000	14,077500
2448,000000	14,162200
2447,000000	14,257100
2446,000000	14,355000
2445,000000	14,442000
2444,000000	14,543600
2443,000000	14,617200
2442,000000	14,724000
2441,000000	14,836400
2440,000000	14,927300
2439,000000	15,022000
2438,000000	15,117100
2437,000000	15,204800
2436,000000	15,296500
2435,000000	15,386900
2434,000000	15,496800
2433,000000	15,573800
2432,000000	15,664900
2431,000000	15,757700
2430,000000	15,852900
2429,000000	15,930300
2428,000000	16,025400
2427,000000	16,106600
2426,000000	16,182700
2425,000000	16,268200
2424,000000	16,328400
2423,000000	16,399700
2422,000000	16,484400
2421,000000	16,549700
2420,000000	16,619000
2419,000000	16,689200
2418,000000	16,724100
2417,000000	16,760800
2416,000000	16,813700
2415,000000	16,859800
2414,000000	16,924600
2413,000000	16,981700
2412,000000	17,018400
2411,000000	17,054100
2410,000000	17,092200
2409,000000	17,127000
2408,000000	17,146100
2407,000000	17,177600
2406,000000	17,215100
2405,000000	17,239700
2404,000000	17,287700
2403,000000	17,317600
2402,000000	17,335600
2401,000000	17,378900
2400,000000	17,433300
2399,000000	17,504200
2398,000000	17,564600
2397,000000	17,594800
2396,000000	17,616700
2395,000000	17,622500
2394,000000	17,627200
2393,000000	17,638400
2392,000000	17,670100
2391,000000	17,731900
2390,000000	17,748400
2389,000000	17,749000
2388,000000	17,762700
2387,000000	17,779000
2386,000000	17,792200
2385,000000	17,798700
2384,000000	17,799300
2383,000000	17,805100
2382,000000	17,810100
2381,000000	17,807600
2380,000000	17,812500
2379,000000	17,796100
2378,000000	17,788300
2377,000000	17,787800
2376,000000	17,781000
2375,000000	17,777100
2374,000000	17,775000
2373,000000	17,757700
2372,000000	17,752300
2371,000000	17,752100
2370,000000	17,736300
2369,000000	17,729600
2368,000000	17,734900
2367,000000	17,756600
2366,000000	17,756900
2365,000000	17,749200
2364,000000	17,748300
2363,000000	17,728500
2362,000000	17,739400
2361,000000	17,744000
2360,000000	17,725700
2359,000000	17,727000
2358,000000	17,734100
2357,000000	17,733400
2356,000000	17,744900
2355,000000	17,734800
2354,000000	17,708000
2353,000000	17,689300
2352,000000	17,675200
2351,000000	17,659700
2350,000000	17,684600
2349,000000	17,684000
2348,000000	17,650700
2347,000000	17,641700
2346,000000	17,635600
2345,000000	17,625200
2344,000000	17,636000
2343,000000	17,619600
2342,000000	17,609900
2341,000000	17,618100
2340,000000	17,615700
2339,000000	17,616100
2338,000000	17,627400
2337,000000	17,634200
2336,000000	17,631000
2335,000000	17,642800
2334,000000	17,665300
2333,000000	17,673300
2332,000000	17,687600
2331,000000	17,700100
2330,000000	17,727300
2329,000000	17,765100
2328,000000	17,772100
2327,000000	17,787900
2326,000000	17,833700
2325,000000	17,882500
2324,000000	17,889600
2323,000000	17,922400
2322,000000	17,939900
2321,000000	17,953100
2320,000000	17,966000
2319,000000	17,987700
2318,000000	17,996600
2317,000000	17,982200
2316,000000	17,981200
2315,000000	17,978100
2314,000000	17,955900
2313,000000	17,959900
2312,000000	17,955200
2311,000000	17,916000
2310,000000	17,915300
2309,000000	17,882400
2308,000000	17,848700
2307,000000	17,824900
2306,000000	17,818800
2305,000000	17,803300
2304,000000	17,782300
2303,000000	17,769200
2302,000000	17,756000
2301,000000	17,738800
2300,000000	17,746300
2299,000000	17,752400
2298,000000	17,746100
2297,000000	17,760300
2296,000000	17,762100
2295,000000	17,761000
2294,000000	17,778800
2293,000000	17,818800
2292,000000	17,821100
2291,000000	17,830900
2290,000000	17,874200
2289,000000	17,891300
2288,000000	17,923000
2287,000000	17,968300
2286,000000	18,001800
2285,000000	18,030900
2284,000000	18,076000
2283,000000	18,115000
2282,000000	18,154300
2281,000000	18,189000
2280,000000	18,223300
2279,000000	18,280100
2278,000000	18,307500
2277,000000	18,322700
2276,000000	18,352200
2275,000000	18,392800
2274,000000	18,433300
2273,000000	18,452200
2272,000000	18,493300
2271,000000	18,564100
2270,000000	18,580700
2269,000000	18,601100
2268,000000	18,670700
2267,000000	18,723300
2266,000000	18,783300
2265,000000	18,845400
2264,000000	18,907900
2263,000000	19,000200
2262,000000	19,088300
2261,000000	19,180500
2260,000000	19,288900
2259,000000	19,392800
2258,000000	19,551100
2257,000000	19,651600
2256,000000	19,784400
2255,000000	19,908800
2254,000000	20,054500
2253,000000	20,221500
2252,000000	20,362500
2251,000000	20,501300
2250,000000	20,622000
2249,000000	20,781500
2248,000000	20,901500
2247,000000	21,031400
2246,000000	21,136700
2245,000000	21,246900
2244,000000	21,371600
2243,000000	21,471700
2242,000000	21,545000
2241,000000	21,620500
2240,000000	21,674900
2239,000000	21,753500
2238,000000	21,787300
2237,000000	21,854900
2236,000000	21,878500
2235,000000	21,896000
2234,000000	21,966200
2233,000000	21,945600
2232,000000	21,956700
2231,000000	21,931600
2230,000000	21,924400
2229,000000	21,901700
2228,000000	21,881700
2227,000000	21,835100
2226,000000	21,816000
2225,000000	21,778700
2224,000000	21,724400
2223,000000	21,671800
2222,000000	21,607000
2221,000000	21,546100
2220,000000	21,480700
2219,000000	21,421100
2218,000000	21,361900
2217,000000	21,287900
2216,000000	21,226500
2215,000000	21,170500
2214,000000	21,090800
2213,000000	21,043200
2212,000000	20,990900
2211,000000	20,898100
2210,000000	20,867300
2209,000000	20,807200
2208,000000	20,783500
2207,000000	20,709200
2206,000000	20,654200
2205,000000	20,625900
2204,000000	20,580700
2203,000000	20,558600
2202,000000	20,527800
2201,000000	20,484500
2200,000000	20,445800
2199,000000	20,429800
2198,000000	20,388400
2197,000000	20,360800
2196,000000	20,329600
2195,000000	20,314700
2194,000000	20,295200
2193,000000	20,299800
2192,000000	20,283400
2191,000000	20,267300
2190,000000	20,230000
2189,000000	20,224000
2188,000000	20,203600
2187,000000	20,196900
2186,000000	20,166400
2185,000000	20,139300
2184,000000	20,143100
2183,000000	20,129400
2182,000000	20,094400
2181,000000	20,073300
2180,000000	20,075700
2179,000000	20,036800
2178,000000	20,033300
2177,000000	20,047700
2176,000000	20,032100
2175,000000	20,047800
2174,000000	20,056700
2173,000000	20,029600
2172,000000	20,030900
2171,000000	20,062000
2170,000000	20,085800
2169,000000	20,104600
2168,000000	20,127000
2167,000000	20,148300
2166,000000	20,185900
2165,000000	20,218900
2164,000000	20,267000
2163,000000	20,307600
2162,000000	20,370700
2161,000000	20,426400
2160,000000	20,469700
2159,000000	20,552200
2158,000000	20,614400
2157,000000	20,700700
2156,000000	20,775800
2155,000000	20,857000
2154,000000	20,938600
2153,000000	21,041400
2152,000000	21,132500
2151,000000	21,224100
2150,000000	21,340600
2149,000000	21,445100
2148,000000	21,541900
2147,000000	21,659500
2146,000000	21,741100
2145,000000	21,833500
2144,000000	21,938700
2143,000000	22,031100
2142,000000	22,118000
2141,000000	22,214600
2140,000000	22,312300
2139,000000	22,414000
2138,000000	22,506700
2137,000000	22,604800
2136,000000	22,693500
2135,000000	22,757000
2134,000000	22,841800
2133,000000	22,939900
2132,000000	22,991600
2131,000000	23,067800
2130,000000	23,149200
2129,000000	23,210100
2128,000000	23,263300
2127,000000	23,332300
2126,000000	23,387100
2125,000000	23,435600
2124,000000	23,494100
2123,000000	23,515800
2122,000000	23,547400
2121,000000	23,589300
2120,000000	23,650000
2119,000000	23,688000
2118,000000	23,692200
2117,000000	23,708200
2116,000000	23,738800
2115,000000	23,777500
2114,000000	23,798100
2113,000000	23,800300
2112,000000	23,811000
2111,000000	23,825600
2110,000000	23,837100
2109,000000	23,853600
2108,000000	23,856700
2107,000000	23,838900
2106,000000	23,838700
2105,000000	23,865700
2104,000000	23,880300
2103,000000	23,873400
2102,000000	23,861100
2101,000000	23,865800
2100,000000	23,863900
2099,000000	23,867400
2098,000000	23,879200
2097,000000	23,892400
2096,000000	23,919800
2095,000000	23,929200
2094,000000	23,921500
2093,000000	23,941400
2092,000000	23,974200
2091,000000	23,985500
2090,000000	23,991400
2089,000000	24,008000
2088,000000	24,029600
2087,000000	24,048600
2086,000000	24,036600
2085,000000	24,024700
2084,000000	24,020700
2083,000000	24,010300
2082,000000	23,996600
2081,000000	23,975400
2080,000000	23,929500
2079,000000	23,885900
2078,000000	23,837400
2077,000000	23,786500
2076,000000	23,734800
2075,000000	23,672600
2074,000000	23,599500
2073,000000	23,511900
2072,000000	23,433900
2071,000000	23,342800
2070,000000	23,259100
2069,000000	23,166800
2068,000000	23,065100
2067,000000	22,950100
2066,000000	22,843700
2065,000000	22,747500
2064,000000	22,643900
2063,000000	22,537400
2062,000000	22,442800
2061,000000	22,367000
2060,000000	22,280700
2059,000000	22,211900
2058,000000	22,140800
2057,000000	22,082700
2056,000000	22,053400
2055,000000	22,038700
2054,000000	22,032100
2053,000000	22,050800
2052,000000	22,074900
2051,000000	22,134000
2050,000000	22,211600
2049,000000	22,294100
2048,000000	22,407300
2047,000000	22,524800
2046,000000	22,643600
2045,000000	22,797900
2044,000000	22,915200
2043,000000	23,061100
2042,000000	23,218700
2041,000000	23,358500
2040,000000	23,512000
2039,000000	23,626500
2038,000000	23,756900
2037,000000	23,917200
2036,000000	24,035600
2035,000000	24,142800
2034,000000	24,258900
2033,000000	24,379600
2032,000000	24,508600
2031,000000	24,594000
2030,000000	24,686900
2029,000000	24,787000
2028,000000	24,851000
2027,000000	24,957800
2026,000000	25,025300
2025,000000	25,098900
2024,000000	25,162200
2023,000000	25,220500
2022,000000	25,302800
2021,000000	25,352600
2020,000000	25,399400
2019,000000	25,442200
2018,000000	25,489100
2017,000000	25,511900
2016,000000	25,550900
2015,000000	25,566500
2014,000000	25,592700
2013,000000	25,612600
2012,000000	25,593000
2011,000000	25,605300
2010,000000	25,609100
2009,000000	25,609500
2008,000000	25,606100
2007,000000	25,577200
2006,000000	25,550000
2005,000000	25,533600
2004,000000	25,495000
2003,000000	25,449100
2002,000000	25,404400
2001,000000	25,362000
2000,000000	25,304900
1999,000000	25,242200
1998,000000	25,165000
1997,000000	25,119000
1996,000000	25,059700
1995,000000	24,988500
1994,000000	24,924200
1993,000000	24,834600
1992,000000	24,766500
1991,000000	24,690900
1990,000000	24,616300
1989,000000	24,522100
1988,000000	24,428100
1987,000000	24,350200
1986,000000	24,250500
1985,000000	24,162400
1984,000000	24,085300
1983,000000	23,982500
1982,000000	23,885900
1981,000000	23,811500
1980,000000	23,709800
1979,000000	23,623500
1978,000000	23,524000
1977,000000	23,445200
1976,000000	23,368900
1975,000000	23,294000
1974,000000	23,175900
1973,000000	23,108200
1972,000000	23,029900
1971,000000	22,935400
1970,000000	22,855500
1969,000000	22,779500
1968,000000	22,711500
1967,000000	22,630800
1966,000000	22,520700
1965,000000	22,465200
1964,000000	22,393700
1963,000000	22,302700
1962,000000	22,200700
1961,000000	22,121300
1960,000000	22,040200
1959,000000	21,956000
1958,000000	21,876100
1957,000000	21,795500
1956,000000	21,701200
1955,000000	21,604800
1954,000000	21,523600
1953,000000	21,425900
1952,000000	21,363400
1951,000000	21,267100
1950,000000	21,213100
1949,000000	21,145200
1948,000000	21,062600
1947,000000	20,993900
1946,000000	20,922400
1945,000000	20,881800
1944,000000	20,804700
1943,000000	20,779000
1942,000000	20,753900
1941,000000	20,733100
1940,000000	20,676200
1939,000000	20,676600
1938,000000	20,647200
1937,000000	20,637600
1936,000000	20,638700
1935,000000	20,655400
1934,000000	20,667900
1933,000000	20,710800
1932,000000	20,772800
1931,000000	20,844300
1930,000000	20,877900
1929,000000	20,950700
1928,000000	21,039800
1927,000000	21,114700
1926,000000	21,238400
1925,000000	21,348200
1924,000000	21,480600
1923,000000	21,624800
1922,000000	21,779500
1921,000000	21,941800
1920,000000	22,132500
1919,000000	22,314200
1918,000000	22,532800
1917,000000	22,749500
1916,000000	22,977100
1915,000000	23,215700
1914,000000	23,500400
1913,000000	23,799900
1912,000000	24,104400
1911,000000	24,391500
1910,000000	24,718200
1909,000000	25,035300
1908,000000	25,390900
1907,000000	25,773000
1906,000000	26,216900
1905,000000	26,669400
1904,000000	27,114600
1903,000000	27,553800
1902,000000	27,997400
1901,000000	28,498100
1900,000000	29,014600
1899,000000	29,553500
1898,000000	30,063200
1897,000000	30,559000
1896,000000	31,038200
1895,000000	31,523200
1894,000000	32,015000
1893,000000	32,524400
1892,000000	33,072200
1891,000000	33,618400
1890,000000	34,091700
1889,000000	34,530000
1888,000000	35,004500
1887,000000	35,439000
1886,000000	35,871000
1885,000000	36,264300
1884,000000	36,671000
1883,000000	37,012200
1882,000000	37,354100
1881,000000	37,687600
1880,000000	37,989800
1879,000000	38,290100
1878,000000	38,584600
1877,000000	38,837600
1876,000000	39,089700
1875,000000	39,332700
1874,000000	39,563600
1873,000000	39,764300
1872,000000	39,940400
1871,000000	40,091100
1870,000000	40,216500
1869,000000	40,339400
1868,000000	40,420900
1867,000000	40,503200
1866,000000	40,594700
1865,000000	40,685300
1864,000000	40,780700
1863,000000	40,876700
1862,000000	40,972200
1861,000000	41,053600
1860,000000	41,135200
1859,000000	41,190600
1858,000000	41,244400
1857,000000	41,282900
1856,000000	41,319400
1855,000000	41,360000
1854,000000	41,371200
1853,000000	41,371800
1852,000000	41,409700
1851,000000	41,474400
1850,000000	41,527700
1849,000000	41,543300
1848,000000	41,529000
1847,000000	41,449000
1846,000000	41,392900
1845,000000	41,415600
1844,000000	41,445000
1843,000000	41,482900
1842,000000	41,489000
1841,000000	41,451700
1840,000000	41,413800
1839,000000	41,387000
1838,000000	41,346000
1837,000000	41,294600
1836,000000	41,252900
1835,000000	41,191000
1834,000000	41,154100
1833,000000	41,139000
1832,000000	41,124000
1831,000000	41,101300
1830,000000	41,079700
1829,000000	41,051000
1828,000000	40,998500
1827,000000	40,964400
1826,000000	40,939100
1825,000000	40,925500
1824,000000	40,942600
1823,000000	41,005600
1822,000000	41,035600
1821,000000	41,005000
1820,000000	40,973800
1819,000000	40,925700
1818,000000	40,913400
1817,000000	40,936400
1816,000000	40,931300
1815,000000	40,916400
1814,000000	40,922500
1813,000000	40,907400
1812,000000	40,888700
1811,000000	40,855000
1810,000000	40,825400
1809,000000	40,808500
1808,000000	40,790500
1807,000000	40,775100
1806,000000	40,750900
1805,000000	40,723000
1804,000000	40,708600
1803,000000	40,709500
1802,000000	40,688300
1801,000000	40,658800
1800,000000	40,630900
1799,000000	40,603300
1798,000000	40,588500
1797,000000	40,566900
1796,000000	40,555200
1795,000000	40,542000
1794,000000	40,532400
1793,000000	40,511000
1792,000000	40,506100
1791,000000	40,496400
1790,000000	40,479900
1789,000000	40,485400
1788,000000	40,507000
1787,000000	40,502500
1786,000000	40,501800
1785,000000	40,501800
1784,000000	40,501700
1783,000000	40,489600
1782,000000	40,485000
1781,000000	40,476200
1780,000000	40,458800
1779,000000	40,432000
1778,000000	40,419500
1777,000000	40,387900
1776,000000	40,343000
1775,000000	40,314000
1774,000000	40,278500
1773,000000	40,242800
1772,000000	40,205400
1771,000000	40,173500
1770,000000	40,140800
1769,000000	40,094100
1768,000000	40,068900
1767,000000	40,026700
1766,000000	40,000800
1765,000000	39,973900
1764,000000	39,933200
1763,000000	39,933200
1762,000000	39,913200
1761,000000	39,906700
1760,000000	39,912500
1759,000000	39,904100
1758,000000	39,907600
1757,000000	39,888000
1756,000000	39,884200
1755,000000	39,883400
1754,000000	39,876700
1753,000000	39,876200
1752,000000	39,854600
1751,000000	39,821900
1750,000000	39,808200
1749,000000	39,769900
1748,000000	39,707100
1747,000000	39,691400
1746,000000	39,622300
1745,000000	39,559100
1744,000000	39,496500
1743,000000	39,441900
1742,000000	39,390700
1741,000000	39,319800
1740,000000	39,244100
1739,000000	39,176300
1738,000000	39,129800
1737,000000	39,083600
1736,000000	39,030800
1735,000000	38,990600
1734,000000	38,961500
1733,000000	38,925900
1732,000000	38,890800
1731,000000	38,854800
1730,000000	38,808600
1729,000000	38,795100
1728,000000	38,761000
1727,000000	38,738900
1726,000000	38,710200
1725,000000	38,712200
1724,000000	38,724400
1723,000000	38,757100
1722,000000	38,837200
1721,000000	38,954600
1720,000000	39,104100
1719,000000	39,296400
1718,000000	39,483900
1717,000000	39,671900
1716,000000	39,864800
1715,000000	40,064100
1714,000000	40,231400
1713,000000	40,380000
1712,000000	40,537200
1711,000000	40,643100
1710,000000	40,762800
1709,000000	40,861800
1708,000000	40,943900
1707,000000	41,042900
1706,000000	41,089000
1705,000000	41,142900
1704,000000	41,185700
1703,000000	41,228000
1702,000000	41,232000
1701,000000	41,256000
1700,000000	41,295200
1699,000000	41,289400
1698,000000	41,287100
1697,000000	41,289400
1696,000000	41,264300
1695,000000	41,234000
1694,000000	41,202100
1693,000000	41,150300
1692,000000	41,087000
1691,000000	41,017100
1690,000000	41,018600
1689,000000	41,024200
1688,000000	41,082500
1687,000000	41,150400
1686,000000	41,269000
1685,000000	41,406000
1684,000000	41,575200
1683,000000	41,761000
1682,000000	41,958500
1681,000000	42,181600
1680,000000	42,349000
1679,000000	42,544800
1678,000000	42,708800
1677,000000	42,875900
1676,000000	43,030100
1675,000000	43,179700
1674,000000	43,331700
1673,000000	43,499400
1672,000000	43,644000
1671,000000	43,810900
1670,000000	43,951400
1669,000000	44,086500
1668,000000	44,244100
1667,000000	44,360600
1666,000000	44,480400
1665,000000	44,610200
1664,000000	44,719200
1663,000000	44,838900
1662,000000	44,958100
1661,000000	45,061900
1660,000000	45,127600
1659,000000	45,206800
1658,000000	45,301500
1657,000000	45,356500
1656,000000	45,406200
1655,000000	45,451200
1654,000000	45,482800
1653,000000	45,521700
1652,000000	45,537600
1651,000000	45,548000
1650,000000	45,576300
1649,000000	45,562800
1648,000000	45,570600
1647,000000	45,558800
1646,000000	45,562300
1645,000000	45,549500
1644,000000	45,545100
1643,000000	45,541100
1642,000000	45,525200
1641,000000	45,520200
1640,000000	45,506800
1639,000000	45,507500
1638,000000	45,501600
1637,000000	45,499000
1636,000000	45,469600
1635,000000	45,446800
1634,000000	45,435900
1633,000000	45,398600
1632,000000	45,371900
1631,000000	45,353000
1630,000000	45,321400
1629,000000	45,280100
1628,000000	45,247200
1627,000000	45,222900
1626,000000	45,180400
1625,000000	45,153600
1624,000000	45,125400
1623,000000	45,083000
1622,000000	45,052900
1621,000000	45,028200
1620,000000	45,006300
1619,000000	44,990200
1618,000000	44,956800
1617,000000	44,924900
1616,000000	44,896000
1615,000000	44,868600
1614,000000	44,838500
1613,000000	44,805800
1612,000000	44,781200
1611,000000	44,747600
1610,000000	44,710700
1609,000000	44,663100
1608,000000	44,612000
1607,000000	44,563500
1606,000000	44,510800
1605,000000	44,435100
1604,000000	44,379400
1603,000000	44,334000
1602,000000	44,261500
1601,000000	44,202100
1600,000000	44,162200
1599,000000	44,097600
1598,000000	44,036400
1597,000000	43,988700
1596,000000	43,945000
1595,000000	43,889300
1594,000000	43,837900
1593,000000	43,794000
1592,000000	43,763400
1591,000000	43,733600
1590,000000	43,680900
1589,000000	43,641600
1588,000000	43,610400
1587,000000	43,576300
1586,000000	43,532600
1585,000000	43,487900
1584,000000	43,456200
1583,000000	43,424700
1582,000000	43,392900
1581,000000	43,371000
1580,000000	43,337100
1579,000000	43,319300
1578,000000	43,315100
1577,000000	43,301600
1576,000000	43,287200
1575,000000	43,280100
1574,000000	43,276300
1573,000000	43,280900
1572,000000	43,291800
1571,000000	43,301400
1570,000000	43,312100
1569,000000	43,328800
1568,000000	43,352200
1567,000000	43,364500
1566,000000	43,375100
1565,000000	43,390600
1564,000000	43,409000
1563,000000	43,415200
1562,000000	43,411700
1561,000000	43,413100
1560,000000	43,401300
1559,000000	43,378800
1558,000000	43,354500
1557,000000	43,325200
1556,000000	43,285400
1555,000000	43,241400
1554,000000	43,188100
1553,000000	43,123000
1552,000000	43,063300
1551,000000	42,992100
1550,000000	42,917800
1549,000000	42,850800
1548,000000	42,786800
1547,000000	42,724800
1546,000000	42,659000
1545,000000	42,597100
1544,000000	42,547700
1543,000000	42,510300
1542,000000	42,471300
1541,000000	42,432200
1540,000000	42,407900
1539,000000	42,375200
1538,000000	42,323300
1537,000000	42,296600
1536,000000	42,267300
1535,000000	42,225300
1534,000000	42,179000
1533,000000	42,144600
1532,000000	42,097800
1531,000000	42,036000
1530,000000	41,987400
1529,000000	41,934700
1528,000000	41,881300
1527,000000	41,835400
1526,000000	41,788600
1525,000000	41,746800
1524,000000	41,692700
1523,000000	41,632600
1522,000000	41,574600
1521,000000	41,520400
1520,000000	41,471200
1519,000000	41,415300
1518,000000	41,355700
1517,000000	41,285900
1516,000000	41,232400
1515,000000	41,168600
1514,000000	41,120800
1513,000000	41,059600
1512,000000	41,003000
1511,000000	40,935200
1510,000000	40,866900
1509,000000	40,813300
1508,000000	40,763200
1507,000000	40,704000
1506,000000	40,655800
1505,000000	40,595100
1504,000000	40,555700
1503,000000	40,511400
1502,000000	40,447700
1501,000000	40,422200
1500,000000	40,385200
1499,000000	40,372700
1498,000000	40,364400
1497,000000	40,349300
1496,000000	40,338900
1495,000000	40,345600
1494,000000	40,356000
1493,000000	40,369000
1492,000000	40,410000
1491,000000	40,421400
1490,000000	40,454100
1489,000000	40,466900
1488,000000	40,502700
1487,000000	40,528000
1486,000000	40,569000
1485,000000	40,592900
1484,000000	40,641400
1483,000000	40,675100
1482,000000	40,705700
1481,000000	40,734400
1480,000000	40,763000
1479,000000	40,805100
1478,000000	40,864800
1477,000000	40,892700
1476,000000	40,941600
1475,000000	41,001300
1474,000000	41,072400
1473,000000	41,159900
1472,000000	41,221500
1471,000000	41,297100
1470,000000	41,343000
1469,000000	41,414600
1468,000000	41,477100
1467,000000	41,574400
1466,000000	41,646400
1465,000000	41,717100
1464,000000	41,804200
1463,000000	41,863200
1462,000000	41,946300
1461,000000	42,032000
1460,000000	42,135500
1459,000000	42,217200
1458,000000	42,302500
1457,000000	42,382300
1456,000000	42,498900
1455,000000	42,567100
1454,000000	42,647300
1453,000000	42,762900
1452,000000	42,850900
1451,000000	42,933700
1450,000000	42,986200
1449,000000	43,038100
1448,000000	43,155800
1447,000000	43,272600
1446,000000	43,373800
1445,000000	43,447900
1444,000000	43,497200
1443,000000	43,599900
1442,000000	43,701100
1441,000000	43,773600
1440,000000	43,912200
1439,000000	43,982100
1438,000000	44,091300
1437,000000	44,216500
1436,000000	44,293100
1435,000000	44,430800
1434,000000	44,572400
1433,000000	44,696200
1432,000000	44,826000
1431,000000	44,958400
1430,000000	45,098700
1429,000000	45,280000
1428,000000	45,428100
1427,000000	45,596700
1426,000000	45,799000
1425,000000	45,977500
1424,000000	46,216800
1423,000000	46,380600
1422,000000	46,600400
1421,000000	46,853300
1420,000000	47,134800
1419,000000	47,351500
1418,000000	47,523100
1417,000000	47,789000
1416,000000	48,103000
1415,000000	48,432800
1414,000000	48,693100
1413,000000	48,933700
1412,000000	49,239600
1411,000000	49,567900
1410,000000	49,927400
1409,000000	50,251700
1408,000000	50,580100
1407,000000	50,859900
1406,000000	51,190100
1405,000000	51,510300
1404,000000	51,777000
1403,000000	52,110200
1402,000000	52,471300
1401,000000	52,806400
1400,000000	53,015500
1399,000000	53,230600
1398,000000	53,488200
1397,000000	53,811900
1396,000000	54,101700
1395,000000	54,309100
1394,000000	54,486400
1393,000000	54,693800
1392,000000	54,912600
1391,000000	55,115700
1390,000000	55,350600
1389,000000	55,606700
1388,000000	55,831700
1387,000000	56,032900
1386,000000	56,228600
1385,000000	56,465700
1384,000000	56,686400
1383,000000	56,848900
1382,000000	56,948400
1381,000000	57,028400
1380,000000	57,075600
1379,000000	57,185300
1378,000000	57,248500
1377,000000	57,341300
1376,000000	57,431700
1375,000000	57,508700
1374,000000	57,613400
1373,000000	57,741800
1372,000000	57,856100
1371,000000	57,919300
1370,000000	58,019000
1369,000000	58,135300
1368,000000	58,217700
1367,000000	58,283600
1366,000000	58,368200
1365,000000	58,485800
1364,000000	58,529500
1363,000000	58,616300
1362,000000	58,694100
1361,000000	58,689900
1360,000000	58,670800
1359,000000	58,756400
1358,000000	58,822600
1357,000000	58,890600
1356,000000	58,977500
1355,000000	59,051000
1354,000000	59,110600
1353,000000	59,175200
1352,000000	59,337600
1351,000000	59,467100
1350,000000	59,604600
1349,000000	59,745700
1348,000000	59,873700
1347,000000	59,981100
1346,000000	60,098100
1345,000000	60,235700
1344,000000	60,359500
1343,000000	60,475100
1342,000000	60,578100
1341,000000	60,684000
1340,000000	60,794400
1339,000000	60,880300
1338,000000	60,957200
1337,000000	61,055700
1336,000000	61,141800
1335,000000	61,214100
1334,000000	61,291100
1333,000000	61,369100
1332,000000	61,432900
1331,000000	61,485700
1330,000000	61,545100
1329,000000	61,592000
1328,000000	61,651700
1327,000000	61,700900
1326,000000	61,741900
1325,000000	61,793100
1324,000000	61,829900
1323,000000	61,860600
1322,000000	61,898800
1321,000000	61,931100
1320,000000	61,967200
1319,000000	62,002200
1318,000000	62,034300
1317,000000	62,072300
1316,000000	62,101900
1315,000000	62,123000
1314,000000	62,140100
1313,000000	62,179000
1312,000000	62,209900
1311,000000	62,228000
1310,000000	62,248800
1309,000000	62,270000
1308,000000	62,280700
1307,000000	62,293400
1306,000000	62,314900
1305,000000	62,330100
1304,000000	62,328600
1303,000000	62,329100
1302,000000	62,334100
1301,000000	62,351000
1300,000000	62,364300
1299,000000	62,361100
1298,000000	62,358300
1297,000000	62,350800
1296,000000	62,343200
1295,000000	62,342100
1294,000000	62,346400
1293,000000	62,339100
1292,000000	62,316800
1291,000000	62,297600
1290,000000	62,271100
1289,000000	62,256700
1288,000000	62,249200
1287,000000	62,226500
1286,000000	62,205800
1285,000000	62,175000
1284,000000	62,146200
1283,000000	62,119300
1282,000000	62,096200
1281,000000	62,076800
1280,000000	62,053000
1279,000000	62,040600
1278,000000	62,025100
1277,000000	61,999300
1276,000000	61,989800
1275,000000	61,985200
1274,000000	61,988000
1273,000000	61,988000
1272,000000	61,986800
1271,000000	61,978800
1270,000000	61,983600
1269,000000	61,984100
1268,000000	61,982600
1267,000000	61,996200
1266,000000	61,992600
1265,000000	61,987000
1264,000000	61,988500
1263,000000	61,994400
1262,000000	61,995900
1261,000000	61,983200
1260,000000	61,980100
1259,000000	61,979600
1258,000000	61,979500
1257,000000	61,977600
1256,000000	61,976000
1255,000000	61,958800
1254,000000	61,957600
1253,000000	61,949200
1252,000000	61,932700
1251,000000	61,899300
1250,000000	61,881100
1249,000000	61,846600
1248,000000	61,818900
1247,000000	61,798800
1246,000000	61,751500
1245,000000	61,705300
1244,000000	61,665900
1243,000000	61,626500
1242,000000	61,595200
1241,000000	61,548800
1240,000000	61,519900
1239,000000	61,494800
1238,000000	61,442800
1237,000000	61,414300
1236,000000	61,379500
1235,000000	61,336900
1234,000000	61,317800
1233,000000	61,289500
1232,000000	61,260600
1231,000000	61,220700
1230,000000	61,205400
1229,000000	61,162400
1228,000000	61,122000
1227,000000	61,103300
1226,000000	61,081700
1225,000000	61,046800
1224,000000	61,022600
1223,000000	60,990100
1222,000000	60,951800
1221,000000	60,927800
1220,000000	60,899000
1219,000000	60,876700
1218,000000	60,831800
1217,000000	60,785300
1216,000000	60,760400
1215,000000	60,740300
1214,000000	60,697900
1213,000000	60,666200
1212,000000	60,620400
1211,000000	60,588700
1210,000000	60,529600
1209,000000	60,485000
1208,000000	60,450400
1207,000000	60,392200
1206,000000	60,358300
1205,000000	60,299900
1204,000000	60,262200
1203,000000	60,199600
1202,000000	60,156100
1201,000000	60,104700
1200,000000	60,048200
1199,000000	59,999300
1198,000000	59,944500
1197,000000	59,887100
1196,000000	59,835700
1195,000000	59,788000
1194,000000	59,718900
1193,000000	59,654400
1192,000000	59,609400
1191,000000	59,568900
1190,000000	59,525300
1189,000000	59,487300
1188,000000	59,461100
1187,000000	59,488500
1186,000000	59,489200
1185,000000	59,498000
1184,000000	59,492500
1183,000000	59,528800
1182,000000	59,557000
1181,000000	59,585200
1180,000000	59,626700
1179,000000	59,669400
1178,000000	59,706100
1177,000000	59,746900
1176,000000	59,797800
1175,000000	59,832700
1174,000000	59,887800
1173,000000	59,941500
1172,000000	59,998600
1171,000000	60,040100
1170,000000	60,113800
1169,000000	60,180600
1168,000000	60,258400
1167,000000	60,340000
1166,000000	60,437200
1165,000000	60,492000
1164,000000	60,579100
1163,000000	60,666200
1162,000000	60,764700
1161,000000	60,843100
1160,000000	60,933100
1159,000000	61,020300
1158,000000	61,107400
1157,000000	61,170100
1156,000000	61,218200
1155,000000	61,265300
1154,000000	61,322900
1153,000000	61,372600
1152,000000	61,421000
1151,000000	61,453400
1150,000000	61,487200
1149,000000	61,516400
1148,000000	61,547600
1147,000000	61,579500
1146,000000	61,611100
1145,000000	61,639200
1144,000000	61,644600
1143,000000	61,667600
1142,000000	61,721600
1141,000000	61,772800
1140,000000	61,816100
1139,000000	61,850400
1138,000000	61,933800
1137,000000	62,009700
1136,000000	62,062700
1135,000000	62,106600
1134,000000	62,128200
1133,000000	62,145300
1132,000000	62,206000
1131,000000	62,248000
1130,000000	62,316400
1129,000000	62,325700
1128,000000	62,347100
1127,000000	62,372500
1126,000000	62,386000
1125,000000	62,402700
1124,000000	62,411200
1123,000000	62,400300
1122,000000	62,399700
1121,000000	62,380200
1120,000000	62,369000
1119,000000	62,353600
1118,000000	62,348000
1117,000000	62,348100
1116,000000	62,307200
1115,000000	62,295000
1114,000000	62,296600
1113,000000	62,271300
1112,000000	62,254800
1111,000000	62,240100
1110,000000	62,231300
1109,000000	62,210600
1108,000000	62,183900
1107,000000	62,173300
1106,000000	62,152400
1105,000000	62,138700
1104,000000	62,106000
1103,000000	62,099900
1102,000000	62,078100
1101,000000	62,046300
1100,000000	62,025800
1099,000000	62,008800
1098,000000	61,998800
1097,000000	61,990700
1096,000000	61,960600
1095,000000	61,946900
1094,000000	61,915000
1093,000000	61,898800
1092,000000	61,856100
1091,000000	61,829100
1090,000000	61,813100
1089,000000	61,785600
1088,000000	61,759200
1087,000000	61,737100
1086,000000	61,713900
1085,000000	61,691000
1084,000000	61,657500
1083,000000	61,617800
1082,000000	61,570700
1081,000000	61,551400
1080,000000	61,536400
1079,000000	61,499400
1078,000000	61,467600
1077,000000	61,448600
1076,000000	61,412800
1075,000000	61,370100
1074,000000	61,336500
1073,000000	61,309100
1072,000000	61,265000
1071,000000	61,236000
1070,000000	61,212400
1069,000000	61,183500
1068,000000	61,148200
1067,000000	61,112300
1066,000000	61,092300
1065,000000	61,069900
1064,000000	61,036200
1063,000000	61,004400
1062,000000	60,981400
1061,000000	60,958800
1060,000000	60,925300
1059,000000	60,902700
1058,000000	60,883100
1057,000000	60,843600
1056,000000	60,827100
1055,000000	60,818500
1054,000000	60,794500
1053,000000	60,774000
1052,000000	60,752600
1051,000000	60,741900
1050,000000	60,735400
1049,000000	60,723800
1048,000000	60,700800
1047,000000	60,697000
1046,000000	60,686300
1045,000000	60,670800
1044,000000	60,679000
1043,000000	60,680500
1042,000000	60,664800
1041,000000	60,656600
1040,000000	60,654300
1039,000000	60,648000
1038,000000	60,654700
1037,000000	60,660600
1036,000000	60,673300
1035,000000	60,686200
1034,000000	60,682300
1033,000000	60,685000
1032,000000	60,700700
1031,000000	60,715000
1030,000000	60,719400
1029,000000	60,715800
1028,000000	60,735900
1027,000000	60,762400
1026,000000	60,773400
1025,000000	60,798800
1024,000000	60,812900
1023,000000	60,825800
1022,000000	60,835800
1021,000000	60,879000
1020,000000	60,926800
1019,000000	60,956900
1018,000000	60,990600
1017,000000	61,014500
1016,000000	61,039000
1015,000000	61,070500
1014,000000	61,120900
1013,000000	61,157900
1012,000000	61,197700
1011,000000	61,244600
1010,000000	61,278400
1009,000000	61,317900
1008,000000	61,366500
1007,000000	61,396800
1006,000000	61,430200
1005,000000	61,472800
1004,000000	61,510400
1003,000000	61,550500
1002,000000	61,581300
1001,000000	61,622100
1000,000000	61,661900
999,000000	61,712400
998,000000	61,743000
997,000000	61,781000
996,000000	61,833700
995,000000	61,887800
994,000000	61,942800
993,000000	61,988400
992,000000	62,042600
991,000000	62,092400
990,000000	62,167100
989,000000	62,231400
988,000000	62,300800
987,000000	62,383300
986,000000	62,473900
985,000000	62,553300
984,000000	62,650500
983,000000	62,738500
982,000000	62,816900
981,000000	62,923800
980,000000	63,033600
979,000000	63,140300
978,000000	63,227400
977,000000	63,326500
976,000000	63,432300
975,000000	63,540600
974,000000	63,660800
973,000000	63,766800
972,000000	63,859000
971,000000	63,980100
970,000000	64,102200
969,000000	64,193900
968,000000	64,314200
967,000000	64,430200
966,000000	64,523700
965,000000	64,650200
964,000000	64,728300
963,000000	64,818400
962,000000	64,933100
961,000000	65,008800
960,000000	65,089300
959,000000	65,187100
958,000000	65,273800
957,000000	65,352300
956,000000	65,422400
955,000000	65,505900
954,000000	65,582300
953,000000	65,685600
952,000000	65,772800
951,000000	65,832900
950,000000	65,926400
949,000000	66,008100
948,000000	66,107500
947,000000	66,227100
946,000000	66,326800
945,000000	66,436100
944,000000	66,556700
943,000000	66,657500
942,000000	66,776700
941,000000	66,878000
940,000000	67,022800
939,000000	67,142800
938,000000	67,250900
937,000000	67,353100
936,000000	67,483200
935,000000	67,611900
934,000000	67,714500
933,000000	67,804300
932,000000	67,920300
931,000000	68,056500
930,000000	68,159900
929,000000	68,287200
928,000000	68,400400
927,000000	68,540000
926,000000	68,632400
925,000000	68,748300
924,000000	68,880000
923,000000	68,990700
922,000000	69,077500
921,000000	69,247000
920,000000	69,352900
919,000000	69,462500
918,000000	69,545000
917,000000	69,655400
916,000000	69,778700
915,000000	69,872500
914,000000	69,966000
913,000000	70,076700
912,000000	70,175400
911,000000	70,256500
910,000000	70,386800
909,000000	70,460000
908,000000	70,563800
907,000000	70,667900
906,000000	70,763800
905,000000	70,823900
904,000000	70,928700
903,000000	70,946400
902,000000	71,012000
901,000000	71,076700
900,000000	71,138300
899,000000	71,211100
898,000000	71,237000
897,000000	71,295600
896,000000	71,244800
895,000000	71,267400
894,000000	71,275900
893,000000	71,260500
892,000000	71,167900
891,000000	71,135300
890,000000	71,114700
889,000000	70,979600
888,000000	70,958700
887,000000	70,875600
886,000000	70,714700
885,000000	70,595600
884,000000	70,388300
883,000000	70,274200
882,000000	70,046800
881,000000	69,920100
880,000000	69,693500
879,000000	69,526400
878,000000	69,254500
877,000000	68,896000
876,000000	68,663300
875,000000	68,238900
874,000000	67,796300
873,000000	67,340400
872,000000	67,037200
871,000000	67,005800
870,000000	67,103100
869,000000	67,223200
868,000000	67,305100
867,000000	67,399900
866,000000	67,478200
865,000000	67,565900
864,000000	67,628900
863,000000	67,711500
862,000000	67,784000
861,000000	67,841400
860,000000	67,909600
859,000000	67,969800
858,000000	69,758500
857,000000	79,808900
856,000000	79,808800
855,000000	80,146800
854,000000	79,944700
853,000000	80,403500
852,000000	80,472500
851,000000	80,637400
850,000000	80,916500
849,000000	80,777100
848,000000	81,187300
847,000000	81,447000
846,000000	81,472500
845,000000	82,160900
844,000000	82,106100
843,000000	82,603800
842,000000	82,798400
841,000000	83,078400
840,000000	83,277300
839,000000	83,844200
838,000000	84,049500
837,000000	84,147400
836,000000	84,594300
835,000000	84,829000
834,000000	84,957500
833,000000	84,990400
832,000000	85,166800
831,000000	85,488200
830,000000	86,038400
829,000000	86,093500
828,000000	85,961700
827,000000	86,065800
826,000000	86,290300
825,000000	86,137400
824,000000	85,981900
823,000000	86,177000
822,000000	85,844100
821,000000	85,795200
820,000000	85,805500
819,000000	85,740400
818,000000	85,673300
817,000000	85,277600
816,000000	85,213300
815,000000	85,187700
814,000000	84,873500
813,000000	84,808300
812,000000	84,564700
811,000000	84,543300
810,000000	84,446300
809,000000	84,337500
808,000000	84,187200
807,000000	83,966000
806,000000	83,779500
805,000000	83,887600
804,000000	83,795600
803,000000	83,565700
802,000000	83,314200
801,000000	83,482800
800,000000	83,432500
799,000000	83,409200
798,000000	83,545800
797,000000	83,522600
796,000000	83,467700
795,000000	83,531200
794,000000	83,407800
793,000000	83,355700
792,000000	83,408400
791,000000	83,458900
790,000000	83,394200
789,000000	83,397800
788,000000	83,284800
787,000000	83,130900
786,000000	83,055400
785,000000	82,980800
784,000000	82,751000
783,000000	82,672000
782,000000	82,608700
781,000000	82,458700
780,000000	82,342700
779,000000	82,160400
778,000000	82,031100
777,000000	81,800300
776,000000	81,667900
775,000000	81,558900
774,000000	81,282900
773,000000	81,098700
772,000000	81,011400
771,000000	80,938700
770,000000	80,822100
769,000000	80,659600
768,000000	80,474300
767,000000	80,276600
766,000000	80,114600
765,000000	80,008600
764,000000	79,951600
763,000000	80,019900
762,000000	79,901600
761,000000	79,682600
760,000000	79,366700
759,000000	79,195000
758,000000	79,102000
757,000000	78,992600
756,000000	78,857600
755,000000	78,780800
754,000000	78,725900
753,000000	78,625900
752,000000	78,342300
751,000000	78,174900
750,000000	78,142800
749,000000	77,966500
748,000000	77,737500
747,000000	77,637200
746,000000	77,529000
745,000000	77,324100
744,000000	77,246600
743,000000	77,143700
742,000000	76,983100
741,000000	76,839400
740,000000	76,752500
739,000000	76,729800
738,000000	76,603000
737,000000	76,510400
736,000000	76,434900
735,000000	76,336900
734,000000	76,285400
733,000000	76,330800
732,000000	76,299800
731,000000	76,183700
730,000000	76,211200
729,000000	76,172600
728,000000	76,017600
727,000000	75,932900
726,000000	75,841400
725,000000	75,753600
724,000000	75,685700
723,000000	75,607000
722,000000	75,427300
721,000000	75,269100
720,000000	75,125100
719,000000	74,956300
718,000000	74,801300
717,000000	74,585500
716,000000	74,314300
715,000000	74,011000
714,000000	73,746900
713,000000	73,413800
712,000000	73,104800
711,000000	72,764700
710,000000	72,368200
709,000000	71,974500
708,000000	71,536200
707,000000	71,121100
706,000000	70,745100
705,000000	70,291000
704,000000	69,812900
703,000000	69,339300
702,000000	68,785500
701,000000	68,291500
700,000000	67,842900
699,000000	67,328000
698,000000	66,821400
697,000000	66,325700
696,000000	65,835100
695,000000	65,281700
694,000000	64,840500
693,000000	64,335300
692,000000	63,882600
691,000000	63,382200
690,000000	62,861400
689,000000	62,369500
688,000000	61,955900
687,000000	61,489900
686,000000	60,978400
685,000000	60,498700
684,000000	60,059100
683,000000	59,597800
682,000000	59,217100
681,000000	58,789700
680,000000	58,359700
679,000000	58,004900
678,000000	57,677800
677,000000	57,309100
676,000000	56,933700
675,000000	56,600300
674,000000	56,354800
673,000000	56,059500
672,000000	55,820500
671,000000	55,576400
670,000000	55,324100
669,000000	55,128400
668,000000	54,934700
667,000000	54,711200
666,000000	54,571400
665,000000	54,476400
664,000000	54,364300
663,000000	54,250400
662,000000	54,134400
661,000000	54,094800
660,000000	54,096500
659,000000	54,169600
658,000000	54,192200
657,000000	54,229800
656,000000	54,300300
655,000000	54,421700
654,000000	54,512700
653,000000	54,656700
652,000000	54,807400
651,000000	54,887900
650,000000	55,081900
649,000000	55,253500
648,000000	55,468700
647,000000	55,654200
646,000000	55,858100
645,000000	56,081300
644,000000	56,263100
643,000000	56,498600
642,000000	56,714000
641,000000	56,944500
640,000000	57,143700
639,000000	57,351600
638,000000	57,536000
637,000000	57,779700
636,000000	57,972600
635,000000	58,195200
634,000000	58,419000
633,000000	58,632200
632,000000	58,891900
631,000000	59,130100
630,000000	59,332900
629,000000	59,543200
628,000000	59,808400
627,000000	59,948800
626,000000	60,170200
625,000000	60,353400
624,000000	60,532200
623,000000	60,697000
622,000000	60,867100
621,000000	61,013700
620,000000	61,182000
619,000000	61,355400
618,000000	61,526300
617,000000	61,742600
616,000000	62,040000
615,000000	62,233600
614,000000	62,499500
613,000000	62,679600
612,000000	62,923600
611,000000	63,198500
610,000000	63,459600
609,000000	63,687100
608,000000	63,975700
607,000000	64,248200
606,000000	64,495600
605,000000	64,719100
604,000000	64,939000
603,000000	65,164100
602,000000	65,344600
601,000000	65,504500
600,000000	65,719600
599,000000	65,893700
598,000000	66,060100
597,000000	66,245900
596,000000	66,391200
595,000000	66,532400
594,000000	66,682400
593,000000	66,803900
592,000000	67,003500
591,000000	67,120200
590,000000	67,224600
589,000000	67,355100
588,000000	67,482000
587,000000	67,616600
586,000000	67,647300
585,000000	67,726500
584,000000	67,778200
583,000000	67,826900
582,000000	67,832700
581,000000	67,816600
580,000000	67,833500
579,000000	67,800100
578,000000	67,822700
577,000000	67,789300
576,000000	67,706300
575,000000	67,686200
574,000000	67,579000
573,000000	67,554100
572,000000	67,449100
571,000000	67,355900
570,000000	67,246900
569,000000	67,139600
568,000000	67,037100
567,000000	66,911400
566,000000	66,821500
565,000000	66,639000
564,000000	66,526500
563,000000	66,400000
562,000000	66,245500
561,000000	66,052500
560,000000	65,898100
559,000000	65,572200
558,000000	65,346000
557,000000	65,098200
556,000000	64,845900
555,000000	64,568100
554,000000	64,306300
553,000000	63,997000
552,000000	63,700900
551,000000	63,390000
550,000000	63,099200
549,000000	62,802200
548,000000	62,440600
547,000000	62,107500
546,000000	61,795600
545,000000	61,459400
544,000000	61,130600
543,000000	60,779800
542,000000	60,382100
541,000000	60,034400
540,000000	59,633000
539,000000	59,187800
538,000000	58,767300
537,000000	58,327800
536,000000	57,815800
535,000000	57,324700
534,000000	56,792500
533,000000	56,254600
532,000000	55,697000
531,000000	55,124900
530,000000	54,551200
529,000000	53,975900
528,000000	53,396100
527,000000	52,800000
526,000000	52,190300
525,000000	51,607000
524,000000	50,970700
523,000000	50,356400
522,000000	49,717000
521,000000	49,082000
520,000000	48,453300
519,000000	47,824800
518,000000	47,196300
517,000000	46,577200
516,000000	45,965600
515,000000	45,344100
514,000000	44,762600
513,000000	44,146200
512,000000	43,531100
511,000000	42,947100
510,000000	42,316200
509,000000	41,733000
508,000000	41,132600
507,000000	40,533200
506,000000	39,923300
505,000000	39,278000
504,000000	38,622800
503,000000	37,962700
502,000000	37,303800
501,000000	36,646000
500,000000	35,983800
499,000000	35,348200
498,000000	34,718600
497,000000	34,085800
496,000000	33,474300
495,000000	32,853800
494,000000	32,280700
493,000000	31,735100
492,000000	31,214200
491,000000	30,733600
490,000000	30,234900
489,000000	29,801800
488,000000	29,392300
487,000000	29,006700
486,000000	28,677600
485,000000	28,372900
484,000000	28,089300
483,000000	27,812000
482,000000	27,541500
481,000000	27,294900
480,000000	27,029800
479,000000	26,757100
478,000000	26,479000
477,000000	26,196100
476,000000	25,924300
475,000000	25,649700
474,000000	25,361300
473,000000	25,035500
472,000000	24,717700
471,000000	24,415200
470,000000	24,074900
469,000000	23,729400
468,000000	23,401800
467,000000	23,053900
466,000000	22,696900
465,000000	22,336500
464,000000	21,974600
463,000000	21,624400
462,000000	21,275500
461,000000	20,933000
460,000000	20,607400
459,000000	20,301400
458,000000	20,012100
457,000000	19,753600
456,000000	19,517200
455,000000	19,310200
454,000000	19,120400
453,000000	18,932800
452,000000	18,801200
451,000000	18,706000
450,000000	18,602400
449,000000	18,523800
448,000000	18,502300
447,000000	18,508700
446,000000	18,473200
445,000000	18,418200
444,000000	18,409800
443,000000	18,409300
442,000000	18,408100
441,000000	18,414600
440,000000	18,395500
439,000000	18,376700
438,000000	18,330600
437,000000	18,269000
436,000000	18,259200
435,000000	18,217600
434,000000	18,117500
433,000000	18,029000
432,000000	17,937200
431,000000	17,846300
430,000000	17,724800
429,000000	17,581500
428,000000	17,446300
427,000000	17,298700
426,000000	17,140400
425,000000	16,957900
424,000000	16,794600
423,000000	16,621100
422,000000	16,446600
421,000000	16,251900
420,000000	16,012400
419,000000	15,804700
418,000000	15,592100
417,000000	15,369600
416,000000	15,134500
415,000000	14,872700
414,000000	14,621600
413,000000	14,382000
412,000000	14,126500
411,000000	13,839500
410,000000	13,576100
409,000000	13,320800
408,000000	13,057700
407,000000	12,796300
406,000000	12,560000
405,000000	12,302700
404,000000	12,018600
403,000000	11,704100
402,000000	11,403700
401,000000	11,139400
400,000000	10,888200
399,000000	10,610600
398,000000	10,338000
397,000000	10,105800
396,000000	9,874200
395,000000	9,606800
394,000000	9,373600
393,000000	9,142400
392,000000	8,917400
391,000000	8,711300
390,000000	8,506500
389,000000	8,321900
388,000000	8,133500
387,000000	7,974200
386,000000	7,838200
385,000000	7,673800
384,000000	7,542000
383,000000	7,400000
382,000000	7,284200
381,000000	7,186600
380,000000	7,102400
379,000000	7,011200
378,000000	6,920700
377,000000	6,815800
376,000000	6,359400
375,000000	6,116700
374,000000	5,819600
373,000000	5,575000
372,000000	5,708100
371,000000	5,986400
370,000000	5,980900
369,000000	6,082300
368,000000	6,161700
367,000000	6,299800
366,000000	6,109000
365,000000	6,193600
364,000000	5,984500
363,000000	6,117400
362,000000	6,246500
361,000000	6,021900
360,000000	6,060800
359,000000	5,856800
358,000000	6,044500
357,000000	6,354500
356,000000	6,317100
355,000000	5,943400
354,000000	6,053400
353,000000	6,289400
352,000000	6,238600
351,000000	6,398000
350,000000	6,205800
349,000000	6,056600
348,000000	5,957900
347,000000	6,045000
346,000000	6,006000
345,000000	5,943900
344,000000	6,198200
343,000000	6,451700
342,000000	6,385500
341,000000	6,504000
340,000000	6,153900
339,000000	6,289500
338,000000	6,324900
337,000000	6,684000
336,000000	6,504100
335,000000	6,726800
334,000000	6,363800
333,000000	6,527700
332,000000	6,384900
331,000000	6,955600
330,000000	7,010600
329,000000	6,362000
328,000000	6,923000
327,000000	6,944300
326,000000	6,828200
325,000000	7,242600
324,000000	7,314300
323,000000	7,434500
322,000000	7,119600
321,000000	7,330500
320,000000	7,995800
319,000000	6,699500
318,000000	6,704700
317,000000	8,144600
316,000000	6,094800
315,000000	5,845600
314,000000	5,824700
313,000000	5,885400
312,000000	5,890000
311,000000	5,793700
310,000000	5,865200
309,000000	5,880600
308,000000	5,842100
307,000000	5,821200
306,000000	5,871300
305,000000	5,954600
304,000000	5,918200
303,000000	5,950400
302,000000	5,890400
301,000000	5,948600
300,000000	5,923500
299,000000	5,900400
298,000000	5,862700
297,000000	5,949700
296,000000	5,969700
295,000000	5,907400
294,000000	6,024700
293,000000	6,024800
292,000000	5,876200
291,000000	5,977600
290,000000	6,051300
289,000000	5,942900
288,000000	6,016200
287,000000	6,063600
286,000000	6,009800
285,000000	6,029600
284,000000	5,978400
283,000000	6,044700
282,000000	6,081900
281,000000	5,982600
280,000000	6,013200
279,000000	6,080000
278,000000	6,034500
277,000000	6,032000
276,000000	6,037800
275,000000	6,007300
274,000000	6,046600
273,000000	6,118200
272,000000	6,036300
271,000000	6,131400
270,000000	6,148600
269,000000	6,142800
268,000000	6,160400
267,000000	6,174200
266,000000	6,250200
265,000000	6,259100
264,000000	6,242400
263,000000	6,293100
262,000000	6,390200
261,000000	6,419100
260,000000	6,460400
259,000000	6,546500
258,000000	6,489500
257,000000	6,563100
256,000000	6,513000
255,000000	6,629400
254,000000	6,580000
253,000000	6,563600
252,000000	6,591800
251,000000	6,671900
250,000000	6,747500
