PE UV       SUBTECH     SPECTRUM    ASCII       PEDS        4.00        
   -1
INBUCR0127-3.Sample.ASC
24/04/29
11:41:18.00
24/04/29
11:41:18.00
Vinicio Soto Monge
C. resplendens
250,000000
1
Lambda 1050
1050L1511233
PerkinElmer UV WinLab 6.3.2.0749 / 2.02.05 Lambda 900 UV/VIS/NIR, Aug  7 2015 09:38:08

0
0
3350/servo 860,8/2
0
0
UV/VIS
1
1
1
DoubleDePol,CommonBeamDepol,RBeamAtt,SBeamAtt,60mm sphere, WB InGaAs Detector
0
0
0
0
Program
Program
3350/servo 860,8/2
3350/0,2 860,8/0,2
3350/0,2 860,8/0,2
0
15.00
 
 
 
0
 
860,8
319,2
860,8
Front
100
on
S:100 R:100
0
0
0
0
 
0
 
 
 
0
 
 
0
0
0
0
0
 
 
 
 
0
0


0
0
#HDR
-1
-1
#GR
nm
%R
1.0
0.0
2500,000000
-1,000000
2251
8
88,075900
5,824900
#DATA
2500,000000	12,547600
2499,000000	12,533400
2498,000000	12,408800
2497,000000	12,428900
2496,000000	12,342900
2495,000000	12,420900
2494,000000	12,316400
2493,000000	12,381900
2492,000000	12,215600
2491,000000	12,337000
2490,000000	12,374200
2489,000000	12,352000
2488,000000	12,337700
2487,000000	12,250900
2486,000000	12,278700
2485,000000	12,283400
2484,000000	12,349900
2483,000000	12,337900
2482,000000	12,365300
2481,000000	12,352200
2480,000000	12,355300
2479,000000	12,384900
2478,000000	12,383400
2477,000000	12,419100
2476,000000	12,481500
2475,000000	12,538200
2474,000000	12,518900
2473,000000	12,538400
2472,000000	12,592500
2471,000000	12,623500
2470,000000	12,644000
2469,000000	12,690600
2468,000000	12,778200
2467,000000	12,835500
2466,000000	12,840900
2465,000000	12,929400
2464,000000	12,985200
2463,000000	13,026000
2462,000000	13,085000
2461,000000	13,200800
2460,000000	13,226400
2459,000000	13,289600
2458,000000	13,361100
2457,000000	13,445800
2456,000000	13,518500
2455,000000	13,608000
2454,000000	13,713800
2453,000000	13,811400
2452,000000	13,878300
2451,000000	13,995600
2450,000000	14,110400
2449,000000	14,194200
2448,000000	14,294300
2447,000000	14,404700
2446,000000	14,507900
2445,000000	14,635800
2444,000000	14,729100
2443,000000	14,843500
2442,000000	14,973000
2441,000000	15,080900
2440,000000	15,166500
2439,000000	15,295100
2438,000000	15,427100
2437,000000	15,551500
2436,000000	15,661400
2435,000000	15,761100
2434,000000	15,863500
2433,000000	15,976100
2432,000000	16,096000
2431,000000	16,174700
2430,000000	16,293200
2429,000000	16,393200
2428,000000	16,485400
2427,000000	16,578700
2426,000000	16,682800
2425,000000	16,763000
2424,000000	16,854400
2423,000000	16,940700
2422,000000	17,025200
2421,000000	17,102900
2420,000000	17,186900
2419,000000	17,258900
2418,000000	17,324200
2417,000000	17,376000
2416,000000	17,441100
2415,000000	17,502000
2414,000000	17,570000
2413,000000	17,618200
2412,000000	17,667100
2411,000000	17,713600
2410,000000	17,757900
2409,000000	17,795500
2408,000000	17,836400
2407,000000	17,867000
2406,000000	17,889800
2405,000000	17,927000
2404,000000	17,957900
2403,000000	17,974600
2402,000000	17,987900
2401,000000	17,979900
2400,000000	17,987400
2399,000000	18,000900
2398,000000	18,019900
2397,000000	18,031400
2396,000000	18,054100
2395,000000	18,067300
2394,000000	18,071000
2393,000000	18,081800
2392,000000	18,080400
2391,000000	18,093500
2390,000000	18,098100
2389,000000	18,082600
2388,000000	18,072700
2387,000000	18,070900
2386,000000	18,056500
2385,000000	18,040400
2384,000000	18,028400
2383,000000	18,013800
2382,000000	17,995600
2381,000000	17,976900
2380,000000	17,952900
2379,000000	17,940000
2378,000000	17,912300
2377,000000	17,880900
2376,000000	17,864600
2375,000000	17,839800
2374,000000	17,821200
2373,000000	17,806800
2372,000000	17,774100
2371,000000	17,744500
2370,000000	17,740300
2369,000000	17,722600
2368,000000	17,695800
2367,000000	17,687500
2366,000000	17,685800
2365,000000	17,669000
2364,000000	17,638700
2363,000000	17,627100
2362,000000	17,627800
2361,000000	17,608400
2360,000000	17,582100
2359,000000	17,559900
2358,000000	17,540700
2357,000000	17,524200
2356,000000	17,501100
2355,000000	17,478500
2354,000000	17,449800
2353,000000	17,406300
2352,000000	17,370500
2351,000000	17,342900
2350,000000	17,309600
2349,000000	17,287500
2348,000000	17,250200
2347,000000	17,220200
2346,000000	17,189700
2345,000000	17,152400
2344,000000	17,119300
2343,000000	17,098400
2342,000000	17,074400
2341,000000	17,044100
2340,000000	17,024900
2339,000000	16,995800
2338,000000	16,971600
2337,000000	16,981900
2336,000000	16,964900
2335,000000	16,955700
2334,000000	16,951900
2333,000000	16,953500
2332,000000	16,959400
2331,000000	16,975800
2330,000000	16,993100
2329,000000	17,014300
2328,000000	17,031200
2327,000000	17,043100
2326,000000	17,045500
2325,000000	17,073000
2324,000000	17,093300
2323,000000	17,118000
2322,000000	17,119900
2321,000000	17,117600
2320,000000	17,120900
2319,000000	17,110600
2318,000000	17,110600
2317,000000	17,101400
2316,000000	17,080900
2315,000000	17,052600
2314,000000	17,025500
2313,000000	16,985300
2312,000000	16,957700
2311,000000	16,914300
2310,000000	16,876900
2309,000000	16,836700
2308,000000	16,797300
2307,000000	16,771200
2306,000000	16,739400
2305,000000	16,701300
2304,000000	16,666500
2303,000000	16,663200
2302,000000	16,638100
2301,000000	16,637200
2300,000000	16,625300
2299,000000	16,612400
2298,000000	16,629800
2297,000000	16,639500
2296,000000	16,661600
2295,000000	16,660200
2294,000000	16,673500
2293,000000	16,682500
2292,000000	16,711800
2291,000000	16,763800
2290,000000	16,768400
2289,000000	16,796300
2288,000000	16,829400
2287,000000	16,855100
2286,000000	16,905800
2285,000000	16,928900
2284,000000	16,961000
2283,000000	16,978500
2282,000000	17,024600
2281,000000	17,076800
2280,000000	17,111600
2279,000000	17,129800
2278,000000	17,154800
2277,000000	17,172700
2276,000000	17,206000
2275,000000	17,226500
2274,000000	17,255800
2273,000000	17,267500
2272,000000	17,294400
2271,000000	17,344800
2270,000000	17,365100
2269,000000	17,404200
2268,000000	17,439600
2267,000000	17,523500
2266,000000	17,577900
2265,000000	17,660200
2264,000000	17,734000
2263,000000	17,823300
2262,000000	17,940300
2261,000000	18,057500
2260,000000	18,218600
2259,000000	18,341600
2258,000000	18,481900
2257,000000	18,639000
2256,000000	18,842500
2255,000000	18,999600
2254,000000	19,183700
2253,000000	19,339400
2252,000000	19,520400
2251,000000	19,696600
2250,000000	19,879800
2249,000000	20,038000
2248,000000	20,203600
2247,000000	20,375800
2246,000000	20,505200
2245,000000	20,651100
2244,000000	20,797500
2243,000000	20,858300
2242,000000	20,979900
2241,000000	21,056600
2240,000000	21,155100
2239,000000	21,231600
2238,000000	21,279800
2237,000000	21,291300
2236,000000	21,329300
2235,000000	21,342400
2234,000000	21,369300
2233,000000	21,339100
2232,000000	21,345000
2231,000000	21,333200
2230,000000	21,315000
2229,000000	21,257400
2228,000000	21,223600
2227,000000	21,172800
2226,000000	21,110700
2225,000000	21,041600
2224,000000	20,966700
2223,000000	20,897800
2222,000000	20,803200
2221,000000	20,725400
2220,000000	20,631800
2219,000000	20,549400
2218,000000	20,463800
2217,000000	20,387200
2216,000000	20,294600
2215,000000	20,207000
2214,000000	20,125000
2213,000000	20,051100
2212,000000	19,973700
2211,000000	19,894500
2210,000000	19,817600
2209,000000	19,757700
2208,000000	19,714800
2207,000000	19,649100
2206,000000	19,581200
2205,000000	19,517900
2204,000000	19,461500
2203,000000	19,418600
2202,000000	19,389000
2201,000000	19,332700
2200,000000	19,278400
2199,000000	19,242200
2198,000000	19,195500
2197,000000	19,160900
2196,000000	19,111000
2195,000000	19,098600
2194,000000	19,067200
2193,000000	19,022500
2192,000000	19,001800
2191,000000	18,987200
2190,000000	18,960200
2189,000000	18,942800
2188,000000	18,920000
2187,000000	18,886800
2186,000000	18,880500
2185,000000	18,841300
2184,000000	18,809500
2183,000000	18,795600
2182,000000	18,759700
2181,000000	18,749900
2180,000000	18,737900
2179,000000	18,707900
2178,000000	18,690500
2177,000000	18,677500
2176,000000	18,671100
2175,000000	18,662400
2174,000000	18,667700
2173,000000	18,672400
2172,000000	18,678600
2171,000000	18,696800
2170,000000	18,714400
2169,000000	18,726900
2168,000000	18,749300
2167,000000	18,787200
2166,000000	18,817700
2165,000000	18,876100
2164,000000	18,914800
2163,000000	18,956700
2162,000000	19,004200
2161,000000	19,071000
2160,000000	19,135500
2159,000000	19,215600
2158,000000	19,299500
2157,000000	19,383200
2156,000000	19,492700
2155,000000	19,591400
2154,000000	19,687100
2153,000000	19,811500
2152,000000	19,918800
2151,000000	20,027300
2150,000000	20,146600
2149,000000	20,269800
2148,000000	20,398800
2147,000000	20,522400
2146,000000	20,636900
2145,000000	20,768900
2144,000000	20,886800
2143,000000	21,010300
2142,000000	21,138300
2141,000000	21,254800
2140,000000	21,368200
2139,000000	21,478200
2138,000000	21,584100
2137,000000	21,700800
2136,000000	21,808400
2135,000000	21,891600
2134,000000	21,986800
2133,000000	22,076500
2132,000000	22,167900
2131,000000	22,249300
2130,000000	22,318100
2129,000000	22,401900
2128,000000	22,473500
2127,000000	22,537100
2126,000000	22,597200
2125,000000	22,653900
2124,000000	22,709000
2123,000000	22,767400
2122,000000	22,816700
2121,000000	22,840000
2120,000000	22,880100
2119,000000	22,925300
2118,000000	22,958700
2117,000000	22,995900
2116,000000	23,017100
2115,000000	23,038500
2114,000000	23,043300
2113,000000	23,057800
2112,000000	23,079400
2111,000000	23,086400
2110,000000	23,104100
2109,000000	23,104200
2108,000000	23,100400
2107,000000	23,103200
2106,000000	23,101400
2105,000000	23,109500
2104,000000	23,116600
2103,000000	23,106100
2102,000000	23,103100
2101,000000	23,101000
2100,000000	23,094300
2099,000000	23,105700
2098,000000	23,128600
2097,000000	23,138100
2096,000000	23,147200
2095,000000	23,163300
2094,000000	23,190500
2093,000000	23,228000
2092,000000	23,250500
2091,000000	23,271700
2090,000000	23,295900
2089,000000	23,312200
2088,000000	23,341100
2087,000000	23,368300
2086,000000	23,375000
2085,000000	23,370700
2084,000000	23,376700
2083,000000	23,366700
2082,000000	23,334800
2081,000000	23,307800
2080,000000	23,284700
2079,000000	23,238000
2078,000000	23,183200
2077,000000	23,117100
2076,000000	23,037600
2075,000000	22,958100
2074,000000	22,862900
2073,000000	22,763100
2072,000000	22,653400
2071,000000	22,539200
2070,000000	22,422900
2069,000000	22,291700
2068,000000	22,155600
2067,000000	22,029200
2066,000000	21,910600
2065,000000	21,781800
2064,000000	21,661300
2063,000000	21,533600
2062,000000	21,402200
2061,000000	21,290000
2060,000000	21,178200
2059,000000	21,068400
2058,000000	20,985200
2057,000000	20,929100
2056,000000	20,878200
2055,000000	20,853300
2054,000000	20,870300
2053,000000	20,906100
2052,000000	20,933300
2051,000000	20,991700
2050,000000	21,100300
2049,000000	21,213500
2048,000000	21,348800
2047,000000	21,493200
2046,000000	21,634800
2045,000000	21,819900
2044,000000	22,002500
2043,000000	22,177700
2042,000000	22,361100
2041,000000	22,551400
2040,000000	22,733100
2039,000000	22,900700
2038,000000	23,095300
2037,000000	23,247400
2036,000000	23,411100
2035,000000	23,571800
2034,000000	23,722900
2033,000000	23,874300
2032,000000	24,017500
2031,000000	24,161800
2030,000000	24,265300
2029,000000	24,392100
2028,000000	24,520500
2027,000000	24,628500
2026,000000	24,710900
2025,000000	24,815600
2024,000000	24,917800
2023,000000	25,023600
2022,000000	25,103800
2021,000000	25,179000
2020,000000	25,251200
2019,000000	25,318700
2018,000000	25,401800
2017,000000	25,443500
2016,000000	25,497400
2015,000000	25,549200
2014,000000	25,577400
2013,000000	25,598100
2012,000000	25,622900
2011,000000	25,638700
2010,000000	25,654500
2009,000000	25,655800
2008,000000	25,641200
2007,000000	25,646100
2006,000000	25,628800
2005,000000	25,581700
2004,000000	25,549000
2003,000000	25,511500
2002,000000	25,472500
2001,000000	25,408500
2000,000000	25,356300
1999,000000	25,277400
1998,000000	25,213000
1997,000000	25,144000
1996,000000	25,078500
1995,000000	24,993300
1994,000000	24,898600
1993,000000	24,803600
1992,000000	24,695400
1991,000000	24,623800
1990,000000	24,530400
1989,000000	24,412400
1988,000000	24,330900
1987,000000	24,216300
1986,000000	24,112700
1985,000000	24,009700
1984,000000	23,903300
1983,000000	23,792800
1982,000000	23,692500
1981,000000	23,572800
1980,000000	23,464800
1979,000000	23,359700
1978,000000	23,263300
1977,000000	23,136800
1976,000000	23,054300
1975,000000	22,964500
1974,000000	22,848600
1973,000000	22,753800
1972,000000	22,644400
1971,000000	22,547100
1970,000000	22,453700
1969,000000	22,371300
1968,000000	22,270500
1967,000000	22,176700
1966,000000	22,079900
1965,000000	21,993000
1964,000000	21,904200
1963,000000	21,782000
1962,000000	21,682400
1961,000000	21,593300
1960,000000	21,467000
1959,000000	21,368500
1958,000000	21,276200
1957,000000	21,189200
1956,000000	21,060500
1955,000000	20,967200
1954,000000	20,871700
1953,000000	20,734400
1952,000000	20,681600
1951,000000	20,584000
1950,000000	20,503800
1949,000000	20,395500
1948,000000	20,307000
1947,000000	20,233800
1946,000000	20,130900
1945,000000	20,090800
1944,000000	20,028400
1943,000000	19,951400
1942,000000	19,927600
1941,000000	19,879500
1940,000000	19,831100
1939,000000	19,811800
1938,000000	19,792200
1937,000000	19,786400
1936,000000	19,755000
1935,000000	19,767500
1934,000000	19,799100
1933,000000	19,830200
1932,000000	19,841800
1931,000000	19,922400
1930,000000	19,974000
1929,000000	20,078000
1928,000000	20,172500
1927,000000	20,271900
1926,000000	20,369900
1925,000000	20,506000
1924,000000	20,616300
1923,000000	20,771200
1922,000000	20,959200
1921,000000	21,190200
1920,000000	21,408900
1919,000000	21,592700
1918,000000	21,805500
1917,000000	22,045800
1916,000000	22,258500
1915,000000	22,552300
1914,000000	22,914900
1913,000000	23,290800
1912,000000	23,637600
1911,000000	23,996000
1910,000000	24,308900
1909,000000	24,652300
1908,000000	25,091200
1907,000000	25,591700
1906,000000	26,168600
1905,000000	26,742200
1904,000000	27,279900
1903,000000	27,843100
1902,000000	28,428800
1901,000000	29,083700
1900,000000	29,801000
1899,000000	30,518400
1898,000000	31,167400
1897,000000	31,792700
1896,000000	32,363200
1895,000000	32,959000
1894,000000	33,589600
1893,000000	34,290800
1892,000000	35,054500
1891,000000	35,738600
1890,000000	36,374000
1889,000000	36,984300
1888,000000	37,542300
1887,000000	38,090100
1886,000000	38,609200
1885,000000	39,174200
1884,000000	39,698100
1883,000000	40,153300
1882,000000	40,577600
1881,000000	40,965100
1880,000000	41,315500
1879,000000	41,688700
1878,000000	42,041500
1877,000000	42,346900
1876,000000	42,657300
1875,000000	42,967000
1874,000000	43,262400
1873,000000	43,541900
1872,000000	43,794600
1871,000000	44,023900
1870,000000	44,223800
1869,000000	44,395400
1868,000000	44,512000
1867,000000	44,596000
1866,000000	44,663500
1865,000000	44,743600
1864,000000	44,811000
1863,000000	44,918400
1862,000000	45,042500
1861,000000	45,159600
1860,000000	45,258700
1859,000000	45,342300
1858,000000	45,399200
1857,000000	45,431200
1856,000000	45,459800
1855,000000	45,531900
1854,000000	45,569200
1853,000000	45,568400
1852,000000	45,586400
1851,000000	45,617400
1850,000000	45,657800
1849,000000	45,688200
1848,000000	45,712600
1847,000000	45,665800
1846,000000	45,599600
1845,000000	45,573700
1844,000000	45,542700
1843,000000	45,575900
1842,000000	45,591200
1841,000000	45,544600
1840,000000	45,507200
1839,000000	45,462800
1838,000000	45,421200
1837,000000	45,384200
1836,000000	45,340400
1835,000000	45,268100
1834,000000	45,189500
1833,000000	45,137700
1832,000000	45,112700
1831,000000	45,096800
1830,000000	45,069300
1829,000000	45,035200
1828,000000	44,994800
1827,000000	44,973200
1826,000000	44,962000
1825,000000	44,929300
1824,000000	44,915000
1823,000000	44,971600
1822,000000	45,028100
1821,000000	45,044600
1820,000000	45,037400
1819,000000	45,014700
1818,000000	44,989500
1817,000000	44,984700
1816,000000	44,993500
1815,000000	44,980200
1814,000000	44,971800
1813,000000	44,959600
1812,000000	44,931300
1811,000000	44,891200
1810,000000	44,853700
1809,000000	44,816700
1808,000000	44,807800
1807,000000	44,796900
1806,000000	44,760200
1805,000000	44,724900
1804,000000	44,709200
1803,000000	44,708800
1802,000000	44,690100
1801,000000	44,650400
1800,000000	44,602100
1799,000000	44,582500
1798,000000	44,570400
1797,000000	44,540100
1796,000000	44,512500
1795,000000	44,482600
1794,000000	44,463000
1793,000000	44,439800
1792,000000	44,416400
1791,000000	44,399600
1790,000000	44,397200
1789,000000	44,408700
1788,000000	44,423700
1787,000000	44,427900
1786,000000	44,436200
1785,000000	44,425900
1784,000000	44,419100
1783,000000	44,402100
1782,000000	44,390400
1781,000000	44,374100
1780,000000	44,341300
1779,000000	44,302200
1778,000000	44,263000
1777,000000	44,221100
1776,000000	44,165700
1775,000000	44,097400
1774,000000	44,036000
1773,000000	43,987400
1772,000000	43,934600
1771,000000	43,881400
1770,000000	43,826000
1769,000000	43,786000
1768,000000	43,728200
1767,000000	43,692000
1766,000000	43,672200
1765,000000	43,646100
1764,000000	43,610600
1763,000000	43,596300
1762,000000	43,589700
1761,000000	43,575000
1760,000000	43,569300
1759,000000	43,588000
1758,000000	43,575300
1757,000000	43,586100
1756,000000	43,600300
1755,000000	43,598400
1754,000000	43,586200
1753,000000	43,582800
1752,000000	43,577600
1751,000000	43,560000
1750,000000	43,527700
1749,000000	43,469400
1748,000000	43,410700
1747,000000	43,341600
1746,000000	43,258800
1745,000000	43,167800
1744,000000	43,052200
1743,000000	42,957300
1742,000000	42,845200
1741,000000	42,729200
1740,000000	42,613500
1739,000000	42,505000
1738,000000	42,409600
1737,000000	42,314300
1736,000000	42,221800
1735,000000	42,154900
1734,000000	42,058600
1733,000000	42,002000
1732,000000	41,926500
1731,000000	41,836000
1730,000000	41,743800
1729,000000	41,657000
1728,000000	41,575800
1727,000000	41,511800
1726,000000	41,466000
1725,000000	41,435200
1724,000000	41,451900
1723,000000	41,524900
1722,000000	41,647800
1721,000000	41,850700
1720,000000	42,067900
1719,000000	42,340700
1718,000000	42,641700
1717,000000	42,939100
1716,000000	43,241500
1715,000000	43,511600
1714,000000	43,766600
1713,000000	44,010800
1712,000000	44,217100
1711,000000	44,413100
1710,000000	44,569000
1709,000000	44,720600
1708,000000	44,854200
1707,000000	44,963800
1706,000000	45,071800
1705,000000	45,144500
1704,000000	45,206800
1703,000000	45,256800
1702,000000	45,303100
1701,000000	45,296000
1700,000000	45,319900
1699,000000	45,324900
1698,000000	45,292700
1697,000000	45,278000
1696,000000	45,216400
1695,000000	45,129000
1694,000000	45,003700
1693,000000	44,865000
1692,000000	44,738000
1691,000000	44,601700
1690,000000	44,510000
1689,000000	44,474700
1688,000000	44,497700
1687,000000	44,555400
1686,000000	44,735100
1685,000000	44,911000
1684,000000	45,157200
1683,000000	45,400900
1682,000000	45,659600
1681,000000	45,934600
1680,000000	46,155000
1679,000000	46,398700
1678,000000	46,614000
1677,000000	46,822300
1676,000000	46,995400
1675,000000	47,177700
1674,000000	47,357200
1673,000000	47,550300
1672,000000	47,755000
1671,000000	47,949100
1670,000000	48,164400
1669,000000	48,378700
1668,000000	48,584200
1667,000000	48,798200
1666,000000	48,985100
1665,000000	49,172100
1664,000000	49,339600
1663,000000	49,501200
1662,000000	49,674400
1661,000000	49,815000
1660,000000	49,949500
1659,000000	50,077100
1658,000000	50,196300
1657,000000	50,271000
1656,000000	50,354900
1655,000000	50,442100
1654,000000	50,496300
1653,000000	50,543700
1652,000000	50,587200
1651,000000	50,622300
1650,000000	50,647700
1649,000000	50,665800
1648,000000	50,655500
1647,000000	50,655100
1646,000000	50,647000
1645,000000	50,636500
1644,000000	50,641800
1643,000000	50,631100
1642,000000	50,612600
1641,000000	50,608800
1640,000000	50,616600
1639,000000	50,591800
1638,000000	50,583800
1637,000000	50,569200
1636,000000	50,544700
1635,000000	50,519200
1634,000000	50,486400
1633,000000	50,442400
1632,000000	50,416800
1631,000000	50,382200
1630,000000	50,315000
1629,000000	50,266400
1628,000000	50,225400
1627,000000	50,165500
1626,000000	50,121700
1625,000000	50,074100
1624,000000	50,018900
1623,000000	49,976100
1622,000000	49,942400
1621,000000	49,887400
1620,000000	49,837300
1619,000000	49,800200
1618,000000	49,768300
1617,000000	49,720300
1616,000000	49,673300
1615,000000	49,622900
1614,000000	49,566200
1613,000000	49,522500
1612,000000	49,451100
1611,000000	49,389000
1610,000000	49,323500
1609,000000	49,257000
1608,000000	49,181900
1607,000000	49,107700
1606,000000	49,025300
1605,000000	48,919000
1604,000000	48,843600
1603,000000	48,762200
1602,000000	48,668700
1601,000000	48,578300
1600,000000	48,494100
1599,000000	48,409900
1598,000000	48,337600
1597,000000	48,269700
1596,000000	48,199400
1595,000000	48,127600
1594,000000	48,067000
1593,000000	48,006900
1592,000000	47,955100
1591,000000	47,895700
1590,000000	47,843800
1589,000000	47,799400
1588,000000	47,753000
1587,000000	47,691500
1586,000000	47,639600
1585,000000	47,591700
1584,000000	47,552200
1583,000000	47,522500
1582,000000	47,479100
1581,000000	47,445000
1580,000000	47,416700
1579,000000	47,400000
1578,000000	47,380400
1577,000000	47,362900
1576,000000	47,357100
1575,000000	47,354300
1574,000000	47,358700
1573,000000	47,366300
1572,000000	47,376400
1571,000000	47,397100
1570,000000	47,423200
1569,000000	47,450400
1568,000000	47,485000
1567,000000	47,513000
1566,000000	47,535700
1565,000000	47,559500
1564,000000	47,577100
1563,000000	47,581600
1562,000000	47,593300
1561,000000	47,589500
1560,000000	47,572000
1559,000000	47,545600
1558,000000	47,512800
1557,000000	47,474000
1556,000000	47,413000
1555,000000	47,349600
1554,000000	47,273300
1553,000000	47,191200
1552,000000	47,111800
1551,000000	47,024300
1550,000000	46,918500
1549,000000	46,815400
1548,000000	46,726900
1547,000000	46,644200
1546,000000	46,572500
1545,000000	46,507000
1544,000000	46,435900
1543,000000	46,383900
1542,000000	46,335300
1541,000000	46,292100
1540,000000	46,255600
1539,000000	46,208500
1538,000000	46,145000
1537,000000	46,085900
1536,000000	46,030500
1535,000000	45,982700
1534,000000	45,918600
1533,000000	45,844900
1532,000000	45,778000
1531,000000	45,698600
1530,000000	45,622200
1529,000000	45,554500
1528,000000	45,477300
1527,000000	45,393700
1526,000000	45,316200
1525,000000	45,233300
1524,000000	45,161700
1523,000000	45,076400
1522,000000	44,976600
1521,000000	44,895600
1520,000000	44,805200
1519,000000	44,724200
1518,000000	44,646500
1517,000000	44,544100
1516,000000	44,454900
1515,000000	44,362600
1514,000000	44,259700
1513,000000	44,160700
1512,000000	44,063300
1511,000000	43,965600
1510,000000	43,870200
1509,000000	43,784700
1508,000000	43,692300
1507,000000	43,584400
1506,000000	43,506100
1505,000000	43,433200
1504,000000	43,346800
1503,000000	43,260400
1502,000000	43,189500
1501,000000	43,126800
1500,000000	43,082800
1499,000000	43,043300
1498,000000	42,993100
1497,000000	42,990400
1496,000000	42,979300
1495,000000	42,966600
1494,000000	42,969200
1493,000000	42,979700
1492,000000	43,010200
1491,000000	43,029900
1490,000000	43,049300
1489,000000	43,070100
1488,000000	43,103000
1487,000000	43,124100
1486,000000	43,159000
1485,000000	43,183000
1484,000000	43,226000
1483,000000	43,274500
1482,000000	43,316800
1481,000000	43,367700
1480,000000	43,401300
1479,000000	43,465400
1478,000000	43,523400
1477,000000	43,590800
1476,000000	43,679900
1475,000000	43,761500
1474,000000	43,855100
1473,000000	43,980200
1472,000000	44,075700
1471,000000	44,186100
1470,000000	44,270800
1469,000000	44,375700
1468,000000	44,498100
1467,000000	44,618400
1466,000000	44,728200
1465,000000	44,841200
1464,000000	44,949900
1463,000000	45,073000
1462,000000	45,198400
1461,000000	45,301900
1460,000000	45,418800
1459,000000	45,534300
1458,000000	45,656000
1457,000000	45,802100
1456,000000	45,941000
1455,000000	46,043400
1454,000000	46,151800
1453,000000	46,291400
1452,000000	46,430100
1451,000000	46,542500
1450,000000	46,625900
1449,000000	46,679900
1448,000000	46,821900
1447,000000	46,980700
1446,000000	47,134400
1445,000000	47,218500
1444,000000	47,300800
1443,000000	47,431700
1442,000000	47,555400
1441,000000	47,677600
1440,000000	47,815100
1439,000000	47,950400
1438,000000	48,097300
1437,000000	48,221600
1436,000000	48,369700
1435,000000	48,561500
1434,000000	48,712500
1433,000000	48,915700
1432,000000	49,082700
1431,000000	49,231900
1430,000000	49,438400
1429,000000	49,635700
1428,000000	49,849000
1427,000000	50,065500
1426,000000	50,328100
1425,000000	50,577300
1424,000000	50,853600
1423,000000	51,127400
1422,000000	51,376500
1421,000000	51,709200
1420,000000	52,070500
1419,000000	52,372000
1418,000000	52,618400
1417,000000	52,959900
1416,000000	53,348600
1415,000000	53,793700
1414,000000	54,182400
1413,000000	54,525800
1412,000000	54,884800
1411,000000	55,366900
1410,000000	55,887300
1409,000000	56,313400
1408,000000	56,766900
1407,000000	57,140700
1406,000000	57,624600
1405,000000	58,024100
1404,000000	58,479200
1403,000000	58,866400
1402,000000	59,358200
1401,000000	59,862000
1400,000000	60,237000
1399,000000	60,462400
1398,000000	60,780900
1397,000000	61,224200
1396,000000	61,675700
1395,000000	61,978600
1394,000000	62,230100
1393,000000	62,517400
1392,000000	62,830600
1391,000000	63,113000
1390,000000	63,401200
1389,000000	63,785700
1388,000000	64,088900
1387,000000	64,371500
1386,000000	64,659000
1385,000000	64,997700
1384,000000	65,232900
1383,000000	65,505000
1382,000000	65,670600
1381,000000	65,774500
1380,000000	65,905800
1379,000000	66,020200
1378,000000	66,114500
1377,000000	66,240800
1376,000000	66,335900
1375,000000	66,456300
1374,000000	66,578700
1373,000000	66,745300
1372,000000	66,913400
1371,000000	67,043400
1370,000000	67,179300
1369,000000	67,342600
1368,000000	67,455500
1367,000000	67,536900
1366,000000	67,651700
1365,000000	67,776300
1364,000000	67,869500
1363,000000	68,013700
1362,000000	68,094900
1361,000000	68,120300
1360,000000	68,085400
1359,000000	68,164000
1358,000000	68,227300
1357,000000	68,325200
1356,000000	68,472200
1355,000000	68,587500
1354,000000	68,703300
1353,000000	68,832300
1352,000000	69,011000
1351,000000	69,204900
1350,000000	69,406700
1349,000000	69,614400
1348,000000	69,847300
1347,000000	70,030900
1346,000000	70,188400
1345,000000	70,397400
1344,000000	70,581400
1343,000000	70,743000
1342,000000	70,901100
1341,000000	71,057500
1340,000000	71,202400
1339,000000	71,335300
1338,000000	71,463900
1337,000000	71,604900
1336,000000	71,730100
1335,000000	71,827500
1334,000000	71,941000
1333,000000	72,037200
1332,000000	72,133500
1331,000000	72,224700
1330,000000	72,314400
1329,000000	72,386800
1328,000000	72,463600
1327,000000	72,542700
1326,000000	72,597400
1325,000000	72,645400
1324,000000	72,717900
1323,000000	72,769800
1322,000000	72,835200
1321,000000	72,899300
1320,000000	72,948100
1319,000000	72,999600
1318,000000	73,042100
1317,000000	73,089900
1316,000000	73,138500
1315,000000	73,189900
1314,000000	73,240700
1313,000000	73,276700
1312,000000	73,315300
1311,000000	73,359900
1310,000000	73,389600
1309,000000	73,426600
1308,000000	73,465200
1307,000000	73,484300
1306,000000	73,504800
1305,000000	73,536700
1304,000000	73,563100
1303,000000	73,581200
1302,000000	73,599600
1301,000000	73,620800
1300,000000	73,636200
1299,000000	73,640300
1298,000000	73,645000
1297,000000	73,650800
1296,000000	73,651100
1295,000000	73,650200
1294,000000	73,645300
1293,000000	73,645700
1292,000000	73,641100
1291,000000	73,625400
1290,000000	73,613100
1289,000000	73,604000
1288,000000	73,583900
1287,000000	73,555300
1286,000000	73,521900
1285,000000	73,504600
1284,000000	73,480800
1283,000000	73,457200
1282,000000	73,447600
1281,000000	73,414500
1280,000000	73,385500
1279,000000	73,365700
1278,000000	73,348400
1277,000000	73,332500
1276,000000	73,326000
1275,000000	73,329600
1274,000000	73,320900
1273,000000	73,313500
1272,000000	73,315300
1271,000000	73,323800
1270,000000	73,329400
1269,000000	73,351800
1268,000000	73,348000
1267,000000	73,350200
1266,000000	73,342300
1265,000000	73,328200
1264,000000	73,332300
1263,000000	73,334500
1262,000000	73,331100
1261,000000	73,321800
1260,000000	73,330900
1259,000000	73,331900
1258,000000	73,322900
1257,000000	73,318000
1256,000000	73,319400
1255,000000	73,321400
1254,000000	73,298200
1253,000000	73,280500
1252,000000	73,277800
1251,000000	73,248400
1250,000000	73,198600
1249,000000	73,166300
1248,000000	73,124100
1247,000000	73,084300
1246,000000	73,016300
1245,000000	72,968600
1244,000000	72,931100
1243,000000	72,873500
1242,000000	72,817100
1241,000000	72,773700
1240,000000	72,734000
1239,000000	72,697200
1238,000000	72,651800
1237,000000	72,614600
1236,000000	72,586500
1235,000000	72,553600
1234,000000	72,528200
1233,000000	72,482300
1232,000000	72,462400
1231,000000	72,433700
1230,000000	72,400500
1229,000000	72,375400
1228,000000	72,349500
1227,000000	72,324100
1226,000000	72,288700
1225,000000	72,272300
1224,000000	72,246600
1223,000000	72,230900
1222,000000	72,218600
1221,000000	72,200200
1220,000000	72,186100
1219,000000	72,153800
1218,000000	72,129600
1217,000000	72,108200
1216,000000	72,097100
1215,000000	72,079100
1214,000000	72,047300
1213,000000	72,015600
1212,000000	71,984000
1211,000000	71,949800
1210,000000	71,906900
1209,000000	71,877200
1208,000000	71,838100
1207,000000	71,790100
1206,000000	71,734300
1205,000000	71,700200
1204,000000	71,648600
1203,000000	71,583700
1202,000000	71,544800
1201,000000	71,488600
1200,000000	71,432100
1199,000000	71,378700
1198,000000	71,303400
1197,000000	71,232000
1196,000000	71,166000
1195,000000	71,092700
1194,000000	71,008900
1193,000000	70,938200
1192,000000	70,863400
1191,000000	70,784800
1190,000000	70,722800
1189,000000	70,697800
1188,000000	70,643100
1187,000000	70,631700
1186,000000	70,636800
1185,000000	70,648000
1184,000000	70,665000
1183,000000	70,685200
1182,000000	70,739200
1181,000000	70,783200
1180,000000	70,829700
1179,000000	70,898200
1178,000000	70,959400
1177,000000	71,027200
1176,000000	71,077200
1175,000000	71,129500
1174,000000	71,208300
1173,000000	71,273200
1172,000000	71,362600
1171,000000	71,474000
1170,000000	71,571400
1169,000000	71,685100
1168,000000	71,801500
1167,000000	71,976600
1166,000000	72,106300
1165,000000	72,244700
1164,000000	72,397500
1163,000000	72,547600
1162,000000	72,693900
1161,000000	72,845600
1160,000000	72,996400
1159,000000	73,135700
1158,000000	73,269100
1157,000000	73,402300
1156,000000	73,527800
1155,000000	73,649400
1154,000000	73,753600
1153,000000	73,849700
1152,000000	73,943300
1151,000000	74,008900
1150,000000	74,066300
1149,000000	74,135600
1148,000000	74,222400
1147,000000	74,308000
1146,000000	74,360100
1145,000000	74,411600
1144,000000	74,458700
1143,000000	74,516400
1142,000000	74,602500
1141,000000	74,674100
1140,000000	74,770600
1139,000000	74,867900
1138,000000	74,994800
1137,000000	75,137700
1136,000000	75,258800
1135,000000	75,383400
1134,000000	75,459500
1133,000000	75,520100
1132,000000	75,605500
1131,000000	75,703200
1130,000000	75,802000
1129,000000	75,868600
1128,000000	75,949200
1127,000000	76,002700
1126,000000	76,053300
1125,000000	76,104700
1124,000000	76,133800
1123,000000	76,175000
1122,000000	76,212600
1121,000000	76,200300
1120,000000	76,209800
1119,000000	76,221700
1118,000000	76,245600
1117,000000	76,247600
1116,000000	76,232200
1115,000000	76,241200
1114,000000	76,257600
1113,000000	76,255600
1112,000000	76,260000
1111,000000	76,255300
1110,000000	76,267900
1109,000000	76,275600
1108,000000	76,273800
1107,000000	76,280100
1106,000000	76,263800
1105,000000	76,271300
1104,000000	76,277600
1103,000000	76,278500
1102,000000	76,284200
1101,000000	76,294300
1100,000000	76,284500
1099,000000	76,282700
1098,000000	76,257800
1097,000000	76,247300
1096,000000	76,251300
1095,000000	76,254500
1094,000000	76,250200
1093,000000	76,239300
1092,000000	76,244100
1091,000000	76,222300
1090,000000	76,216000
1089,000000	76,211700
1088,000000	76,191000
1087,000000	76,185400
1086,000000	76,174500
1085,000000	76,147000
1084,000000	76,132500
1083,000000	76,121200
1082,000000	76,102000
1081,000000	76,083100
1080,000000	76,070500
1079,000000	76,053300
1078,000000	76,018200
1077,000000	75,999700
1076,000000	75,991300
1075,000000	75,958200
1074,000000	75,944100
1073,000000	75,917700
1072,000000	75,880300
1071,000000	75,871900
1070,000000	75,847300
1069,000000	75,833300
1068,000000	75,806700
1067,000000	75,782800
1066,000000	75,764300
1065,000000	75,743300
1064,000000	75,718400
1063,000000	75,700300
1062,000000	75,681400
1061,000000	75,679800
1060,000000	75,675300
1059,000000	75,660800
1058,000000	75,658900
1057,000000	75,651200
1056,000000	75,635400
1055,000000	75,612100
1054,000000	75,622000
1053,000000	75,623400
1052,000000	75,614800
1051,000000	75,625000
1050,000000	75,636800
1049,000000	75,622200
1048,000000	75,620600
1047,000000	75,628000
1046,000000	75,645500
1045,000000	75,654700
1044,000000	75,667000
1043,000000	75,681200
1042,000000	75,691000
1041,000000	75,707100
1040,000000	75,717000
1039,000000	75,726900
1038,000000	75,742400
1037,000000	75,758500
1036,000000	75,771500
1035,000000	75,795400
1034,000000	75,808800
1033,000000	75,813400
1032,000000	75,834300
1031,000000	75,839600
1030,000000	75,831700
1029,000000	75,844400
1028,000000	75,861600
1027,000000	75,866000
1026,000000	75,863500
1025,000000	75,878400
1024,000000	75,889700
1023,000000	75,887900
1022,000000	75,890900
1021,000000	75,898500
1020,000000	75,901400
1019,000000	75,917700
1018,000000	75,932100
1017,000000	75,938600
1016,000000	75,963300
1015,000000	75,972300
1014,000000	75,974900
1013,000000	75,992800
1012,000000	76,013900
1011,000000	76,036700
1010,000000	76,039100
1009,000000	76,046700
1008,000000	76,071600
1007,000000	76,083100
1006,000000	76,106800
1005,000000	76,125400
1004,000000	76,141200
1003,000000	76,165100
1002,000000	76,205900
1001,000000	76,226600
1000,000000	76,249000
999,000000	76,287900
998,000000	76,317700
997,000000	76,364700
996,000000	76,412700
995,000000	76,454300
994,000000	76,494300
993,000000	76,552700
992,000000	76,601800
991,000000	76,651600
990,000000	76,701400
989,000000	76,763900
988,000000	76,831400
987,000000	76,894700
986,000000	76,961100
985,000000	77,022800
984,000000	77,094200
983,000000	77,167200
982,000000	77,253100
981,000000	77,332700
980,000000	77,427900
979,000000	77,521100
978,000000	77,594300
977,000000	77,668700
976,000000	77,758300
975,000000	77,844400
974,000000	77,948400
973,000000	78,015200
972,000000	78,078700
971,000000	78,174400
970,000000	78,260200
969,000000	78,306000
968,000000	78,382300
967,000000	78,452100
966,000000	78,539600
965,000000	78,621300
964,000000	78,670900
963,000000	78,716800
962,000000	78,774200
961,000000	78,864700
960,000000	78,899300
959,000000	78,979900
958,000000	79,027400
957,000000	79,076300
956,000000	79,149400
955,000000	79,195100
954,000000	79,229800
953,000000	79,296800
952,000000	79,322200
951,000000	79,351000
950,000000	79,410600
949,000000	79,438000
948,000000	79,463200
947,000000	79,505200
946,000000	79,546400
945,000000	79,573700
944,000000	79,614000
943,000000	79,651200
942,000000	79,682400
941,000000	79,712300
940,000000	79,760400
939,000000	79,785200
938,000000	79,876800
937,000000	79,894400
936,000000	79,937700
935,000000	79,984600
934,000000	80,050800
933,000000	80,096800
932,000000	80,133600
931,000000	80,177000
930,000000	80,219900
929,000000	80,290700
928,000000	80,311700
927,000000	80,363900
926,000000	80,392300
925,000000	80,492300
924,000000	80,505200
923,000000	80,552400
922,000000	80,592700
921,000000	80,622800
920,000000	80,658700
919,000000	80,669900
918,000000	80,701400
917,000000	80,724800
916,000000	80,749900
915,000000	80,761500
914,000000	80,764700
913,000000	80,868600
912,000000	80,849500
911,000000	80,811100
910,000000	80,820900
909,000000	80,804900
908,000000	80,814300
907,000000	80,821000
906,000000	80,814400
905,000000	80,810600
904,000000	80,846200
903,000000	80,853700
902,000000	80,879900
901,000000	80,885000
900,000000	80,895300
899,000000	80,944100
898,000000	80,945100
897,000000	80,975200
896,000000	81,012100
895,000000	81,012500
894,000000	81,070400
893,000000	81,090800
892,000000	81,129900
891,000000	81,169600
890,000000	81,231600
889,000000	81,265600
888,000000	81,327500
887,000000	81,393200
886,000000	81,452300
885,000000	81,541900
884,000000	81,642300
883,000000	81,696100
882,000000	81,779000
881,000000	81,866300
880,000000	81,958300
879,000000	82,043700
878,000000	82,152800
877,000000	82,218300
876,000000	82,303500
875,000000	82,336300
874,000000	82,371800
873,000000	82,365100
872,000000	82,348600
871,000000	82,378600
870,000000	82,422700
869,000000	82,494100
868,000000	82,537900
867,000000	82,547800
866,000000	82,620800
865,000000	82,634000
864,000000	82,675200
863,000000	82,675200
862,000000	82,717800
861,000000	82,719600
860,000000	82,743000
859,000000	82,780100
858,000000	83,071100
857,000000	84,495000
856,000000	83,852600
855,000000	84,020000
854,000000	84,687200
853,000000	85,064200
852,000000	84,361800
851,000000	84,210000
850,000000	84,453800
849,000000	84,391400
848,000000	84,273800
847,000000	83,864000
846,000000	84,395500
845,000000	83,925600
844,000000	84,158100
843,000000	84,156100
842,000000	83,821600
841,000000	83,977900
840,000000	83,794500
839,000000	83,914600
838,000000	83,752900
837,000000	83,772100
836,000000	83,755000
835,000000	83,630100
834,000000	83,536900
833,000000	83,592900
832,000000	83,779600
831,000000	83,688700
830,000000	83,327900
829,000000	83,298900
828,000000	83,393400
827,000000	83,548300
826,000000	83,204100
825,000000	83,301200
824,000000	83,227100
823,000000	83,231600
822,000000	83,332900
821,000000	83,483000
820,000000	83,428600
819,000000	83,460800
818,000000	83,458000
817,000000	83,579400
816,000000	83,832200
815,000000	83,885500
814,000000	83,931500
813,000000	84,034500
812,000000	84,086100
811,000000	84,189700
810,000000	84,375000
809,000000	84,445800
808,000000	84,556400
807,000000	84,667700
806,000000	84,814400
805,000000	85,076600
804,000000	85,291000
803,000000	85,503400
802,000000	85,743800
801,000000	85,766000
800,000000	85,824700
799,000000	85,942000
798,000000	86,213800
797,000000	86,197200
796,000000	86,285300
795,000000	86,317400
794,000000	86,466000
793,000000	86,341200
792,000000	86,297400
791,000000	86,397000
790,000000	86,325200
789,000000	86,282900
788,000000	86,208500
787,000000	86,044500
786,000000	85,782600
785,000000	85,792600
784,000000	85,767600
783,000000	85,510700
782,000000	85,383100
781,000000	85,242800
780,000000	85,157200
779,000000	85,192700
778,000000	85,038200
777,000000	84,866800
776,000000	84,816400
775,000000	84,791900
774,000000	84,721000
773,000000	84,753400
772,000000	84,775200
771,000000	84,644800
770,000000	84,735300
769,000000	84,992800
768,000000	85,092100
767,000000	85,116200
766,000000	85,198200
765,000000	85,357000
764,000000	85,560700
763,000000	85,725600
762,000000	85,840800
761,000000	85,975800
760,000000	86,108000
759,000000	86,246600
758,000000	86,324700
757,000000	86,286300
756,000000	86,263300
755,000000	86,274100
754,000000	86,260900
753,000000	86,312100
752,000000	86,384000
751,000000	86,384900
750,000000	86,397100
749,000000	86,419100
748,000000	86,379600
747,000000	86,288000
746,000000	86,179100
745,000000	86,091900
744,000000	86,080000
743,000000	86,006700
742,000000	85,794400
741,000000	85,649200
740,000000	85,626500
739,000000	85,514000
738,000000	85,406400
737,000000	85,378800
736,000000	85,205400
735,000000	85,114600
734,000000	85,102800
733,000000	85,037900
732,000000	84,887300
731,000000	84,851600
730,000000	84,798000
729,000000	84,706000
728,000000	84,583500
727,000000	84,393800
726,000000	84,293100
725,000000	84,174000
724,000000	83,988400
723,000000	83,831300
722,000000	83,548000
721,000000	83,301700
720,000000	83,055800
719,000000	82,762100
718,000000	82,491800
717,000000	82,083000
716,000000	81,795600
715,000000	81,429400
714,000000	81,044200
713,000000	80,686400
712,000000	80,271700
711,000000	79,906000
710,000000	79,541600
709,000000	79,065100
708,000000	78,685300
707,000000	78,322700
706,000000	77,922600
705,000000	77,544800
704,000000	77,145800
703,000000	76,766500
702,000000	76,484600
701,000000	76,193600
700,000000	75,932200
699,000000	75,738200
698,000000	75,548000
697,000000	75,425100
696,000000	75,299200
695,000000	75,172500
694,000000	75,083200
693,000000	75,079500
692,000000	75,132000
691,000000	75,098800
690,000000	75,032900
689,000000	75,011600
688,000000	74,929900
687,000000	74,977800
686,000000	74,986800
685,000000	74,994100
684,000000	74,940600
683,000000	74,946200
682,000000	74,948600
681,000000	74,920100
680,000000	74,934000
679,000000	74,910100
678,000000	74,909100
677,000000	74,928200
676,000000	74,918900
675,000000	74,814400
674,000000	74,824700
673,000000	74,817100
672,000000	74,717600
671,000000	74,629500
670,000000	74,542400
669,000000	74,347300
668,000000	74,186700
667,000000	74,000300
666,000000	73,821700
665,000000	73,605600
664,000000	73,275400
663,000000	72,968400
662,000000	72,634000
661,000000	72,307200
660,000000	71,954700
659,000000	71,531600
658,000000	71,171200
657,000000	70,711300
656,000000	70,204700
655,000000	69,675200
654,000000	69,077600
653,000000	68,508200
652,000000	67,792200
651,000000	67,071300
650,000000	66,276200
649,000000	65,471100
648,000000	64,634600
647,000000	63,706800
646,000000	62,830700
645,000000	61,849500
644,000000	60,916200
643,000000	59,945500
642,000000	58,934800
641,000000	57,993800
640,000000	57,044100
639,000000	56,171300
638,000000	55,372900
637,000000	54,593700
636,000000	53,947800
635,000000	53,409100
634,000000	52,976600
633,000000	52,678900
632,000000	52,536700
631,000000	52,511400
630,000000	52,677800
629,000000	52,951700
628,000000	53,393200
627,000000	54,040400
626,000000	54,772200
625,000000	55,666200
624,000000	56,637100
623,000000	57,742400
622,000000	58,973900
621,000000	60,229800
620,000000	61,549300
619,000000	62,864000
618,000000	64,078600
617,000000	65,348000
616,000000	66,581500
615,000000	67,881900
614,000000	69,006200
613,000000	70,118400
612,000000	71,241200
611,000000	72,296500
610,000000	73,329000
609,000000	74,301000
608,000000	75,273200
607,000000	76,217600
606,000000	77,123300
605,000000	77,934100
604,000000	78,764500
603,000000	79,573100
602,000000	80,319100
601,000000	81,042200
600,000000	81,751800
599,000000	82,289200
598,000000	82,919700
597,000000	83,399700
596,000000	83,904000
595,000000	84,334800
594,000000	84,764300
593,000000	85,134900
592,000000	85,482700
591,000000	85,804200
590,000000	86,013300
589,000000	86,303200
588,000000	86,631700
587,000000	86,768100
586,000000	86,971200
585,000000	87,150100
584,000000	87,367800
583,000000	87,457000
582,000000	87,618500
581,000000	87,767800
580,000000	87,844000
579,000000	87,892800
578,000000	87,940000
577,000000	87,992300
576,000000	88,055700
575,000000	88,075900
574,000000	87,996100
573,000000	87,972700
572,000000	87,966100
571,000000	87,884900
570,000000	87,789100
569,000000	87,688400
568,000000	87,574700
567,000000	87,486600
566,000000	87,371300
565,000000	87,202600
564,000000	86,964200
563,000000	86,837300
562,000000	86,615200
561,000000	86,426500
560,000000	86,188000
559,000000	86,014300
558,000000	85,765900
557,000000	85,555900
556,000000	85,317700
555,000000	85,054300
554,000000	84,770600
553,000000	84,471200
552,000000	84,129300
551,000000	83,774100
550,000000	83,425400
549,000000	83,062400
548,000000	82,659500
547,000000	82,277300
546,000000	81,870200
545,000000	81,368800
544,000000	80,848400
543,000000	80,282000
542,000000	79,676300
541,000000	78,977800
540,000000	78,272600
539,000000	77,507600
538,000000	76,665300
537,000000	75,820500
536,000000	74,971400
535,000000	74,033700
534,000000	73,019500
533,000000	71,998800
532,000000	70,947700
531,000000	69,806900
530,000000	68,666400
529,000000	67,521800
528,000000	66,355100
527,000000	65,155000
526,000000	63,947000
525,000000	62,716800
524,000000	61,493200
523,000000	60,200500
522,000000	58,939900
521,000000	57,690400
520,000000	56,390700
519,000000	55,111400
518,000000	53,829300
517,000000	52,568700
516,000000	51,288800
515,000000	49,998900
514,000000	48,729500
513,000000	47,430600
512,000000	46,133800
511,000000	44,848800
510,000000	43,622900
509,000000	42,404100
508,000000	41,218900
507,000000	40,034900
506,000000	38,905100
505,000000	37,803600
504,000000	36,703000
503,000000	35,662900
502,000000	34,677200
501,000000	33,697500
500,000000	32,817600
499,000000	31,984300
498,000000	31,165100
497,000000	30,428700
496,000000	29,738200
495,000000	29,133000
494,000000	28,579100
493,000000	28,102900
492,000000	27,707900
491,000000	27,407200
490,000000	27,145100
489,000000	26,919900
488,000000	26,760100
487,000000	26,688600
486,000000	26,652700
485,000000	26,663200
484,000000	26,700900
483,000000	26,740000
482,000000	26,802800
481,000000	26,883000
480,000000	26,980800
479,000000	27,095700
478,000000	27,176400
477,000000	27,260300
476,000000	27,348300
475,000000	27,407900
474,000000	27,443100
473,000000	27,461200
472,000000	27,436700
471,000000	27,402100
470,000000	27,338200
469,000000	27,251900
468,000000	27,164400
467,000000	27,037700
466,000000	26,904600
465,000000	26,757800
464,000000	26,604800
463,000000	26,426600
462,000000	26,227200
461,000000	26,050900
460,000000	25,849200
459,000000	25,615300
458,000000	25,393400
457,000000	25,169700
456,000000	24,978400
455,000000	24,749200
454,000000	24,492100
453,000000	24,237200
452,000000	23,980500
451,000000	23,741800
450,000000	23,485000
449,000000	23,199800
448,000000	22,933100
447,000000	22,674700
446,000000	22,403100
445,000000	22,115200
444,000000	21,810400
443,000000	21,484900
442,000000	21,144100
441,000000	20,838500
440,000000	20,480000
439,000000	20,124000
438,000000	19,780900
437,000000	19,396800
436,000000	19,035400
435,000000	18,638100
434,000000	18,216900
433,000000	17,801900
432,000000	17,405000
431,000000	17,001900
430,000000	16,583100
429,000000	16,141000
428,000000	15,687000
427,000000	15,246300
426,000000	14,814900
425,000000	14,382800
424,000000	13,925000
423,000000	13,474900
422,000000	13,029700
421,000000	12,606400
420,000000	12,207100
419,000000	11,785000
418,000000	11,398900
417,000000	11,051000
416,000000	10,692800
415,000000	10,338900
414,000000	9,995400
413,000000	9,689000
412,000000	9,412000
411,000000	9,127000
410,000000	8,864900
409,000000	8,637600
408,000000	8,425700
407,000000	8,230800
406,000000	8,051600
405,000000	7,870800
404,000000	7,733500
403,000000	7,617500
402,000000	7,490000
401,000000	7,364100
400,000000	7,274200
399,000000	7,178600
398,000000	7,099700
397,000000	7,040700
396,000000	6,969200
395,000000	6,905300
394,000000	6,853900
393,000000	6,798000
392,000000	6,747200
391,000000	6,711300
390,000000	6,669400
389,000000	6,618100
388,000000	6,560700
387,000000	6,534700
386,000000	6,513800
385,000000	6,503300
384,000000	6,467100
383,000000	6,452500
382,000000	6,416700
381,000000	6,387100
380,000000	6,377500
379,000000	6,380900
378,000000	6,360000
377,000000	6,324000
376,000000	6,236200
375,000000	5,877200
374,000000	5,824900
373,000000	5,838600
372,000000	6,053500
371,000000	6,059400
370,000000	6,022900
369,000000	6,139200
368,000000	6,268400
367,000000	6,328500
366,000000	6,396900
365,000000	6,290200
364,000000	6,271100
363,000000	6,184800
362,000000	6,126300
361,000000	6,067500
360,000000	6,199400
359,000000	6,161100
358,000000	6,223200
357,000000	6,049600
356,000000	6,062500
355,000000	6,061600
354,000000	6,189900
353,000000	6,258600
352,000000	6,294900
351,000000	6,213400
350,000000	6,259000
349,000000	6,146200
348,000000	6,287500
347,000000	6,279800
346,000000	6,281700
345,000000	6,053200
344,000000	6,293500
343,000000	6,181300
342,000000	6,184200
341,000000	6,479200
340,000000	6,446100
339,000000	6,299500
338,000000	6,337600
337,000000	6,264200
336,000000	6,441300
335,000000	6,187200
334,000000	6,097700
333,000000	6,261200
332,000000	6,170700
331,000000	6,361400
330,000000	6,385300
329,000000	5,968800
328,000000	6,171200
327,000000	6,357900
326,000000	6,598000
325,000000	6,485200
324,000000	6,622200
323,000000	6,802000
322,000000	6,460300
321,000000	6,853300
320,000000	6,915100
319,000000	7,840300
318,000000	7,121300
317,000000	7,318200
316,000000	6,114100
315,000000	5,980700
314,000000	6,018300
313,000000	6,047500
312,000000	6,007700
311,000000	6,002200
310,000000	6,032400
309,000000	5,996500
308,000000	6,001700
307,000000	6,045200
306,000000	6,025200
305,000000	6,048800
304,000000	6,036000
303,000000	6,023800
302,000000	6,021500
301,000000	5,985500
300,000000	6,058500
299,000000	6,016600
298,000000	6,036200
297,000000	6,018700
296,000000	5,993600
295,000000	6,064600
294,000000	6,003300
293,000000	6,039900
292,000000	6,046000
291,000000	6,057000
290,000000	6,068700
289,000000	6,076900
288,000000	6,063500
287,000000	6,033500
286,000000	6,099900
285,000000	6,082400
284,000000	6,094900
283,000000	6,069500
282,000000	6,052700
281,000000	6,086100
280,000000	6,078500
279,000000	6,143400
278,000000	6,192700
277,000000	6,144500
276,000000	6,125000
275,000000	6,148500
274,000000	6,159100
273,000000	6,116700
272,000000	6,160100
271,000000	6,119300
270,000000	6,237000
269,000000	6,220600
268,000000	6,219300
267,000000	6,286800
266,000000	6,285800
265,000000	6,227800
264,000000	6,327200
263,000000	6,337300
262,000000	6,409000
261,000000	6,437900
260,000000	6,396100
259,000000	6,469000
258,000000	6,523000
257,000000	6,538500
256,000000	6,593700
255,000000	6,547400
254,000000	6,556500
253,000000	6,566600
252,000000	6,599800
251,000000	6,570100
250,000000	6,582100
