PE UV       SUBTECH     SPECTRUM    ASCII       PEDS        4.00        
   -1
INBUCR0146-3.Sample.ASC
24/04/29
15:55:43.00
24/04/29
15:55:43.00
Vinicio Soto Monge
Chrysina sp.
250,000000
1
Lambda 1050
1050L1511233
PerkinElmer UV WinLab 6.3.2.0749 / 2.02.05 Lambda 900 UV/VIS/NIR, Aug  7 2015 09:38:08

0
0
3350/servo 860,8/2
0
0
UV/VIS
1
1
1
DoubleDePol,CommonBeamDepol,RBeamAtt,SBeamAtt,60mm sphere, WB InGaAs Detector
0
0
0
0
Program
Program
3350/servo 860,8/2
3350/0,2 860,8/0,2
3350/0,2 860,8/0,2
0
15.00
 
 
 
0
 
860,8
319,2
860,8
Front
100
on
S:100 R:100
0
0
0
0
 
0
 
 
 
0
 
 
0
0
0
0
0
 
 
 
 
0
0


0
0
#HDR
-1
-1
#GR
nm
%R
1.0
0.0
2500,000000
-1,000000
2251
8
99,256500
5,999300
#DATA
2500,000000	13,655000
2499,000000	13,591100
2498,000000	13,668900
2497,000000	13,645400
2496,000000	13,610800
2495,000000	13,535700
2494,000000	13,573200
2493,000000	13,537700
2492,000000	13,436900
2491,000000	13,547100
2490,000000	13,503100
2489,000000	13,551300
2488,000000	13,468100
2487,000000	13,444800
2486,000000	13,516100
2485,000000	13,476600
2484,000000	13,457200
2483,000000	13,499300
2482,000000	13,481100
2481,000000	13,512900
2480,000000	13,477200
2479,000000	13,548000
2478,000000	13,537100
2477,000000	13,492200
2476,000000	13,605500
2475,000000	13,633700
2474,000000	13,628200
2473,000000	13,699900
2472,000000	13,710300
2471,000000	13,778300
2470,000000	13,842500
2469,000000	13,856600
2468,000000	13,884600
2467,000000	13,910900
2466,000000	13,975200
2465,000000	14,001200
2464,000000	14,079400
2463,000000	14,139200
2462,000000	14,214700
2461,000000	14,233700
2460,000000	14,352000
2459,000000	14,412800
2458,000000	14,483300
2457,000000	14,555800
2456,000000	14,647400
2455,000000	14,739400
2454,000000	14,805000
2453,000000	14,895200
2452,000000	14,969700
2451,000000	15,069800
2450,000000	15,147100
2449,000000	15,236900
2448,000000	15,340300
2447,000000	15,448100
2446,000000	15,540200
2445,000000	15,655700
2444,000000	15,732300
2443,000000	15,857000
2442,000000	15,957200
2441,000000	16,058600
2440,000000	16,174300
2439,000000	16,272100
2438,000000	16,368500
2437,000000	16,447400
2436,000000	16,536200
2435,000000	16,659400
2434,000000	16,746200
2433,000000	16,856400
2432,000000	16,964900
2431,000000	17,047300
2430,000000	17,131100
2429,000000	17,213800
2428,000000	17,288400
2427,000000	17,379900
2426,000000	17,456100
2425,000000	17,538900
2424,000000	17,617600
2423,000000	17,698400
2422,000000	17,776900
2421,000000	17,835200
2420,000000	17,897400
2419,000000	17,948200
2418,000000	18,002000
2417,000000	18,051700
2416,000000	18,113900
2415,000000	18,182200
2414,000000	18,207000
2413,000000	18,244600
2412,000000	18,283300
2411,000000	18,341300
2410,000000	18,372400
2409,000000	18,395900
2408,000000	18,418900
2407,000000	18,450000
2406,000000	18,478700
2405,000000	18,511200
2404,000000	18,529500
2403,000000	18,558500
2402,000000	18,578100
2401,000000	18,595000
2400,000000	18,602700
2399,000000	18,606900
2398,000000	18,601000
2397,000000	18,607100
2396,000000	18,610000
2395,000000	18,613100
2394,000000	18,627400
2393,000000	18,645900
2392,000000	18,643600
2391,000000	18,633400
2390,000000	18,631400
2389,000000	18,619000
2388,000000	18,622800
2387,000000	18,615500
2386,000000	18,604400
2385,000000	18,603800
2384,000000	18,584100
2383,000000	18,555400
2382,000000	18,534800
2381,000000	18,521600
2380,000000	18,498000
2379,000000	18,479300
2378,000000	18,463100
2377,000000	18,428700
2376,000000	18,392600
2375,000000	18,383200
2374,000000	18,373500
2373,000000	18,333600
2372,000000	18,304900
2371,000000	18,292000
2370,000000	18,284900
2369,000000	18,278600
2368,000000	18,250700
2367,000000	18,215100
2366,000000	18,200700
2365,000000	18,187200
2364,000000	18,174900
2363,000000	18,155700
2362,000000	18,132200
2361,000000	18,112000
2360,000000	18,094200
2359,000000	18,079100
2358,000000	18,044000
2357,000000	18,008600
2356,000000	17,975900
2355,000000	17,936700
2354,000000	17,898900
2353,000000	17,879800
2352,000000	17,853200
2351,000000	17,796500
2350,000000	17,750100
2349,000000	17,709700
2348,000000	17,668100
2347,000000	17,650500
2346,000000	17,627500
2345,000000	17,576900
2344,000000	17,529000
2343,000000	17,507700
2342,000000	17,483200
2341,000000	17,469300
2340,000000	17,446200
2339,000000	17,419200
2338,000000	17,397500
2337,000000	17,389500
2336,000000	17,382100
2335,000000	17,372000
2334,000000	17,354100
2333,000000	17,353300
2332,000000	17,365900
2331,000000	17,358100
2330,000000	17,369600
2329,000000	17,382700
2328,000000	17,389300
2327,000000	17,411300
2326,000000	17,409000
2325,000000	17,422500
2324,000000	17,412500
2323,000000	17,410700
2322,000000	17,429800
2321,000000	17,410800
2320,000000	17,404400
2319,000000	17,405200
2318,000000	17,373400
2317,000000	17,345200
2316,000000	17,291700
2315,000000	17,251500
2314,000000	17,212100
2313,000000	17,184700
2312,000000	17,122800
2311,000000	17,067400
2310,000000	17,002000
2309,000000	16,963500
2308,000000	16,946500
2307,000000	16,897900
2306,000000	16,848400
2305,000000	16,803900
2304,000000	16,777400
2303,000000	16,754100
2302,000000	16,745900
2301,000000	16,721900
2300,000000	16,692900
2299,000000	16,707800
2298,000000	16,702200
2297,000000	16,702100
2296,000000	16,710600
2295,000000	16,703400
2294,000000	16,748000
2293,000000	16,746600
2292,000000	16,749300
2291,000000	16,787300
2290,000000	16,801100
2289,000000	16,824000
2288,000000	16,864100
2287,000000	16,880100
2286,000000	16,889400
2285,000000	16,922700
2284,000000	16,969900
2283,000000	16,998900
2282,000000	17,025000
2281,000000	17,048200
2280,000000	17,087400
2279,000000	17,107200
2278,000000	17,161700
2277,000000	17,193000
2276,000000	17,227400
2275,000000	17,229700
2274,000000	17,252500
2273,000000	17,274400
2272,000000	17,322800
2271,000000	17,322700
2270,000000	17,372700
2269,000000	17,409500
2268,000000	17,481400
2267,000000	17,507400
2266,000000	17,571600
2265,000000	17,634000
2264,000000	17,729100
2263,000000	17,818800
2262,000000	17,907900
2261,000000	18,038600
2260,000000	18,151200
2259,000000	18,295500
2258,000000	18,426700
2257,000000	18,572300
2256,000000	18,739200
2255,000000	18,887300
2254,000000	19,065000
2253,000000	19,229100
2252,000000	19,388000
2251,000000	19,547200
2250,000000	19,710400
2249,000000	19,845800
2248,000000	20,040800
2247,000000	20,160400
2246,000000	20,303800
2245,000000	20,411600
2244,000000	20,537800
2243,000000	20,658500
2242,000000	20,746900
2241,000000	20,821900
2240,000000	20,918300
2239,000000	20,968100
2238,000000	21,041200
2237,000000	21,076000
2236,000000	21,114100
2235,000000	21,123400
2234,000000	21,136800
2233,000000	21,150000
2232,000000	21,150500
2231,000000	21,120300
2230,000000	21,118600
2229,000000	21,097800
2228,000000	21,026900
2227,000000	21,017800
2226,000000	20,967600
2225,000000	20,924800
2224,000000	20,833000
2223,000000	20,799800
2222,000000	20,739200
2221,000000	20,657500
2220,000000	20,578100
2219,000000	20,509600
2218,000000	20,429300
2217,000000	20,340200
2216,000000	20,237600
2215,000000	20,183100
2214,000000	20,091200
2213,000000	20,045500
2212,000000	19,959900
2211,000000	19,896500
2210,000000	19,837700
2209,000000	19,773300
2208,000000	19,709100
2207,000000	19,669200
2206,000000	19,604000
2205,000000	19,567300
2204,000000	19,501200
2203,000000	19,458400
2202,000000	19,403000
2201,000000	19,366300
2200,000000	19,340300
2199,000000	19,284600
2198,000000	19,239800
2197,000000	19,236400
2196,000000	19,197600
2195,000000	19,159800
2194,000000	19,144500
2193,000000	19,105500
2192,000000	19,064900
2191,000000	19,070200
2190,000000	19,022800
2189,000000	19,011700
2188,000000	19,008700
2187,000000	18,982900
2186,000000	18,958600
2185,000000	18,956900
2184,000000	18,927100
2183,000000	18,913400
2182,000000	18,886200
2181,000000	18,857500
2180,000000	18,850600
2179,000000	18,847600
2178,000000	18,845400
2177,000000	18,835500
2176,000000	18,819800
2175,000000	18,833300
2174,000000	18,847900
2173,000000	18,862100
2172,000000	18,883200
2171,000000	18,899300
2170,000000	18,928500
2169,000000	18,950400
2168,000000	18,979700
2167,000000	19,014100
2166,000000	19,072000
2165,000000	19,140500
2164,000000	19,168800
2163,000000	19,229900
2162,000000	19,299500
2161,000000	19,366200
2160,000000	19,423000
2159,000000	19,495000
2158,000000	19,581800
2157,000000	19,679900
2156,000000	19,803900
2155,000000	19,906200
2154,000000	20,024000
2153,000000	20,112800
2152,000000	20,213500
2151,000000	20,342900
2150,000000	20,472000
2149,000000	20,583900
2148,000000	20,698100
2147,000000	20,816400
2146,000000	20,934700
2145,000000	21,058800
2144,000000	21,171200
2143,000000	21,281800
2142,000000	21,389400
2141,000000	21,516700
2140,000000	21,630300
2139,000000	21,741300
2138,000000	21,841600
2137,000000	21,929000
2136,000000	22,046300
2135,000000	22,129900
2134,000000	22,214500
2133,000000	22,312500
2132,000000	22,385000
2131,000000	22,476200
2130,000000	22,561000
2129,000000	22,614200
2128,000000	22,677000
2127,000000	22,749300
2126,000000	22,798800
2125,000000	22,844300
2124,000000	22,897200
2123,000000	22,940100
2122,000000	22,988900
2121,000000	23,034600
2120,000000	23,062200
2119,000000	23,088400
2118,000000	23,107600
2117,000000	23,124700
2116,000000	23,147900
2115,000000	23,173400
2114,000000	23,180800
2113,000000	23,186600
2112,000000	23,189500
2111,000000	23,187800
2110,000000	23,182300
2109,000000	23,179500
2108,000000	23,191000
2107,000000	23,192600
2106,000000	23,174800
2105,000000	23,166600
2104,000000	23,166500
2103,000000	23,154900
2102,000000	23,142300
2101,000000	23,148800
2100,000000	23,151200
2099,000000	23,146800
2098,000000	23,142100
2097,000000	23,143700
2096,000000	23,152600
2095,000000	23,164900
2094,000000	23,178900
2093,000000	23,197900
2092,000000	23,223100
2091,000000	23,234300
2090,000000	23,250800
2089,000000	23,264500
2088,000000	23,278300
2087,000000	23,287800
2086,000000	23,291200
2085,000000	23,279300
2084,000000	23,256800
2083,000000	23,247600
2082,000000	23,234000
2081,000000	23,196800
2080,000000	23,153800
2079,000000	23,105000
2078,000000	23,045200
2077,000000	22,973400
2076,000000	22,896300
2075,000000	22,808500
2074,000000	22,708900
2073,000000	22,618300
2072,000000	22,511700
2071,000000	22,379200
2070,000000	22,263600
2069,000000	22,152200
2068,000000	22,027000
2067,000000	21,893300
2066,000000	21,755800
2065,000000	21,619600
2064,000000	21,477700
2063,000000	21,345400
2062,000000	21,209300
2061,000000	21,077100
2060,000000	20,968600
2059,000000	20,860900
2058,000000	20,768700
2057,000000	20,683800
2056,000000	20,637600
2055,000000	20,583600
2054,000000	20,567300
2053,000000	20,586800
2052,000000	20,599600
2051,000000	20,636400
2050,000000	20,720200
2049,000000	20,818700
2048,000000	20,926400
2047,000000	21,070000
2046,000000	21,191400
2045,000000	21,357200
2044,000000	21,526800
2043,000000	21,692600
2042,000000	21,882900
2041,000000	22,050400
2040,000000	22,233000
2039,000000	22,412200
2038,000000	22,571500
2037,000000	22,762400
2036,000000	22,916500
2035,000000	23,074900
2034,000000	23,225800
2033,000000	23,364900
2032,000000	23,504200
2031,000000	23,634100
2030,000000	23,770200
2029,000000	23,871600
2028,000000	24,003000
2027,000000	24,099700
2026,000000	24,212600
2025,000000	24,307800
2024,000000	24,383600
2023,000000	24,477400
2022,000000	24,560700
2021,000000	24,646400
2020,000000	24,698700
2019,000000	24,766000
2018,000000	24,805500
2017,000000	24,867200
2016,000000	24,914500
2015,000000	24,943600
2014,000000	24,993000
2013,000000	25,005800
2012,000000	25,024900
2011,000000	25,026000
2010,000000	25,047300
2009,000000	25,049300
2008,000000	25,039000
2007,000000	25,022700
2006,000000	25,007700
2005,000000	24,974500
2004,000000	24,936700
2003,000000	24,881300
2002,000000	24,856200
2001,000000	24,797200
2000,000000	24,732000
1999,000000	24,664900
1998,000000	24,605400
1997,000000	24,528200
1996,000000	24,449300
1995,000000	24,360900
1994,000000	24,289900
1993,000000	24,199800
1992,000000	24,106100
1991,000000	24,014000
1990,000000	23,908800
1989,000000	23,785300
1988,000000	23,692200
1987,000000	23,560600
1986,000000	23,466700
1985,000000	23,352600
1984,000000	23,246200
1983,000000	23,140400
1982,000000	23,030800
1981,000000	22,910300
1980,000000	22,817200
1979,000000	22,699000
1978,000000	22,584900
1977,000000	22,464700
1976,000000	22,370100
1975,000000	22,267200
1974,000000	22,163600
1973,000000	22,067100
1972,000000	21,970700
1971,000000	21,843900
1970,000000	21,744700
1969,000000	21,660700
1968,000000	21,561100
1967,000000	21,455000
1966,000000	21,351100
1965,000000	21,243800
1964,000000	21,154800
1963,000000	21,046800
1962,000000	20,955300
1961,000000	20,860900
1960,000000	20,721600
1959,000000	20,638100
1958,000000	20,530100
1957,000000	20,411000
1956,000000	20,292400
1955,000000	20,214800
1954,000000	20,105400
1953,000000	20,008000
1952,000000	19,892600
1951,000000	19,780200
1950,000000	19,704100
1949,000000	19,618100
1948,000000	19,535600
1947,000000	19,431400
1946,000000	19,352600
1945,000000	19,289200
1944,000000	19,219500
1943,000000	19,150600
1942,000000	19,094900
1941,000000	19,056500
1940,000000	19,005200
1939,000000	19,004700
1938,000000	18,974000
1937,000000	18,937200
1936,000000	18,916800
1935,000000	18,915700
1934,000000	18,943400
1933,000000	18,952400
1932,000000	18,976600
1931,000000	19,018900
1930,000000	19,102400
1929,000000	19,173300
1928,000000	19,240200
1927,000000	19,339600
1926,000000	19,443000
1925,000000	19,545500
1924,000000	19,665900
1923,000000	19,813800
1922,000000	19,972000
1921,000000	20,148900
1920,000000	20,359200
1919,000000	20,533400
1918,000000	20,719400
1917,000000	20,948600
1916,000000	21,177800
1915,000000	21,423200
1914,000000	21,751300
1913,000000	22,102300
1912,000000	22,419600
1911,000000	22,749200
1910,000000	23,102600
1909,000000	23,449500
1908,000000	23,836100
1907,000000	24,285900
1906,000000	24,841200
1905,000000	25,399800
1904,000000	25,959400
1903,000000	26,502400
1902,000000	27,080800
1901,000000	27,690200
1900,000000	28,355500
1899,000000	29,039600
1898,000000	29,694600
1897,000000	30,322800
1896,000000	30,902800
1895,000000	31,496400
1894,000000	32,110900
1893,000000	32,770100
1892,000000	33,496500
1891,000000	34,213300
1890,000000	34,836400
1889,000000	35,446700
1888,000000	36,037700
1887,000000	36,568600
1886,000000	37,087700
1885,000000	37,650500
1884,000000	38,169300
1883,000000	38,610500
1882,000000	39,045000
1881,000000	39,448700
1880,000000	39,783400
1879,000000	40,155500
1878,000000	40,520300
1877,000000	40,834500
1876,000000	41,151500
1875,000000	41,460300
1874,000000	41,749600
1873,000000	42,025400
1872,000000	42,283700
1871,000000	42,492100
1870,000000	42,671900
1869,000000	42,846400
1868,000000	42,949100
1867,000000	43,050100
1866,000000	43,117100
1865,000000	43,185500
1864,000000	43,267100
1863,000000	43,362100
1862,000000	43,468300
1861,000000	43,584600
1860,000000	43,688500
1859,000000	43,775600
1858,000000	43,836300
1857,000000	43,883800
1856,000000	43,922300
1855,000000	43,972500
1854,000000	43,982700
1853,000000	43,983600
1852,000000	44,019400
1851,000000	44,049200
1850,000000	44,074400
1849,000000	44,106300
1848,000000	44,134800
1847,000000	44,096100
1846,000000	44,031800
1845,000000	43,974000
1844,000000	43,944300
1843,000000	43,949100
1842,000000	43,964400
1841,000000	43,947300
1840,000000	43,903600
1839,000000	43,864200
1838,000000	43,828600
1837,000000	43,790900
1836,000000	43,729900
1835,000000	43,647300
1834,000000	43,586000
1833,000000	43,541600
1832,000000	43,500000
1831,000000	43,475600
1830,000000	43,461100
1829,000000	43,434700
1828,000000	43,375500
1827,000000	43,340900
1826,000000	43,318200
1825,000000	43,293300
1824,000000	43,297300
1823,000000	43,321400
1822,000000	43,360400
1821,000000	43,396100
1820,000000	43,396900
1819,000000	43,345900
1818,000000	43,307900
1817,000000	43,314100
1816,000000	43,318700
1815,000000	43,304900
1814,000000	43,289700
1813,000000	43,270300
1812,000000	43,254500
1811,000000	43,215400
1810,000000	43,168900
1809,000000	43,143300
1808,000000	43,122900
1807,000000	43,099500
1806,000000	43,066000
1805,000000	43,036200
1804,000000	43,016900
1803,000000	43,002200
1802,000000	43,007100
1801,000000	42,966200
1800,000000	42,923000
1799,000000	42,894200
1798,000000	42,877200
1797,000000	42,863900
1796,000000	42,836200
1795,000000	42,803600
1794,000000	42,776300
1793,000000	42,767500
1792,000000	42,729300
1791,000000	42,713400
1790,000000	42,720000
1789,000000	42,736500
1788,000000	42,749600
1787,000000	42,738500
1786,000000	42,740700
1785,000000	42,745100
1784,000000	42,731700
1783,000000	42,724200
1782,000000	42,718100
1781,000000	42,674100
1780,000000	42,656900
1779,000000	42,621700
1778,000000	42,567500
1777,000000	42,522000
1776,000000	42,481000
1775,000000	42,414800
1774,000000	42,353400
1773,000000	42,291700
1772,000000	42,238500
1771,000000	42,194300
1770,000000	42,116700
1769,000000	42,048400
1768,000000	42,018500
1767,000000	41,964900
1766,000000	41,918900
1765,000000	41,864600
1764,000000	41,833600
1763,000000	41,833900
1762,000000	41,815300
1761,000000	41,807100
1760,000000	41,799900
1759,000000	41,790400
1758,000000	41,800300
1757,000000	41,815000
1756,000000	41,811800
1755,000000	41,803600
1754,000000	41,824600
1753,000000	41,836500
1752,000000	41,822500
1751,000000	41,816900
1750,000000	41,786200
1749,000000	41,753100
1748,000000	41,700600
1747,000000	41,630000
1746,000000	41,563700
1745,000000	41,484500
1744,000000	41,388500
1743,000000	41,272900
1742,000000	41,171000
1741,000000	41,057000
1740,000000	40,931900
1739,000000	40,833400
1738,000000	40,725700
1737,000000	40,633500
1736,000000	40,537700
1735,000000	40,447300
1734,000000	40,374200
1733,000000	40,283700
1732,000000	40,188300
1731,000000	40,106400
1730,000000	40,048000
1729,000000	39,975500
1728,000000	39,906000
1727,000000	39,855600
1726,000000	39,818300
1725,000000	39,795400
1724,000000	39,798000
1723,000000	39,846200
1722,000000	39,966900
1721,000000	40,161700
1720,000000	40,380500
1719,000000	40,650600
1718,000000	40,907600
1717,000000	41,215000
1716,000000	41,502700
1715,000000	41,783100
1714,000000	42,053000
1713,000000	42,279800
1712,000000	42,496700
1711,000000	42,677400
1710,000000	42,869100
1709,000000	43,039300
1708,000000	43,157300
1707,000000	43,289200
1706,000000	43,407000
1705,000000	43,509400
1704,000000	43,571600
1703,000000	43,634300
1702,000000	43,670100
1701,000000	43,702500
1700,000000	43,727500
1699,000000	43,775100
1698,000000	43,784000
1697,000000	43,764000
1696,000000	43,715000
1695,000000	43,659000
1694,000000	43,573600
1693,000000	43,464600
1692,000000	43,324000
1691,000000	43,232600
1690,000000	43,138000
1689,000000	43,108900
1688,000000	43,125000
1687,000000	43,184500
1686,000000	43,322700
1685,000000	43,494000
1684,000000	43,725800
1683,000000	43,979800
1682,000000	44,214000
1681,000000	44,469700
1680,000000	44,721600
1679,000000	44,956300
1678,000000	45,175600
1677,000000	45,363900
1676,000000	45,561500
1675,000000	45,721400
1674,000000	45,907900
1673,000000	46,094700
1672,000000	46,280800
1671,000000	46,493900
1670,000000	46,703100
1669,000000	46,908500
1668,000000	47,111500
1667,000000	47,326100
1666,000000	47,515500
1665,000000	47,702600
1664,000000	47,873500
1663,000000	48,060300
1662,000000	48,220700
1661,000000	48,389800
1660,000000	48,541100
1659,000000	48,668500
1658,000000	48,799700
1657,000000	48,906300
1656,000000	49,002600
1655,000000	49,080600
1654,000000	49,161300
1653,000000	49,204300
1652,000000	49,250100
1651,000000	49,303000
1650,000000	49,326100
1649,000000	49,347100
1648,000000	49,373000
1647,000000	49,384600
1646,000000	49,401000
1645,000000	49,389000
1644,000000	49,374300
1643,000000	49,366100
1642,000000	49,374600
1641,000000	49,375800
1640,000000	49,372500
1639,000000	49,371200
1638,000000	49,354400
1637,000000	49,337400
1636,000000	49,330900
1635,000000	49,318200
1634,000000	49,310000
1633,000000	49,268700
1632,000000	49,233500
1631,000000	49,203100
1630,000000	49,176400
1629,000000	49,135000
1628,000000	49,100900
1627,000000	49,050500
1626,000000	49,012100
1625,000000	48,979500
1624,000000	48,928900
1623,000000	48,884700
1622,000000	48,851900
1621,000000	48,809000
1620,000000	48,771400
1619,000000	48,736800
1618,000000	48,711700
1617,000000	48,679500
1616,000000	48,639200
1615,000000	48,592900
1614,000000	48,551200
1613,000000	48,503100
1612,000000	48,465900
1611,000000	48,416600
1610,000000	48,365900
1609,000000	48,302500
1608,000000	48,232700
1607,000000	48,161500
1606,000000	48,087100
1605,000000	48,008000
1604,000000	47,926400
1603,000000	47,838000
1602,000000	47,763500
1601,000000	47,687200
1600,000000	47,621700
1599,000000	47,543700
1598,000000	47,462500
1597,000000	47,396200
1596,000000	47,338800
1595,000000	47,282200
1594,000000	47,210700
1593,000000	47,164700
1592,000000	47,122600
1591,000000	47,079700
1590,000000	47,037600
1589,000000	46,990300
1588,000000	46,948000
1587,000000	46,896000
1586,000000	46,842900
1585,000000	46,798000
1584,000000	46,747300
1583,000000	46,701100
1582,000000	46,674100
1581,000000	46,649300
1580,000000	46,624200
1579,000000	46,606500
1578,000000	46,590800
1577,000000	46,571900
1576,000000	46,569300
1575,000000	46,572600
1574,000000	46,575300
1573,000000	46,585200
1572,000000	46,590600
1571,000000	46,609400
1570,000000	46,629900
1569,000000	46,658300
1568,000000	46,691400
1567,000000	46,706700
1566,000000	46,735000
1565,000000	46,774400
1564,000000	46,794500
1563,000000	46,809200
1562,000000	46,825500
1561,000000	46,818900
1560,000000	46,809800
1559,000000	46,789500
1558,000000	46,743800
1557,000000	46,707100
1556,000000	46,655600
1555,000000	46,597300
1554,000000	46,540800
1553,000000	46,478500
1552,000000	46,393100
1551,000000	46,303100
1550,000000	46,204000
1549,000000	46,116500
1548,000000	46,024400
1547,000000	45,930200
1546,000000	45,861800
1545,000000	45,783100
1544,000000	45,712700
1543,000000	45,661400
1542,000000	45,599900
1541,000000	45,550000
1540,000000	45,512500
1539,000000	45,472200
1538,000000	45,433900
1537,000000	45,381500
1536,000000	45,324100
1535,000000	45,274900
1534,000000	45,229100
1533,000000	45,161700
1532,000000	45,097800
1531,000000	45,037000
1530,000000	44,962200
1529,000000	44,899800
1528,000000	44,836700
1527,000000	44,754900
1526,000000	44,677500
1525,000000	44,603300
1524,000000	44,526900
1523,000000	44,441100
1522,000000	44,377100
1521,000000	44,293900
1520,000000	44,217500
1519,000000	44,146100
1518,000000	44,052500
1517,000000	43,971200
1516,000000	43,895500
1515,000000	43,816100
1514,000000	43,726300
1513,000000	43,633100
1512,000000	43,547500
1511,000000	43,461700
1510,000000	43,371900
1509,000000	43,281200
1508,000000	43,177100
1507,000000	43,080000
1506,000000	43,007400
1505,000000	42,933400
1504,000000	42,849500
1503,000000	42,776300
1502,000000	42,719200
1501,000000	42,661200
1500,000000	42,613400
1499,000000	42,577100
1498,000000	42,557500
1497,000000	42,514700
1496,000000	42,504100
1495,000000	42,494100
1494,000000	42,504800
1493,000000	42,500900
1492,000000	42,526100
1491,000000	42,551500
1490,000000	42,570500
1489,000000	42,596400
1488,000000	42,616300
1487,000000	42,641100
1486,000000	42,682700
1485,000000	42,704300
1484,000000	42,724800
1483,000000	42,763500
1482,000000	42,823500
1481,000000	42,851600
1480,000000	42,886100
1479,000000	42,944000
1478,000000	42,981300
1477,000000	43,030700
1476,000000	43,113300
1475,000000	43,180900
1474,000000	43,269900
1473,000000	43,359300
1472,000000	43,456700
1471,000000	43,558000
1470,000000	43,633000
1469,000000	43,703800
1468,000000	43,828500
1467,000000	43,928200
1466,000000	44,025900
1465,000000	44,119800
1464,000000	44,217000
1463,000000	44,350500
1462,000000	44,436300
1461,000000	44,549000
1460,000000	44,674300
1459,000000	44,771000
1458,000000	44,873300
1457,000000	44,989200
1456,000000	45,113100
1455,000000	45,210500
1454,000000	45,309100
1453,000000	45,447800
1452,000000	45,566700
1451,000000	45,665100
1450,000000	45,749000
1449,000000	45,827000
1448,000000	45,914400
1447,000000	46,054100
1446,000000	46,191600
1445,000000	46,274400
1444,000000	46,354800
1443,000000	46,475700
1442,000000	46,602000
1441,000000	46,715900
1440,000000	46,844300
1439,000000	46,972300
1438,000000	47,103000
1437,000000	47,231200
1436,000000	47,359300
1435,000000	47,504500
1434,000000	47,673500
1433,000000	47,863900
1432,000000	48,025500
1431,000000	48,194100
1430,000000	48,372600
1429,000000	48,594300
1428,000000	48,807600
1427,000000	48,995900
1426,000000	49,250400
1425,000000	49,510800
1424,000000	49,778800
1423,000000	50,021700
1422,000000	50,265600
1421,000000	50,567100
1420,000000	50,935000
1419,000000	51,235100
1418,000000	51,544400
1417,000000	51,816600
1416,000000	52,197000
1415,000000	52,621300
1414,000000	53,012100
1413,000000	53,345100
1412,000000	53,706500
1411,000000	54,165800
1410,000000	54,646800
1409,000000	55,095900
1408,000000	55,536900
1407,000000	55,955200
1406,000000	56,405600
1405,000000	56,837100
1404,000000	57,273100
1403,000000	57,632100
1402,000000	58,095100
1401,000000	58,577000
1400,000000	58,951500
1399,000000	59,209900
1398,000000	59,518600
1397,000000	59,906400
1396,000000	60,337600
1395,000000	60,638900
1394,000000	60,869800
1393,000000	61,133500
1392,000000	61,458800
1391,000000	61,709300
1390,000000	62,001000
1389,000000	62,362400
1388,000000	62,682700
1387,000000	62,928900
1386,000000	63,211500
1385,000000	63,472100
1384,000000	63,763300
1383,000000	64,016900
1382,000000	64,178000
1381,000000	64,308400
1380,000000	64,404900
1379,000000	64,522800
1378,000000	64,609900
1377,000000	64,720000
1376,000000	64,828500
1375,000000	64,918400
1374,000000	65,041400
1373,000000	65,200300
1372,000000	65,351500
1371,000000	65,477200
1370,000000	65,592500
1369,000000	65,728000
1368,000000	65,831600
1367,000000	65,931900
1366,000000	66,024500
1365,000000	66,131100
1364,000000	66,240800
1363,000000	66,375700
1362,000000	66,447600
1361,000000	66,465300
1360,000000	66,448100
1359,000000	66,544400
1358,000000	66,615700
1357,000000	66,710000
1356,000000	66,823400
1355,000000	66,939000
1354,000000	67,034300
1353,000000	67,149800
1352,000000	67,361400
1351,000000	67,549300
1350,000000	67,741300
1349,000000	67,941900
1348,000000	68,138000
1347,000000	68,313400
1346,000000	68,489300
1345,000000	68,685300
1344,000000	68,882400
1343,000000	69,049100
1342,000000	69,207500
1341,000000	69,357800
1340,000000	69,500800
1339,000000	69,633300
1338,000000	69,761100
1337,000000	69,888000
1336,000000	69,999200
1335,000000	70,127400
1334,000000	70,236400
1333,000000	70,326300
1332,000000	70,418600
1331,000000	70,512000
1330,000000	70,585600
1329,000000	70,655300
1328,000000	70,724900
1327,000000	70,803100
1326,000000	70,858500
1325,000000	70,910400
1324,000000	70,972700
1323,000000	71,020400
1322,000000	71,066200
1321,000000	71,118600
1320,000000	71,168700
1319,000000	71,211400
1318,000000	71,252600
1317,000000	71,285400
1316,000000	71,318400
1315,000000	71,360300
1314,000000	71,393100
1313,000000	71,411600
1312,000000	71,442600
1311,000000	71,465700
1310,000000	71,494300
1309,000000	71,520500
1308,000000	71,543900
1307,000000	71,558800
1306,000000	71,567000
1305,000000	71,575300
1304,000000	71,586300
1303,000000	71,593700
1302,000000	71,595800
1301,000000	71,591100
1300,000000	71,579500
1299,000000	71,591600
1298,000000	71,595600
1297,000000	71,580200
1296,000000	71,561800
1295,000000	71,550900
1294,000000	71,535000
1293,000000	71,522000
1292,000000	71,514300
1291,000000	71,494900
1290,000000	71,464500
1289,000000	71,430500
1288,000000	71,406800
1287,000000	71,380100
1286,000000	71,346600
1285,000000	71,314700
1284,000000	71,286200
1283,000000	71,263000
1282,000000	71,252500
1281,000000	71,214500
1280,000000	71,179600
1279,000000	71,163400
1278,000000	71,146800
1277,000000	71,134200
1276,000000	71,113700
1275,000000	71,110400
1274,000000	71,118400
1273,000000	71,115700
1272,000000	71,124100
1271,000000	71,122400
1270,000000	71,112500
1269,000000	71,122900
1268,000000	71,141900
1267,000000	71,139900
1266,000000	71,141700
1265,000000	71,138700
1264,000000	71,143700
1263,000000	71,152200
1262,000000	71,155300
1261,000000	71,151300
1260,000000	71,147500
1259,000000	71,159100
1258,000000	71,168400
1257,000000	71,148100
1256,000000	71,143700
1255,000000	71,149800
1254,000000	71,114500
1253,000000	71,106400
1252,000000	71,087300
1251,000000	71,034800
1250,000000	71,004900
1249,000000	70,958800
1248,000000	70,906300
1247,000000	70,852100
1246,000000	70,802800
1245,000000	70,754900
1244,000000	70,689700
1243,000000	70,627700
1242,000000	70,574000
1241,000000	70,518700
1240,000000	70,462000
1239,000000	70,406000
1238,000000	70,349400
1237,000000	70,301800
1236,000000	70,248200
1235,000000	70,195100
1234,000000	70,157000
1233,000000	70,099900
1232,000000	70,043300
1231,000000	69,998100
1230,000000	69,944700
1229,000000	69,907100
1228,000000	69,846300
1227,000000	69,809700
1226,000000	69,762900
1225,000000	69,708100
1224,000000	69,654600
1223,000000	69,609700
1222,000000	69,566100
1221,000000	69,520100
1220,000000	69,488300
1219,000000	69,442000
1218,000000	69,394100
1217,000000	69,362900
1216,000000	69,315400
1215,000000	69,278800
1214,000000	69,254600
1213,000000	69,201500
1212,000000	69,158100
1211,000000	69,108700
1210,000000	69,071200
1209,000000	69,036500
1208,000000	69,001400
1207,000000	68,947200
1206,000000	68,884800
1205,000000	68,845800
1204,000000	68,816300
1203,000000	68,763700
1202,000000	68,699300
1201,000000	68,639200
1200,000000	68,595600
1199,000000	68,540100
1198,000000	68,481000
1197,000000	68,424100
1196,000000	68,358100
1195,000000	68,292200
1194,000000	68,219500
1193,000000	68,138000
1192,000000	68,083700
1191,000000	68,016900
1190,000000	67,955400
1189,000000	67,909200
1188,000000	67,871700
1187,000000	67,872100
1186,000000	67,853500
1185,000000	67,860000
1184,000000	67,890300
1183,000000	67,916700
1182,000000	67,939600
1181,000000	67,977300
1180,000000	68,035400
1179,000000	68,073800
1178,000000	68,137000
1177,000000	68,182300
1176,000000	68,227800
1175,000000	68,274600
1174,000000	68,326800
1173,000000	68,373700
1172,000000	68,438100
1171,000000	68,509800
1170,000000	68,599200
1169,000000	68,707800
1168,000000	68,802700
1167,000000	68,898300
1166,000000	69,029600
1165,000000	69,151600
1164,000000	69,272100
1163,000000	69,401900
1162,000000	69,542000
1161,000000	69,650500
1160,000000	69,762600
1159,000000	69,889900
1158,000000	70,014600
1157,000000	70,116400
1156,000000	70,219000
1155,000000	70,319500
1154,000000	70,408800
1153,000000	70,468900
1152,000000	70,528600
1151,000000	70,591900
1150,000000	70,644500
1149,000000	70,709500
1148,000000	70,759200
1147,000000	70,809600
1146,000000	70,846700
1145,000000	70,892300
1144,000000	70,915400
1143,000000	70,961300
1142,000000	71,030500
1141,000000	71,080400
1140,000000	71,149700
1139,000000	71,225400
1138,000000	71,308700
1137,000000	71,404400
1136,000000	71,507600
1135,000000	71,608900
1134,000000	71,659300
1133,000000	71,687400
1132,000000	71,773500
1131,000000	71,837900
1130,000000	71,909500
1129,000000	71,969300
1128,000000	72,006400
1127,000000	72,014600
1126,000000	72,066600
1125,000000	72,098100
1124,000000	72,117100
1123,000000	72,133700
1122,000000	72,124500
1121,000000	72,118600
1120,000000	72,118700
1119,000000	72,111000
1118,000000	72,086700
1117,000000	72,075600
1116,000000	72,060600
1115,000000	72,057100
1114,000000	72,047600
1113,000000	72,021600
1112,000000	72,014600
1111,000000	71,989700
1110,000000	71,982200
1109,000000	71,972100
1108,000000	71,961100
1107,000000	71,932700
1106,000000	71,917100
1105,000000	71,897600
1104,000000	71,873300
1103,000000	71,873200
1102,000000	71,849700
1101,000000	71,834200
1100,000000	71,812600
1099,000000	71,786500
1098,000000	71,771700
1097,000000	71,747400
1096,000000	71,725800
1095,000000	71,693700
1094,000000	71,664000
1093,000000	71,635100
1092,000000	71,625100
1091,000000	71,601000
1090,000000	71,567600
1089,000000	71,545200
1088,000000	71,508100
1087,000000	71,474700
1086,000000	71,457100
1085,000000	71,423100
1084,000000	71,391900
1083,000000	71,359800
1082,000000	71,323800
1081,000000	71,292300
1080,000000	71,261000
1079,000000	71,227200
1078,000000	71,191400
1077,000000	71,153400
1076,000000	71,135800
1075,000000	71,103600
1074,000000	71,064800
1073,000000	71,032600
1072,000000	70,989700
1071,000000	70,966000
1070,000000	70,937500
1069,000000	70,911200
1068,000000	70,877200
1067,000000	70,841900
1066,000000	70,817500
1065,000000	70,794100
1064,000000	70,760400
1063,000000	70,733400
1062,000000	70,711200
1061,000000	70,680900
1060,000000	70,654700
1059,000000	70,628500
1058,000000	70,602300
1057,000000	70,568100
1056,000000	70,535200
1055,000000	70,510900
1054,000000	70,477900
1053,000000	70,455300
1052,000000	70,427500
1051,000000	70,394500
1050,000000	70,368900
1049,000000	70,351200
1048,000000	70,309000
1047,000000	70,283600
1046,000000	70,289400
1045,000000	70,259100
1044,000000	70,223600
1043,000000	70,191700
1042,000000	70,170100
1041,000000	70,147400
1040,000000	70,111600
1039,000000	70,096400
1038,000000	70,067900
1037,000000	70,039700
1036,000000	70,021500
1035,000000	69,996100
1034,000000	69,975300
1033,000000	69,948000
1032,000000	69,915600
1031,000000	69,888300
1030,000000	69,867200
1029,000000	69,841100
1028,000000	69,821400
1027,000000	69,808300
1026,000000	69,791700
1025,000000	69,768400
1024,000000	69,751700
1023,000000	69,751000
1022,000000	69,724800
1021,000000	69,709400
1020,000000	69,711600
1019,000000	69,696800
1018,000000	69,687400
1017,000000	69,701500
1016,000000	69,700400
1015,000000	69,690900
1014,000000	69,688000
1013,000000	69,696100
1012,000000	69,705600
1011,000000	69,696400
1010,000000	69,703300
1009,000000	69,715900
1008,000000	69,724800
1007,000000	69,729800
1006,000000	69,735700
1005,000000	69,741200
1004,000000	69,762200
1003,000000	69,775800
1002,000000	69,790500
1001,000000	69,784100
1000,000000	69,784700
999,000000	69,799600
998,000000	69,809900
997,000000	69,803600
996,000000	69,803400
995,000000	69,816800
994,000000	69,832700
993,000000	69,850100
992,000000	69,851900
991,000000	69,864600
990,000000	69,891000
989,000000	69,901600
988,000000	69,915300
987,000000	69,932900
986,000000	69,947300
985,000000	69,988600
984,000000	70,006000
983,000000	70,042200
982,000000	70,057900
981,000000	70,087900
980,000000	70,119500
979,000000	70,146700
978,000000	70,174000
977,000000	70,223200
976,000000	70,245100
975,000000	70,274400
974,000000	70,317800
973,000000	70,379800
972,000000	70,415600
971,000000	70,441400
970,000000	70,514100
969,000000	70,549300
968,000000	70,605800
967,000000	70,652800
966,000000	70,696800
965,000000	70,759300
964,000000	70,815000
963,000000	70,855400
962,000000	70,910800
961,000000	70,957000
960,000000	71,020700
959,000000	71,060600
958,000000	71,133500
957,000000	71,184800
956,000000	71,237800
955,000000	71,314400
954,000000	71,353000
953,000000	71,398800
952,000000	71,463700
951,000000	71,502800
950,000000	71,546800
949,000000	71,621100
948,000000	71,673000
947,000000	71,719800
946,000000	71,769500
945,000000	71,849900
944,000000	71,864200
943,000000	71,886600
942,000000	71,918300
941,000000	72,015000
940,000000	72,054900
939,000000	72,069900
938,000000	72,119900
937,000000	72,207900
936,000000	72,239700
935,000000	72,275100
934,000000	72,302400
933,000000	72,333500
932,000000	72,412100
931,000000	72,446500
930,000000	72,478300
929,000000	72,483300
928,000000	72,581400
927,000000	72,588600
926,000000	72,608100
925,000000	72,626500
924,000000	72,656900
923,000000	72,741100
922,000000	72,741100
921,000000	72,762100
920,000000	72,779000
919,000000	72,794700
918,000000	72,794900
917,000000	72,789700
916,000000	72,819900
915,000000	72,805000
914,000000	72,813900
913,000000	72,821600
912,000000	72,821100
911,000000	72,831100
910,000000	72,815800
909,000000	72,798700
908,000000	72,773000
907,000000	72,781900
906,000000	72,759800
905,000000	72,749100
904,000000	72,728700
903,000000	72,648700
902,000000	72,635300
901,000000	72,517400
900,000000	72,483200
899,000000	72,454200
898,000000	72,435100
897,000000	72,368600
896,000000	72,327400
895,000000	72,191600
894,000000	72,147400
893,000000	72,104600
892,000000	72,037700
891,000000	71,900000
890,000000	71,831500
889,000000	71,779100
888,000000	71,642200
887,000000	71,581600
886,000000	71,465400
885,000000	71,413700
884,000000	71,338600
883,000000	71,201600
882,000000	71,105600
881,000000	70,988500
880,000000	70,884700
879,000000	70,726500
878,000000	70,626800
877,000000	70,425700
876,000000	70,207100
875,000000	69,973700
874,000000	69,776800
873,000000	69,518900
872,000000	69,341100
871,000000	69,326700
870,000000	69,412800
869,000000	69,511100
868,000000	69,626100
867,000000	69,698200
866,000000	69,803100
865,000000	69,876500
864,000000	69,986700
863,000000	70,069400
862,000000	70,163600
861,000000	70,286800
860,000000	70,395000
859,000000	70,521700
858,000000	71,919600
857,000000	79,529000
856,000000	79,773400
855,000000	79,803500
854,000000	79,793000
853,000000	79,509900
852,000000	79,521100
851,000000	79,914800
850,000000	80,310500
849,000000	80,428400
848,000000	80,630700
847,000000	80,797700
846,000000	80,987700
845,000000	81,448200
844,000000	81,618700
843,000000	82,039200
842,000000	82,104200
841,000000	82,575500
840,000000	82,980500
839,000000	83,122600
838,000000	83,611700
837,000000	83,834100
836,000000	84,355900
835,000000	84,841200
834,000000	85,287700
833,000000	85,375500
832,000000	85,868900
831,000000	86,297500
830,000000	86,937900
829,000000	87,126400
828,000000	87,810800
827,000000	88,095900
826,000000	88,751200
825,000000	89,086600
824,000000	89,627700
823,000000	90,259200
822,000000	90,519000
821,000000	91,041700
820,000000	91,377800
819,000000	91,772500
818,000000	92,388800
817,000000	92,898400
816,000000	93,239600
815,000000	93,621200
814,000000	94,219200
813,000000	94,348100
812,000000	94,729500
811,000000	95,420500
810,000000	95,882400
809,000000	95,904700
808,000000	96,109200
807,000000	96,602500
806,000000	96,842900
805,000000	97,174100
804,000000	97,466300
803,000000	97,544400
802,000000	97,714200
801,000000	97,852300
800,000000	98,205000
799,000000	98,353600
798,000000	98,338600
797,000000	98,572200
796,000000	98,626400
795,000000	98,757400
794,000000	98,848400
793,000000	98,971900
792,000000	99,080200
791,000000	98,936800
790,000000	98,967600
789,000000	99,082700
788,000000	99,240900
787,000000	99,256500
786,000000	99,193400
785,000000	99,104800
784,000000	99,010300
783,000000	98,989500
782,000000	99,042500
781,000000	99,044500
780,000000	98,947600
779,000000	98,858400
778,000000	98,898300
777,000000	98,908400
776,000000	98,829200
775,000000	98,769600
774,000000	98,749600
773,000000	98,710500
772,000000	98,733100
771,000000	98,714200
770,000000	98,707000
769,000000	98,660900
768,000000	98,703700
767,000000	98,661200
766,000000	98,478200
765,000000	98,470800
764,000000	98,463500
763,000000	98,454900
762,000000	98,453700
761,000000	98,452800
760,000000	98,415500
759,000000	98,452700
758,000000	98,412500
757,000000	98,321300
756,000000	98,382400
755,000000	98,332400
754,000000	98,204900
753,000000	98,167200
752,000000	98,151200
751,000000	98,180600
750,000000	98,161700
749,000000	97,981600
748,000000	97,944500
747,000000	97,971500
746,000000	97,997400
745,000000	97,950300
744,000000	97,751200
743,000000	97,587900
742,000000	97,480300
741,000000	97,335800
740,000000	97,267500
739,000000	97,280800
738,000000	97,109700
737,000000	96,911500
736,000000	96,660800
735,000000	96,518200
734,000000	96,431600
733,000000	96,149100
732,000000	95,950900
731,000000	95,680200
730,000000	95,372200
729,000000	95,039200
728,000000	94,718100
727,000000	94,443700
726,000000	94,115600
725,000000	93,723600
724,000000	93,309300
723,000000	92,731900
722,000000	92,165400
721,000000	91,685100
720,000000	91,108100
719,000000	90,543900
718,000000	90,052600
717,000000	89,420500
716,000000	88,716700
715,000000	87,972500
714,000000	87,327100
713,000000	86,624900
712,000000	85,899400
711,000000	85,120500
710,000000	84,382600
709,000000	83,644100
708,000000	82,913800
707,000000	82,251700
706,000000	81,605800
705,000000	80,976300
704,000000	80,401900
703,000000	79,859600
702,000000	79,368600
701,000000	78,932600
700,000000	78,494900
699,000000	78,165700
698,000000	77,861400
697,000000	77,622700
696,000000	77,377100
695,000000	77,125300
694,000000	76,923000
693,000000	76,740200
692,000000	76,539100
691,000000	76,391400
690,000000	76,173000
689,000000	75,918800
688,000000	75,716400
687,000000	75,452700
686,000000	75,144700
685,000000	74,839500
684,000000	74,520400
683,000000	74,162200
682,000000	73,743400
681,000000	73,311200
680,000000	72,874900
679,000000	72,414200
678,000000	71,912600
677,000000	71,494000
676,000000	71,031300
675,000000	70,570400
674,000000	70,124900
673,000000	69,766900
672,000000	69,275900
671,000000	68,874700
670,000000	68,570400
669,000000	68,291000
668,000000	68,075100
667,000000	67,855400
666,000000	67,677300
665,000000	67,497500
664,000000	67,365300
663,000000	67,328100
662,000000	67,210100
661,000000	67,156300
660,000000	67,124300
659,000000	67,101200
658,000000	67,063500
657,000000	66,988300
656,000000	66,856200
655,000000	66,738500
654,000000	66,586700
653,000000	66,371500
652,000000	66,102400
651,000000	65,828400
650,000000	65,501800
649,000000	65,118600
648,000000	64,735100
647,000000	64,275900
646,000000	63,790900
645,000000	63,348400
644,000000	62,833700
643,000000	62,274900
642,000000	61,743100
641,000000	61,178800
640,000000	60,728300
639,000000	60,298300
638,000000	59,818100
637,000000	59,449500
636,000000	59,012900
635,000000	58,702100
634,000000	58,408100
633,000000	58,161200
632,000000	57,863400
631,000000	57,659600
630,000000	57,431000
629,000000	57,248300
628,000000	57,066500
627,000000	56,879500
626,000000	56,688000
625,000000	56,543200
624,000000	56,388300
623,000000	56,170700
622,000000	56,055500
621,000000	55,959600
620,000000	55,764800
619,000000	55,628900
618,000000	55,488600
617,000000	55,361300
616,000000	55,327100
615,000000	55,224400
614,000000	55,205000
613,000000	55,196700
612,000000	55,189000
611,000000	55,228500
610,000000	55,328100
609,000000	55,496200
608,000000	55,700600
607,000000	55,895900
606,000000	56,139400
605,000000	56,423200
604,000000	56,749700
603,000000	57,128100
602,000000	57,453600
601,000000	57,827700
600,000000	58,248500
599,000000	58,603700
598,000000	58,963800
597,000000	59,310500
596,000000	59,658100
595,000000	59,967600
594,000000	60,273200
593,000000	60,614400
592,000000	60,860800
591,000000	61,143300
590,000000	61,380700
589,000000	61,652100
588,000000	61,825800
587,000000	61,935100
586,000000	62,119300
585,000000	62,263300
584,000000	62,437900
583,000000	62,634500
582,000000	62,851800
581,000000	62,995900
580,000000	63,246400
579,000000	63,470900
578,000000	63,665800
577,000000	63,838800
576,000000	63,962300
575,000000	64,046500
574,000000	64,192500
573,000000	64,265500
572,000000	64,307400
571,000000	64,359400
570,000000	64,372100
569,000000	64,466100
568,000000	64,418000
567,000000	64,376500
566,000000	64,359300
565,000000	64,245400
564,000000	64,169600
563,000000	64,088900
562,000000	63,962900
561,000000	63,885300
560,000000	63,763700
559,000000	63,628700
558,000000	63,562700
557,000000	63,501600
556,000000	63,367200
555,000000	63,148300
554,000000	63,002000
553,000000	62,784400
552,000000	62,552700
551,000000	62,312000
550,000000	62,112900
549,000000	61,884700
548,000000	61,632700
547,000000	61,323500
546,000000	60,985900
545,000000	60,656000
544,000000	60,283100
543,000000	59,909800
542,000000	59,569000
541,000000	59,201000
540,000000	58,820400
539,000000	58,457200
538,000000	58,071300
537,000000	57,670400
536,000000	57,294200
535,000000	56,830600
534,000000	56,370100
533,000000	55,906500
532,000000	55,424000
531,000000	54,970300
530,000000	54,478700
529,000000	53,966200
528,000000	53,465600
527,000000	52,937000
526,000000	52,349900
525,000000	51,810100
524,000000	51,236400
523,000000	50,645600
522,000000	50,116300
521,000000	49,574500
520,000000	49,002500
519,000000	48,433200
518,000000	47,838600
517,000000	47,257400
516,000000	46,671800
515,000000	46,103000
514,000000	45,504300
513,000000	44,909400
512,000000	44,315400
511,000000	43,725200
510,000000	43,137400
509,000000	42,542400
508,000000	41,947100
507,000000	41,396900
506,000000	40,828600
505,000000	40,241600
504,000000	39,702200
503,000000	39,103900
502,000000	38,569400
501,000000	37,985800
500,000000	37,428800
499,000000	36,867200
498,000000	36,311900
497,000000	35,783500
496,000000	35,233400
495,000000	34,657400
494,000000	34,061100
493,000000	33,479100
492,000000	32,936700
491,000000	32,381300
490,000000	31,850000
489,000000	31,348700
488,000000	30,856100
487,000000	30,387500
486,000000	29,953300
485,000000	29,517400
484,000000	29,156900
483,000000	28,796000
482,000000	28,439900
481,000000	28,103600
480,000000	27,775500
479,000000	27,481600
478,000000	27,206800
477,000000	26,964600
476,000000	26,730600
475,000000	26,506600
474,000000	26,273500
473,000000	26,037700
472,000000	25,798700
471,000000	25,571800
470,000000	25,318600
469,000000	25,036000
468,000000	24,757800
467,000000	24,462300
466,000000	24,145000
465,000000	23,803300
464,000000	23,475800
463,000000	23,107400
462,000000	22,709900
461,000000	22,319300
460,000000	21,945400
459,000000	21,565100
458,000000	21,174700
457,000000	20,824100
456,000000	20,507200
455,000000	20,187600
454,000000	19,887200
453,000000	19,612400
452,000000	19,376100
451,000000	19,165000
450,000000	18,945000
449,000000	18,779700
448,000000	18,659300
447,000000	18,551900
446,000000	18,473900
445,000000	18,427100
444,000000	18,374800
443,000000	18,332500
442,000000	18,322600
441,000000	18,332000
440,000000	18,321100
439,000000	18,321100
438,000000	18,317100
437,000000	18,300300
436,000000	18,280500
435,000000	18,268600
434,000000	18,246500
433,000000	18,202200
432,000000	18,164500
431,000000	18,101400
430,000000	18,010500
429,000000	17,932000
428,000000	17,827600
427,000000	17,730000
426,000000	17,609600
425,000000	17,447200
424,000000	17,294000
423,000000	17,143900
422,000000	16,986300
421,000000	16,825700
420,000000	16,622300
419,000000	16,407500
418,000000	16,200400
417,000000	16,004100
416,000000	15,791000
415,000000	15,555100
414,000000	15,324600
413,000000	15,103000
412,000000	14,846100
411,000000	14,590900
410,000000	14,344600
409,000000	14,112900
408,000000	13,860900
407,000000	13,616000
406,000000	13,376700
405,000000	13,101400
404,000000	12,819500
403,000000	12,563700
402,000000	12,304600
401,000000	12,056000
400,000000	11,779200
399,000000	11,512500
398,000000	11,272800
397,000000	11,004900
396,000000	10,739500
395,000000	10,473500
394,000000	10,248300
393,000000	10,001900
392,000000	9,760300
391,000000	9,522400
390,000000	9,295000
389,000000	9,079300
388,000000	8,900600
387,000000	8,717500
386,000000	8,522800
385,000000	8,339000
384,000000	8,161800
383,000000	7,988700
382,000000	7,850900
381,000000	7,712100
380,000000	7,628800
379,000000	7,522900
378,000000	7,409000
377,000000	7,281500
376,000000	6,917500
375,000000	6,438800
374,000000	6,534800
373,000000	6,554200
372,000000	6,346100
371,000000	6,479000
370,000000	6,389300
369,000000	6,562800
368,000000	6,603400
367,000000	6,605100
366,000000	6,724200
365,000000	6,650800
364,000000	6,607000
363,000000	6,634600
362,000000	6,425700
361,000000	6,538000
360,000000	6,654100
359,000000	6,572400
358,000000	6,462900
357,000000	6,356900
356,000000	6,405400
355,000000	6,298400
354,000000	6,334300
353,000000	6,488200
352,000000	6,441000
351,000000	6,072200
350,000000	6,200900
349,000000	6,305800
348,000000	6,093800
347,000000	6,140700
346,000000	5,999300
345,000000	6,354500
344,000000	6,399800
343,000000	6,443300
342,000000	6,255200
341,000000	6,302800
340,000000	6,470700
339,000000	6,468100
338,000000	6,295400
337,000000	6,553900
336,000000	6,813400
335,000000	6,726700
334,000000	6,540100
333,000000	6,274900
332,000000	6,528100
331,000000	6,482100
330,000000	6,489500
329,000000	6,341200
328,000000	6,649400
327,000000	6,182100
326,000000	6,769000
325,000000	7,072500
324,000000	7,208900
323,000000	7,115000
322,000000	6,849700
321,000000	7,088700
320,000000	7,427800
319,000000	7,714300
318,000000	7,266900
317,000000	7,926700
316,000000	6,461600
315,000000	6,246300
314,000000	6,221000
313,000000	6,206900
312,000000	6,175200
311,000000	6,219200
310,000000	6,234200
309,000000	6,186400
308,000000	6,270800
307,000000	6,211500
306,000000	6,178300
305,000000	6,224200
304,000000	6,291700
303,000000	6,215000
302,000000	6,227800
301,000000	6,223300
300,000000	6,256300
299,000000	6,265500
298,000000	6,217200
297,000000	6,264800
296,000000	6,186500
295,000000	6,270600
294,000000	6,295400
293,000000	6,350900
292,000000	6,257600
291,000000	6,339200
290,000000	6,327000
289,000000	6,254400
288,000000	6,291300
287,000000	6,213400
286,000000	6,354800
285,000000	6,338200
284,000000	6,298200
283,000000	6,298800
282,000000	6,288100
281,000000	6,329700
280,000000	6,326300
279,000000	6,364000
278,000000	6,372100
277,000000	6,404600
276,000000	6,316300
275,000000	6,446600
274,000000	6,469900
273,000000	6,395800
272,000000	6,467300
271,000000	6,484200
270,000000	6,556600
269,000000	6,470100
268,000000	6,501300
267,000000	6,578200
266,000000	6,551200
265,000000	6,616400
264,000000	6,704800
263,000000	6,711400
262,000000	6,723900
261,000000	6,750900
260,000000	6,754400
259,000000	6,796000
258,000000	6,866600
257,000000	6,843300
256,000000	6,896800
255,000000	6,904200
254,000000	6,981100
253,000000	6,997800
252,000000	7,021600
251,000000	7,031500
250,000000	7,044300
