PE UV       SUBTECH     SPECTRUM    ASCII       PEDS        4.00        
   -1
CICIMAUCR0021-3.Sample.ASC
24/04/17
14:19:58.00
24/04/17
14:19:58.00
Vinicio Soto Monge
C. resplendens. 
250,000000
1
Lambda 1050
1050L1511233
PerkinElmer UV WinLab 6.3.2.0749 / 2.02.05 Lambda 900 UV/VIS/NIR, Aug  7 2015 09:38:08

0
0
3350/servo 860,8/2
0
0
UV/VIS
1
1
1
DoubleDePol,CommonBeamDepol,RBeamAtt,SBeamAtt,60mm sphere, WB InGaAs Detector
0
0
0
0
Program
Program
3350/servo 860,8/2
3350/0,2 860,8/0,2
3350/0,2 860,8/0,2
0
15.00
 
 
 
0
 
860,8
319,2
860,8
Front
100
on
S:100 R:100
0
0
0
0
 
0
 
 
 
0
 
 
0
0
0
0
0
 
 
 
 
0
0


0
0
#HDR
-1
-1
#GR
nm
%R
1.0
0.0
2500,000000
-1,000000
2251
8
79,251800
5,023200
#DATA
250.000000	4.252835
251.000000	4.253735
252.000000	4.234209
253.000000	4.231252
254.000000	4.237926
255.000000	4.227036
256.000000	4.214961
257.000000	4.231688
258.000000	4.196842
259.000000	4.212655
260.000000	4.179152
261.000000	4.162721
262.000000	4.161275
263.000000	4.121699
264.000000	4.117208
265.000000	4.111707
266.000000	4.063967
267.000000	4.088990
268.000000	4.072843
269.000000	4.070791
270.000000	4.017427
271.000000	4.012936
272.000000	4.025509
273.000000	4.002273
274.000000	3.968383
275.000000	3.996380
276.000000	3.988095
277.000000	3.973656
278.000000	4.008111
279.000000	3.999177
280.000000	3.918803
281.000000	3.944714
282.000000	3.954115
283.000000	3.961833
284.000000	3.948267
285.000000	3.946391
286.000000	3.960686
287.000000	3.972649
288.000000	3.957269
289.000000	3.951022
290.000000	3.913475
291.000000	3.948788
292.000000	3.956009
293.000000	3.926837
294.000000	3.912779
295.000000	3.921544
296.000000	3.918998
297.000000	3.935447
298.000000	3.905607
299.000000	3.887834
300.000000	3.888209
301.000000	3.891798
302.000000	3.921075
303.000000	3.921251
304.000000	3.866976
305.000000	3.869198
306.000000	3.891347
307.000000	3.890331
308.000000	3.870557
309.000000	3.903630
310.000000	3.889672
311.000000	3.866516
312.000000	3.873421
313.000000	3.868437
314.000000	3.870044
315.000000	3.880237
316.000000	3.862290
317.000000	4.172697
318.000000	4.222614
319.000000	4.042683
320.000000	4.172649
321.000000	4.313523
322.000000	4.062052
323.000000	4.074652
324.000000	4.263738
325.000000	4.172805
326.000000	4.208900
327.000000	4.103360
328.000000	4.130389
329.000000	4.038561
330.000000	4.053972
331.000000	4.040496
332.000000	4.035740
333.000000	4.070459
334.000000	4.070673
335.000000	4.016833
336.000000	4.044677
337.000000	4.144756
338.000000	4.062808
339.000000	4.105057
340.000000	4.116573
341.000000	4.130056
342.000000	4.123929
343.000000	4.146179
344.000000	4.116287
345.000000	4.121614
346.000000	4.138129
347.000000	4.077248
348.000000	4.163450
349.000000	4.177936
350.000000	4.199400
351.000000	4.212849
352.000000	4.236439
353.000000	4.192529
354.000000	4.280811
355.000000	4.343849
356.000000	4.303673
357.000000	4.357445
358.000000	4.367767
359.000000	4.454076
360.000000	4.453421
361.000000	4.486724
362.000000	4.548554
363.000000	4.569403
364.000000	4.607890
365.000000	4.614496
366.000000	4.596076
367.000000	4.631724
368.000000	4.669375
369.000000	4.690772
370.000000	4.682797
371.000000	4.765449
372.000000	4.833136
373.000000	4.829550
374.000000	4.900975
375.000000	4.926997
376.000000	4.993763
377.000000	4.918685
378.000000	4.979851
379.000000	5.046404
380.000000	5.127146
381.000000	5.213018
382.000000	5.309650
383.000000	5.387170
384.000000	5.476432
385.000000	5.577187
386.000000	5.689244
387.000000	5.798020
388.000000	5.925383
389.000000	6.059977
390.000000	6.193469
391.000000	6.334896
392.000000	6.481335
393.000000	6.629708
394.000000	6.791193
395.000000	6.956607
396.000000	7.130950
397.000000	7.315751
398.000000	7.494681
399.000000	7.682912
400.000000	7.881305
401.000000	8.081761
402.000000	8.288247
403.000000	8.506641
404.000000	8.728757
405.000000	8.948978
406.000000	9.174923
407.000000	9.409425
408.000000	9.643760
409.000000	9.881338
410.000000	10.115985
411.000000	10.363877
412.000000	10.621601
413.000000	10.874192
414.000000	11.126099
415.000000	11.379474
416.000000	11.637509
417.000000	11.893416
418.000000	12.156035
419.000000	12.408259
420.000000	12.662851
421.000000	12.929828
422.000000	13.185731
423.000000	13.447307
424.000000	13.706592
425.000000	13.951635
426.000000	14.196370
427.000000	14.436566
428.000000	14.661884
429.000000	14.884062
430.000000	15.105793
431.000000	15.319155
432.000000	15.533935
433.000000	15.749390
434.000000	15.953080
435.000000	16.152676
436.000000	16.343113
437.000000	16.520329
438.000000	16.688376
439.000000	16.854951
440.000000	17.018421
441.000000	17.171069
442.000000	17.308296
443.000000	17.450115
444.000000	17.585753
445.000000	17.683660
446.000000	17.771228
447.000000	17.860778
448.000000	17.941300
449.000000	18.022082
450.000000	18.103987
451.000000	18.175642
452.000000	18.230292
453.000000	18.282495
454.000000	18.337046
455.000000	18.376314
456.000000	18.405378
457.000000	18.446399
458.000000	18.476103
459.000000	18.493735
460.000000	18.517372
461.000000	18.532554
462.000000	18.545581
463.000000	18.558343
464.000000	18.570095
465.000000	18.580478
466.000000	18.588589
467.000000	18.588535
468.000000	18.599264
469.000000	18.605754
470.000000	18.607983
471.000000	18.610843
472.000000	18.607879
473.000000	18.598151
474.000000	18.595423
475.000000	18.604340
476.000000	18.606579
477.000000	18.604698
478.000000	18.615052
479.000000	18.630277
480.000000	18.685304
481.000000	18.767537
482.000000	18.860377
483.000000	18.965626
484.000000	19.064269
485.000000	19.173830
486.000000	19.308430
487.000000	19.476725
488.000000	19.666309
489.000000	19.869311
490.000000	20.107165
491.000000	20.372648
492.000000	20.665829
493.000000	20.991312
494.000000	21.349569
495.000000	21.721527
496.000000	22.110678
497.000000	22.527705
498.000000	22.969157
499.000000	23.429040
500.000000	23.918550
501.000000	24.409487
502.000000	24.908503
503.000000	25.421717
504.000000	25.945661
505.000000	26.488067
506.000000	27.019356
507.000000	27.541677
508.000000	28.074642
509.000000	28.604153
510.000000	29.135921
511.000000	29.671519
512.000000	30.213305
513.000000	30.740687
514.000000	31.264525
515.000000	31.792757
516.000000	32.319539
517.000000	32.845854
518.000000	33.374022
519.000000	33.904694
520.000000	34.451279
521.000000	34.997848
522.000000	35.544415
523.000000	36.105246
524.000000	36.677286
525.000000	37.267747
526.000000	37.849789
527.000000	38.431282
528.000000	39.006920
529.000000	39.598670
530.000000	40.194950
531.000000	40.803717
532.000000	41.412891
533.000000	42.009120
534.000000	42.597894
535.000000	43.194059
536.000000	43.779200
537.000000	44.357342
538.000000	44.909925
539.000000	45.443335
540.000000	46.019359
541.000000	46.547743
542.000000	47.083454
543.000000	47.599013
544.000000	48.084364
545.000000	48.557185
546.000000	48.997472
547.000000	49.421617
548.000000	49.841442
549.000000	50.254328
550.000000	50.638131
551.000000	50.993871
552.000000	51.355495
553.000000	51.652601
554.000000	51.960976
555.000000	52.257956
556.000000	52.527659
557.000000	52.794413
558.000000	53.035647
559.000000	53.254035
560.000000	52.988939
561.000000	53.137884
562.000000	53.326722
563.000000	53.477145
564.000000	53.641223
565.000000	53.799897
566.000000	53.935862
567.000000	54.073994
568.000000	54.171816
569.000000	54.298437
570.000000	54.369521
571.000000	54.453692
572.000000	54.525071
573.000000	54.572310
574.000000	54.593535
575.000000	54.638778
576.000000	54.647251
577.000000	54.679584
578.000000	54.676605
579.000000	54.671580
580.000000	54.662882
581.000000	54.629434
582.000000	54.590825
583.000000	54.552016
584.000000	54.481893
585.000000	54.420402
586.000000	54.363969
587.000000	54.310677
588.000000	54.197293
589.000000	54.101744
590.000000	53.980282
591.000000	53.851512
592.000000	53.689749
593.000000	53.541917
594.000000	53.393828
595.000000	53.217475
596.000000	53.024108
597.000000	52.830303
598.000000	52.601832
599.000000	52.397567
600.000000	52.188431
601.000000	51.932233
602.000000	51.711272
603.000000	51.468924
604.000000	51.207144
605.000000	50.924086
606.000000	50.690404
607.000000	50.455412
608.000000	50.188867
609.000000	49.918627
610.000000	49.654672
611.000000	49.387405
612.000000	49.125731
613.000000	48.844200
614.000000	48.568183
615.000000	48.328174
616.000000	48.036174
617.000000	47.746901
618.000000	47.457705
619.000000	47.162730
620.000000	46.904751
621.000000	46.596346
622.000000	46.306717
623.000000	46.003164
624.000000	45.690347
625.000000	45.388293
626.000000	45.086173
627.000000	44.787522
628.000000	44.504654
629.000000	44.202126
630.000000	43.886623
631.000000	43.576137
632.000000	43.275179
633.000000	42.966436
634.000000	42.696804
635.000000	42.459667
636.000000	42.230250
637.000000	41.983623
638.000000	41.755038
639.000000	41.500959
640.000000	41.293264
641.000000	41.058094
642.000000	40.827163
643.000000	40.590168
644.000000	40.394705
645.000000	40.170839
646.000000	39.955858
647.000000	39.708615
648.000000	39.483931
649.000000	39.254706
650.000000	39.024832
651.000000	38.854293
652.000000	38.659456
653.000000	38.478545
654.000000	38.309467
655.000000	38.179542
656.000000	38.072620
657.000000	37.972238
658.000000	37.900690
659.000000	37.820215
660.000000	37.762976
661.000000	37.743826
662.000000	37.726189
663.000000	37.706446
664.000000	37.718862
665.000000	37.751545
666.000000	37.779977
667.000000	37.818538
668.000000	37.891132
669.000000	37.960534
670.000000	38.034442
671.000000	38.127019
672.000000	38.227426
673.000000	38.350481
674.000000	38.502329
675.000000	38.690632
676.000000	38.855283
677.000000	39.028639
678.000000	39.206527
679.000000	39.407610
680.000000	39.627911
681.000000	39.857579
682.000000	40.084548
683.000000	40.344123
684.000000	40.587113
685.000000	40.832023
686.000000	41.087125
687.000000	41.305825
688.000000	41.510823
689.000000	41.775844
690.000000	42.023172
691.000000	42.299887
692.000000	42.539162
693.000000	42.765087
694.000000	43.016645
695.000000	43.230261
696.000000	43.430759
697.000000	43.646946
698.000000	43.844628
699.000000	44.045304
700.000000	44.250478
701.000000	44.432459
702.000000	44.608412
703.000000	44.785384
704.000000	44.971845
705.000000	45.136917
706.000000	45.298062
707.000000	45.457803
708.000000	45.638263
709.000000	45.778382
710.000000	45.922434
711.000000	46.083549
712.000000	46.210063
713.000000	46.330780
714.000000	46.464008
715.000000	46.594409
716.000000	46.728773
717.000000	46.847599
718.000000	46.976934
719.000000	47.104604
720.000000	47.223958
721.000000	47.338433
722.000000	47.436015
723.000000	47.551479
724.000000	47.659524
725.000000	47.763278
726.000000	47.867348
727.000000	47.976992
728.000000	48.075888
729.000000	48.178990
730.000000	48.265394
731.000000	48.362136
732.000000	48.481203
733.000000	48.599441
734.000000	48.718089
735.000000	48.815358
736.000000	48.899015
737.000000	49.011414
738.000000	49.137488
739.000000	49.251474
740.000000	49.371457
741.000000	49.475676
742.000000	49.584386
743.000000	49.700304
744.000000	49.794669
745.000000	49.886261
746.000000	49.989375
747.000000	50.101118
748.000000	50.221196
749.000000	50.333929
750.000000	50.425108
751.000000	50.530276
752.000000	50.664283
753.000000	50.747439
754.000000	50.867471
755.000000	51.012553
756.000000	51.097777
757.000000	51.207688
758.000000	51.311313
759.000000	51.439685
760.000000	51.606733
761.000000	51.706888
762.000000	51.817550
763.000000	51.973327
764.000000	52.107542
765.000000	52.230985
766.000000	52.360920
767.000000	52.491999
768.000000	52.597186
769.000000	52.705237
770.000000	52.847319
771.000000	52.998033
772.000000	53.124977
773.000000	53.247580
774.000000	53.415875
775.000000	53.545210
776.000000	53.655938
777.000000	53.811685
778.000000	53.941814
779.000000	54.061270
780.000000	54.186542
781.000000	54.305407
782.000000	54.446807
783.000000	54.541987
784.000000	54.685552
785.000000	54.820708
786.000000	54.940996
787.000000	55.001557
788.000000	55.117516
789.000000	55.193070
790.000000	55.245410
791.000000	55.326737
792.000000	55.395214
793.000000	55.500363
794.000000	55.544020
795.000000	55.613577
796.000000	55.635459
797.000000	55.715735
798.000000	55.722115
799.000000	55.780900
800.000000	55.848972
801.000000	55.838984
802.000000	55.866675
803.000000	55.885959
804.000000	55.875633
805.000000	55.874963
806.000000	55.856406
807.000000	55.802987
808.000000	55.851491
809.000000	55.873596
810.000000	55.798892
811.000000	55.732006
812.000000	55.676551
813.000000	55.654646
814.000000	55.572105
815.000000	55.538662
816.000000	55.511383
817.000000	55.408628
818.000000	55.391485
819.000000	55.307807
820.000000	55.212011
821.000000	55.180628
822.000000	55.104488
823.000000	54.997813
824.000000	54.882466
825.000000	54.894716
826.000000	54.760165
827.000000	54.677464
828.000000	54.643969
829.000000	54.510382
830.000000	54.335577
831.000000	54.268961
832.000000	54.173986
833.000000	54.014004
834.000000	53.901198
835.000000	53.856465
836.000000	53.755141
837.000000	53.593342
838.000000	53.552720
839.000000	53.388066
840.000000	53.258271
841.000000	53.094654
842.000000	52.976735
843.000000	52.770249
844.000000	52.723037
845.000000	52.633568
846.000000	52.394874
847.000000	52.169366
848.000000	52.120272
849.000000	51.800114
850.000000	51.672651
851.000000	51.593405
852.000000	51.492447
853.000000	51.177262
854.000000	51.008420
855.000000	50.779960
856.000000	50.609620
857.000000	50.589100
858.000000	51.445867
859.000000	50.389633
860.000000	50.370000
861.000000	50.372367
862.000000	50.398667
863.000000	50.402267
864.000000	50.373833
865.000000	50.356733
866.000000	50.319567
867.000000	50.280100
868.000000	50.251733
869.000000	50.218400
870.000000	50.178633
871.000000	50.123133
872.000000	50.107033
873.000000	50.029933
874.000000	50.024467
875.000000	49.963567
876.000000	49.934600
877.000000	49.874367
878.000000	49.823300
879.000000	49.754267
880.000000	49.718500
881.000000	49.656300
882.000000	49.553000
883.000000	49.479100
884.000000	49.431200
885.000000	49.342467
886.000000	49.261067
887.000000	49.163933
888.000000	49.061033
889.000000	49.013900
890.000000	48.933933
891.000000	48.830767
892.000000	48.736700
893.000000	48.649900
894.000000	48.562100
895.000000	48.467200
896.000000	48.359533
897.000000	48.276200
898.000000	48.186567
899.000000	48.022767
900.000000	47.920267
901.000000	47.831633
902.000000	47.756733
903.000000	47.666900
904.000000	47.587500
905.000000	47.467400
906.000000	47.375867
907.000000	47.286767
908.000000	47.218100
909.000000	47.132967
910.000000	47.012733
911.000000	46.969900
912.000000	46.920733
913.000000	46.875433
914.000000	46.814400
915.000000	46.737433
916.000000	46.675367
917.000000	46.607667
918.000000	46.546900
919.000000	46.499500
920.000000	46.443633
921.000000	46.381333
922.000000	46.324067
923.000000	46.261767
924.000000	46.215167
925.000000	46.179967
926.000000	46.163067
927.000000	46.092067
928.000000	46.047633
929.000000	46.025667
930.000000	45.987933
931.000000	45.935567
932.000000	45.902500
933.000000	45.840267
934.000000	45.793133
935.000000	45.747400
936.000000	45.707733
937.000000	45.669733
938.000000	45.652433
939.000000	45.621567
940.000000	45.601533
941.000000	45.603933
942.000000	45.610633
943.000000	45.596367
944.000000	45.575167
945.000000	45.555533
946.000000	45.527400
947.000000	45.557033
948.000000	45.564300
949.000000	45.541633
950.000000	45.532133
951.000000	45.538433
952.000000	45.517833
953.000000	45.504300
954.000000	45.505233
955.000000	45.505767
956.000000	45.497633
957.000000	45.471267
958.000000	45.459500
959.000000	45.443333
960.000000	45.436700
961.000000	45.407667
962.000000	45.372933
963.000000	45.364700
964.000000	45.354267
965.000000	45.350000
966.000000	45.327533
967.000000	45.309200
968.000000	45.316300
969.000000	45.314967
970.000000	45.293533
971.000000	45.281800
972.000000	45.265733
973.000000	45.258000
974.000000	45.257700
975.000000	45.241500
976.000000	45.210200
977.000000	45.200467
978.000000	45.190833
979.000000	45.184300
980.000000	45.176533
981.000000	45.163133
982.000000	45.153467
983.000000	45.149133
984.000000	45.138600
985.000000	45.123167
986.000000	45.107467
987.000000	45.102000
988.000000	45.104100
989.000000	45.091433
990.000000	45.085733
991.000000	45.083233
992.000000	45.086200
993.000000	45.087933
994.000000	45.095933
995.000000	45.103700
996.000000	45.101633
997.000000	45.102100
998.000000	45.113933
999.000000	45.113567
1000.000000	45.111567
1001.000000	45.125300
1002.000000	45.132267
1003.000000	45.145133
1004.000000	45.156800
1005.000000	45.156600
1006.000000	45.162767
1007.000000	45.176700
1008.000000	45.185900
1009.000000	45.199933
1010.000000	45.202700
1011.000000	45.212167
1012.000000	45.229833
1013.000000	45.253567
1014.000000	45.281300
1015.000000	45.308733
1016.000000	45.338533
1017.000000	45.379133
1018.000000	45.429167
1019.000000	45.461500
1020.000000	45.503467
1021.000000	45.560167
1022.000000	45.604667
1023.000000	45.655900
1024.000000	45.713733
1025.000000	45.756367
1026.000000	45.806600
1027.000000	45.859633
1028.000000	45.901633
1029.000000	45.943500
1030.000000	45.992867
1031.000000	46.041433
1032.000000	46.082267
1033.000000	46.127367
1034.000000	46.176067
1035.000000	46.218733
1036.000000	46.253300
1037.000000	46.290967
1038.000000	46.329567
1039.000000	46.366800
1040.000000	46.401667
1041.000000	46.436733
1042.000000	46.470567
1043.000000	46.502133
1044.000000	46.543800
1045.000000	46.587700
1046.000000	46.624867
1047.000000	46.673633
1048.000000	46.723467
1049.000000	46.760700
1050.000000	46.805133
1051.000000	46.847900
1052.000000	46.889033
1053.000000	46.923100
1054.000000	46.970267
1055.000000	47.024033
1056.000000	47.078533
1057.000000	47.136533
1058.000000	47.187600
1059.000000	47.246500
1060.000000	47.299433
1061.000000	47.349767
1062.000000	47.401867
1063.000000	47.453100
1064.000000	47.508400
1065.000000	47.553233
1066.000000	47.602333
1067.000000	47.651133
1068.000000	47.705900
1069.000000	47.754233
1070.000000	47.801900
1071.000000	47.855667
1072.000000	47.900800
1073.000000	47.942600
1074.000000	47.997667
1075.000000	48.046800
1076.000000	48.093667
1077.000000	48.147600
1078.000000	48.202400
1079.000000	48.248367
1080.000000	48.297167
1081.000000	48.353733
1082.000000	48.406767
1083.000000	48.459967
1084.000000	48.505267
1085.000000	48.569300
1086.000000	48.621567
1087.000000	48.668233
1088.000000	48.713067
1089.000000	48.767000
1090.000000	48.815400
1091.000000	48.860867
1092.000000	48.903500
1093.000000	48.944100
1094.000000	49.002967
1095.000000	49.035733
1096.000000	49.072733
1097.000000	49.109200
1098.000000	49.162767
1099.000000	49.207667
1100.000000	49.236567
1101.000000	49.267267
1102.000000	49.309500
1103.000000	49.343133
1104.000000	49.383900
1105.000000	49.410267
1106.000000	49.443700
1107.000000	49.466733
1108.000000	49.490767
1109.000000	49.528567
1110.000000	49.557300
1111.000000	49.581000
1112.000000	49.596367
1113.000000	49.627467
1114.000000	49.651400
1115.000000	49.679000
1116.000000	49.721900
1117.000000	49.732300
1118.000000	49.745267
1119.000000	49.746800
1120.000000	49.744933
1121.000000	49.750833
1122.000000	49.742333
1123.000000	49.711067
1124.000000	49.678400
1125.000000	49.643333
1126.000000	49.588833
1127.000000	49.541267
1128.000000	49.483567
1129.000000	49.388967
1130.000000	49.264167
1131.000000	49.123867
1132.000000	48.998933
1133.000000	48.873333
1134.000000	48.724600
1135.000000	48.465133
1136.000000	48.203067
1137.000000	48.007200
1138.000000	47.807933
1139.000000	47.590300
1140.000000	47.375567
1141.000000	47.164233
1142.000000	46.967467
1143.000000	46.783200
1144.000000	46.602767
1145.000000	46.451433
1146.000000	46.339600
1147.000000	46.262133
1148.000000	46.258400
1149.000000	46.270367
1150.000000	46.279367
1151.000000	46.285167
1152.000000	46.293300
1153.000000	46.264267
1154.000000	46.228867
1155.000000	46.124700
1156.000000	45.989233
1157.000000	45.795800
1158.000000	45.593033
1159.000000	45.394100
1160.000000	45.163100
1161.000000	44.916800
1162.000000	44.679000
1163.000000	44.424700
1164.000000	44.173000
1165.000000	43.926233
1166.000000	43.666767
1167.000000	43.415533
1168.000000	43.173767
1169.000000	42.933067
1170.000000	42.706867
1171.000000	42.460600
1172.000000	42.223600
1173.000000	41.990633
1174.000000	41.786100
1175.000000	41.564700
1176.000000	41.353867
1177.000000	41.150733
1178.000000	40.891433
1179.000000	40.589700
1180.000000	40.259633
1181.000000	39.910500
1182.000000	39.559567
1183.000000	39.258567
1184.000000	39.027933
1185.000000	38.899700
1186.000000	38.846600
1187.000000	38.904900
1188.000000	39.077733
1189.000000	39.321667
1190.000000	39.614567
1191.000000	39.955600
1192.000000	40.306333
1193.000000	40.621267
1194.000000	40.905900
1195.000000	41.136200
1196.000000	41.303833
1197.000000	41.441300
1198.000000	41.538667
1199.000000	41.608067
1200.000000	41.663000
1201.000000	41.686600
1202.000000	41.721200
1203.000000	41.746100
1204.000000	41.760867
1205.000000	41.771133
1206.000000	41.793633
1207.000000	41.834333
1208.000000	41.886367
1209.000000	41.948267
1210.000000	42.016567
1211.000000	42.101433
1212.000000	42.194000
1213.000000	42.283167
1214.000000	42.385700
1215.000000	42.485133
1216.000000	42.584800
1217.000000	42.685500
1218.000000	42.804867
1219.000000	42.918900
1220.000000	43.036100
1221.000000	43.164567
1222.000000	43.290933
1223.000000	43.424000
1224.000000	43.563733
1225.000000	43.704467
1226.000000	43.833133
1227.000000	43.962600
1228.000000	44.103567
1229.000000	44.235200
1230.000000	44.362233
1231.000000	44.499067
1232.000000	44.630267
1233.000000	44.759833
1234.000000	44.899867
1235.000000	45.032367
1236.000000	45.157600
1237.000000	45.277233
1238.000000	45.395000
1239.000000	45.498133
1240.000000	45.616567
1241.000000	45.716867
1242.000000	45.814333
1243.000000	45.914400
1244.000000	46.016300
1245.000000	46.116400
1246.000000	46.193333
1247.000000	46.263367
1248.000000	46.332767
1249.000000	46.402033
1250.000000	46.482133
1251.000000	46.550533
1252.000000	46.602767
1253.000000	46.670033
1254.000000	46.726833
1255.000000	46.778433
1256.000000	46.844767
1257.000000	46.902033
1258.000000	46.947900
1259.000000	46.996700
1260.000000	47.039833
1261.000000	47.084667
1262.000000	47.129767
1263.000000	47.174767
1264.000000	47.210167
1265.000000	47.246867
1266.000000	47.296267
1267.000000	47.352033
1268.000000	47.403167
1269.000000	47.442033
1270.000000	47.482467
1271.000000	47.513933
1272.000000	47.549067
1273.000000	47.583633
1274.000000	47.622667
1275.000000	47.675133
1276.000000	47.716067
1277.000000	47.751467
1278.000000	47.794100
1279.000000	47.842933
1280.000000	47.899833
1281.000000	47.957700
1282.000000	48.012200
1283.000000	48.063467
1284.000000	48.108300
1285.000000	48.154167
1286.000000	48.196533
1287.000000	48.236500
1288.000000	48.272600
1289.000000	48.316700
1290.000000	48.356500
1291.000000	48.380167
1292.000000	48.403933
1293.000000	48.431100
1294.000000	48.452600
1295.000000	48.478767
1296.000000	48.503300
1297.000000	48.511833
1298.000000	48.513733
1299.000000	48.526567
1300.000000	48.539133
1301.000000	48.553200
1302.000000	48.559967
1303.000000	48.560033
1304.000000	48.557367
1305.000000	48.553633
1306.000000	48.552033
1307.000000	48.539533
1308.000000	48.513867
1309.000000	48.495500
1310.000000	48.474500
1311.000000	48.444933
1312.000000	48.417533
1313.000000	48.389200
1314.000000	48.342067
1315.000000	48.288567
1316.000000	48.242433
1317.000000	48.196267
1318.000000	48.137467
1319.000000	48.068633
1320.000000	48.002233
1321.000000	47.933200
1322.000000	47.861367
1323.000000	47.798367
1324.000000	47.733533
1325.000000	47.655500
1326.000000	47.567533
1327.000000	47.472100
1328.000000	47.367967
1329.000000	47.263367
1330.000000	47.154567
1331.000000	47.032867
1332.000000	46.896600
1333.000000	46.751333
1334.000000	46.605367
1335.000000	46.464433
1336.000000	46.301667
1337.000000	46.133067
1338.000000	45.956367
1339.000000	45.775900
1340.000000	45.586167
1341.000000	45.381600
1342.000000	45.160800
1343.000000	44.947133
1344.000000	44.712000
1345.000000	44.445233
1346.000000	44.219933
1347.000000	43.962133
1348.000000	43.653967
1349.000000	43.344700
1350.000000	43.020933
1351.000000	42.659200
1352.000000	42.259233
1353.000000	41.861167
1354.000000	41.477500
1355.000000	41.062300
1356.000000	40.726533
1357.000000	40.542933
1358.000000	40.445800
1359.000000	40.390133
1360.000000	40.413033
1361.000000	40.325033
1362.000000	40.137700
1363.000000	40.016133
1364.000000	39.917633
1365.000000	39.724133
1366.000000	39.558533
1367.000000	39.424100
1368.000000	39.182633
1369.000000	38.929000
1370.000000	38.745700
1371.000000	38.480433
1372.000000	38.162167
1373.000000	37.913367
1374.000000	37.689467
1375.000000	37.524533
1376.000000	37.380233
1377.000000	37.288067
1378.000000	37.269433
1379.000000	37.242667
1380.000000	37.169767
1381.000000	37.091167
1382.000000	36.838933
1383.000000	36.513233
1384.000000	36.242000
1385.000000	35.939500
1386.000000	35.708167
1387.000000	35.510600
1388.000000	35.270833
1389.000000	35.006400
1390.000000	34.911667
1391.000000	34.822133
1392.000000	34.651867
1393.000000	34.491633
1394.000000	34.463400
1395.000000	34.361267
1396.000000	34.059467
1397.000000	33.796000
1398.000000	33.708100
1399.000000	33.652567
1400.000000	33.361200
1401.000000	32.910700
1402.000000	32.543400
1403.000000	32.364267
1404.000000	32.054967
1405.000000	31.669567
1406.000000	31.320967
1407.000000	31.050633
1408.000000	30.725300
1409.000000	30.456467
1410.000000	30.126667
1411.000000	29.899267
1412.000000	29.732933
1413.000000	29.596233
1414.000000	29.392900
1415.000000	29.109633
1416.000000	28.912667
1417.000000	28.753100
1418.000000	28.603733
1419.000000	28.376933
1420.000000	28.117667
1421.000000	27.915200
1422.000000	27.754767
1423.000000	27.552900
1424.000000	27.332333
1425.000000	27.142767
1426.000000	26.957600
1427.000000	26.779767
1428.000000	26.625433
1429.000000	26.436267
1430.000000	26.290233
1431.000000	26.173467
1432.000000	26.042333
1433.000000	25.898900
1434.000000	25.787833
1435.000000	25.630767
1436.000000	25.536900
1437.000000	25.430267
1438.000000	25.308933
1439.000000	25.179600
1440.000000	25.070933
1441.000000	24.963867
1442.000000	24.822767
1443.000000	24.711867
1444.000000	24.625133
1445.000000	24.532600
1446.000000	24.379000
1447.000000	24.254600
1448.000000	24.157033
1449.000000	24.095200
1450.000000	23.998400
1451.000000	23.879800
1452.000000	23.784233
1453.000000	23.683333
1454.000000	23.609933
1455.000000	23.524533
1456.000000	23.430200
1457.000000	23.342933
1458.000000	23.265467
1459.000000	23.197533
1460.000000	23.150100
1461.000000	23.076533
1462.000000	23.019567
1463.000000	22.969333
1464.000000	22.897667
1465.000000	22.874267
1466.000000	22.836200
1467.000000	22.787667
1468.000000	22.754533
1469.000000	22.725633
1470.000000	22.700767
1471.000000	22.667900
1472.000000	22.622000
1473.000000	22.586767
1474.000000	22.547733
1475.000000	22.522467
1476.000000	22.493300
1477.000000	22.464500
1478.000000	22.433067
1479.000000	22.405733
1480.000000	22.380233
1481.000000	22.357000
1482.000000	22.333100
1483.000000	22.311567
1484.000000	22.288800
1485.000000	22.280633
1486.000000	22.255567
1487.000000	22.251600
1488.000000	22.239400
1489.000000	22.228633
1490.000000	22.217533
1491.000000	22.204033
1492.000000	22.199167
1493.000000	22.187533
1494.000000	22.192100
1495.000000	22.199333
1496.000000	22.183500
1497.000000	22.192133
1498.000000	22.198600
1499.000000	22.203700
1500.000000	22.220433
1501.000000	22.228567
1502.000000	22.245133
1503.000000	22.270267
1504.000000	22.284467
1505.000000	22.304533
1506.000000	22.328833
1507.000000	22.344867
1508.000000	22.372033
1509.000000	22.400767
1510.000000	22.426367
1511.000000	22.452133
1512.000000	22.481700
1513.000000	22.516033
1514.000000	22.531567
1515.000000	22.548400
1516.000000	22.575300
1517.000000	22.592200
1518.000000	22.615467
1519.000000	22.637667
1520.000000	22.654633
1521.000000	22.678933
1522.000000	22.698900
1523.000000	22.717767
1524.000000	22.735900
1525.000000	22.755433
1526.000000	22.774467
1527.000000	22.785833
1528.000000	22.806167
1529.000000	22.829467
1530.000000	22.841267
1531.000000	22.852567
1532.000000	22.857300
1533.000000	22.854533
1534.000000	22.869267
1535.000000	22.881833
1536.000000	22.885067
1537.000000	22.882567
1538.000000	22.875800
1539.000000	22.876467
1540.000000	22.885867
1541.000000	22.885800
1542.000000	22.889667
1543.000000	22.895933
1544.000000	22.899433
1545.000000	22.901367
1546.000000	22.898167
1547.000000	22.904100
1548.000000	22.911367
1549.000000	22.911233
1550.000000	22.910767
1551.000000	22.916167
1552.000000	22.930967
1553.000000	22.938300
1554.000000	22.931433
1555.000000	22.923867
1556.000000	22.916767
1557.000000	22.906533
1558.000000	22.898433
1559.000000	22.892300
1560.000000	22.875167
1561.000000	22.854633
1562.000000	22.828900
1563.000000	22.798467
1564.000000	22.773400
1565.000000	22.752900
1566.000000	22.729100
1567.000000	22.706167
1568.000000	22.688467
1569.000000	22.675033
1570.000000	22.655333
1571.000000	22.631233
1572.000000	22.611867
1573.000000	22.596833
1574.000000	22.596700
1575.000000	22.597067
1576.000000	22.591900
1577.000000	22.593000
1578.000000	22.598167
1579.000000	22.596367
1580.000000	22.602267
1581.000000	22.618400
1582.000000	22.632967
1583.000000	22.647833
1584.000000	22.671100
1585.000000	22.695033
1586.000000	22.722100
1587.000000	22.751700
1588.000000	22.783800
1589.000000	22.814200
1590.000000	22.837900
1591.000000	22.873067
1592.000000	22.909767
1593.000000	22.949167
1594.000000	22.988700
1595.000000	23.024467
1596.000000	23.072533
1597.000000	23.126700
1598.000000	23.176600
1599.000000	23.219400
1600.000000	23.271600
1601.000000	23.328200
1602.000000	23.390400
1603.000000	23.436567
1604.000000	23.487833
1605.000000	23.549700
1606.000000	23.603000
1607.000000	23.660433
1608.000000	23.716100
1609.000000	23.764933
1610.000000	23.824467
1611.000000	23.875400
1612.000000	23.922967
1613.000000	23.983233
1614.000000	24.049100
1615.000000	24.118667
1616.000000	24.174567
1617.000000	24.236533
1618.000000	24.301467
1619.000000	24.373567
1620.000000	24.444700
1621.000000	24.506000
1622.000000	24.566700
1623.000000	24.643200
1624.000000	24.705633
1625.000000	24.779033
1626.000000	24.858467
1627.000000	24.924900
1628.000000	24.989367
1629.000000	25.062100
1630.000000	25.135967
1631.000000	25.194700
1632.000000	25.253767
1633.000000	25.314133
1634.000000	25.385100
1635.000000	25.442300
1636.000000	25.509600
1637.000000	25.565067
1638.000000	25.623800
1639.000000	25.679100
1640.000000	25.731300
1641.000000	25.791333
1642.000000	25.843633
1643.000000	25.887567
1644.000000	25.934367
1645.000000	25.970533
1646.000000	26.014533
1647.000000	26.048133
1648.000000	26.090067
1649.000000	26.121633
1650.000000	26.137000
1651.000000	26.153767
1652.000000	26.163300
1653.000000	26.183033
1654.000000	26.187667
1655.000000	26.181300
1656.000000	26.165667
1657.000000	26.141367
1658.000000	26.100933
1659.000000	26.054000
1660.000000	26.014033
1661.000000	25.950633
1662.000000	25.883067
1663.000000	25.795433
1664.000000	25.705733
1665.000000	25.602200
1666.000000	25.490667
1667.000000	25.384133
1668.000000	25.227867
1669.000000	25.083833
1670.000000	24.930800
1671.000000	24.770067
1672.000000	24.567033
1673.000000	24.337833
1674.000000	24.078933
1675.000000	23.780633
1676.000000	23.426533
1677.000000	22.998067
1678.000000	22.534300
1679.000000	22.050267
1680.000000	21.524833
1681.000000	21.062667
1682.000000	20.672267
1683.000000	20.389567
1684.000000	20.244433
1685.000000	20.195300
1686.000000	20.191700
1687.000000	20.219867
1688.000000	20.224867
1689.000000	20.188000
1690.000000	20.097233
1691.000000	19.967233
1692.000000	19.814500
1693.000000	19.692800
1694.000000	19.597533
1695.000000	19.546933
1696.000000	19.559233
1697.000000	19.613133
1698.000000	19.720600
1699.000000	19.857667
1700.000000	19.964133
1701.000000	20.090100
1702.000000	20.205200
1703.000000	20.272133
1704.000000	20.317200
1705.000000	20.364967
1706.000000	20.378300
1707.000000	20.405133
1708.000000	20.414900
1709.000000	20.412333
1710.000000	20.389600
1711.000000	20.375433
1712.000000	20.326000
1713.000000	20.271933
1714.000000	20.224967
1715.000000	20.156633
1716.000000	20.099033
1717.000000	20.060867
1718.000000	20.015967
1719.000000	19.984233
1720.000000	19.973600
1721.000000	19.966900
1722.000000	19.963433
1723.000000	19.951833
1724.000000	19.913300
1725.000000	19.873067
1726.000000	19.808967
1727.000000	19.727800
1728.000000	19.647333
1729.000000	19.549833
1730.000000	19.464567
1731.000000	19.383167
1732.000000	19.327467
1733.000000	19.288633
1734.000000	19.302367
1735.000000	19.358900
1736.000000	19.446467
1737.000000	19.583933
1738.000000	19.762300
1739.000000	19.951833
1740.000000	20.163600
1741.000000	20.376833
1742.000000	20.589767
1743.000000	20.763700
1744.000000	20.926800
1745.000000	21.064567
1746.000000	21.175267
1747.000000	21.264200
1748.000000	21.351933
1749.000000	21.418767
1750.000000	21.459300
1751.000000	21.501433
1752.000000	21.540667
1753.000000	21.558733
1754.000000	21.560233
1755.000000	21.547633
1756.000000	21.519800
1757.000000	21.484067
1758.000000	21.437300
1759.000000	21.386367
1760.000000	21.322867
1761.000000	21.275433
1762.000000	21.252067
1763.000000	21.258500
1764.000000	21.280067
1765.000000	21.328033
1766.000000	21.400367
1767.000000	21.478067
1768.000000	21.580467
1769.000000	21.683600
1770.000000	21.792400
1771.000000	21.912767
1772.000000	22.040867
1773.000000	22.158633
1774.000000	22.263833
1775.000000	22.362333
1776.000000	22.465033
1777.000000	22.565300
1778.000000	22.647133
1779.000000	22.724967
1780.000000	22.789200
1781.000000	22.854333
1782.000000	22.927233
1783.000000	23.003100
1784.000000	23.076800
1785.000000	23.143400
1786.000000	23.198400
1787.000000	23.253200
1788.000000	23.305133
1789.000000	23.361733
1790.000000	23.420767
1791.000000	23.475033
1792.000000	23.517667
1793.000000	23.554067
1794.000000	23.597733
1795.000000	23.632700
1796.000000	23.668167
1797.000000	23.702467
1798.000000	23.750233
1799.000000	23.795400
1800.000000	23.844233
1801.000000	23.881833
1802.000000	23.896000
1803.000000	23.928900
1804.000000	23.985767
1805.000000	24.044967
1806.000000	24.080100
1807.000000	24.093467
1808.000000	24.122967
1809.000000	24.174367
1810.000000	24.225533
1811.000000	24.251667
1812.000000	24.254367
1813.000000	24.282933
1814.000000	24.308867
1815.000000	24.310933
1816.000000	24.293733
1817.000000	24.305900
1818.000000	24.379767
1819.000000	24.441767
1820.000000	24.444200
1821.000000	24.382933
1822.000000	24.333800
1823.000000	24.389200
1824.000000	24.515900
1825.000000	24.613667
1826.000000	24.664933
1827.000000	24.690967
1828.000000	24.749367
1829.000000	24.833533
1830.000000	24.893233
1831.000000	24.922533
1832.000000	24.996467
1833.000000	25.127700
1834.000000	25.289300
1835.000000	25.373133
1836.000000	25.385600
1837.000000	25.380300
1838.000000	25.400500
1839.000000	25.478167
1840.000000	25.532833
1841.000000	25.527300
1842.000000	25.458267
1843.000000	25.463433
1844.000000	25.613567
1845.000000	25.811400
1846.000000	25.947500
1847.000000	25.941367
1848.000000	25.820200
1849.000000	25.771333
1850.000000	25.861000
1851.000000	26.013667
1852.000000	26.113233
1853.000000	26.169800
1854.000000	26.199567
1855.000000	26.197300
1856.000000	26.247767
1857.000000	26.318100
1858.000000	26.319733
1859.000000	26.279567
1860.000000	26.229633
1861.000000	26.187200
1862.000000	26.163267
1863.000000	26.189733
1864.000000	26.230333
1865.000000	26.245633
1866.000000	26.232233
1867.000000	26.215667
1868.000000	26.120300
1869.000000	25.949500
1870.000000	25.734933
1871.000000	25.467167
1872.000000	25.224533
1873.000000	24.955100
1874.000000	24.678433
1875.000000	24.430133
1876.000000	24.144667
1877.000000	23.868500
1878.000000	23.569400
1879.000000	23.243300
1880.000000	22.941733
1881.000000	22.608867
1882.000000	22.229933
1883.000000	21.830433
1884.000000	21.403167
1885.000000	20.996333
1886.000000	20.657900
1887.000000	20.379400
1888.000000	20.145033
1889.000000	19.871900
1890.000000	19.600367
1891.000000	19.287767
1892.000000	18.941800
1893.000000	18.631200
1894.000000	18.385300
1895.000000	18.180333
1896.000000	18.020267
1897.000000	17.811133
1898.000000	17.526333
1899.000000	17.218400
1900.000000	16.852667
1901.000000	16.566167
1902.000000	16.376367
1903.000000	16.172267
1904.000000	15.960067
1905.000000	15.669667
1906.000000	15.353200
1907.000000	15.100633
1908.000000	14.906800
1909.000000	14.790967
1910.000000	14.687733
1911.000000	14.522033
1912.000000	14.327800
1913.000000	14.094267
1914.000000	13.831100
1915.000000	13.649633
1916.000000	13.522467
1917.000000	13.425633
1918.000000	13.315333
1919.000000	13.191300
1920.000000	13.039200
1921.000000	12.856800
1922.000000	12.687600
1923.000000	12.576167
1924.000000	12.514367
1925.000000	12.448900
1926.000000	12.346433
1927.000000	12.249733
1928.000000	12.156433
1929.000000	12.068833
1930.000000	12.004900
1931.000000	11.953000
1932.000000	11.909400
1933.000000	11.873133
1934.000000	11.848567
1935.000000	11.834233
1936.000000	11.817167
1937.000000	11.805200
1938.000000	11.785133
1939.000000	11.775200
1940.000000	11.768733
1941.000000	11.771233
1942.000000	11.782067
1943.000000	11.820567
1944.000000	11.840700
1945.000000	11.868767
1946.000000	11.906100
1947.000000	11.931433
1948.000000	11.969433
1949.000000	12.012233
1950.000000	12.044233
1951.000000	12.103167
1952.000000	12.162667
1953.000000	12.203933
1954.000000	12.248567
1955.000000	12.304133
1956.000000	12.354433
1957.000000	12.411700
1958.000000	12.466367
1959.000000	12.519333
1960.000000	12.574733
1961.000000	12.621567
1962.000000	12.682633
1963.000000	12.727900
1964.000000	12.785367
1965.000000	12.847133
1966.000000	12.890800
1967.000000	12.958833
1968.000000	13.004933
1969.000000	13.064233
1970.000000	13.124433
1971.000000	13.185167
1972.000000	13.230433
1973.000000	13.291833
1974.000000	13.349800
1975.000000	13.410033
1976.000000	13.488567
1977.000000	13.545600
1978.000000	13.605400
1979.000000	13.661000
1980.000000	13.717267
1981.000000	13.776067
1982.000000	13.836933
1983.000000	13.899733
1984.000000	13.954467
1985.000000	14.017933
1986.000000	14.063233
1987.000000	14.130400
1988.000000	14.186533
1989.000000	14.236900
1990.000000	14.280033
1991.000000	14.346333
1992.000000	14.384700
1993.000000	14.427800
1994.000000	14.476133
1995.000000	14.525000
1996.000000	14.541800
1997.000000	14.584467
1998.000000	14.621367
1999.000000	14.637367
2000.000000	14.665767
2001.000000	14.694867
2002.000000	14.705200
2003.000000	14.714700
2004.000000	14.732333
2005.000000	14.739467
2006.000000	14.741233
2007.000000	14.743000
2008.000000	14.741800
2009.000000	14.728833
2010.000000	14.719300
2011.000000	14.713033
2012.000000	14.697233
2013.000000	14.670733
2014.000000	14.645600
2015.000000	14.605567
2016.000000	14.571367
2017.000000	14.533600
2018.000000	14.493100
2019.000000	14.457733
2020.000000	14.411600
2021.000000	14.352233
2022.000000	14.295600
2023.000000	14.238833
2024.000000	14.175033
2025.000000	14.128133
2026.000000	14.068600
2027.000000	13.996700
2028.000000	13.929033
2029.000000	13.868967
2030.000000	13.809167
2031.000000	13.740067
2032.000000	13.657300
2033.000000	13.571700
2034.000000	13.490567
2035.000000	13.401867
2036.000000	13.305633
2037.000000	13.222767
2038.000000	13.131133
2039.000000	13.036833
2040.000000	12.932833
2041.000000	12.819567
2042.000000	12.719967
2043.000000	12.621900
2044.000000	12.516633
2045.000000	12.406767
2046.000000	12.311800
2047.000000	12.217667
2048.000000	12.130033
2049.000000	12.058433
2050.000000	11.982067
2051.000000	11.913900
2052.000000	11.854200
2053.000000	11.785833
2054.000000	11.741167
2055.000000	11.703267
2056.000000	11.664900
2057.000000	11.641467
2058.000000	11.633567
2059.000000	11.614133
2060.000000	11.605600
2061.000000	11.604000
2062.000000	11.603767
2063.000000	11.610567
2064.000000	11.610300
2065.000000	11.614700
2066.000000	11.622033
2067.000000	11.635167
2068.000000	11.643533
2069.000000	11.659500
2070.000000	11.670100
2071.000000	11.673700
2072.000000	11.683567
2073.000000	11.691067
2074.000000	11.700500
2075.000000	11.712567
2076.000000	11.728067
2077.000000	11.736833
2078.000000	11.735167
2079.000000	11.747100
2080.000000	11.753667
2081.000000	11.756467
2082.000000	11.758033
2083.000000	11.763733
2084.000000	11.763133
2085.000000	11.764067
2086.000000	11.762433
2087.000000	11.753933
2088.000000	11.750267
2089.000000	11.752067
2090.000000	11.746067
2091.000000	11.743600
2092.000000	11.750167
2093.000000	11.747367
2094.000000	11.738867
2095.000000	11.743267
2096.000000	11.754433
2097.000000	11.767367
2098.000000	11.775367
2099.000000	11.779067
2100.000000	11.798100
2101.000000	11.822900
2102.000000	11.839000
2103.000000	11.845300
2104.000000	11.856000
2105.000000	11.874800
2106.000000	11.881533
2107.000000	11.895133
2108.000000	11.919633
2109.000000	11.934800
2110.000000	11.954400
2111.000000	11.970700
2112.000000	11.975500
2113.000000	11.984900
2114.000000	12.005800
2115.000000	12.027800
2116.000000	12.041767
2117.000000	12.057433
2118.000000	12.071133
2119.000000	12.087367
2120.000000	12.103967
2121.000000	12.116033
2122.000000	12.133567
2123.000000	12.149200
2124.000000	12.162033
2125.000000	12.176000
2126.000000	12.181300
2127.000000	12.188900
2128.000000	12.195433
2129.000000	12.199900
2130.000000	12.206133
2131.000000	12.206833
2132.000000	12.209967
2133.000000	12.203900
2134.000000	12.183967
2135.000000	12.176533
2136.000000	12.183833
2137.000000	12.173267
2138.000000	12.152167
2139.000000	12.142333
2140.000000	12.124900
2141.000000	12.109000
2142.000000	12.086500
2143.000000	12.072533
2144.000000	12.054567
2145.000000	12.032833
2146.000000	12.009000
2147.000000	11.991200
2148.000000	11.961933
2149.000000	11.929533
2150.000000	11.909767
2151.000000	11.889767
2152.000000	11.866500
2153.000000	11.834667
2154.000000	11.810600
2155.000000	11.786800
2156.000000	11.771333
2157.000000	11.743000
2158.000000	11.719433
2159.000000	11.692033
2160.000000	11.677467
2161.000000	11.664367
2162.000000	11.638500
2163.000000	11.627033
2164.000000	11.614000
2165.000000	11.604033
2166.000000	11.591567
2167.000000	11.582400
2168.000000	11.570600
2169.000000	11.571633
2170.000000	11.567800
2171.000000	11.564233
2172.000000	11.563000
2173.000000	11.559900
2174.000000	11.559667
2175.000000	11.562500
2176.000000	11.576533
2177.000000	11.582933
2178.000000	11.593200
2179.000000	11.601233
2180.000000	11.610667
2181.000000	11.628400
2182.000000	11.637367
2183.000000	11.664667
2184.000000	11.678933
2185.000000	11.685933
2186.000000	11.713467
2187.000000	11.720067
2188.000000	11.745233
2189.000000	11.765667
2190.000000	11.771367
2191.000000	11.785400
2192.000000	11.807533
2193.000000	11.812867
2194.000000	11.815867
2195.000000	11.839300
2196.000000	11.858867
2197.000000	11.871767
2198.000000	11.888100
2199.000000	11.890933
2200.000000	11.905367
2201.000000	11.914167
2202.000000	11.916033
2203.000000	11.938067
2204.000000	11.939167
2205.000000	11.959267
2206.000000	11.960367
2207.000000	11.966567
2208.000000	11.980000
2209.000000	11.997533
2210.000000	12.007400
2211.000000	12.017633
2212.000000	12.035400
2213.000000	12.039200
2214.000000	12.056967
2215.000000	12.085767
2216.000000	12.097133
2217.000000	12.086067
2218.000000	12.110233
2219.000000	12.127533
2220.000000	12.126733
2221.000000	12.137600
2222.000000	12.152000
2223.000000	12.145067
2224.000000	12.146000
2225.000000	12.133133
2226.000000	12.131167
2227.000000	12.115233
2228.000000	12.090333
2229.000000	12.066933
2230.000000	12.034000
2231.000000	12.007167
2232.000000	11.962700
2233.000000	11.922933
2234.000000	11.850800
2235.000000	11.797667
2236.000000	11.741800
2237.000000	11.677067
2238.000000	11.602400
2239.000000	11.517633
2240.000000	11.431867
2241.000000	11.352800
2242.000000	11.259033
2243.000000	11.162500
2244.000000	11.047233
2245.000000	10.947667
2246.000000	10.843333
2247.000000	10.717633
2248.000000	10.577833
2249.000000	10.446100
2250.000000	10.276600
2251.000000	10.141867
2252.000000	9.970833
2253.000000	9.793967
2254.000000	9.621233
2255.000000	9.431933
2256.000000	9.257067
2257.000000	9.085400
2258.000000	8.889600
2259.000000	8.712533
2260.000000	8.550833
2261.000000	8.388767
2262.000000	8.228867
2263.000000	8.088600
2264.000000	7.970900
2265.000000	7.849900
2266.000000	7.754933
2267.000000	7.682667
2268.000000	7.612933
2269.000000	7.570233
2270.000000	7.520200
2271.000000	7.495900
2272.000000	7.488467
2273.000000	7.493533
2274.000000	7.492467
2275.000000	7.510333
2276.000000	7.519567
2277.000000	7.544467
2278.000000	7.568733
2279.000000	7.603967
2280.000000	7.635533
2281.000000	7.668333
2282.000000	7.721067
2283.000000	7.745000
2284.000000	7.772833
2285.000000	7.805800
2286.000000	7.822600
2287.000000	7.842700
2288.000000	7.864633
2289.000000	7.862133
2290.000000	7.850033
2291.000000	7.846900
2292.000000	7.835000
2293.000000	7.804600
2294.000000	7.760767
2295.000000	7.727767
2296.000000	7.659167
2297.000000	7.598300
2298.000000	7.542900
2299.000000	7.477933
2300.000000	7.410233
2301.000000	7.346600
2302.000000	7.296933
2303.000000	7.241433
2304.000000	7.197467
2305.000000	7.170933
2306.000000	7.148833
2307.000000	7.128967
2308.000000	7.144100
2309.000000	7.159233
2310.000000	7.187200
2311.000000	7.237133
2312.000000	7.296067
2313.000000	7.354600
2314.000000	7.412067
2315.000000	7.494533
2316.000000	7.581567
2317.000000	7.661767
2318.000000	7.746933
2319.000000	7.829633
2320.000000	7.909100
2321.000000	7.985867
2322.000000	8.058467
2323.000000	8.116067
2324.000000	8.192167
2325.000000	8.253633
2326.000000	8.314900
2327.000000	8.369833
2328.000000	8.418133
2329.000000	8.456733
2330.000000	8.498300
2331.000000	8.543400
2332.000000	8.585633
2333.000000	8.618467
2334.000000	8.635667
2335.000000	8.650600
2336.000000	8.663500
2337.000000	8.674200
2338.000000	8.678400
2339.000000	8.671100
2340.000000	8.660267
2341.000000	8.642267
2342.000000	8.623567
2343.000000	8.600167
2344.000000	8.566133
2345.000000	8.532533
2346.000000	8.505433
2347.000000	8.461100
2348.000000	8.434433
2349.000000	8.407367
2350.000000	8.368833
2351.000000	8.341267
2352.000000	8.329867
2353.000000	8.325067
2354.000000	8.327967
2355.000000	8.342500
2356.000000	8.365567
2357.000000	8.383967
2358.000000	8.409000
2359.000000	8.449967
2360.000000	8.494300
2361.000000	8.539967
2362.000000	8.577600
2363.000000	8.624000
2364.000000	8.682700
2365.000000	8.726067
2366.000000	8.768267
2367.000000	8.812900
2368.000000	8.849067
2369.000000	8.880500
2370.000000	8.915567
2371.000000	8.949467
2372.000000	8.968133
2373.000000	8.988467
2374.000000	9.019267
2375.000000	9.039633
2376.000000	9.045567
2377.000000	9.061367
2378.000000	9.074733
2379.000000	9.081633
2380.000000	9.095600
2381.000000	9.101800
2382.000000	9.112267
2383.000000	9.117000
2384.000000	9.117700
2385.000000	9.120500
2386.000000	9.119500
2387.000000	9.123500
2388.000000	9.123133
2389.000000	9.119367
2390.000000	9.106267
2391.000000	9.086933
2392.000000	9.082767
2393.000000	9.073400
2394.000000	9.056633
2395.000000	9.044833
2396.000000	9.028800
2397.000000	9.007867
2398.000000	8.984867
2399.000000	8.965433
2400.000000	8.952367
2401.000000	8.935567
2402.000000	8.915567
2403.000000	8.889800
2404.000000	8.876700
2405.000000	8.868900
2406.000000	8.847067
2407.000000	8.829267
2408.000000	8.816400
2409.000000	8.797533
2410.000000	8.784633
2411.000000	8.771367
2412.000000	8.755600
2413.000000	8.739467
2414.000000	8.732000
2415.000000	8.710800
2416.000000	8.684800
2417.000000	8.667200
2418.000000	8.648600
2419.000000	8.648433
2420.000000	8.658067
2421.000000	8.669533
2422.000000	8.651967
2423.000000	8.636933
2424.000000	8.610900
2425.000000	8.590633
2426.000000	8.559200
2427.000000	8.535000
2428.000000	8.514367
2429.000000	8.484967
2430.000000	8.448433
2431.000000	8.428300
2432.000000	8.398767
2433.000000	8.352667
2434.000000	8.324400
2435.000000	8.278400
2436.000000	8.237300
2437.000000	8.183667
2438.000000	8.151233
2439.000000	8.112533
2440.000000	8.065067
2441.000000	8.005800
2442.000000	7.963600
2443.000000	7.912967
2444.000000	7.859533
2445.000000	7.815567
2446.000000	7.749267
2447.000000	7.699933
2448.000000	7.660333
2449.000000	7.625067
2450.000000	7.559933
2451.000000	7.506067
2452.000000	7.451067
2453.000000	7.404900
2454.000000	7.358067
2455.000000	7.301933
2456.000000	7.250867
2457.000000	7.206900
2458.000000	7.169100
2459.000000	7.125200
2460.000000	7.107233
2461.000000	7.069500
2462.000000	7.057167
2463.000000	7.022267
2464.000000	6.997900
2465.000000	6.995200
2466.000000	6.967733
2467.000000	6.950733
2468.000000	6.924800
2469.000000	6.939467
2470.000000	6.930467
2471.000000	6.931233
2472.000000	6.935767
2473.000000	6.915167
2474.000000	6.941867
2475.000000	6.916767
2476.000000	6.973200
2477.000000	6.930000
2478.000000	6.951333
2479.000000	6.957633
2480.000000	6.955467
2481.000000	6.942667
2482.000000	6.947967
2483.000000	6.985133
2484.000000	6.993167
2485.000000	6.995467
2486.000000	7.015067
2487.000000	7.036200
2488.000000	6.975700
2489.000000	7.005133
2490.000000	7.040833
2491.000000	7.081033
2492.000000	7.027067
2493.000000	7.079100
2494.000000	7.082867
2495.000000	7.139933
2496.000000	7.134133
2497.000000	7.168800
2498.000000	7.245033
2499.000000	7.263033
2500.000000	7.317467
