PE UV       SUBTECH     SPECTRUM    ASCII       PEDS        4.00        
   -1
CICIMAUCR0108-3.Sample.ASC
24/04/22
10:06:33.00
24/04/22
10:06:33.00
Vinicio Soto Monge
C. resplendens
250,000000
1
Lambda 1050
1050L1511233
PerkinElmer UV WinLab 6.3.2.0749 / 2.02.05 Lambda 900 UV/VIS/NIR, Aug  7 2015 09:38:08

0
0
3350/servo 860,8/2
0
0
UV/VIS
1
1
1
DoubleDePol,CommonBeamDepol,RBeamAtt,SBeamAtt,60mm sphere, WB InGaAs Detector
0
0
0
0
Program
Program
3350/servo 860,8/2
3350/0,2 860,8/0,2
3350/0,2 860,8/0,2
0
15.00
 
 
 
0
 
860,8
319,2
860,8
Front
100
on
S:100 R:100
0
0
0
0
 
0
 
 
 
0
 
 
0
0
0
0
0
 
 
 
 
0
0


0
0
#HDR
-1
-1
#GR
nm
%R
1.0
0.0
2500,000000
-1,000000
2251
8
82,967800
5,292400
#DATA
250.000000	5.711674
251.000000	5.729618
252.000000	5.715922
253.000000	5.704432
254.000000	5.682089
255.000000	5.684276
256.000000	5.652538
257.000000	5.666598
258.000000	5.631768
259.000000	5.620138
260.000000	5.616194
261.000000	5.600297
262.000000	5.592043
263.000000	5.536823
264.000000	5.547041
265.000000	5.516196
266.000000	5.495125
267.000000	5.475789
268.000000	5.450444
269.000000	5.423930
270.000000	5.422874
271.000000	5.403229
272.000000	5.388944
273.000000	5.386760
274.000000	5.370883
275.000000	5.348799
276.000000	5.320114
277.000000	5.322025
278.000000	5.335158
279.000000	5.303475
280.000000	5.296320
281.000000	5.329328
282.000000	5.291711
283.000000	5.309276
284.000000	5.283308
285.000000	5.245864
286.000000	5.274004
287.000000	5.247127
288.000000	5.245432
289.000000	5.282700
290.000000	5.251515
291.000000	5.229571
292.000000	5.192235
293.000000	5.237061
294.000000	5.220839
295.000000	5.257235
296.000000	5.218632
297.000000	5.250615
298.000000	5.185857
299.000000	5.208093
300.000000	5.238526
301.000000	5.222778
302.000000	5.197371
303.000000	5.221267
304.000000	5.229511
305.000000	5.226447
306.000000	5.188071
307.000000	5.200110
308.000000	5.173243
309.000000	5.200190
310.000000	5.176308
311.000000	5.207139
312.000000	5.196158
313.000000	5.215256
314.000000	5.195459
315.000000	5.183244
316.000000	5.222220
317.000000	5.606255
318.000000	5.529715
319.000000	5.308569
320.000000	5.347619
321.000000	5.497873
322.000000	5.320430
323.000000	5.383028
324.000000	5.313640
325.000000	5.323996
326.000000	5.379834
327.000000	5.272339
328.000000	5.335118
329.000000	5.315041
330.000000	5.200447
331.000000	5.298533
332.000000	5.304069
333.000000	5.337074
334.000000	5.341879
335.000000	5.392846
336.000000	5.273584
337.000000	5.340197
338.000000	5.290947
339.000000	5.284352
340.000000	5.261591
341.000000	5.241217
342.000000	5.274265
343.000000	5.310194
344.000000	5.320928
345.000000	5.317424
346.000000	5.380659
347.000000	5.343851
348.000000	5.339415
349.000000	5.289606
350.000000	5.327894
351.000000	5.354951
352.000000	5.401136
353.000000	5.422352
354.000000	5.442587
355.000000	5.458457
356.000000	5.453182
357.000000	5.504934
358.000000	5.517250
359.000000	5.578853
360.000000	5.597324
361.000000	5.599310
362.000000	5.622468
363.000000	5.665630
364.000000	5.706559
365.000000	5.726109
366.000000	5.707581
367.000000	5.763216
368.000000	5.798213
369.000000	5.813552
370.000000	5.823746
371.000000	5.863341
372.000000	5.869405
373.000000	5.892473
374.000000	5.889986
375.000000	5.912758
376.000000	6.033579
377.000000	6.064733
378.000000	6.100972
379.000000	6.143987
380.000000	6.186419
381.000000	6.229149
382.000000	6.276830
383.000000	6.322828
384.000000	6.380814
385.000000	6.438004
386.000000	6.500623
387.000000	6.558796
388.000000	6.615433
389.000000	6.687366
390.000000	6.751503
391.000000	6.832942
392.000000	6.921186
393.000000	7.014500
394.000000	7.107339
395.000000	7.218705
396.000000	7.318892
397.000000	7.430651
398.000000	7.559152
399.000000	7.683985
400.000000	7.826853
401.000000	7.984835
402.000000	8.148718
403.000000	8.334157
404.000000	8.524074
405.000000	8.723141
406.000000	8.935992
407.000000	9.166791
408.000000	9.411479
409.000000	9.675934
410.000000	9.948624
411.000000	10.238643
412.000000	10.545709
413.000000	10.869955
414.000000	11.217548
415.000000	11.574175
416.000000	11.944868
417.000000	12.325263
418.000000	12.719859
419.000000	13.128359
420.000000	13.554104
421.000000	13.990619
422.000000	14.443254
423.000000	14.902701
424.000000	15.362139
425.000000	15.829682
426.000000	16.301746
427.000000	16.767359
428.000000	17.242565
429.000000	17.717520
430.000000	18.190773
431.000000	18.660136
432.000000	19.133424
433.000000	19.604118
434.000000	20.060087
435.000000	20.500175
436.000000	20.940647
437.000000	21.362455
438.000000	21.763868
439.000000	22.163206
440.000000	22.544162
441.000000	22.913291
442.000000	23.282253
443.000000	23.641652
444.000000	23.960639
445.000000	24.284822
446.000000	24.595899
447.000000	24.881074
448.000000	25.152955
449.000000	25.406260
450.000000	25.645655
451.000000	25.868816
452.000000	26.078958
453.000000	26.286810
454.000000	26.474832
455.000000	26.635697
456.000000	26.787219
457.000000	26.946413
458.000000	27.083234
459.000000	27.198484
460.000000	27.312429
461.000000	27.416721
462.000000	27.509682
463.000000	27.596760
464.000000	27.664549
465.000000	27.721377
466.000000	27.773755
467.000000	27.824145
468.000000	27.870906
469.000000	27.890306
470.000000	27.905456
471.000000	27.922209
472.000000	27.929773
473.000000	27.937324
474.000000	27.947032
475.000000	27.958514
476.000000	27.969047
477.000000	27.993131
478.000000	28.031796
479.000000	28.071776
480.000000	28.106737
481.000000	28.157050
482.000000	28.224211
483.000000	28.303713
484.000000	28.389166
485.000000	28.487397
486.000000	28.596743
487.000000	28.732976
488.000000	28.875775
489.000000	29.044475
490.000000	29.235609
491.000000	29.449268
492.000000	29.704446
493.000000	29.972543
494.000000	30.245402
495.000000	30.532629
496.000000	30.854008
497.000000	31.198696
498.000000	31.553459
499.000000	31.926934
500.000000	32.340453
501.000000	32.770593
502.000000	33.214072
503.000000	33.695685
504.000000	34.201142
505.000000	34.711768
506.000000	35.246164
507.000000	35.792175
508.000000	36.367817
509.000000	36.953086
510.000000	37.545940
511.000000	38.157843
512.000000	38.792669
513.000000	39.479218
514.000000	40.179260
515.000000	40.898290
516.000000	41.650033
517.000000	42.441718
518.000000	43.282196
519.000000	44.153308
520.000000	45.079103
521.000000	46.046807
522.000000	47.045199
523.000000	48.085528
524.000000	49.180192
525.000000	50.281969
526.000000	51.429263
527.000000	52.573161
528.000000	53.766565
529.000000	54.985176
530.000000	56.225331
531.000000	57.496690
532.000000	58.786833
533.000000	60.070890
534.000000	61.376028
535.000000	62.665154
536.000000	63.910822
537.000000	65.126929
538.000000	66.339598
539.000000	67.495894
540.000000	68.624901
541.000000	69.724140
542.000000	70.770239
543.000000	71.755231
544.000000	72.705803
545.000000	73.568249
546.000000	74.379721
547.000000	75.162834
548.000000	75.905424
549.000000	76.555431
550.000000	77.218414
551.000000	77.841282
552.000000	78.387757
553.000000	78.932707
554.000000	79.431484
555.000000	79.905722
556.000000	80.343631
557.000000	80.746333
558.000000	81.097930
559.000000	81.489069
560.000000	81.856815
561.000000	82.165131
562.000000	82.484812
563.000000	82.761233
564.000000	83.009958
565.000000	83.256652
566.000000	83.490009
567.000000	83.726255
568.000000	83.891124
569.000000	84.093229
570.000000	84.276110
571.000000	84.454545
572.000000	84.582244
573.000000	84.700871
574.000000	84.823454
575.000000	84.936073
576.000000	85.027155
577.000000	85.114460
578.000000	85.185881
579.000000	85.239238
580.000000	85.261135
581.000000	85.270796
582.000000	85.318426
583.000000	85.305930
584.000000	85.310074
585.000000	85.278714
586.000000	85.231871
587.000000	85.187708
588.000000	85.138898
589.000000	85.074682
590.000000	84.990327
591.000000	84.922724
592.000000	84.783593
593.000000	84.661356
594.000000	84.491188
595.000000	84.312534
596.000000	84.114001
597.000000	83.900350
598.000000	83.690239
599.000000	83.437997
600.000000	83.138921
601.000000	82.817601
602.000000	82.465405
603.000000	82.108559
604.000000	81.712871
605.000000	81.328813
606.000000	80.909398
607.000000	80.476541
608.000000	80.015599
609.000000	79.508345
610.000000	78.982310
611.000000	78.449845
612.000000	77.858137
613.000000	77.232876
614.000000	76.584807
615.000000	75.945505
616.000000	75.215081
617.000000	74.460695
618.000000	73.694919
619.000000	72.876963
620.000000	71.998116
621.000000	71.140399
622.000000	70.218688
623.000000	69.284890
624.000000	68.319897
625.000000	67.338563
626.000000	66.358609
627.000000	65.359767
628.000000	64.369564
629.000000	63.374544
630.000000	62.357737
631.000000	61.340143
632.000000	60.324994
633.000000	59.351568
634.000000	58.411039
635.000000	57.469298
636.000000	56.566867
637.000000	55.701005
638.000000	54.883981
639.000000	54.100712
640.000000	53.369330
641.000000	52.693912
642.000000	52.105407
643.000000	51.591004
644.000000	51.152466
645.000000	50.802541
646.000000	50.556465
647.000000	50.406298
648.000000	50.349676
649.000000	50.365816
650.000000	50.496104
651.000000	50.693799
652.000000	50.978385
653.000000	51.317792
654.000000	51.724438
655.000000	52.185672
656.000000	52.724737
657.000000	53.281569
658.000000	53.871887
659.000000	54.499732
660.000000	55.132410
661.000000	55.807421
662.000000	56.475516
663.000000	57.174269
664.000000	57.840717
665.000000	58.513578
666.000000	59.129934
667.000000	59.781544
668.000000	60.368348
669.000000	60.919001
670.000000	61.461873
671.000000	61.975102
672.000000	62.439104
673.000000	62.880787
674.000000	63.268547
675.000000	63.640745
676.000000	63.966670
677.000000	64.254452
678.000000	64.532899
679.000000	64.783594
680.000000	64.953988
681.000000	65.155304
682.000000	65.306088
683.000000	65.438490
684.000000	65.541518
685.000000	65.596283
686.000000	65.668403
687.000000	65.740829
688.000000	65.736561
689.000000	65.753413
690.000000	65.754227
691.000000	65.730464
692.000000	65.711262
693.000000	65.685993
694.000000	65.634064
695.000000	65.578598
696.000000	65.518404
697.000000	65.463505
698.000000	65.401035
699.000000	65.308705
700.000000	65.255165
701.000000	65.209740
702.000000	65.144492
703.000000	65.068606
704.000000	64.980610
705.000000	64.936223
706.000000	64.919847
707.000000	64.885295
708.000000	64.876797
709.000000	64.872220
710.000000	64.872894
711.000000	64.879880
712.000000	64.959181
713.000000	65.018966
714.000000	65.080624
715.000000	65.184171
716.000000	65.330393
717.000000	65.509216
718.000000	65.679573
719.000000	65.904325
720.000000	66.125443
721.000000	66.373945
722.000000	66.651458
723.000000	66.921466
724.000000	67.269706
725.000000	67.615265
726.000000	67.908554
727.000000	68.237989
728.000000	68.607841
729.000000	68.938117
730.000000	69.286476
731.000000	69.673754
732.000000	70.047372
733.000000	70.412339
734.000000	70.764720
735.000000	71.094372
736.000000	71.439739
737.000000	71.777315
738.000000	72.097160
739.000000	72.459441
740.000000	72.757415
741.000000	73.032763
742.000000	73.320025
743.000000	73.597949
744.000000	73.874918
745.000000	74.110530
746.000000	74.316249
747.000000	74.502917
748.000000	74.716464
749.000000	74.964510
750.000000	75.154159
751.000000	75.284944
752.000000	75.458806
753.000000	75.649457
754.000000	75.781453
755.000000	75.923743
756.000000	76.088081
757.000000	76.183119
758.000000	76.299804
759.000000	76.437683
760.000000	76.520349
761.000000	76.644004
762.000000	76.734064
763.000000	76.751411
764.000000	76.854888
765.000000	76.971931
766.000000	77.034931
767.000000	77.060809
768.000000	77.085642
769.000000	77.161701
770.000000	77.234667
771.000000	77.276509
772.000000	77.297525
773.000000	77.344365
774.000000	77.331455
775.000000	77.337608
776.000000	77.382848
777.000000	77.405687
778.000000	77.378566
779.000000	77.370909
780.000000	77.375555
781.000000	77.362804
782.000000	77.331879
783.000000	77.338444
784.000000	77.354343
785.000000	77.401593
786.000000	77.394362
787.000000	77.407265
788.000000	77.358167
789.000000	77.403792
790.000000	77.447975
791.000000	77.451677
792.000000	77.554737
793.000000	77.586888
794.000000	77.631816
795.000000	77.618992
796.000000	77.720448
797.000000	77.800220
798.000000	77.897041
799.000000	78.021354
800.000000	78.074538
801.000000	78.090370
802.000000	78.188503
803.000000	78.302384
804.000000	78.478164
805.000000	78.527415
806.000000	78.716971
807.000000	78.881903
808.000000	78.986435
809.000000	79.072609
810.000000	79.290980
811.000000	79.436290
812.000000	79.578365
813.000000	79.692342
814.000000	79.795018
815.000000	79.790490
816.000000	79.880682
817.000000	80.101167
818.000000	80.120682
819.000000	80.118237
820.000000	80.225809
821.000000	80.210893
822.000000	80.169083
823.000000	80.174138
824.000000	80.154813
825.000000	80.056073
826.000000	80.042873
827.000000	80.090721
828.000000	80.018994
829.000000	79.825678
830.000000	79.844322
831.000000	79.746960
832.000000	79.734231
833.000000	79.533084
834.000000	79.455679
835.000000	79.384555
836.000000	79.260036
837.000000	79.173058
838.000000	79.059580
839.000000	78.810819
840.000000	78.690758
841.000000	78.421279
842.000000	78.409478
843.000000	78.313583
844.000000	78.225362
845.000000	77.839141
846.000000	77.895007
847.000000	77.757086
848.000000	77.518107
849.000000	77.385700
850.000000	77.217907
851.000000	77.021756
852.000000	76.794430
853.000000	76.786457
854.000000	76.533404
855.000000	76.638062
856.000000	76.251087
857.000000	75.845247
858.000000	76.059367
859.000000	75.756967
860.000000	75.803300
861.000000	75.874233
862.000000	75.884100
863.000000	75.892967
864.000000	75.830633
865.000000	75.789433
866.000000	75.714400
867.000000	75.618800
868.000000	75.515000
869.000000	75.412567
870.000000	75.301533
871.000000	75.187333
872.000000	75.048267
873.000000	74.911267
874.000000	74.797400
875.000000	74.658967
876.000000	74.526333
877.000000	74.376833
878.000000	74.219000
879.000000	74.059100
880.000000	73.922167
881.000000	73.767033
882.000000	73.600700
883.000000	73.467633
884.000000	73.309267
885.000000	73.141233
886.000000	72.956300
887.000000	72.784667
888.000000	72.626133
889.000000	72.466533
890.000000	72.295967
891.000000	72.111500
892.000000	71.945067
893.000000	71.758567
894.000000	71.568800
895.000000	71.365267
896.000000	71.171567
897.000000	70.984533
898.000000	70.779867
899.000000	70.580367
900.000000	70.369133
901.000000	70.148733
902.000000	69.923633
903.000000	69.699033
904.000000	69.485600
905.000000	69.267200
906.000000	69.049500
907.000000	68.831033
908.000000	68.607000
909.000000	68.397700
910.000000	68.214700
911.000000	68.016100
912.000000	67.818967
913.000000	67.602367
914.000000	67.402933
915.000000	67.214167
916.000000	67.036233
917.000000	66.844433
918.000000	66.654900
919.000000	66.458833
920.000000	66.263667
921.000000	66.084133
922.000000	65.872700
923.000000	65.689100
924.000000	65.503033
925.000000	65.332200
926.000000	65.163833
927.000000	64.998867
928.000000	64.821167
929.000000	64.672800
930.000000	64.520300
931.000000	64.379133
932.000000	64.247967
933.000000	64.123333
934.000000	63.964967
935.000000	63.829567
936.000000	63.707533
937.000000	63.581033
938.000000	63.461500
939.000000	63.322100
940.000000	63.199400
941.000000	63.093167
942.000000	62.964067
943.000000	62.850867
944.000000	62.745600
945.000000	62.643867
946.000000	62.531033
947.000000	62.429867
948.000000	62.313633
949.000000	62.215033
950.000000	62.111867
951.000000	61.999433
952.000000	61.889633
953.000000	61.785933
954.000000	61.684500
955.000000	61.561567
956.000000	61.446467
957.000000	61.334367
958.000000	61.213067
959.000000	61.085900
960.000000	60.951033
961.000000	60.826800
962.000000	60.689867
963.000000	60.562067
964.000000	60.433300
965.000000	60.308267
966.000000	60.184933
967.000000	60.058200
968.000000	59.933833
969.000000	59.809933
970.000000	59.686433
971.000000	59.572067
972.000000	59.452633
973.000000	59.332933
974.000000	59.217700
975.000000	59.110267
976.000000	58.987300
977.000000	58.885100
978.000000	58.777300
979.000000	58.663667
980.000000	58.553533
981.000000	58.453000
982.000000	58.348133
983.000000	58.239433
984.000000	58.143600
985.000000	58.037267
986.000000	57.943867
987.000000	57.851900
988.000000	57.776500
989.000000	57.700300
990.000000	57.626567
991.000000	57.561367
992.000000	57.508400
993.000000	57.446733
994.000000	57.401433
995.000000	57.365433
996.000000	57.331933
997.000000	57.294933
998.000000	57.260200
999.000000	57.232833
1000.000000	57.209033
1001.000000	57.194567
1002.000000	57.184400
1003.000000	57.167533
1004.000000	57.155567
1005.000000	57.145167
1006.000000	57.136533
1007.000000	57.126533
1008.000000	57.122700
1009.000000	57.122600
1010.000000	57.119200
1011.000000	57.112000
1012.000000	57.116733
1013.000000	57.122733
1014.000000	57.144133
1015.000000	57.173467
1016.000000	57.197667
1017.000000	57.220833
1018.000000	57.246333
1019.000000	57.279833
1020.000000	57.321400
1021.000000	57.364600
1022.000000	57.394000
1023.000000	57.415967
1024.000000	57.440733
1025.000000	57.483067
1026.000000	57.522033
1027.000000	57.553933
1028.000000	57.582867
1029.000000	57.603733
1030.000000	57.627733
1031.000000	57.647667
1032.000000	57.659733
1033.000000	57.678633
1034.000000	57.695067
1035.000000	57.708200
1036.000000	57.722067
1037.000000	57.733167
1038.000000	57.741300
1039.000000	57.753767
1040.000000	57.762767
1041.000000	57.773533
1042.000000	57.792133
1043.000000	57.807367
1044.000000	57.822300
1045.000000	57.833900
1046.000000	57.848833
1047.000000	57.870567
1048.000000	57.886933
1049.000000	57.912767
1050.000000	57.945767
1051.000000	57.973200
1052.000000	58.005367
1053.000000	58.045267
1054.000000	58.089967
1055.000000	58.129067
1056.000000	58.176700
1057.000000	58.240233
1058.000000	58.291167
1059.000000	58.345467
1060.000000	58.406267
1061.000000	58.464100
1062.000000	58.519233
1063.000000	58.578467
1064.000000	58.636867
1065.000000	58.691667
1066.000000	58.751300
1067.000000	58.807067
1068.000000	58.869100
1069.000000	58.931667
1070.000000	58.985133
1071.000000	59.047233
1072.000000	59.103000
1073.000000	59.161667
1074.000000	59.229200
1075.000000	59.290367
1076.000000	59.342267
1077.000000	59.404600
1078.000000	59.470700
1079.000000	59.531833
1080.000000	59.581100
1081.000000	59.638300
1082.000000	59.698933
1083.000000	59.754367
1084.000000	59.818233
1085.000000	59.875533
1086.000000	59.934567
1087.000000	59.990567
1088.000000	60.052200
1089.000000	60.099367
1090.000000	60.144367
1091.000000	60.200800
1092.000000	60.253433
1093.000000	60.303667
1094.000000	60.342767
1095.000000	60.384133
1096.000000	60.428600
1097.000000	60.468767
1098.000000	60.503667
1099.000000	60.529767
1100.000000	60.571700
1101.000000	60.593900
1102.000000	60.628667
1103.000000	60.656733
1104.000000	60.670167
1105.000000	60.703467
1106.000000	60.726733
1107.000000	60.736500
1108.000000	60.770967
1109.000000	60.784000
1110.000000	60.804667
1111.000000	60.821133
1112.000000	60.843267
1113.000000	60.857767
1114.000000	60.876633
1115.000000	60.900900
1116.000000	60.909433
1117.000000	60.918300
1118.000000	60.936833
1119.000000	60.949967
1120.000000	60.929700
1121.000000	60.917800
1122.000000	60.904100
1123.000000	60.879667
1124.000000	60.853900
1125.000000	60.795033
1126.000000	60.753533
1127.000000	60.678500
1128.000000	60.603667
1129.000000	60.509167
1130.000000	60.392167
1131.000000	60.218900
1132.000000	60.041767
1133.000000	59.835100
1134.000000	59.667467
1135.000000	59.460567
1136.000000	59.191967
1137.000000	58.909533
1138.000000	58.634533
1139.000000	58.374400
1140.000000	58.117600
1141.000000	57.883633
1142.000000	57.640033
1143.000000	57.412433
1144.000000	57.198333
1145.000000	57.030167
1146.000000	56.907700
1147.000000	56.817000
1148.000000	56.784733
1149.000000	56.794100
1150.000000	56.811133
1151.000000	56.829367
1152.000000	56.847700
1153.000000	56.837967
1154.000000	56.798867
1155.000000	56.724900
1156.000000	56.601100
1157.000000	56.434633
1158.000000	56.229033
1159.000000	55.989900
1160.000000	55.752933
1161.000000	55.501667
1162.000000	55.246567
1163.000000	54.984267
1164.000000	54.695033
1165.000000	54.409200
1166.000000	54.141833
1167.000000	53.883767
1168.000000	53.617767
1169.000000	53.353067
1170.000000	53.111000
1171.000000	52.849767
1172.000000	52.598033
1173.000000	52.367633
1174.000000	52.131433
1175.000000	51.925567
1176.000000	51.716300
1177.000000	51.497800
1178.000000	51.258400
1179.000000	50.972400
1180.000000	50.631967
1181.000000	50.278967
1182.000000	49.932833
1183.000000	49.612400
1184.000000	49.364567
1185.000000	49.185400
1186.000000	49.098233
1187.000000	49.112333
1188.000000	49.199333
1189.000000	49.384600
1190.000000	49.647333
1191.000000	49.964367
1192.000000	50.307900
1193.000000	50.646033
1194.000000	50.938733
1195.000000	51.189600
1196.000000	51.396233
1197.000000	51.550133
1198.000000	51.679867
1199.000000	51.778400
1200.000000	51.852067
1201.000000	51.906100
1202.000000	51.949267
1203.000000	51.991367
1204.000000	52.012633
1205.000000	52.035967
1206.000000	52.074767
1207.000000	52.126800
1208.000000	52.173933
1209.000000	52.232433
1210.000000	52.305733
1211.000000	52.390933
1212.000000	52.474367
1213.000000	52.560300
1214.000000	52.649167
1215.000000	52.742167
1216.000000	52.843900
1217.000000	52.932967
1218.000000	53.037467
1219.000000	53.139567
1220.000000	53.252000
1221.000000	53.379167
1222.000000	53.495600
1223.000000	53.630400
1224.000000	53.766200
1225.000000	53.899800
1226.000000	54.031133
1227.000000	54.178533
1228.000000	54.320433
1229.000000	54.456067
1230.000000	54.599933
1231.000000	54.738900
1232.000000	54.885100
1233.000000	55.030933
1234.000000	55.165367
1235.000000	55.300533
1236.000000	55.438200
1237.000000	55.573733
1238.000000	55.714867
1239.000000	55.844167
1240.000000	55.964767
1241.000000	56.096333
1242.000000	56.217633
1243.000000	56.340100
1244.000000	56.463567
1245.000000	56.572867
1246.000000	56.685567
1247.000000	56.791400
1248.000000	56.886100
1249.000000	56.977933
1250.000000	57.054567
1251.000000	57.132933
1252.000000	57.212533
1253.000000	57.277467
1254.000000	57.339967
1255.000000	57.404400
1256.000000	57.458333
1257.000000	57.508600
1258.000000	57.558933
1259.000000	57.608200
1260.000000	57.660600
1261.000000	57.704333
1262.000000	57.745933
1263.000000	57.790833
1264.000000	57.830467
1265.000000	57.869033
1266.000000	57.915167
1267.000000	57.956033
1268.000000	57.993967
1269.000000	58.041467
1270.000000	58.084433
1271.000000	58.125400
1272.000000	58.165167
1273.000000	58.209233
1274.000000	58.253333
1275.000000	58.294400
1276.000000	58.346067
1277.000000	58.398667
1278.000000	58.451700
1279.000000	58.508467
1280.000000	58.567433
1281.000000	58.630467
1282.000000	58.692333
1283.000000	58.753400
1284.000000	58.818900
1285.000000	58.877767
1286.000000	58.940033
1287.000000	59.002367
1288.000000	59.055533
1289.000000	59.099000
1290.000000	59.134367
1291.000000	59.166733
1292.000000	59.200067
1293.000000	59.230200
1294.000000	59.253667
1295.000000	59.262900
1296.000000	59.273733
1297.000000	59.296300
1298.000000	59.310000
1299.000000	59.319067
1300.000000	59.319167
1301.000000	59.322700
1302.000000	59.333567
1303.000000	59.323500
1304.000000	59.313633
1305.000000	59.313300
1306.000000	59.301100
1307.000000	59.280133
1308.000000	59.252700
1309.000000	59.224667
1310.000000	59.186100
1311.000000	59.143100
1312.000000	59.110100
1313.000000	59.063633
1314.000000	59.010800
1315.000000	58.959667
1316.000000	58.900733
1317.000000	58.840300
1318.000000	58.776733
1319.000000	58.704367
1320.000000	58.627867
1321.000000	58.549167
1322.000000	58.471167
1323.000000	58.397567
1324.000000	58.317300
1325.000000	58.225633
1326.000000	58.128333
1327.000000	58.021667
1328.000000	57.919100
1329.000000	57.812400
1330.000000	57.698133
1331.000000	57.566867
1332.000000	57.430167
1333.000000	57.284600
1334.000000	57.131400
1335.000000	56.967100
1336.000000	56.807167
1337.000000	56.629800
1338.000000	56.439667
1339.000000	56.245167
1340.000000	56.047333
1341.000000	55.835367
1342.000000	55.601900
1343.000000	55.368833
1344.000000	55.124900
1345.000000	54.845133
1346.000000	54.552833
1347.000000	54.291033
1348.000000	53.998067
1349.000000	53.660467
1350.000000	53.295533
1351.000000	52.911233
1352.000000	52.475033
1353.000000	52.003033
1354.000000	51.629900
1355.000000	51.254433
1356.000000	50.919067
1357.000000	50.669933
1358.000000	50.527500
1359.000000	50.434433
1360.000000	50.371533
1361.000000	50.380667
1362.000000	50.330833
1363.000000	50.205167
1364.000000	50.059267
1365.000000	49.924733
1366.000000	49.770567
1367.000000	49.598933
1368.000000	49.435833
1369.000000	49.226000
1370.000000	48.969800
1371.000000	48.735900
1372.000000	48.477567
1373.000000	48.202833
1374.000000	47.922833
1375.000000	47.694400
1376.000000	47.540233
1377.000000	47.437433
1378.000000	47.351633
1379.000000	47.291267
1380.000000	47.222267
1381.000000	47.161733
1382.000000	47.020867
1383.000000	46.814933
1384.000000	46.529867
1385.000000	46.228833
1386.000000	45.886133
1387.000000	45.608900
1388.000000	45.390433
1389.000000	45.147500
1390.000000	44.889733
1391.000000	44.707933
1392.000000	44.547200
1393.000000	44.371067
1394.000000	44.225267
1395.000000	44.105267
1396.000000	43.977367
1397.000000	43.708800
1398.000000	43.429133
1399.000000	43.217967
1400.000000	43.040467
1401.000000	42.787533
1402.000000	42.389067
1403.000000	42.012767
1404.000000	41.670367
1405.000000	41.341567
1406.000000	41.002733
1407.000000	40.656867
1408.000000	40.348433
1409.000000	40.026733
1410.000000	39.738100
1411.000000	39.417600
1412.000000	39.111500
1413.000000	38.914067
1414.000000	38.723900
1415.000000	38.516833
1416.000000	38.248667
1417.000000	37.973433
1418.000000	37.786267
1419.000000	37.617667
1420.000000	37.421633
1421.000000	37.173267
1422.000000	36.925533
1423.000000	36.734033
1424.000000	36.548233
1425.000000	36.337633
1426.000000	36.144000
1427.000000	35.932433
1428.000000	35.766200
1429.000000	35.611000
1430.000000	35.444767
1431.000000	35.295867
1432.000000	35.170233
1433.000000	35.057133
1434.000000	34.917333
1435.000000	34.795167
1436.000000	34.660700
1437.000000	34.554767
1438.000000	34.461433
1439.000000	34.331133
1440.000000	34.217200
1441.000000	34.100567
1442.000000	33.987567
1443.000000	33.875900
1444.000000	33.745767
1445.000000	33.660600
1446.000000	33.582800
1447.000000	33.449767
1448.000000	33.331800
1449.000000	33.195933
1450.000000	33.135633
1451.000000	33.044033
1452.000000	32.948000
1453.000000	32.827300
1454.000000	32.715800
1455.000000	32.629267
1456.000000	32.543933
1457.000000	32.443633
1458.000000	32.356633
1459.000000	32.265533
1460.000000	32.188800
1461.000000	32.118933
1462.000000	32.032900
1463.000000	31.955067
1464.000000	31.885133
1465.000000	31.817267
1466.000000	31.765500
1467.000000	31.714833
1468.000000	31.648100
1469.000000	31.581333
1470.000000	31.545333
1471.000000	31.508067
1472.000000	31.455367
1473.000000	31.405667
1474.000000	31.340733
1475.000000	31.287900
1476.000000	31.221733
1477.000000	31.183467
1478.000000	31.153133
1479.000000	31.113367
1480.000000	31.072667
1481.000000	31.048200
1482.000000	31.007967
1483.000000	30.971600
1484.000000	30.941000
1485.000000	30.923967
1486.000000	30.893700
1487.000000	30.872900
1488.000000	30.854067
1489.000000	30.841500
1490.000000	30.815233
1491.000000	30.790633
1492.000000	30.784567
1493.000000	30.761300
1494.000000	30.755900
1495.000000	30.752100
1496.000000	30.746067
1497.000000	30.748000
1498.000000	30.754033
1499.000000	30.763067
1500.000000	30.783967
1501.000000	30.802033
1502.000000	30.820667
1503.000000	30.854933
1504.000000	30.886867
1505.000000	30.919833
1506.000000	30.951467
1507.000000	30.988233
1508.000000	31.037133
1509.000000	31.075833
1510.000000	31.105167
1511.000000	31.150000
1512.000000	31.187033
1513.000000	31.226933
1514.000000	31.262200
1515.000000	31.301433
1516.000000	31.340467
1517.000000	31.383000
1518.000000	31.417767
1519.000000	31.452067
1520.000000	31.490767
1521.000000	31.522400
1522.000000	31.546433
1523.000000	31.584333
1524.000000	31.626567
1525.000000	31.658067
1526.000000	31.691933
1527.000000	31.725200
1528.000000	31.755433
1529.000000	31.779067
1530.000000	31.809633
1531.000000	31.839567
1532.000000	31.862767
1533.000000	31.889767
1534.000000	31.915600
1535.000000	31.935167
1536.000000	31.955767
1537.000000	31.973233
1538.000000	31.981533
1539.000000	31.991467
1540.000000	32.004167
1541.000000	32.020900
1542.000000	32.035300
1543.000000	32.051933
1544.000000	32.070267
1545.000000	32.097933
1546.000000	32.119567
1547.000000	32.145133
1548.000000	32.178933
1549.000000	32.213400
1550.000000	32.249033
1551.000000	32.276700
1552.000000	32.300333
1553.000000	32.337100
1554.000000	32.370667
1555.000000	32.389033
1556.000000	32.406400
1557.000000	32.424000
1558.000000	32.433267
1559.000000	32.432433
1560.000000	32.427867
1561.000000	32.427633
1562.000000	32.417500
1563.000000	32.393733
1564.000000	32.376233
1565.000000	32.357067
1566.000000	32.338933
1567.000000	32.322233
1568.000000	32.300400
1569.000000	32.268767
1570.000000	32.245533
1571.000000	32.233333
1572.000000	32.215333
1573.000000	32.200633
1574.000000	32.194700
1575.000000	32.182933
1576.000000	32.180133
1577.000000	32.180733
1578.000000	32.181200
1579.000000	32.191533
1580.000000	32.199567
1581.000000	32.211967
1582.000000	32.235333
1583.000000	32.258233
1584.000000	32.284033
1585.000000	32.308767
1586.000000	32.333533
1587.000000	32.369233
1588.000000	32.403067
1589.000000	32.446533
1590.000000	32.484767
1591.000000	32.515367
1592.000000	32.550167
1593.000000	32.591933
1594.000000	32.639233
1595.000000	32.689900
1596.000000	32.733667
1597.000000	32.780567
1598.000000	32.832867
1599.000000	32.896233
1600.000000	32.956800
1601.000000	33.014333
1602.000000	33.069633
1603.000000	33.128767
1604.000000	33.193800
1605.000000	33.260533
1606.000000	33.330500
1607.000000	33.393800
1608.000000	33.452967
1609.000000	33.512267
1610.000000	33.568200
1611.000000	33.628367
1612.000000	33.684167
1613.000000	33.737733
1614.000000	33.796867
1615.000000	33.853933
1616.000000	33.900300
1617.000000	33.963067
1618.000000	34.026967
1619.000000	34.081667
1620.000000	34.139267
1621.000000	34.196333
1622.000000	34.253167
1623.000000	34.314500
1624.000000	34.376600
1625.000000	34.429200
1626.000000	34.495067
1627.000000	34.568167
1628.000000	34.634567
1629.000000	34.701900
1630.000000	34.753200
1631.000000	34.817567
1632.000000	34.884900
1633.000000	34.952133
1634.000000	35.009467
1635.000000	35.056267
1636.000000	35.115467
1637.000000	35.168433
1638.000000	35.207367
1639.000000	35.248167
1640.000000	35.303067
1641.000000	35.344733
1642.000000	35.387500
1643.000000	35.425100
1644.000000	35.464800
1645.000000	35.499200
1646.000000	35.533000
1647.000000	35.570967
1648.000000	35.604133
1649.000000	35.630800
1650.000000	35.645433
1651.000000	35.664333
1652.000000	35.681400
1653.000000	35.683633
1654.000000	35.670467
1655.000000	35.663667
1656.000000	35.661267
1657.000000	35.639300
1658.000000	35.607333
1659.000000	35.566433
1660.000000	35.514333
1661.000000	35.452233
1662.000000	35.384700
1663.000000	35.318667
1664.000000	35.231433
1665.000000	35.136533
1666.000000	35.031400
1667.000000	34.917767
1668.000000	34.803400
1669.000000	34.660300
1670.000000	34.504333
1671.000000	34.323067
1672.000000	34.135433
1673.000000	33.922033
1674.000000	33.686567
1675.000000	33.443200
1676.000000	33.144767
1677.000000	32.790367
1678.000000	32.431600
1679.000000	32.034800
1680.000000	31.613400
1681.000000	31.209767
1682.000000	30.847300
1683.000000	30.542300
1684.000000	30.319200
1685.000000	30.186067
1686.000000	30.114700
1687.000000	30.059600
1688.000000	30.029533
1689.000000	29.989233
1690.000000	29.930600
1691.000000	29.842067
1692.000000	29.774067
1693.000000	29.699200
1694.000000	29.640700
1695.000000	29.626933
1696.000000	29.636500
1697.000000	29.683900
1698.000000	29.762900
1699.000000	29.862300
1700.000000	29.963400
1701.000000	30.066500
1702.000000	30.160033
1703.000000	30.213300
1704.000000	30.269833
1705.000000	30.303467
1706.000000	30.309333
1707.000000	30.310133
1708.000000	30.320100
1709.000000	30.280267
1710.000000	30.258300
1711.000000	30.212100
1712.000000	30.150333
1713.000000	30.063200
1714.000000	29.972700
1715.000000	29.867600
1716.000000	29.753500
1717.000000	29.645433
1718.000000	29.537033
1719.000000	29.451467
1720.000000	29.368167
1721.000000	29.287867
1722.000000	29.231633
1723.000000	29.183867
1724.000000	29.146267
1725.000000	29.099233
1726.000000	29.071067
1727.000000	29.012767
1728.000000	28.960367
1729.000000	28.893233
1730.000000	28.827933
1731.000000	28.782800
1732.000000	28.738967
1733.000000	28.705733
1734.000000	28.716500
1735.000000	28.751967
1736.000000	28.820400
1737.000000	28.926033
1738.000000	29.063233
1739.000000	29.219733
1740.000000	29.392700
1741.000000	29.574133
1742.000000	29.761133
1743.000000	29.931467
1744.000000	30.085333
1745.000000	30.219433
1746.000000	30.340100
1747.000000	30.448433
1748.000000	30.529000
1749.000000	30.592467
1750.000000	30.658700
1751.000000	30.705833
1752.000000	30.742400
1753.000000	30.763600
1754.000000	30.763733
1755.000000	30.757633
1756.000000	30.750567
1757.000000	30.722033
1758.000000	30.688133
1759.000000	30.650500
1760.000000	30.605367
1761.000000	30.559600
1762.000000	30.543300
1763.000000	30.537933
1764.000000	30.555533
1765.000000	30.582900
1766.000000	30.631100
1767.000000	30.704467
1768.000000	30.779933
1769.000000	30.876567
1770.000000	30.978800
1771.000000	31.079867
1772.000000	31.179567
1773.000000	31.295200
1774.000000	31.393567
1775.000000	31.486000
1776.000000	31.589000
1777.000000	31.676233
1778.000000	31.755100
1779.000000	31.834767
1780.000000	31.903900
1781.000000	31.973667
1782.000000	32.021333
1783.000000	32.072467
1784.000000	32.134867
1785.000000	32.200433
1786.000000	32.259767
1787.000000	32.301767
1788.000000	32.341233
1789.000000	32.376900
1790.000000	32.417567
1791.000000	32.460867
1792.000000	32.505300
1793.000000	32.549700
1794.000000	32.585633
1795.000000	32.625967
1796.000000	32.663933
1797.000000	32.699567
1798.000000	32.734533
1799.000000	32.767133
1800.000000	32.803667
1801.000000	32.860333
1802.000000	32.910567
1803.000000	32.942733
1804.000000	32.960600
1805.000000	32.993067
1806.000000	33.046000
1807.000000	33.100333
1808.000000	33.128933
1809.000000	33.151833
1810.000000	33.175100
1811.000000	33.222767
1812.000000	33.260933
1813.000000	33.277133
1814.000000	33.290467
1815.000000	33.296867
1816.000000	33.312733
1817.000000	33.312767
1818.000000	33.310333
1819.000000	33.330500
1820.000000	33.371067
1821.000000	33.417400
1822.000000	33.449767
1823.000000	33.429800
1824.000000	33.403333
1825.000000	33.416533
1826.000000	33.460167
1827.000000	33.517167
1828.000000	33.580367
1829.000000	33.659167
1830.000000	33.725267
1831.000000	33.789400
1832.000000	33.841500
1833.000000	33.883033
1834.000000	33.935133
1835.000000	34.003733
1836.000000	34.087200
1837.000000	34.159200
1838.000000	34.207633
1839.000000	34.248933
1840.000000	34.294500
1841.000000	34.341567
1842.000000	34.395500
1843.000000	34.400367
1844.000000	34.370533
1845.000000	34.386500
1846.000000	34.427367
1847.000000	34.509600
1848.000000	34.608767
1849.000000	34.670667
1850.000000	34.686700
1851.000000	34.679367
1852.000000	34.679833
1853.000000	34.708733
1854.000000	34.768233
1855.000000	34.809533
1856.000000	34.820867
1857.000000	34.827833
1858.000000	34.823933
1859.000000	34.816867
1860.000000	34.808233
1861.000000	34.775733
1862.000000	34.727500
1863.000000	34.666600
1864.000000	34.603367
1865.000000	34.540067
1866.000000	34.471700
1867.000000	34.412167
1868.000000	34.344533
1869.000000	34.242233
1870.000000	34.101033
1871.000000	33.964733
1872.000000	33.788467
1873.000000	33.565333
1874.000000	33.322400
1875.000000	33.051767
1876.000000	32.759000
1877.000000	32.453600
1878.000000	32.128300
1879.000000	31.774200
1880.000000	31.398033
1881.000000	31.039200
1882.000000	30.634133
1883.000000	30.234833
1884.000000	29.846033
1885.000000	29.424567
1886.000000	29.040167
1887.000000	28.665933
1888.000000	28.301967
1889.000000	27.943767
1890.000000	27.604933
1891.000000	27.263633
1892.000000	26.897900
1893.000000	26.513700
1894.000000	26.151133
1895.000000	25.796600
1896.000000	25.448467
1897.000000	25.118900
1898.000000	24.769267
1899.000000	24.402667
1900.000000	24.051533
1901.000000	23.700567
1902.000000	23.352867
1903.000000	23.025800
1904.000000	22.699100
1905.000000	22.383767
1906.000000	22.061733
1907.000000	21.738533
1908.000000	21.433100
1909.000000	21.156667
1910.000000	20.893833
1911.000000	20.647600
1912.000000	20.405667
1913.000000	20.170500
1914.000000	19.927533
1915.000000	19.685267
1916.000000	19.473000
1917.000000	19.267167
1918.000000	19.060400
1919.000000	18.867633
1920.000000	18.725333
1921.000000	18.557567
1922.000000	18.400533
1923.000000	18.247833
1924.000000	18.106033
1925.000000	17.968567
1926.000000	17.847367
1927.000000	17.748400
1928.000000	17.650033
1929.000000	17.571467
1930.000000	17.477200
1931.000000	17.419733
1932.000000	17.356400
1933.000000	17.286900
1934.000000	17.232900
1935.000000	17.192800
1936.000000	17.171467
1937.000000	17.158400
1938.000000	17.155533
1939.000000	17.165333
1940.000000	17.185100
1941.000000	17.185233
1942.000000	17.205800
1943.000000	17.224800
1944.000000	17.240433
1945.000000	17.285300
1946.000000	17.330167
1947.000000	17.376200
1948.000000	17.444500
1949.000000	17.490767
1950.000000	17.562233
1951.000000	17.625033
1952.000000	17.687500
1953.000000	17.753400
1954.000000	17.831600
1955.000000	17.910733
1956.000000	17.983633
1957.000000	18.060733
1958.000000	18.129967
1959.000000	18.205300
1960.000000	18.272100
1961.000000	18.345533
1962.000000	18.431200
1963.000000	18.499333
1964.000000	18.586033
1965.000000	18.646600
1966.000000	18.735533
1967.000000	18.787033
1968.000000	18.857967
1969.000000	18.936433
1970.000000	19.012967
1971.000000	19.079267
1972.000000	19.145000
1973.000000	19.236600
1974.000000	19.310200
1975.000000	19.394633
1976.000000	19.462267
1977.000000	19.539367
1978.000000	19.625133
1979.000000	19.711800
1980.000000	19.786333
1981.000000	19.863333
1982.000000	19.952500
1983.000000	20.019467
1984.000000	20.103533
1985.000000	20.180900
1986.000000	20.268167
1987.000000	20.332667
1988.000000	20.409367
1989.000000	20.488000
1990.000000	20.549267
1991.000000	20.626433
1992.000000	20.692333
1993.000000	20.750933
1994.000000	20.804200
1995.000000	20.854233
1996.000000	20.906133
1997.000000	20.956567
1998.000000	20.998967
1999.000000	21.049700
2000.000000	21.082333
2001.000000	21.112733
2002.000000	21.140867
2003.000000	21.159833
2004.000000	21.179800
2005.000000	21.195267
2006.000000	21.203567
2007.000000	21.202167
2008.000000	21.205600
2009.000000	21.204267
2010.000000	21.185833
2011.000000	21.174167
2012.000000	21.141167
2013.000000	21.127133
2014.000000	21.093533
2015.000000	21.061567
2016.000000	21.020233
2017.000000	20.966867
2018.000000	20.928867
2019.000000	20.870967
2020.000000	20.818000
2021.000000	20.754300
2022.000000	20.692100
2023.000000	20.621133
2024.000000	20.554633
2025.000000	20.479133
2026.000000	20.398233
2027.000000	20.312667
2028.000000	20.230967
2029.000000	20.146067
2030.000000	20.054300
2031.000000	19.958767
2032.000000	19.859400
2033.000000	19.752867
2034.000000	19.644000
2035.000000	19.520867
2036.000000	19.393567
2037.000000	19.273800
2038.000000	19.146433
2039.000000	19.011867
2040.000000	18.878733
2041.000000	18.739033
2042.000000	18.580867
2043.000000	18.445600
2044.000000	18.308233
2045.000000	18.163500
2046.000000	18.028567
2047.000000	17.903000
2048.000000	17.782733
2049.000000	17.668500
2050.000000	17.582533
2051.000000	17.488000
2052.000000	17.415633
2053.000000	17.359600
2054.000000	17.315433
2055.000000	17.290467
2056.000000	17.273033
2057.000000	17.274700
2058.000000	17.282333
2059.000000	17.296933
2060.000000	17.332300
2061.000000	17.366967
2062.000000	17.409033
2063.000000	17.456700
2064.000000	17.509767
2065.000000	17.565300
2066.000000	17.623033
2067.000000	17.685133
2068.000000	17.747467
2069.000000	17.796367
2070.000000	17.854900
2071.000000	17.920233
2072.000000	17.978700
2073.000000	18.035533
2074.000000	18.087233
2075.000000	18.128933
2076.000000	18.178967
2077.000000	18.226333
2078.000000	18.266833
2079.000000	18.305533
2080.000000	18.341900
2081.000000	18.367067
2082.000000	18.394967
2083.000000	18.424867
2084.000000	18.444133
2085.000000	18.465700
2086.000000	18.475567
2087.000000	18.489267
2088.000000	18.503633
2089.000000	18.514167
2090.000000	18.528033
2091.000000	18.527833
2092.000000	18.535967
2093.000000	18.543433
2094.000000	18.542733
2095.000000	18.557133
2096.000000	18.573067
2097.000000	18.587533
2098.000000	18.603733
2099.000000	18.617233
2100.000000	18.634733
2101.000000	18.663900
2102.000000	18.681567
2103.000000	18.693633
2104.000000	18.717467
2105.000000	18.741200
2106.000000	18.764333
2107.000000	18.785800
2108.000000	18.805667
2109.000000	18.824333
2110.000000	18.844100
2111.000000	18.863533
2112.000000	18.885700
2113.000000	18.898267
2114.000000	18.909100
2115.000000	18.924733
2116.000000	18.937367
2117.000000	18.950200
2118.000000	18.963033
2119.000000	18.978067
2120.000000	18.990933
2121.000000	18.983867
2122.000000	18.982700
2123.000000	18.984433
2124.000000	18.985433
2125.000000	18.972867
2126.000000	18.953600
2127.000000	18.940700
2128.000000	18.931167
2129.000000	18.909400
2130.000000	18.882300
2131.000000	18.857600
2132.000000	18.827367
2133.000000	18.801367
2134.000000	18.764733
2135.000000	18.729433
2136.000000	18.689300
2137.000000	18.640400
2138.000000	18.596567
2139.000000	18.555133
2140.000000	18.507300
2141.000000	18.455533
2142.000000	18.402933
2143.000000	18.339967
2144.000000	18.276533
2145.000000	18.226700
2146.000000	18.170500
2147.000000	18.114067
2148.000000	18.048400
2149.000000	17.986900
2150.000000	17.916667
2151.000000	17.848300
2152.000000	17.787600
2153.000000	17.721033
2154.000000	17.661867
2155.000000	17.605067
2156.000000	17.552400
2157.000000	17.496333
2158.000000	17.433467
2159.000000	17.387333
2160.000000	17.344167
2161.000000	17.302200
2162.000000	17.268167
2163.000000	17.220067
2164.000000	17.184733
2165.000000	17.161300
2166.000000	17.132500
2167.000000	17.118700
2168.000000	17.083233
2169.000000	17.071100
2170.000000	17.043433
2171.000000	17.025367
2172.000000	17.020900
2173.000000	17.009000
2174.000000	17.000700
2175.000000	17.003167
2176.000000	17.005633
2177.000000	17.002267
2178.000000	17.016200
2179.000000	17.015300
2180.000000	17.024867
2181.000000	17.040933
2182.000000	17.056733
2183.000000	17.065800
2184.000000	17.090267
2185.000000	17.098133
2186.000000	17.126800
2187.000000	17.137700
2188.000000	17.146167
2189.000000	17.164967
2190.000000	17.193033
2191.000000	17.210800
2192.000000	17.218733
2193.000000	17.221000
2194.000000	17.244000
2195.000000	17.245667
2196.000000	17.259567
2197.000000	17.274767
2198.000000	17.292133
2199.000000	17.323100
2200.000000	17.344700
2201.000000	17.369067
2202.000000	17.381900
2203.000000	17.412000
2204.000000	17.431333
2205.000000	17.462667
2206.000000	17.500567
2207.000000	17.528867
2208.000000	17.553733
2209.000000	17.585433
2210.000000	17.626633
2211.000000	17.651067
2212.000000	17.690000
2213.000000	17.734367
2214.000000	17.774867
2215.000000	17.815567
2216.000000	17.864900
2217.000000	17.893567
2218.000000	17.944033
2219.000000	17.987267
2220.000000	18.018567
2221.000000	18.071967
2222.000000	18.107500
2223.000000	18.136433
2224.000000	18.166067
2225.000000	18.199167
2226.000000	18.191967
2227.000000	18.224533
2228.000000	18.230633
2229.000000	18.227900
2230.000000	18.216667
2231.000000	18.204700
2232.000000	18.181800
2233.000000	18.162000
2234.000000	18.132133
2235.000000	18.092567
2236.000000	18.036667
2237.000000	17.980033
2238.000000	17.916767
2239.000000	17.841733
2240.000000	17.752700
2241.000000	17.673633
2242.000000	17.570733
2243.000000	17.465933
2244.000000	17.344300
2245.000000	17.208667
2246.000000	17.071833
2247.000000	16.923833
2248.000000	16.756067
2249.000000	16.583200
2250.000000	16.406967
2251.000000	16.217700
2252.000000	16.004233
2253.000000	15.801467
2254.000000	15.577500
2255.000000	15.349500
2256.000000	15.113367
2257.000000	14.898533
2258.000000	14.677433
2259.000000	14.456833
2260.000000	14.247300
2261.000000	14.059633
2262.000000	13.890033
2263.000000	13.711400
2264.000000	13.576467
2265.000000	13.461267
2266.000000	13.347767
2267.000000	13.251733
2268.000000	13.174900
2269.000000	13.118767
2270.000000	13.080100
2271.000000	13.044133
2272.000000	13.029167
2273.000000	13.024567
2274.000000	13.019267
2275.000000	13.036033
2276.000000	13.050267
2277.000000	13.055400
2278.000000	13.089200
2279.000000	13.108200
2280.000000	13.126400
2281.000000	13.154333
2282.000000	13.186100
2283.000000	13.202100
2284.000000	13.212433
2285.000000	13.218067
2286.000000	13.239300
2287.000000	13.242633
2288.000000	13.242200
2289.000000	13.231167
2290.000000	13.215167
2291.000000	13.184900
2292.000000	13.142100
2293.000000	13.110033
2294.000000	13.071633
2295.000000	13.007900
2296.000000	12.953200
2297.000000	12.885667
2298.000000	12.822300
2299.000000	12.766033
2300.000000	12.712133
2301.000000	12.654100
2302.000000	12.613333
2303.000000	12.577633
2304.000000	12.546267
2305.000000	12.530333
2306.000000	12.540833
2307.000000	12.565267
2308.000000	12.590300
2309.000000	12.643900
2310.000000	12.703467
2311.000000	12.759733
2312.000000	12.835233
2313.000000	12.914067
2314.000000	13.007367
2315.000000	13.093000
2316.000000	13.182267
2317.000000	13.284700
2318.000000	13.378200
2319.000000	13.474367
2320.000000	13.559800
2321.000000	13.629833
2322.000000	13.712500
2323.000000	13.784367
2324.000000	13.852067
2325.000000	13.917467
2326.000000	13.974667
2327.000000	14.025367
2328.000000	14.069000
2329.000000	14.118467
2330.000000	14.158267
2331.000000	14.188500
2332.000000	14.219167
2333.000000	14.256500
2334.000000	14.272167
2335.000000	14.291300
2336.000000	14.319000
2337.000000	14.326733
2338.000000	14.326067
2339.000000	14.324267
2340.000000	14.322633
2341.000000	14.314733
2342.000000	14.296267
2343.000000	14.262567
2344.000000	14.245933
2345.000000	14.228433
2346.000000	14.204900
2347.000000	14.180400
2348.000000	14.151300
2349.000000	14.136000
2350.000000	14.125233
2351.000000	14.120700
2352.000000	14.124167
2353.000000	14.140767
2354.000000	14.163167
2355.000000	14.192367
2356.000000	14.220800
2357.000000	14.266067
2358.000000	14.311867
2359.000000	14.357767
2360.000000	14.416433
2361.000000	14.479033
2362.000000	14.530567
2363.000000	14.578667
2364.000000	14.638633
2365.000000	14.696967
2366.000000	14.744133
2367.000000	14.788533
2368.000000	14.842133
2369.000000	14.876900
2370.000000	14.907367
2371.000000	14.949867
2372.000000	14.980933
2373.000000	15.016600
2374.000000	15.051267
2375.000000	15.070100
2376.000000	15.091500
2377.000000	15.121800
2378.000000	15.141667
2379.000000	15.164467
2380.000000	15.186067
2381.000000	15.204967
2382.000000	15.216767
2383.000000	15.227933
2384.000000	15.243700
2385.000000	15.249300
2386.000000	15.247800
2387.000000	15.252833
2388.000000	15.249533
2389.000000	15.243400
2390.000000	15.234733
2391.000000	15.223767
2392.000000	15.213567
2393.000000	15.202133
2394.000000	15.186133
2395.000000	15.174367
2396.000000	15.159200
2397.000000	15.138967
2398.000000	15.131367
2399.000000	15.113633
2400.000000	15.091467
2401.000000	15.065167
2402.000000	15.048267
2403.000000	15.035267
2404.000000	15.016767
2405.000000	14.994167
2406.000000	14.976533
2407.000000	14.954700
2408.000000	14.934233
2409.000000	14.913300
2410.000000	14.891067
2411.000000	14.876067
2412.000000	14.842200
2413.000000	14.813833
2414.000000	14.791167
2415.000000	14.768200
2416.000000	14.727333
2417.000000	14.692333
2418.000000	14.658767
2419.000000	14.623100
2420.000000	14.591167
2421.000000	14.557833
2422.000000	14.523567
2423.000000	14.490633
2424.000000	14.448933
2425.000000	14.404000
2426.000000	14.357867
2427.000000	14.302500
2428.000000	14.248033
2429.000000	14.182833
2430.000000	14.113133
2431.000000	14.065267
2432.000000	13.994800
2433.000000	13.928633
2434.000000	13.861600
2435.000000	13.789633
2436.000000	13.709600
2437.000000	13.621733
2438.000000	13.546000
2439.000000	13.459667
2440.000000	13.384233
2441.000000	13.296767
2442.000000	13.216467
2443.000000	13.137033
2444.000000	13.051333
2445.000000	12.964800
2446.000000	12.873433
2447.000000	12.791067
2448.000000	12.704467
2449.000000	12.607100
2450.000000	12.523033
2451.000000	12.441300
2452.000000	12.352667
2453.000000	12.277900
2454.000000	12.202667
2455.000000	12.145100
2456.000000	12.066167
2457.000000	11.986767
2458.000000	11.933167
2459.000000	11.878000
2460.000000	11.802033
2461.000000	11.750500
2462.000000	11.720100
2463.000000	11.679633
2464.000000	11.643800
2465.000000	11.613667
2466.000000	11.553033
2467.000000	11.533733
2468.000000	11.519500
2469.000000	11.492800
2470.000000	11.462667
2471.000000	11.470200
2472.000000	11.449400
2473.000000	11.453833
2474.000000	11.421033
2475.000000	11.449033
2476.000000	11.424967
2477.000000	11.368767
2478.000000	11.381500
2479.000000	11.351833
2480.000000	11.365800
2481.000000	11.368967
2482.000000	11.384233
2483.000000	11.372867
2484.000000	11.376600
2485.000000	11.378767
2486.000000	11.401167
2487.000000	11.352833
2488.000000	11.430433
2489.000000	11.360833
2490.000000	11.402967
2491.000000	11.429467
2492.000000	11.431167
2493.000000	11.491833
2494.000000	11.432600
2495.000000	11.514733
2496.000000	11.514367
2497.000000	11.571033
2498.000000	11.646667
2499.000000	11.622133
2500.000000	11.701567
