INBUCR0216_B
Integration time [ms]:   8,000
Averaging Nr. [scans]: 10
Smoothing Nr. [pixels]: 0
Data measured with spectrometer [name]: 7314920SP
Wave   ;Sample   ;Dark     ;Reference;Reflectance
[nm]   ;[counts] ;[counts] ;[counts] ;[%]

 199,42;  113,090;   72,222;  210,244;29,60994
 200,02;  120,825;  102,008;  189,811;21,43021
 200,62;   87,113;   74,992;  115,875;29,64909
 201,22;  118,016;   92,709;  193,470;25,11520
 201,82;  104,963;   64,025;  211,220;27,81204
 202,42;  123,761;   95,408;  188,025;30,61319
 203,03;   71,342;   55,806;  149,594;16,56571
 203,63;   88,488;   65,404;  161,149;24,10945
 204,23;   97,171;   81,415;  188,764;14,67705
 204,83;  100,860;   76,103;  162,076;28,79618
 205,43;   95,790;   65,122;  182,444;26,14022
 206,03;   85,397;   56,103;  131,590;38,80613
 206,63;   84,678;   81,096;  130,910; 7,18890
 207,24;  116,473;   77,929;  242,810;23,37688
 207,84;   68,333;   57,902;  135,404;13,45831
 208,44;   86,716;   59,009;  153,170;29,42445
 209,04;   64,741;   53,697;  112,596;18,75115
 209,64;  121,508;   72,519;  200,426;38,30013
 210,24;   77,160;   50,503;  130,176;33,45793
 210,84;   76,679;   60,310;  167,756;15,23506
 211,44;  102,734;   86,511;  189,701;15,72120
 212,05;   95,141;   61,997;  128,496;49,84147
 212,65;   97,342;   75,406;  151,694;28,75503
 213,25;  121,061;   96,208;  175,325;31,41298
 213,85;  108,796;   84,098;  157,241;33,76608
 214,45;   81,560;   59,703;  144,876;25,66182
 215,05;   67,279;   46,810;  150,056;19,82589
 215,65;   80,443;   64,010;  156,742;17,72070
 216,25;   68,160;   47,903;  131,676;24,18075
 216,85;   69,852;   45,209;  131,084;28,69638
 217,45;   73,042;   61,406;  140,794;14,65795
 218,05;   95,225;   56,513;  170,560;33,94427
 218,66;   56,588;   35,109;  126,597;23,47789
 219,26;   48,588;   40,904;  108,649;11,34187
 219,86;   64,144;   30,415;  147,291;28,85864
 220,46;   89,461;   62,212;  165,774;26,31214
 221,06;   82,771;   50,415;  173,264;26,33782
 221,66;   83,562;   49,317;  185,122;25,21646
 222,26;   71,508;   47,619;  163,026;20,69935
 222,86;   87,533;   70,807;  163,753;17,99604
 223,46;   80,260;   54,503;  138,276;30,74611
 224,06;   97,407;   63,215;  169,877;32,05653
 224,66;   91,352;   59,613;  169,732;28,82255
 225,26;   81,470;   55,111;  162,715;24,49667
 225,86;   72,699;   43,521;  183,285;20,87680
 226,46;   82,997;   58,307;  160,639;24,12730
 227,06;   63,652;   30,313;  143,532;29,44656
 227,66;   58,832;   58,298;  114,355; 0,95297
 228,27;   59,361;   40,012;  159,574;16,18351
 228,87;  115,189;   91,313;  208,446;20,38348
 229,47;   73,871;   37,020;  166,312;28,50259
 230,07;   42,170;   18,811;  112,215;25,00899
 230,67;   64,852;   40,209;  142,184;24,16573
 231,27;   53,661;   30,212;  143,374;20,72194
 231,87;   72,152;   40,109;  147,584;29,81440
 232,47;   93,945;   59,528;  218,437;21,65855
 233,07;   73,314;   37,496;  115,524;45,90383
 233,67;   74,142;   55,906;  155,694;18,27539
 234,27;   32,797;   20,103;  106,490;14,69391
 234,87;   69,144;   43,315;  164,991;21,22757
 235,47;   48,970;   20,211;  136,915;24,64302
 236,07;   56,851;   29,800;  113,786;32,20841
 236,67;   75,805;   59,802;  134,031;21,55984
 237,27;   66,717;   47,023;  174,316;15,47191
 237,87;   72,452;   44,213;  155,532;25,36773
 238,47;   57,024;   24,408;  124,611;32,55027
 239,07;   61,944;   26,119;  172,740;24,43387
 239,67;   87,373;   47,333;  213,158;24,14601
 240,27;   74,399;   43,621;  186,385;21,55883
 240,87;   91,481;   59,423;  199,102;22,95116
 241,47;   55,068;   48,693;   99,120;12,64157
 242,07;   67,970;   48,007;  129,466;24,50688
 242,67;   30,454;    5,722;  135,930;18,99386
 243,27;   31,860;   23,603;  102,476;10,46864
 243,87;   77,607;   50,915;  171,077;22,21349
 244,47;   69,171;   43,215;  154,464;23,33120
 245,07;   34,379;   13,110;  116,356;20,60074
 245,67;   56,342;   43,706;  124,694;15,60312
 246,27;   50,178;   36,296;  104,710;20,28987
 246,87;   52,533;   29,007;  121,153;25,53190
 247,46;   26,613;   12,792;   58,475;30,25508
 248,06;   53,625;   21,613;  126,060;30,64945
 248,66;   56,808;   43,719;  153,526;11,91952
 249,26;   53,451;   30,300;  102,586;32,02633
 249,86;   80,699;   44,721;  160,885;30,97192
 250,46;   50,309;    4,828;  172,023;27,20219
 251,06;   47,942;   30,406;  103,194;24,09277
 251,66;   42,980;   18,014;  130,305;22,23308
 252,26;   55,278;   40,501;  110,659;21,06278
 252,86;   60,079;   26,710;  135,356;30,71387
 253,46;   13,660;   -0,997;   71,476;20,22400
 254,06;   63,387;   46,300;  117,300;24,06655
 254,66;   62,790;   43,622;  156,244;17,01994
 255,26;   70,263;   47,221;  183,271;16,93610
 255,86;   50,368;   53,693;   90,620;-9,00493
 256,46;   45,334;   27,311;  117,701;19,93884
 257,05;   53,416;   24,314;  137,219;25,77603
 257,65;   78,444;   55,915;  159,191;21,81422
 258,25;   68,171;   44,920;  174,412;17,95603
 258,85;   39,279;   24,210;  114,956;16,60619
 259,45;   33,752;   13,309;  104,284;22,47102
 260,05;   63,860;   39,503;  115,376;32,10225
 260,65;   64,578;   49,901;  110,459;24,23664
 261,25;   60,407;   35,715;  144,777;22,64049
 261,85;   24,998;    3,916;  117,036;18,63697
 262,45;   77,779;   58,110;  146,656;22,21380
 263,04;   78,726;   54,121;  181,157;19,36844
 263,64;   61,151;   46,104;  120,435;20,24309
 264,24;   71,035;   50,116;  169,050;17,58860
 264,84;  102,736;   72,525;  200,347;23,63522
 265,44;   48,879;   27,105;  102,308;28,95310
 266,04;   70,260;   40,299;  110,528;42,66170
 266,64;   70,205;   46,002;  130,331;28,70141
 267,24;   53,905;   37,402;  107,331;23,60056
 267,84;   52,161;   35,308;  124,625;18,86880
 268,43;   74,706;   63,006;  136,180;15,98923
 269,03;   75,288;   52,609;  143,797;24,87108
 269,63;   93,814;   71,300;  125,873;41,25538
 270,23;   22,732;   18,498;   87,355; 6,14927
 270,83;   71,378;   57,001;  121,259;22,37422
 271,43;   49,215;   42,005;  112,221;10,26838
 272,03;   80,479;   66,705;  133,008;20,77363
 272,62;   49,943;   31,410;  109,542;23,71979
 273,22;   44,889;   11,613;  120,746;30,49102
 273,82;   35,039;   23,684;   41,950;62,16692
 274,42;   38,632;   31,194;   62,506;23,75401
 275,02;   38,950;   37,396;   87,038; 3,13138
 275,62;   78,271;   49,620;  176,012;22,66884
 276,21;   52,698;   22,012;  119,787;31,38405
 276,81;   67,933;   46,802;  100,904;39,05702
 277,41;   61,526;   34,617;  138,809;25,82617
 278,01;   39,750;   30,596;   62,038;29,11543
 278,61;   71,016;   53,409;  127,970;23,61332
 279,20;   82,699;   66,621;  179,185;14,28366
 279,80;   15,213;    2,887;   19,827;72,76231
 280,40;   56,951;   49,500;  111,686;11,98116
 281,00;   17,116;   -1,591;   79,870;22,96354
 281,60;   54,572;   24,024;  147,561;24,72775
 282,20;   53,034;   44,011;  129,701;10,52947
 282,79;   47,506;   32,006;  103,580;21,65587
 283,39;   26,114;   24,500;   69,873; 3,55709
 283,99;   29,014;   24,796;   62,724;11,12049
 284,59;   42,707;   11,311;   95,329;37,36824
 285,19;   42,397;   27,803;   93,790;22,11589
 285,78;   45,434;   26,011;  114,401;21,97388
 286,38;   47,978;   46,196;   90,310; 4,03742
 286,98;   48,706;   42,206;  104,180;10,48820
 287,58;   19,271;   10,015;  106,264; 9,61634
 288,17;   53,463;   30,221;  134,771;22,23010
 288,77;   61,027;   25,130;  160,455;26,52676
 289,37;   43,279;    7,610;  106,556;36,04932
 289,97;   51,414;   51,596;   89,824;-0,47672
 290,57;   57,253;   40,218;  142,281;16,69089
 291,16;   81,579;   62,005;  153,508;21,39115
 291,76;   31,189;    9,813;  111,846;20,94988
 292,36;   45,388;   34,804;   91,949;18,52056
 292,96;   26,135;   12,920;  112,799;13,23110
 293,55;   44,733;   24,302;   95,904;28,53351
 294,15;   48,998;   21,012;  117,487;29,00832
 294,75;   51,678;   46,296;   87,510;13,05647
 295,35;   44,879;   30,905;   87,208;24,81852
 295,94;   45,769;   47,602;  101,718;-3,38706
 296,54;   42,197;   20,307;  102,039;26,78261
 297,14;   61,762;   35,817;  149,522;22,81803
 297,73;   37,469;   23,498;   65,969;32,89503
 298,33;   57,387;   41,300;   94,600;30,18241
 298,93;   57,633;   47,607;  131,952;11,88743
 299,53;   41,780;   21,519;  133,654;18,06916
 300,12;   19,762;    5,217;  115,922;13,13881
 300,72;   68,651;   58,004;  131,835;14,42059
 301,32;   58,244;   37,415;  153,391;17,95965
 301,92;   23,695;   15,294;   52,693;22,46427
 302,51;   40,424;   22,804;   94,763;24,48653
 303,11;   33,897;   21,403;   92,290;17,62470
 303,71;   52,224;   25,908;  111,711;30,67066
 304,30;   21,223;   24,399;   89,214;-4,90003
 304,90;   28,987;   22,400;   83,400;10,79887
 305,50;   45,132;   35,598;   93,655;16,42213
 306,09;   45,951;   27,100;  107,186;23,53792
 306,69;   64,835;   37,316;  149,950;24,43207
 307,29;   28,276;   40,383;   43,764;-358,11242
 307,88;   62,307;   51,611;  142,529;11,76454
 308,48;   25,361;    7,612;  111,974;17,00747
 309,08;   16,386;    6,391;   47,803;24,13565
 309,68;   39,369;   25,198;   76,769;27,47834
 310,27;   28,843;    3,310;  109,342;24,08023
 310,87;   53,897;   40,507;  113,439;18,35945
 311,47;   67,460;   52,803;  134,376;17,96788
 312,06;   66,305;   54,797;   99,183;25,92662
 312,66;   81,779;   58,605;  130,408;32,27390
 313,26;   71,880;   57,714;  154,805;14,59016
 313,85;   63,797;   48,603;  102,090;28,40617
 314,45;   73,116;   43,309;  124,070;36,90690
 315,04;   72,005;   52,497;  102,883;38,71686
 315,64;   45,551;   32,204;   92,535;22,12280
 316,24;   54,561;   45,412;  136,874;10,00339
 316,83;   58,651;   44,800;  109,286;21,47843
 317,43;   53,415;   34,805;  112,521;23,94616
 318,03;   62,941;   46,992;  105,248;27,37637
 318,62;   80,685;   83,886;  116,254;-9,88993
 319,22;   48,361;   23,508;  114,325;27,36605
 319,82;   61,279;   41,505;  135,108;21,12490
 320,41;   86,924;   50,808;  152,511;35,51158
 321,01;  100,932;   87,098;  148,755;22,43734
 321,60;   85,032;   75,494;  138,706;15,08878
 322,20;   94,890;   57,422;  215,744;23,66583
 322,80;   74,751;   51,404;  154,635;22,61618
 323,39;   74,386;   51,895;  113,651;36,41935
 323,99;   75,178;   62,501;  142,359;15,87470
 324,59;   75,141;   68,792;  121,248;12,10208
 325,18;   65,424;   47,504;  158,863;16,09232
 325,78;   92,569;   66,698;  150,369;30,91974
 326,37;   89,542;   65,706;  177,794;21,26601
 326,97;   90,851;   72,204;  176,935;17,80454
 327,57;   50,313;   49,692;  114,875; 0,95362
 328,16;   72,868;   66,793;  136,120; 8,76248
 328,76;   80,569;   65,802;  159,418;15,77418
 329,35;   88,644;   70,715;  202,591;13,59528
 329,95;   68,134;   46,311;  172,301;17,32099
 330,54;   77,460;   57,403;  166,676;18,35489
 331,14;   57,433;   37,202;  149,004;18,09492
 331,74;   75,432;   65,898;  158,355;10,31204
 332,33;   66,161;   36,712;  182,074;20,25932
 332,93;   65,495;   48,294;  153,293;16,38243
 333,52;   68,814;   51,300;  173,173;14,37075
 334,12;   98,988;   76,609;  216,397;16,00961
 334,71;   59,951;   55,600;  177,586; 3,56650
 335,31;   93,797;   68,403;  194,790;20,09196
 335,90;   49,831;   38,089;  116,458;14,98290
 336,50;   43,078;   31,796;  151,710; 9,40764
 337,10;   66,343;   43,110;  224,742;12,79113
 337,69;   72,078;   58,596;  164,910;12,68045
 338,29;   56,888;   38,604;  183,549;12,61413
 338,88;   58,133;   36,207;  199,452;13,43162
 339,48;   72,467;   69,289;  185,372; 2,73821
 340,07;   79,842;   51,901;  214,445;17,18952
 340,67;   75,544;   44,015;  244,991;15,68789
 341,26;   79,251;   52,500;  219,286;16,03887
 341,86;   91,770;   73,011;  274,415; 9,31431
 342,45;   93,107;   51,411;  255,729;20,40744
 343,05;   75,407;   41,711;  268,829;14,83638
 343,64;   84,905;   62,602;  262,431;11,16140
 344,24;   56,278;   33,096;  233,710;11,55507
 344,83;   87,914;   72,396;  265,724; 8,02666
 345,43;   65,169;   42,302;  272,018; 9,95452
 346,02;   64,552;   43,109;  299,884; 8,35088
 346,62;   87,780;   49,414;  334,805;13,44322
 347,21;   70,569;   56,098;  304,069; 5,83572
 347,81;   73,853;   33,118;  351,481;12,79522
 348,40;   57,468;   34,893;  282,320; 9,12381
 349,00;   80,641;   60,892;  331,448; 7,29913
 349,59;  108,289;   71,813;  420,746;10,45353
 350,19;   63,780;   44,914;  383,305; 5,57512
 350,78;   83,297;   51,303;  373,790; 9,92091
 351,38;   57,152;   30,009;  377,584; 7,80924
 351,97;   60,569;   42,702;  406,118; 4,91643
 352,57;   66,861;   52,312;  422,774; 3,92733
 353,16;   56,186;   39,295;  383,751; 4,90373
 353,76;   76,989;   46,613;  467,346; 7,21974
 354,35;   76,470;   17,411;  484,915;12,63292
 354,95;   79,198;   51,712;  515,687; 5,92401
 355,54;   67,561;   38,008;  504,925; 6,32941
 356,14;   79,770;   42,611;  534,915; 7,54806
 356,73;   66,567;   52,589;  490,871; 3,18940
 357,32;   57,424;   26,908;  533,411; 6,02492
 357,92;   75,417;   36,718;  583,967; 7,07147
 358,51;   97,480;   51,519;  631,554; 7,92398
 359,11;   84,253;   47,018;  646,981; 6,20626
 359,70;   75,916;   30,014;  629,419; 7,65800
 360,30;   74,013;   58,187;  603,727; 2,90088
 360,89;   67,133;   25,007;  639,453; 6,85602
 361,48;   93,998;   54,112;  712,987; 6,05364
 362,08;   66,415;   25,005;  677,021; 6,35108
 362,67;   68,213;   33,892;  669,375; 5,40086
 363,27;  104,124;   64,804;  752,763; 5,71549
 363,86;   85,632;   36,998;  746,555; 6,85416
 364,46;  110,168;   56,393;  812,720; 7,10999
 365,05;  107,675;   75,379;  800,115; 4,45630
 365,64;  108,321;   53,582;  858,719; 6,79877
 366,24;  112,993;   39,876;  899,498; 8,50568
 366,83;  142,556;   64,668; 1001,887; 8,31051
 367,43;  150,088;   69,837; 1018,860; 8,45619
 368,02;  150,252;   44,141; 1136,095; 9,71751
 368,61;  197,086;   63,919; 1250,365;11,22399
 369,21;  166,351;   44,061; 1249,760;10,14266
 369,80;  208,600;   59,322; 1383,066;11,27693
 370,39;  252,491;   60,519; 1588,676;12,56228
 370,99;  229,102;   42,468; 1618,624;11,84108
 371,58;  232,869;   33,423; 1699,364;11,97195
 372,18;  289,475;   38,200; 1809,762;14,18381
 372,77;  263,341;   50,550; 1827,654;11,97402
 373,36;  274,904;   52,342; 1852,343;12,36453
 373,96;  252,517;   53,009; 1748,685;11,76574
 374,55;  256,394;   39,534; 1728,804;12,83745
 375,14;  239,877;   37,250; 1608,468;12,89620
 375,74;  243,671;   73,973; 1533,970;11,62318
 376,33;  196,011;   50,595; 1398,327;10,78965
 376,92;  168,743;   41,936; 1361,138; 9,61245
 377,52;  244,908;   93,712; 1534,810;10,49168
 378,11;  201,726;   61,010; 1438,393;10,21617
 378,71;  222,066;   79,636; 1530,799; 9,81485
 379,30;  234,804;   57,953; 1617,807;11,33765
 379,89;  250,657;   56,742; 1639,606;12,25092
 380,49;  241,786;   31,556; 1680,725;12,74766
 381,08;  270,418;   81,520; 1641,749;12,10706
 381,67;  256,873;   58,726; 1650,543;12,44787
 382,26;  246,718;   44,520; 1663,849;12,48653
 382,86;  248,881;   51,912; 1684,538;12,06454
 383,45;  270,339;   63,740; 1765,375;12,14120
 384,04;  252,211;   52,739; 1794,203;11,45430
 384,64;  259,639;   47,044; 1831,224;11,91557
 385,23;  275,245;   71,621; 1827,321;11,59790
 385,82;  299,304;   55,649; 1889,958;13,28318
 386,42;  315,716;   67,274; 1996,892;12,87518
 387,01;  295,212;   67,543; 1922,351;12,27451
 387,60;  315,555;   76,228; 1970,060;12,63718
 388,20;  298,239;   48,340; 2018,675;12,68307
 388,79;  346,377;   83,357; 2123,583;12,89172
 389,38;  308,618;   54,020; 2028,549;12,89411
 389,97;  335,376;   58,048; 2147,386;13,27349
 390,57;  348,430;   74,645; 2194,082;12,91782
 391,16;  373,130;   77,945; 2258,282;13,53850
 391,75;  337,921;   56,642; 2278,892;12,65738
 392,34;  383,887;   65,865; 2381,022;13,73655
 392,94;  382,305;   55,558; 2418,156;13,82998
 393,53;  379,458;   38,151; 2418,703;14,33733
 394,12;  404,870;   61,871; 2581,588;13,61259
 394,72;  407,285;   73,643; 2576,379;13,33109
 395,31;  392,604;   50,649; 2629,658;13,25914
 395,90;  415,480;   41,475; 2732,778;13,89680
 396,49;  456,499;   59,286; 2807,207;14,45506
 397,09;  439,268;   56,254; 2772,993;14,09830
 397,68;  479,534;   64,576; 2914,023;14,56276
 398,27;  490,726;   63,382; 3016,531;14,47080
 398,86;  484,889;   53,778; 3036,468;14,45377
 399,45;  522,237;   61,894; 3185,318;14,73840
 400,05;  488,978;   47,961; 3091,132;14,49201
 400,64;  531,432;   67,859; 3225,428;14,68134
 401,23;  526,033;   55,563; 3253,277;14,71269
 401,82;  551,433;   63,863; 3288,777;15,11884
 402,42;  579,751;   66,665; 3369,608;15,53421
 403,01;  602,934;   77,976; 3502,223;15,33062
 403,60;  618,546;   73,197; 3538,808;15,73602
 404,19;  601,707;   80,976; 3582,651;14,87093
 404,78;  599,961;   68,668; 3550,598;15,25856
 405,38;  638,165;   77,499; 3734,039;15,33323
 405,97;  626,899;   55,281; 3700,958;15,67933
 406,56;  665,190;   76,387; 3843,565;15,62983
 407,15;  639,400;   68,690; 3813,955;15,23817
 407,74;  687,746;   86,793; 3924,359;15,65974
 408,34;  656,092;   59,000; 3935,712;15,40203
 408,93;  673,755;   64,696; 4017,449;15,40848
 409,52;  661,902;   55,908; 4063,050;15,12286
 410,11;  735,683;   90,297; 4169,222;15,82245
 410,70;  694,417;   58,983; 4135,689;15,58695
 411,29;  714,263;   65,186; 4164,293;15,83460
 411,89;  732,093;   71,609; 4289,809;15,65797
 412,48;  728,627;   55,186; 4249,779;16,05496
 413,07;  749,238;   66,503; 4362,416;15,89267
 413,66;  750,566;   69,808; 4401,236;15,71671
 414,25;  778,221;   80,814; 4542,030;15,63267
 414,84;  767,055;   72,596; 4521,849;15,60845
 415,44;  787,118;   92,492; 4528,687;15,65816
 416,03;  782,066;   72,912; 4620,185;15,59515
 416,62;  798,331;   78,017; 4684,620;15,63654
 417,21;  804,756;   74,205; 4680,046;15,86141
 417,80;  804,285;   82,814; 4723,417;15,54691
 418,39;  814,295;   83,422; 4766,355;15,60716
 418,98;  777,902;   59,003; 4695,202;15,50621
 419,58;  810,047;   70,002; 4754,557;15,79756
 420,17;  804,675;   54,107; 4792,378;15,84055
 420,76;  813,266;   82,012; 4871,985;15,26635
 421,35;  781,757;   66,309; 4790,295;15,14500
 421,94;  838,595;   87,322; 4907,955;15,58453
 422,53;  801,922;   66,423; 4867,228;15,32034
 423,12;  810,522;   78,819; 4876,579;15,25094
 423,71;  800,793;   59,809; 4856,909;15,44651
 424,30;  829,675;   91,611; 4912,926;15,30836
 424,90;  783,340;   44,016; 4917,061;15,17170
 425,49;  816,031;   83,922; 4948,069;15,05114
 426,08;  813,631;   92,422; 5032,169;14,60013
 426,67;  805,421;   56,110; 4951,881;15,30527
 427,26;  814,069;   70,530; 5041,180;14,95858
 427,85;  797,603;   69,216; 5000,047;14,77209
 428,44;  818,850;   70,628; 5078,549;14,94078
 429,03;  844,996;   83,027; 5133,804;15,08617
 429,62;  829,732;   84,326; 5156,817;14,69506
 430,21;  846,715;   89,633; 5174,883;14,88779
 430,80;  835,843;   64,238; 5194,005;15,04171
 431,39;  828,242;   65,134; 5275,956;14,64468
 431,99;  834,893;   85,909; 5201,209;14,64204
 432,58;  854,622;   86,919; 5228,879;14,93017
 433,17;  843,966;   80,608; 5265,236;14,72348
 433,76;  870,334;   80,944; 5403,812;14,83017
 434,35;  888,315;   94,637; 5427,532;14,88268
 434,94;  906,362;   87,749; 5528,633;15,04559
 435,53;  904,260;   85,131; 5489,938;15,15555
 436,12;  915,078;   77,833; 5530,870;15,35374
 436,71;  928,750;   95,824; 5567,900;15,22139
 437,30;  928,905;   92,125; 5645,645;15,06755
 437,89;  948,151;   86,337; 5750,746;15,21455
 438,48;  958,605;   80,830; 5726,994;15,54640
 439,07;  953,794;   89,118; 5756,006;15,25840
 439,66;  998,653;  106,846; 5907,443;15,37440
 440,25; 1007,478;  102,533; 5933,270;15,52025
 440,84; 1012,581;  100,151; 5953,765;15,58746
 441,43; 1038,037;   81,466; 6120,255;15,84045
 442,02; 1024,335;   70,653; 6098,910;15,82021
 442,61; 1069,642;  102,834; 6151,956;15,98262
 443,20; 1081,817;   85,351; 6266,378;16,12137
 443,79; 1054,852;   81,541; 6234,795;15,81782
 444,38; 1090,244;   97,347; 6409,602;15,72967
 444,97; 1103,534;   78,439; 6464,563;16,05190
 445,56; 1132,825;  109,241; 6579,222;15,82051
 446,15; 1139,881;   88,455; 6706,313;15,88770
 446,74; 1123,806;   69,334; 6742,643;15,80133
 447,33; 1180,952;   95,241; 6883,895;15,99302
 447,92; 1191,654;   84,855; 6996,541;16,01345
 448,51; 1228,497;  100,340; 7059,750;16,21053
 449,10; 1217,606;   94,139; 7198,291;15,81424
 449,69; 1242,363;   87,253; 7331,782;15,94458
 450,28; 1238,889;   81,345; 7420,757;15,77161
 450,87; 1259,862;   82,645; 7551,885;15,76087
 451,46; 1293,171;  109,948; 7689,475;15,61078
 452,05; 1290,681;   83,751; 7799,165;15,64310
 452,64; 1327,199;   79,053; 7949,396;15,85885
 453,23; 1356,300;  121,857; 8107,044;15,45915
 453,82; 1347,390;   84,154; 8243,854;15,48140
 454,40; 1368,699;   65,153; 8384,695;15,66848
 454,99; 1399,100;  106,662; 8574,793;15,26238
 455,58; 1374,507;   87,043; 8649,739;15,03573
 456,17; 1405,718;   80,659; 8846,976;15,11534
 456,76; 1411,654;   76,455; 9034,841;14,90446
 457,35; 1455,244;   81,647; 9159,302;15,13163
 457,94; 1470,255;   81,464; 9376,038;14,94196
 458,53; 1466,326;   61,254; 9526,168;14,84506
 459,12; 1530,647;  102,874; 9854,294;14,64170
 459,71; 1485,316;   74,246; 9828,729;14,46586
 460,30; 1528,553;   87,146;10047,144;14,47196
 460,89; 1527,254;   73,955;10215,141;14,33066
 461,48; 1558,355;   79,164;10399,538;14,33273
 462,06; 1564,208;   79,052;10532,938;14,20674
 462,65; 1541,298;   50,349;10614,747;14,11296
 463,24; 1641,074;   97,770;10972,218;14,19202
 463,83; 1606,408;   68,452;11002,037;14,06635
 464,42; 1687,362;   85,649;11187,634;14,42727
 465,01; 1678,599;   73,753;11387,596;14,18480
 465,60; 1696,635;   78,553;11587,810;14,05897
 466,19; 1763,355;   85,064;11761,938;14,37278
 466,77; 1766,681;   85,955;11897,913;14,22902
 467,36; 1791,184;   69,673;12026,008;14,39831
 467,95; 1807,845;   80,156;12155,399;14,30770
 468,54; 1870,510;   89,865;12369,683;14,50058
 469,13; 1875,736;   81,657;12434,158;14,52401
 469,72; 1895,892;   74,968;12666,501;14,46150
 470,31; 1948,019;   85,968;12844,173;14,59493
 470,90; 1980,744;   80,951;12953,451;14,75854
 471,48; 1971,411;   39,174;13142,381;14,74629
 472,07; 2057,970;  121,143;13334,026;14,65863
 472,66; 2047,909;   88,761;13472,034;14,63878
 473,25; 2063,181;   72,055;13588,813;14,73079
 473,84; 2064,201;   61,866;13773,542;14,60314
 474,43; 2112,939;   54,279;14038,502;14,72130
 475,01; 2158,973;   80,066;14139,770;14,78628
 475,60; 2170,928;   49,967;14305,914;14,87773
 476,19; 2223,093;   93,176;14422,298;14,86425
 476,78; 2228,283;   82,173;14542,208;14,84167
 477,37; 2226,928;   58,867;14636,614;14,87240
 477,95; 2251,247;   82,169;14810,445;14,72730
 478,54; 2264,600;   76,062;14981,894;14,68243
 479,13; 2251,000;   63,162;15125,093;14,52562
 479,72; 2304,982;   76,964;15232,811;14,70072
 480,31; 2314,866;   75,880;15418,174;14,59356
 480,89; 2274,374;   70,066;15522,369;14,26524
 481,48; 2300,312;   55,283;15600,078;14,44232
 482,07; 2306,910;   57,765;15750,783;14,33214
 482,66; 2294,964;   68,962;15832,380;14,12131
 483,25; 2333,412;   84,683;15929,778;14,19196
 483,83; 2348,637;   68,466;16050,655;14,26695
 484,42; 2295,255;   63,364;16126,138;13,89481
 485,01; 2321,966;   70,776;16307,025;13,86521
 485,60; 2343,232;   77,194;16445,707;13,84388
 486,18; 2318,547;   67,069;16479,246;13,71834
 486,77; 2322,200;   74,057;16525,145;13,66562
 487,36; 2348,095;   72,094;16711,293;13,67855
 487,95; 2347,930;   70,785;16813,010;13,60121
 488,53; 2345,867;   71,684;16801,322;13,59373
 489,12; 2358,677;   62,692;16952,961;13,59354
 489,71; 2301,140;   39,888;16938,100;13,38161
 490,30; 2354,339;   69,484;17113,451;13,40566
 490,88; 2367,294;   89,585;17127,195;13,36871
 491,47; 2356,241;   69,492;17224,348;13,33004
 492,06; 2330,922;   65,090;17261,617;13,17610
 492,65; 2377,822;   77,986;17233,469;13,40583
 493,23; 2377,148;   68,382;17320,291;13,38267
 493,82; 2380,636;   69,661;17342,307;13,37939
 494,41; 2379,849;   58,487;17437,141;13,35755
 494,99; 2380,001;   84,866;17518,842;13,16472
 495,58; 2432,240;   84,284;17554,650;13,43965
 496,17; 2420,074;   72,370;17509,719;13,46365
 496,76; 2452,847;   93,469;17612,945;13,46717
 497,34; 2441,575;   64,574;17624,666;13,53638
 497,93; 2477,511;   65,474;17590,080;13,76372
 498,52; 2499,294;   75,281;17695,846;13,75673
 499,10; 2488,704;   93,088;17745,086;13,57135
 499,69; 2522,521;   72,282;17776,318;13,84000
 500,28; 2461,766;   45,880;17695,674;13,68790
 500,86; 2512,813;   78,487;17817,127;13,72329
 501,45; 2518,513;   62,587;17787,127;13,85607
 502,04; 2527,340;   74,588;17819,199;13,82252
 502,62; 2563,674;   80,870;17980,617;13,87061
 503,21; 2546,501;   73,771;17892,291;13,87731
 503,80; 2599,667;   80,889;18049,971;14,01729
 504,38; 2567,748;   66,782;18081,592;13,88283
 504,97; 2567,267;   63,789;18149,771;13,84209
 505,56; 2577,775;   86,979;18184,016;13,76356
 506,14; 2595,359;   78,294;18216,379;13,87724
 506,73; 2556,077;   38,396;18106,211;13,93462
 507,32; 2601,132;   77,098;18168,154;13,95183
 507,90; 2612,612;   84,283;18161,578;13,98621
 508,49; 2564,741;   59,197;18255,996;13,76915
 509,08; 2618,368;   77,493;18383,420;13,88007
 509,66; 2599,876;   85,583;18346,564;13,76866
 510,25; 2590,258;   68,886;18430,381;13,73185
 510,83; 2587,577;   75,296;18536,609;13,60835
 511,42; 2579,697;   72,807;18572,838;13,55073
 512,01; 2591,687;   60,695;18642,652;13,62069
 512,59; 2545,367;   62,589;18756,072;13,28152
 513,18; 2602,049;   74,787;18718,840;13,55533
 513,77; 2557,720;   53,173;18818,521;13,34666
 514,35; 2561,858;   48,290;18820,730;13,38967
 514,94; 2598,604;   84,088;18969,385;13,31467
 515,52; 2601,551;   53,000;18990,287;13,45784
 516,11; 2613,914;   92,196;19062,123;13,29324
 516,69; 2560,830;   51,880;18975,660;13,25818
 517,28; 2591,229;  102,676;18976,813;13,18499
 517,87; 2566,302;   69,975;18977,738;13,20266
 518,45; 2593,357;   66,277;19035,684;13,32187
 519,04; 2583,948;   60,478;19057,742;13,28333
 519,62; 2584,422;   53,390;19135,617;13,26382
 520,21; 2576,714;   41,900;19184,572;13,24169
 520,79; 2633,742;   57,406;19303,594;13,38622
 521,38; 2651,603;   58,784;19330,137;13,45427
 521,97; 2685,433;   54,407;19542,053;13,50100
 522,55; 2673,912;   65,078;19568,729;13,37613
 523,14; 2679,475;   34,679;19635,314;13,49342
 523,72; 2790,967;   79,184;19741,822;13,79155
 524,31; 2819,978;   73,996;19769,811;13,94195
 524,89; 2802,079;   55,805;20040,607;13,74181
 525,48; 2862,406;   53,902;20077,531;14,02595
 526,06; 2883,986;   75,395;20128,451;14,00580
 526,65; 2947,853;   73,913;20367,232;14,16200
 527,23; 2922,595;   49,890;20330,645;14,16469
 527,82; 2998,224;   51,304;20600,063;14,34111
 528,41; 3049,242;   68,401;20707,045;14,44301
 528,99; 3075,941;   59,097;20783,096;14,55725
 529,58; 3130,731;   47,789;20840,559;14,82699
 530,16; 3179,149;   56,887;21053,141;14,87057
 530,75; 3275,223;   76,995;21260,465;15,09775
 531,33; 3278,706;   49,602;21294,031;15,19977
 531,92; 3331,276;   56,183;21466,564;15,29675
 532,50; 3459,498;  104,412;21786,588;15,47394
 533,09; 3475,896;   83,598;21850,541;15,58463
 533,67; 3520,784;   78,678;22009,957;15,69496
 534,26; 3592,485;   70,982;22162,506;15,94051
 534,84; 3621,422;   66,086;22364,168;15,94458
 535,42; 3692,023;   63,895;22625,564;16,08094
 536,01; 3770,322;   83,690;22830,316;16,20738
 536,59; 3821,514;   54,600;22982,172;16,42962
 537,18; 3927,821;   80,682;23112,119;16,70386
 537,76; 4004,889;   66,517;23531,195;16,78426
 538,35; 4083,470;   75,907;23692,867;16,96900
 538,93; 4166,187;   89,595;23721,951;17,25004
 539,52; 4211,152;   70,313;24095,432;17,23546
 540,10; 4355,243;   75,810;24403,342;17,59091
 540,69; 4424,504;   91,093;24507,135;17,74821
 541,27; 4484,204;   82,888;24822,186;17,79079
 541,85; 4587,087;   59,400;25106,500;18,07669
 542,44; 4688,812;   67,483;25112,178;18,45233
 543,02; 4804,143;   92,310;25576,242;18,48943
 543,61; 4865,260;   96,503;25801,377;18,55196
 544,19; 4944,624;   68,999;26045,113;18,76964
 544,78; 5029,378;   69,301;26190,260;18,98888
 545,36; 5174,215;  100,009;26530,770;19,19811
 545,94; 5192,223;   66,795;26660,564;19,27304
 546,53; 5290,162;   73,917;26816,822;19,50516
 547,11; 5424,461;  105,408;27133,426;19,67978
 547,70; 5506,321;   93,082;27194,020;19,97436
 548,28; 5562,341;   45,797;27442,697;20,13565
 548,86; 5671,941;   87,897;27794,797;20,15399
 549,45; 5720,833;   46,507;27921,453;20,35637
 550,03; 5842,888;   76,004;28138,549;20,55011
 550,62; 5928,051;   70,000;28556,387;20,56439
 551,20; 6060,260;   79,903;28837,176;20,79598
 551,78; 6027,795;   71,094;28870,492;20,68342
 552,37; 6185,423;   58,995;29194,064;21,02768
 552,95; 6275,314;   59,696;29443,123;21,15348
 553,54; 6319,277;   55,296;29695,211;21,13360
 554,12; 6402,451;   74,404;29911,135;21,20891
 554,70; 6532,661;   90,408;30498,525;21,18596
 555,29; 6593,269;   74,598;30497,770;21,42666
 555,87; 6640,225;   61,613;30831,760;21,37985
 556,45; 6770,240;   62,488;31186,799;21,55149
 557,04; 6789,133;   58,902;31462,805;21,43119
 557,62; 6953,633;   63,202;31739,805;21,75243
 558,20; 6969,226;   48,717;32057,809;21,62045
 558,79; 7089,342;  104,406;32384,094;21,63880
 559,37; 7156,760;   53,403;32421,775;21,94536
 559,95; 7213,788;   58,009;32974,496;21,73920
 560,54; 7252,297;   76,907;33105,141;21,72502
 561,12; 7324,578;   61,901;33310,559;21,84352
 561,70; 7410,952;   57,109;33693,484;21,86277
 562,29; 7485,270;   74,007;34096,867;21,78319
 562,87; 7662,033;   81,807;34555,254;21,98859
 563,45; 7699,233;   82,507;34828,051;21,92145
 564,04; 7681,695;   58,590;34728,145;21,98789
 564,62; 7769,325;   63,108;35171,711;21,94965
 565,20; 7837,513;   62,387;35393,527;22,00644
 565,78; 7996,305;   81,397;35845,984;22,13057
 566,37; 7953,387;   67,400;36021,801;21,93330
 566,95; 8049,843;   73,010;36297,043;22,02083
 567,53; 8084,540;   77,488;36631,398;21,90478
 568,12; 8193,642;   61,697;36731,496;22,17614
 568,70; 8318,550;   88,396;37224,637;22,16205
 569,28; 8360,452;   72,909;37518,684;22,13212
 569,86; 8408,297;   69,103;37728,289;22,14385
 570,45; 8543,807;   75,011;38155,730;22,23907
 571,03; 8536,576;   53,588;38139,211;22,27347
 571,61; 8564,080;   57,514;38657,105;22,03797
 572,19; 8586,886;   59,991;38611,504;22,11818
 572,78; 8683,343;   75,906;39057,594;22,08072
 573,36; 8812,423;   86,495;39295,066;22,25515
 573,94; 8838,995;   61,294;39533,691;22,23757
 574,52; 8896,267;   76,080;39699,473;22,26005
 575,11; 8954,568;   48,093;39929,320;22,33250
 575,69; 9026,705;   64,102;40206,430;22,32706
 576,27; 9014,530;   59,785;40348,609;22,22638
 576,85; 9158,223;   40,795;40698,863;22,42465
 577,44; 9176,140;   48,888;40863,898;22,36249
 578,02; 9199,094;   49,881;40926,648;22,38243
 578,60; 9275,731;   62,994;41257,508;22,36399
 579,18; 9380,277;   62,292;41632,262;22,41518
 579,76; 9380,687;   50,795;41594,051;22,45826
 580,35; 9474,434;   68,111;41928,703;22,47059
 580,93; 9581,615;   76,905;42284,422;22,51900
 581,51; 9561,998;   37,412;42435,488;22,46467
 582,09; 9713,759;   66,590;42631,930;22,66438
 582,67; 9747,160;   72,803;42942,875;22,56669
 583,26; 9772,397;   35,007;43231,340;22,54217
 583,84; 9833,159;   39,694;43499,578;22,53449
 584,42; 9913,050;   68,796;43810,539;22,50540
 585,00;10017,006;   81,602;44189,230;22,52536
 585,58;10173,833;   37,302;44473,902;22,81122
 586,17;10131,467;   64,784;44458,621;22,67586
 586,75;10118,614;   19,300;44482,672;22,71378
 587,33;10252,124;   63,604;44897,063;22,72526
 587,91;10352,015;   91,000;45095,574;22,79994
 588,49;10324,540;   80,188;45246,199;22,68155
 589,07;10352,079;   60,505;45233,109;22,78278
 589,65;10384,069;   46,902;45181,918;22,90277
 590,24;10352,376;   58,588;45293,613;22,75623
 590,82;10348,122;   35,086;45274,168;22,79674
 591,40;10428,359;   58,994;45434,578;22,85230
 591,98;10510,130;   54,580;45384,961;23,06521
 592,56;10469,222;   72,486;45642,168;22,81503
 593,14;10505,330;   45,880;45612,262;22,95431
 593,72;10511,077;   50,996;45797,711;22,86521
 594,30;10469,394;   52,581;45818,848;22,76090
 594,89;10451,286;   57,095;45617,051;22,81431
 595,47;10564,066;   52,484;45796,723;22,97903
 596,05;10562,232;   39,602;45930,805;22,92951
 596,63;10597,033;   54,302;46063,105;22,91459
 597,21;10629,451;   55,000;46049,988;22,99044
 597,79;10593,569;   45,002;46159,816;22,87457
 598,37;10612,070;   52,411;46221,414;22,87175
 598,95;10659,015;   53,800;46273,074;22,94544
 599,53;10692,220;   46,873;46082,320;23,12424
 600,11;10734,214;   57,096;46384,324;23,04718
 600,70;10699,940;   80,192;46052,746;23,10019
 601,28;10724,559;   45,494;46162,879;23,15627
 601,86;10679,515;   68,300;46300,273;22,95211
 602,44;10668,321;   36,486;46388,270;22,93727
 603,02;10744,011;   39,570;46382,832;23,09816
 603,60;10696,093;   66,176;46730,398;22,77959
 604,18;10707,850;   66,491;46584,891;22,87559
 604,76;10666,059;   58,790;46600,031;22,79112
 605,34;10641,859;   36,599;46312,227;22,91759
 605,92;10618,585;   62,486;46220,855;22,86931
 606,50;10586,576;   37,188;46309,914;22,79829
 607,08;10543,806;   43,702;46046,633;22,82486
 607,66;10575,551;   41,000;46295,488;22,77520
 608,24;10532,496;   48,503;46338,488;22,64851
 608,82;10519,068;   33,993;46369,520;22,62859
 609,40;10477,742;   64,001;46126,047;22,60807
 609,98;10450,486;   35,095;46236,750;22,54333
 610,56;10413,803;   52,784;46044,535;22,52799
 611,14;10412,068;   49,098;46042,070;22,53164
 611,72;10379,541;   64,597;46143,598;22,38535
 612,30;10313,795;   41,690;46084,242;22,31003
 612,88;10205,611;   71,478;46250,930;21,94511
 613,46;10143,776;   42,588;46000,414;21,97926
 614,04;10072,461;   50,408;46040,227;21,79190
 614,62;10021,931;   51,785;45729,809;21,82701
 615,20; 9979,579;   57,905;45750,707;21,71387
 615,78; 9935,943;   32,910;45702,141;21,68426
 616,36; 9815,195;   47,494;45707,492;21,39225
 616,94; 9706,851;   26,000;45666,988;21,21087
 617,52; 9596,915;   34,005;45546,723;21,01151
 618,10; 9563,902;   72,180;45702,289;20,80145
 618,68; 9421,787;   25,800;45447,398;20,68617
 619,26; 9374,806;   44,406;45536,379;20,50999
 619,84; 9288,050;   40,491;45161,188;20,49516
 620,42; 9153,178;   40,896;45357,211;20,10817
 621,00; 9025,277;   39,096;45365,609;19,82544
 621,58; 9010,621;   39,482;45249,020;19,84347
 622,16; 8946,517;   57,014;45337,918;19,63190
 622,74; 8884,951;   57,600;45236,785;19,53854
 623,32; 8789,224;   44,799;45204,113;19,36350
 623,90; 8680,144;   79,315;45023,992;19,13648
 624,48; 8588,376;   43,688;44883,313;19,05611
 625,05; 8562,876;   40,088;45065,711;18,92875
 625,63; 8601,177;   57,388;45042,613;18,99243
 626,21; 8540,194;   48,190;44855,445;18,95230
 626,79; 8558,860;   74,903;45051,477;18,86306
 627,37; 8438,804;   43,088;44755,484;18,77715
 627,95; 8482,179;   71,305;44796,508;18,80567
 628,53; 8416,077;   57,896;44747,512;18,70274
 629,11; 8353,438;   49,879;44640,102;18,62193
 629,69; 8386,524;   52,108;44879,012;18,59244
 630,27; 8390,949;   84,091;44600,891;18,66005
 630,84; 8368,376;   54,488;44537,711;18,68994
 631,42; 8418,115;   61,005;44855,422;18,65659
 632,00; 8300,866;   45,980;44578,773;18,53665
 632,58; 8326,104;   61,493;44575,133;18,56647
 633,16; 8348,152;   59,113;44579,633;18,61847
 633,74; 8287,450;   66,096;44446,836;18,52460
 634,32; 8255,294;   57,385;44291,395;18,53304
 634,90; 8298,188;   61,113;44901,246;18,36987
 635,47; 8201,576;   38,283;44333,266;18,42939
 636,05; 8243,194;   42,085;44188,996;18,57686
 636,63; 8188,678;   54,696;44344,809;18,36523
 637,21; 8218,387;   62,095;44528,051;18,34278
 637,79; 8282,596;   70,898;44448,043;18,50434
 638,37; 8223,556;   64,468;44258,387;18,46201
 638,94; 8153,469;   47,098;44318,270;18,31072
 639,52; 8181,068;   42,198;44423,570;18,33848
 640,10; 8261,315;   72,894;44524,383;18,42103
 640,68; 8230,569;   57,694;44555,723;18,36683
 641,26; 8255,622;   33,794;44602,766;18,44743
 641,84; 8269,076;   54,794;44264,703;18,58018
 642,41; 8211,930;   33,394;44386,445;18,43962
 642,99; 8216,183;   61,194;44412,684;18,38718
 643,57; 8162,936;   27,195;44380,227;18,34315
 644,15; 8152,489;   34,095;44424,863;18,28847
 644,73; 8199,742;   51,095;44794,105;18,21211
 645,30; 8193,196;   69,595;44532,445;18,27054
 645,88; 8120,449;   53,895;44571,184;18,12005
 646,46; 8115,903;   57,295;44724,324;18,04151
 647,04; 8063,056;   47,895;44548,164;18,01149
 647,61; 8003,609;   45,795;44756,004;17,79865
 648,19; 7982,463;   69,795;44812,445;17,68484
 648,77; 7955,516;   32,095;44807,887;17,69577
 649,35; 7908,370;   61,995;44879,125;17,50753
 649,92; 7833,823;   52,995;44855,965;17,36677
 650,50; 7758,076;   31,796;44722,105;17,28849
 651,08; 7727,430;   47,596;44624,445;17,22830
 651,66; 7653,783;   27,196;44888,984;17,00019
 652,23; 7691,136;   56,496;44823,027;17,05435
 652,81; 7674,390;   45,996;45074,367;16,94131
 653,39; 7675,843;   69,596;45120,406;16,88371
 653,97; 7697,097;   33,196;45228,348;16,95735
 654,54; 7598,150;   37,096;45073,086;16,78891
 655,12; 7630,203;   30,696;45271,324;16,79797
 655,70; 7671,856;   49,196;45327,367;16,83518
 656,28; 7709,010;   45,596;45491,605;16,86268
 656,85; 7680,363;   44,896;45428,547;16,82427
 657,43; 7622,417;   17,297;45216,785;16,82568
 658,01; 7747,170;   21,797;45644,426;16,93320
 658,58; 7885,323;   70,597;45949,367;17,03343
 659,16; 7854,577;   57,397;45552,508;17,13850
 659,74; 7886,730;   78,497;45746,246;17,09792
 660,32; 7918,083;   79,297;45955,586;17,08679
 660,89; 7888,537;   37,497;45904,125;17,11711
 661,47; 7965,690;   53,597;46094,566;17,18490
 662,05; 7959,844;   35,997;46285,605;17,13279
 662,62; 8046,697;   73,597;46643,047;17,12088
 663,20; 8094,950;   94,697;46661,586;17,18013
 663,78; 8091,904;   67,397;46944,527;17,11817
 664,35; 8134,257;   51,597;47161,066;17,15719
 664,93; 8144,610;   64,698;47390,008;17,07313
 665,51; 8207,964;   54,798;47523,445;17,17590
 666,08; 8191,117;   52,598;47587,188;17,12126
 666,66; 8297,471;   54,898;48219,926;17,11319
 667,23; 8255,124;   73,498;48259,168;16,97938
 667,81; 8331,978;   67,298;48827,809;16,94953
 668,39; 8366,030;   53,798;48982,547;16,98844
 668,96; 8396,584;   64,898;49249,488;16,93963
 669,54; 8471,537;   52,398;49565,027;17,00402
 670,12; 8601,391;   62,098;50043,266;17,08502
 670,69; 8598,044;   72,198;50587,309;16,87781
 671,27; 8691,497;   42,698;50804,949;17,03785
 671,84; 8661,150;   52,699;50686,289;17,00146
 672,42; 8744,804;   77,899;51094,227;16,98849
 673,00; 8835,657;   61,099;51364,270;17,10335
 673,57; 8767,511;   73,699;51056,109;17,05257
 674,15; 8835,964;   76,499;51454,246;17,04914
 674,72; 8834,617;   64,499;51271,988;17,12663
 675,30; 8892,071;   68,499;51194,930;17,25834
 675,88; 8948,424;   47,299;51369,867;17,34349
 676,45; 9010,878;   68,799;51601,406;17,35227
 677,03; 9021,631;   70,999;51397,750;17,43853
 677,60; 9024,385;   36,999;51440,387;17,48403
 678,18; 9071,638;   63,399;51741,328;17,43150
 678,76; 9087,691;   39,800;51655,566;17,52932
 679,33; 9144,145;   60,000;51613,008;17,62098
 679,91; 9093,697;   48,100;51616,250;17,54105
 680,48; 9079,451;   49,900;51590,789;17,51920
 681,06; 9078,005;   53,900;51551,828;17,52324
 681,63; 9039,558;   48,800;51360,969;17,52169
 682,21; 9088,911;   75,100;51466,910;17,53939
 682,78; 8964,564;   22,700;50943,648;17,56029
 683,36; 9006,718;   54,300;51124,789;17,52953
 683,93; 8980,071;   48,100;50885,328;17,56974
 684,51; 8992,125;   45,600;50889,270;17,59614
 685,08; 9030,578;   50,900;51123,410;17,58221
 685,66; 8971,432;   59,001;51258,648;17,40721
 686,24; 9037,085;   45,801;51266,789;17,55391
 686,81; 8997,738;   58,201;51376,027;17,41995
 687,39; 8953,592;   46,201;51314,770;17,37398
 687,96; 9043,845;   54,201;51515,711;17,46867
 688,54; 9077,998;   25,401;51650,148;17,53538
 689,11; 9050,852;   31,501;51776,789;17,43028
 689,69; 9057,405;   41,901;51664,027;17,46442
 690,26; 9191,658;   60,901;52121,570;17,53869
 690,84; 9173,712;   57,601;51906,211;17,58217
 691,41; 9257,665;   51,001;52199,750;17,65462
 691,98; 9280,818;   40,201;52310,590;17,67849
 692,56; 9335,571;   37,101;52299,531;17,79188
 693,13; 9450,725;   66,302;52835,871;17,78378
 693,71; 9443,078;   35,502;52870,508;17,80557
 694,28; 9550,932;   34,302;52895,852;18,00293
 694,86; 9601,385;   51,802;53283,488;17,93966
 695,43; 9634,938;   69,202;53173,031;18,01327
 696,01; 9777,992;   54,302;53738,871;18,11264
 696,58; 9853,646;   45,002;53627,512;18,30568
 697,16; 9841,499;   49,502;53758,352;18,23163
 697,73;10053,052;   80,802;54265,191;18,40429
 698,30;10034,405;   52,702;53928,930;18,52710
 698,88;10008,059;   45,602;54095,770;18,43187
 699,45;10085,313;   40,902;54204,309;18,54464
 700,03;10147,565;   58,803;54551,648;18,51392
 700,60;10103,619;   69,203;54563,492;18,41370
 701,18;10231,572;   73,403;54806,930;18,55932
 701,75;10368,226;   75,303;55150,672;18,68879
 702,32;10258,979;   47,703;54894,012;18,61798
 702,90;10342,532;   54,703;55278,152;18,62946
 703,47;10431,386;   64,703;55434,191;18,72274
 704,05;10524,639;   82,503;55625,531;18,80008
 704,62;10435,593;   40,303;55573,270;18,71913
 705,19;10590,146;   48,703;55701,609;18,94140
 705,77;10573,399;   30,503;55980,852;18,84331
 706,34;10635,853;   65,903;55939,090;18,91775
 706,91;10643,006;   51,604;56105,730;18,89496
 707,49;10805,560;   64,904;56452,871;19,04778
 708,06;10830,412;   81,504;56656,609;18,99936
 708,64;10866,266;   41,804;56518,352;19,16630
 709,21;10956,119;   66,604;56773,191;19,20326
 709,78;11018,272;   54,904;56750,332;19,33731
 710,36;11079,826;   68,504;57047,770;19,32514
 710,93;11124,779;   69,704;57101,910;19,38392
 711,50;11218,433;   53,104;57382,551;19,47573
 712,08;11403,986;   64,704;57739,492;19,66073
 712,65;11411,939;   77,104;57507,930;19,73650
 713,22;11432,393;   88,404;57647,773;19,70833
 713,80;11535,346;   89,904;57985,113;19,76924
 714,37;11446,199;   62,705;57654,953;19,76567
 714,94;11562,353;   67,705;57721,691;19,93730
 715,52;11575,807;   58,905;57599,434;20,01529
 716,09;11656,659;   63,205;57731,973;20,10352
 716,66;11688,013;   74,205;57502,613;20,22311
 717,23;11788,066;   72,805;57685,254;20,33460
 717,81;11736,020;   58,805;57459,191;20,34344
 718,38;11748,273;   51,605;57252,332;20,44846
 718,95;11804,427;   70,805;57242,070;20,52363
 719,53;11802,279;   58,505;57111,012;20,58415
 720,10;11817,833;   78,805;56880,754;20,66659
 720,67;11793,486;   49,405;56701,691;20,73011
 721,24;11787,240;   68,006;56407,832;20,80098
 721,82;11803,593;   65,506;56337,973;20,85938
 722,39;12019,146;   63,006;56449,414;21,20394
 722,96;11967,700;   79,706;56495,953;21,07193
 723,53;12001,653;   87,306;56453,094;21,13755
 724,11;12032,207;   67,806;56521,234;21,19340
 724,68;12077,860;   69,806;56581,574;21,24877
 725,25;12148,313;   74,206;56729,711;21,31145
 725,82;12285,566;   99,706;57170,152;21,35231
 726,40;12337,820;   62,206;57214,395;21,47882
 726,97;12432,373;   67,806;57301,234;21,60375
 727,54;12530,327;   62,706;57229,973;21,80902
 728,11;12655,080;   53,607;57361,813;21,98895
 728,69;12701,134;   49,507;57573,352;21,99371
 729,26;12805,587;   58,707;57865,293;22,05091
 729,83;12835,840;   53,707;58108,832;22,01723
 730,40;12904,193;   58,407;58192,074;22,09698
 730,97;13113,747;   47,007;58596,813;22,31731
 731,55;13173,301;   47,407;58769,953;22,35239
 732,12;13255,653;  100,907;58623,992;22,47788
 732,69;13261,607;   71,407;58612,434;22,53155
 733,26;13323,761;   53,407;58592,074;22,66938
 733,83;13458,914;   50,907;58912,113;22,77902
 734,41;13456,167;   74,707;59208,754;22,62903
 734,98;13583,320;   62,607;59257,492;22,84102
 735,55;13685,374;   55,908;59487,133;22,93317
 736,12;13698,427;   72,208;59456,172;22,94596
 736,69;13812,081;   90,408;59613,313;23,05276
 737,26;13816,634;   68,108;59770,754;23,02834
 737,84;13953,188;   62,508;59579,195;23,33913
 738,41;13912,541;   59,908;59723,734;23,21781
 738,98;14007,794;   70,608;59579,676;23,42027
 739,55;14017,747;   62,008;59464,215;23,49364
 740,12;14144,701;   79,008;59831,754;23,53983
 740,69;14173,454;   71,408;59967,594;23,54415
 741,26;14212,207;   69,108;59921,535;23,62995
 741,83;14291,561;   69,208;59843,773;23,79332
 742,41;14354,515;   74,309;60309,313;23,70749
 742,98;14482,867;  103,909;60395,656;23,84897
 743,55;14521,821;   69,509;60240,496;24,01874
 744,12;14523,374;   57,709;60022,535;24,12358
 744,69;14538,228;   75,109;60194,574;24,05730
 745,26;14500,681;   46,009;59896,914;24,15113
 745,83;14693,334;   62,409;60193,254;24,33181
 746,40;14747,188;   64,009;60053,293;24,47634
 746,97;14814,741;   47,509;59961,535;24,64737
 747,55;14843,994;   72,209;60003,477;24,64788
 748,12;14955,548;   64,409;60031,316;24,83226
 748,69;14894,401;   64,109;60045,355;24,72488
 749,26;14994,755;   68,610;60145,594;24,84503
 749,83;15006,107;   62,210;60013,035;24,92693
 750,40;15071,062;  103,510;59932,074;25,01740
 750,97;15083,015;  103,510;60095,516;24,96917
 751,54;15062,768;   43,310;59869,254;25,10526
 752,11;15107,821;   67,510;59894,594;25,13964
 752,68;15146,875;  102,510;59665,434;25,25794
 753,25;15240,628;   71,610;59511,777;25,51981
 753,82;15199,682;   72,910;59701,414;25,36836
 754,39;15197,935;   76,010;59739,355;25,34542
 754,96;15249,388;   72,910;59250,297;25,64574
 755,53;15359,241;   52,210;59510,137;25,74431
 756,10;15298,095;   70,911;59313,574;25,70307
 756,67;15314,948;   81,611;59430,316;25,66751
 757,24;15267,502;   82,211;59289,656;25,64760
 757,81;15209,854;   43,711;59342,195;25,57594
 758,38;15255,608;   60,311;59341,734;25,63248
 758,95;15300,262;   84,911;59414,574;25,64544
 759,52;15296,415;   59,511;58757,516;25,95813
 760,09;15180,868;   70,811;58642,957;25,79734
 760,66;15047,622;   68,611;58366,598;25,69387
 761,23;15113,175;   85,611;58358,438;25,78829
 761,80;15149,929;   74,811;58348,176;25,86965
 762,37;15100,782;   87,411;58400,617;25,74609
 762,94;15152,735;   84,011;58434,258;25,82461
 763,51;15039,389;   59,112;58202,297;25,76446
 764,08;15068,642;   68,712;58167,637;25,81791
 764,65;15024,396;   87,212;57945,176;25,81699
 765,22;15099,148;   59,812;57632,418;26,12238
 765,79;15044,802;   79,712;57326,059;26,14156
 766,36;15038,455;   80,612;57346,598;26,11994
 766,93;15107,909;   65,712;57506,738;26,18720
 767,50;15050,662;   77,912;57339,375;26,14804
 768,07;15008,915;   77,312;57431,219;26,03415
 768,64;15073,969;   91,312;57245,355;26,21452
 769,21;14901,622;   64,112;56750,797;26,17459
 769,78;14863,976;   78,412;56606,938;26,15593
 770,34;14824,729;   44,213;56182,477;26,32877
 770,91;14900,882;   63,513;56215,117;26,42377
 771,48;14902,035;   69,513;55998,656;26,52020
 772,05;14780,889;   79,213;55701,898;26,43108
 772,62;14738,643;   51,913;55274,836;26,59535
 773,19;14775,396;   66,313;55428,477;26,56884
 773,76;14739,049;   78,913;55294,016;26,55095
 774,33;14669,603;   75,413;55158,156;26,49503
 774,90;14541,355;   60,413;54598,199;26,55213
 775,47;14604,009;   70,013;54692,637;26,60801
 776,03;14591,563;   77,913;54517,977;26,65987
 776,60;14598,216;   63,713;54224,719;26,83573
 777,17;14545,470;   66,414;54057,457;26,81752
 777,74;14480,223;   41,514;53490,098;27,01420
 778,31;14467,676;   71,414;53612,637;26,88818
 778,88;14398,430;   44,614;53275,879;26,96501
 779,45;14371,183;   91,914;53168,418;26,90318
 780,01;14294,736;   80,414;53129,656;26,79458
 780,58;14239,989;   75,314;52949,398;26,78945
 781,15;14133,243;   60,014;52661,438;26,75446
 781,72;14229,196;   74,014;52554,078;26,97249
 782,29;14123,750;   69,114;52079,219;27,02289
 782,86;14010,903;   75,114;51771,258;26,95712
 783,42;13967,057;   70,814;51617,297;26,95866
 783,99;13973,310;   66,514;51666,738;26,95104
 784,56;13919,463;   75,815;51183,078;27,08744
 785,13;13957,916;   65,615;51106,617;27,21792
 785,70;13831,970;   63,815;50902,359;27,08212
 786,26;13718,623;   80,715;50828,699;26,87379
 786,83;13773,876;   81,915;50547,141;27,13148
 787,40;13714,130;   71,915;50338,180;27,13990
 787,97;13596,983;   50,915;50082,520;27,07502
 788,54;13569,236;   76,715;50067,559;26,98999
 789,10;13504,990;   70,915;49707,098;27,06509
 789,67;13513,843;   88,815;49374,039;27,23946
 790,24;13514,696;   67,215;49515,980;27,19478
 790,81;13366,150;   85,715;48790,621;27,26714
 791,37;13251,104;   89,816;48703,758;27,07307
 791,94;13268,957;   77,416;48731,301;27,11303
 792,51;13121,510;   55,216;48281,039;27,09398
 793,08;13152,264;   78,116;48263,180;27,13320
 793,64;13057,816;   70,516;47992,719;27,10080
 794,21;12974,070;   91,216;47794,559;27,00619
 794,78;12954,424;   67,216;47492,598;27,17365
 795,35;12896,177;   74,916;47095,641;27,26725
 795,91;12753,431;   58,816;46888,879;27,10783
 796,48;12741,184;   76,616;46538,621;27,25790
 797,05;12689,637;   66,716;46539,961;27,16169
 797,62;12651,790;   57,616;46365,500;27,19661
 798,18;12538,644;   65,717;46022,840;27,14036
 798,75;12458,597;   60,917;45731,480;27,14589
 799,32;12364,851;   71,517;45653,219;26,96989
 799,88;12348,104;   71,317;45503,160;27,02243
 800,45;12196,957;   43,617;45090,801;26,97913
 801,02;12222,011;   70,617;45058,039;27,01065
 801,58;12166,164;  103,217;44902,180;26,92684
 802,15;12042,018;   78,917;44603,820;26,86834
 802,72;12030,671;   86,717;44283,559;27,02445
 803,28;12027,424;   62,217;44124,699;27,15509
 803,85;11932,777;   51,017;43840,340;27,13392
 804,42;11883,831;   86,817;43684,180;27,05901
 804,98;11839,584;  110,518;43623,922;26,95507
 805,55;11696,638;   63,118;43303,762;26,90413
 806,12;11649,591;  101,318;43094,000;26,86102
 806,68;11583,544;   75,418;42643,539;27,03461
 807,25;11585,997;  100,118;42538,480;27,06485
 807,82;11500,650;   94,218;42414,621;26,95256
 808,38;11420,304;   78,818;42374,461;26,81479
 808,95;11408,558;   71,618;42215,199;26,90075
 809,52;11411,511;   67,418;42170,340;26,94372
 810,08;11356,464;   78,418;42035,480;26,87997
 810,65;11447,418;   70,318;42062,520;27,09336
 811,21;11437,171;   81,418;42152,461;26,99185
 811,78;11479,324;  103,518;42171,902;27,04122
 812,35;11412,978;   77,619;41843,543;27,14021
 812,91;11404,931;   96,919;42028,383;26,96784
 813,48;11331,185;   73,519;41847,520;26,94898
 814,04;11378,737;   84,319;41782,961;27,08582
 814,61;11313,191;   86,119;41608,602;27,03854
 815,18;11200,645;   80,719;41371,543;26,93074
 815,74;11127,897;   85,619;41303,980;26,78971
 816,31;11113,451;   87,719;40917,621;27,00406
 816,87;10934,904;   48,519;40470,363;26,93194
 817,44;10923,358;   89,319;40395,402;26,87941
 818,00;10788,911;   56,519;40200,641;26,73465
 818,57;10780,465;   93,519;39997,082;26,78193
 819,14;10818,118;   97,720;39811,922;26,99387
 819,70;10761,172;   88,420;39535,660;27,05576
 820,27;10611,325;   77,320;39377,602;26,80389
 820,83;10601,878;   77,020;39086,941;26,97995
 821,40;10556,731;  107,520;38849,980;26,97095
 821,96;10479,085;   81,620;38601,422;26,99252
 822,53;10443,639;   83,020;38411,762;27,03094
 823,09;10388,991;  109,920;38424,301;26,82823
 823,66;10214,645;   88,420;38045,141;26,67834
 824,22;10230,099;   85,720;37912,484;26,81799
 824,79;10109,651;   84,920;37523,723;26,77631
 825,35;10119,905;   93,320;37602,664;26,73090
 825,92;10025,658;   80,021;37253,602;26,75459
 826,48; 9979,412;  107,521;37167,043;26,63794
 827,05; 9934,165;   99,421;36937,082;26,69753
 827,61; 9896,818;   84,421;36644,523;26,83909
 828,18; 9817,771;   74,121;36543,762;26,71716
 828,74; 9831,125;   88,421;36346,004;26,87080
 829,31; 9708,379;   99,621;36305,645;26,53911
 829,87; 9673,432;   85,121;36173,883;26,56869
 830,44; 9669,085;   91,621;36054,922;26,63121
 831,00; 9593,438;   97,221;35964,465;26,47602
 831,57; 9585,892;  113,021;35736,305;26,59179
 832,13; 9372,846;   81,521;35201,441;26,45600
 832,69; 9400,499;   81,021;35253,785;26,49629
 833,26; 9329,853;   92,922;35075,125;26,40466
 833,82; 9330,506;  103,122;34779,063;26,61034
 834,39; 9270,959;   82,922;34662,203;26,57093
 834,95; 9208,412;   75,222;34586,445;26,46441
 835,52; 9301,766;  114,822;34573,582;26,66069
 836,08; 9230,519;  102,222;34467,223;26,56277
 836,64; 9205,473;   88,722;34415,863;26,55843
 837,21; 9091,525;  100,422;34108,805;26,43790
 837,77; 8980,779;   87,922;33973,742;26,24359
 838,34; 9001,933;   80,322;33883,184;26,39306
 838,90; 8901,786;   74,022;33688,023;26,26216
 839,46; 8884,939;  102,722;33660,965;26,17007
 840,03; 8838,893;   89,823;33589,305;26,11703
 840,59; 8831,146;   98,623;33224,945;26,36128
 841,16; 8854,600;  115,023;33197,586;26,41747
 841,72; 8699,053;   60,623;32782,023;26,39994
 842,28; 8664,006;   88,023;33006,664;26,05206
 842,85; 8727,959;  111,223;32981,305;26,21453
 843,41; 8665,713;  115,623;32759,645;26,19190
 843,97; 8572,366;  101,523;32628,484;26,04253
 844,54; 8578,319;  103,923;32606,424;26,07306
 845,10; 8450,072;  101,623;32435,264;25,81970
 845,67; 8459,426;   84,723;32257,805;26,03015
 846,23; 8451,180;   89,623;32027,045;26,18106
 846,79; 8308,633;   95,524;31792,686;25,91118
 847,36; 8212,187;   74,924;31579,225;25,82905
 847,92; 8216,340;   98,924;31430,064;25,90846
 848,48; 8223,093;   52,124;31495,006;25,98670
 849,04; 8164,446;   76,124;31293,445;25,90973
 849,61; 8146,800;   69,624;31314,285;25,85138
 850,17; 8178,553;   75,324;31291,824;25,95816
 850,73; 8030,006;   79,824;31295,666;25,46842
 851,30; 7948,660;   67,024;31085,805;25,40924
 851,86; 7934,013;   82,024;30886,045;25,49014
 852,42; 7920,866;   68,124;30971,785;25,41039
 852,99; 7918,520;   94,224;30848,025;25,44172
 853,55; 7912,673;  105,124;30691,564;25,52618
 854,11; 7825,426;   74,425;30375,906;25,57961
 854,67; 7791,980;   95,225;30426,945;25,37527
 855,24; 7758,133;   67,225;30329,586;25,41411
 855,80; 7737,486;   89,225;30332,326;25,28928
 856,36; 7671,040;   86,525;30215,365;25,17360
 856,92; 7635,493;   62,925;30050,506;25,25235
 857,49; 7680,146;   83,025;29960,646;25,42746
 858,05; 7592,300;   79,825;29911,785;25,18264
 858,61; 7592,153;   66,325;29929,727;25,20084
 859,17; 7504,507;   89,325;29718,566;25,02657
 859,74; 7520,960;   83,025;29678,205;25,13225
 860,30; 7400,414;  113,925;29483,246;24,80986
 860,86; 7437,967;   68,026;29312,586;25,20107
 861,42; 7401,420;   86,626;29074,326;25,23413
 861,99; 7271,874;   63,326;29042,166;24,87521
 862,55; 7284,327;   75,226;28893,006;25,01616
 863,11; 7307,680;   91,926;29061,646;24,90792
 863,67; 7284,034;   76,826;28852,586;25,04611
 864,23; 7167,087;   90,526;28750,727;24,69125
 864,80; 7156,740;   70,326;28544,666;24,88702
 865,36; 7121,594;   65,426;28649,607;24,68557
 865,92; 7085,047;  100,126;28461,146;24,62859
 866,48; 6968,000;   89,526;28425,188;24,27497
 867,04; 6978,754;   67,426;28159,627;24,60230
 867,60; 6964,807;   91,327;28118,768;24,52411
 868,17; 6902,061;  104,427;27939,207;24,42137
 868,73; 6842,314;   82,127;27621,646;24,54722
 869,29; 6776,267;   65,927;27596,787;24,37389
 869,85; 6803,021;  113,027;27568,627;24,36659
 870,41; 6697,674;   81,527;27384,168;24,23263
 870,97; 6690,927;  107,827;27213,406;24,28688
 871,54; 6572,480;   85,727;26980,947;24,11861
 872,10; 6584,434;   88,627;26828,088;24,29296
 872,66; 6514,887;   62,827;26528,428;24,37904
 873,22; 6473,141;   93,127;26519,367;24,14272
 873,78; 6367,394;   78,627;26172,908;24,10017
 874,34; 6372,047;  104,228;26033,547;24,17271
 874,90; 6348,947;  120,827;25783,248;24,26942
 875,46; 6221,848;   99,728;25709,348;23,90555
 876,03; 6128,547;   98,927;25420,648;23,81205
 876,59; 6117,547;   77,327;25181,547;24,06058
 877,15; 6121,447;  109,827;25149,047;24,00881
 877,71; 6059,547;  106,228;25212,648;23,71234
 878,27; 6062,547;   96,427;24989,248;23,96723
 878,83; 6029,447;  116,827;25022,148;23,74039
 879,39; 6006,748;  100,027;24973,648;23,74692
 879,95; 5940,348;   98,827;24843,648;23,60704
 880,51; 5930,248;   83,728;24936,047;23,52505
 881,07; 5967,147;   90,527;25061,848;23,53348
 881,63; 5990,248;  101,027;25156,047;23,50515
 882,19; 5966,348;   87,628;24975,447;23,62087
 882,75; 5961,147;  101,427;25261,947;23,28934
 883,31; 6035,447;  105,327;25428,648;23,41762
 883,88; 6048,647;   98,927;25336,748;23,57462
 884,44; 6023,147;   91,927;25417,947;23,41947
 885,00; 6041,348;  107,427;25761,848;23,13021
 885,56; 6055,047;  107,827;25751,648;23,19163
 886,12; 6136,947;  111,228;25842,648;23,41775
 886,68; 6067,947;   99,228;25852,348;23,17669
 887,24; 6137,447;  117,927;26350,547;22,94670
 887,80; 6116,348;   90,728;26280,748;23,00731
 888,36; 6228,848;  116,327;26529,848;23,14163
 888,92; 6105,748;  125,728;26572,047;22,61192
 889,48; 6256,348;  103,128;26954,447;22,91589
 890,04; 6237,547;  109,128;26947,547;22,83450
 890,60; 6234,348;  112,128;27251,248;22,55865
 891,16; 6242,748;   96,628;27188,848;22,68592
 891,72; 6254,947;  118,228;27260,547;22,60942
 892,28; 6266,348;  134,827;27331,547;22,54507
 892,84; 6204,947;  104,728;27348,848;22,39096
 893,39; 6221,348;  123,927;27411,947;22,34468
 893,95; 6175,447;  114,228;27186,348;22,38916
 894,51; 6027,047;   76,327;26955,748;22,13857
 895,07; 6104,348;  129,727;27084,848;22,16507
 895,63; 5922,547;   77,128;26839,947;21,84157
 896,19; 5974,848;   97,128;26677,248;22,11322
 896,75; 5908,547;  124,927;26555,748;21,88210
 897,31; 5774,447;   90,728;26203,148;21,76635
 897,87; 5734,348;  101,728;25897,248;21,83565
 898,43; 5702,748;  106,527;25790,848;21,78847
 898,99; 5663,348;  117,427;25589,047;21,77294
 899,55; 5609,748;  119,927;25597,447;21,54770
 900,11; 5507,147;  108,327;25305,447;21,42634
 900,67; 5446,848;   98,527;25075,248;21,41322
 901,22; 5370,248;  119,628;24861,047;21,22198
 901,78; 5324,348;   91,628;24661,248;21,29752
 902,34; 5270,248;  111,228;24532,248;21,12533
 902,90; 5220,547;   80,827;24335,148;21,19095
 903,46; 5124,547;  105,728;24231,348;20,80286
 904,02; 5098,547;  100,527;24123,947;20,80478
 904,58; 5009,547;   90,728;23850,848;20,70200
 905,14; 4994,947;   68,527;23822,947;20,73896
 905,70; 4901,748;   83,927;23630,748;20,46060
 906,25; 4886,248;   90,628;23553,348;20,43932
 906,81; 4848,047;   94,628;23392,047;20,40320
 907,37; 4791,947;   98,827;23257,447;20,26511
 907,93; 4702,447;   89,527;23089,748;20,05598
 908,49; 4681,147;   99,628;22999,447;20,00679
 909,05; 4650,748;   97,827;22927,848;19,94269
 909,60; 4653,848;  108,228;22788,748;20,04196
 910,16; 4551,848;   74,228;22700,748;19,78926
 910,72; 4553,147;  110,427;22663,447;19,69900
 911,28; 4513,447;  102,128;22408,248;19,77628
 911,84; 4477,947;   90,628;22454,148;19,61820
 912,39; 4419,748;   78,427;22258,547;19,57302
 912,95; 4410,248;  102,728;22258,148;19,44228
 913,51; 4373,248;   98,327;22083,547;19,44452
 914,07; 4235,547;   98,728;21907,547;18,96856
 914,63; 4276,748;   76,128;21874,547;19,27030
 915,18; 4153,848;   87,628;21589,648;18,91087
 915,74; 4101,348;   80,927;21587,248;18,69413
 916,30; 4122,047;   59,528;21357,648;19,07455
 916,86; 4067,748;   93,728;21262,648;18,77290
 917,42; 4077,147;  100,228;21321,348;18,74039
 917,97; 3986,748;   77,427;21064,748;18,62706
 918,53; 3938,248;   74,927;20915,447;18,53754
 919,09; 3933,048;   98,728;20860,447;18,46822
 919,65; 3865,147;   85,527;20650,848;18,37861
 920,20; 3787,548;   73,527;20532,748;18,15328
 920,76; 3754,448;   72,027;20320,547;18,18612
 921,32; 3724,748;   82,027;20178,947;18,12576
 921,87; 3690,948;  102,728;19954,348;18,07520
 922,43; 3589,647;   77,027;19849,648;17,76507
 922,99; 3526,347;   67,427;19482,748;17,81541
 923,55; 3454,147;   70,527;19338,047;17,56126
 924,10; 3398,847;   73,027;19189,547;17,39762
 924,66; 3369,347;   87,827;18955,648;17,39215
 925,22; 3262,748;   55,228;18851,248;17,06489
 925,77; 3197,248;   82,128;18536,348;16,88026
 926,33; 3199,548;   95,927;18507,947;16,85649
 926,89; 3106,847;   71,427;18124,148;16,81420
 927,44; 3087,347;   62,327;17937,248;16,92326
 928,00; 3020,548;   71,228;17715,447;16,71550
 928,56; 2963,248;   88,827;17529,648;16,48099
 929,12; 2943,048;   87,728;17383,348;16,50892
 929,67; 2838,147;   69,527;17014,248;16,33913
 930,23; 2800,847;   56,127;16842,248;16,35113
 930,78; 2785,048;  115,628;16704,547;16,09159
 931,34; 2678,847;   72,327;16173,647;16,18824
 931,90; 2628,147;   73,128;15997,647;16,04457
 932,45; 2549,248;   83,427;15594,647;15,89701
 933,01; 2478,347;   64,728;15138,247;16,01232
 933,57; 2385,347;   74,527;14649,048;15,85520
 934,12; 2265,347;   82,628;14015,147;15,66637
 934,68; 2118,147;   64,427;13299,647;15,51708
 935,24; 2041,547;   77,027;12511,147;15,79943
 935,79; 1915,948;   75,228;11770,247;15,73935
 936,35; 1784,147;  101,827;10989,848;15,45111
 936,90; 1646,948;   84,427;10143,848;15,53290
 937,46; 1507,147;   83,728; 9403,947;15,27239
 938,02; 1417,948;   73,527; 8615,747;15,73853
 938,57; 1309,147;   81,728; 8016,047;15,46976
 939,13; 1235,848;   80,228; 7513,447;15,54670
 939,68; 1123,647;   68,628; 6973,248;15,27991
 940,24; 1068,348;   71,527; 6581,047;15,31327
 940,79; 1041,348;  110,628; 6292,447;15,05576
 941,35;  998,047;  101,228; 6079,047;15,00246
 941,91;  937,948;   75,527; 5851,348;14,93156
 942,46;  917,948;   77,128; 5791,947;14,71298
 943,02;  908,547;   79,927; 5671,348;14,81949
 943,57;  859,847;   64,427; 5573,547;14,43824
 944,13;  868,847;   79,027; 5648,147;14,18213
 944,68;  878,747;   78,027; 5685,248;14,28016
 945,24;  897,648;   90,427; 5783,147;14,17987
 945,79;  875,747;   73,027; 5876,147;13,83256
 946,35;  871,847;   60,627; 5994,447;13,67113
 946,90;  928,347;  114,927; 6160,147;13,45559
 947,46;  893,347;   64,927; 6271,248;13,34801
 948,01;  910,347;   57,827; 6434,447;13,36947
 948,57;  968,547;  104,827; 6687,547;13,12102
 949,12;  952,547;   79,827; 6797,248;12,99189
 949,68;  991,948;  103,327; 7106,647;12,68855
 950,23;  986,948;   83,527; 7300,047;12,51878
 950,79; 1026,948;   83,327; 7497,748;12,72682
 951,34; 1061,848;  100,927; 7735,248;12,58685
 951,90; 1059,448;   70,527; 7954,848;12,54287
 952,45; 1087,948;   97,628; 8185,147;12,24504
 953,01; 1074,647;   82,628; 8326,348;12,03364
 953,56; 1114,748;   88,228; 8589,947;12,07426
 954,12; 1097,547;   52,028; 8720,447;12,06125
 954,67; 1119,348;   77,327; 8976,247;11,70951
 955,23; 1131,647;   76,927; 9148,048;11,62723
 955,78; 1153,647;   73,927; 9338,348;11,65448
 956,33; 1134,448;   63,728; 9521,548;11,32100
 956,89; 1163,748;   59,928; 9696,848;11,45407
 957,44; 1148,748;   69,628; 9882,348;10,99716
 958,00; 1154,647;   59,428;10075,548;10,93457
 958,55; 1183,647;   61,627;10222,348;11,04272
 959,10; 1174,647;   69,327;10408,747;10,69035
 959,66; 1190,948;   82,527;10609,048;10,52979
 960,21; 1191,848;   81,427;10733,147;10,42480
 960,77; 1171,348;   70,327;10817,147;10,24508
 961,32; 1189,348;   64,728;10986,548;10,29700
 961,87; 1182,948;   88,527;11049,147; 9,98502
 962,43; 1162,348;   70,728;11118,048; 9,88131
 962,98; 1194,547;   94,327;11290,247; 9,82697
 963,54; 1133,448;   47,228;11352,147; 9,60838
 964,09; 1162,647;   79,027;11395,348; 9,57573
 964,64; 1162,348;   74,527;11550,747; 9,47891
 965,20; 1113,948;   60,327;11524,247; 9,19075
 965,75; 1163,647;   81,728;11624,447; 9,37318
 966,30; 1156,348;   70,827;11653,848; 9,37165
 966,86; 1136,448;   78,527;11719,247; 9,08810
 967,41; 1134,047;   93,527;11768,048; 8,91274
 967,96; 1119,647;   76,728;11864,647; 8,84736
 968,52; 1120,848;   93,228;11930,647; 8,68111
 969,07; 1105,848;   77,628;11868,348; 8,72059
 969,62; 1106,448;   79,527;11967,147; 8,63857
 970,18; 1089,147;   75,728;12076,747; 8,44445
 970,73; 1083,848;   80,728;12023,048; 8,39971
 971,28; 1113,647;   96,327;12036,348; 8,52025
 971,84; 1060,248;   77,527;12048,848; 8,20895
 972,39; 1076,948;  100,228;12039,548; 8,18070
 972,94; 1046,248;   66,228;12109,947; 8,13719
 973,49; 1054,348;   96,628;12092,447; 7,98378
 974,05; 1027,047;   76,728;12000,747; 7,96980
 974,60; 1030,348;   93,228;12070,048; 7,82445
 975,15; 1028,748;   88,628;12097,447; 7,82858
 975,71;  966,047;   65,128;11908,548; 7,60692
 976,26; 1005,247;   98,927;11977,247; 7,63004
 976,81;  999,148;   91,827;11959,048; 7,64560
 977,36;  992,247;   98,728;11983,247; 7,51835
 977,92;  975,148;   96,527;12038,848; 7,35720
 978,47;  954,747;   81,927;11925,647; 7,36948
 979,02;  960,247;   93,228;11922,548; 7,32942
 979,57;  924,347;   88,427;11895,747; 7,07968
 980,13;  909,047;   83,527;11783,147; 7,05596
 980,68;  886,747;   82,927;11805,147; 6,85723
 981,23;  903,547;   90,527;11802,247; 6,94194
 981,78;  888,948;   92,427;11735,247; 6,84130
 982,33;  875,448;   90,728;11677,848; 6,77235
 982,89;  871,347;   89,927;11703,647; 6,72842
 983,44;  834,347;   83,027;11608,947; 6,51853
 983,99;  859,847;  118,628;11622,647; 6,44314
 984,54;  826,648;   96,128;11457,247; 6,43000
 985,09;  832,347;   93,728;11413,947; 6,52478
 985,65;  806,847;   91,327;11470,747; 6,28784
 986,20;  807,047;  106,927;11419,548; 6,18884
 986,75;  798,047;  108,628;11414,447; 6,09792
 987,30;  788,547;  102,827;11258,348; 6,14691
 987,85;  761,547;   90,228;11246,747; 6,01729
 988,40;  760,448;  108,527;11213,747; 5,87039
 988,96;  752,948;  108,027;11133,947; 5,84913
 989,51;  766,148;  115,427;11038,447; 5,95733
 990,06;  763,847;  138,227;11045,147; 5,73599
 990,61;  714,347;   92,128;10938,348; 5,73674
 991,16;  745,547;  118,927;10940,048; 5,79071
 991,71;  699,347;   92,527;10792,848; 5,67105
 992,26;  710,648;  102,427;10714,848; 5,73121
 992,81;  687,847;  104,728;10660,548; 5,52416
 993,37;  716,948;  137,727;10574,647; 5,54972
 993,92;  696,448;  121,728;10458,048; 5,56020
 994,47;  716,247;  124,628;10466,848; 5,72044
 995,02;  681,747;  137,027;10490,947; 5,26100
 995,57;  667,347;  110,427;10392,848; 5,41623
 996,12;  707,148;  145,727;10300,348; 5,52872
 996,67;  686,847;  129,628;10209,147; 5,52824
 997,22;  630,347;  113,527;10126,947; 5,16127
 997,77;  643,948;  121,527;10148,647; 5,21007
 998,32;  632,948;  111,628;10071,647; 5,23413
 998,87;  628,847;  125,128; 9984,647; 5,10897
 999,42;  626,047;  127,927; 9851,147; 5,12299
 999,97;  608,847;  108,927; 9777,548; 5,17054
1000,53;  609,347;  142,727; 9784,247; 4,83969
1001,08;  598,747;  107,228; 9686,947; 5,13084
1001,63;  624,547;  153,027; 9649,647; 4,96513
1002,18;  555,948;   83,728; 9424,147; 5,05566
1002,73;  583,948;  138,327; 9412,947; 4,80473
1003,28;  578,747;  124,327; 9381,947; 4,90861
1003,83;  566,047;  125,927; 9218,247; 4,84057
1004,38;  576,847;  149,928; 9191,647; 4,72167
1004,93;  548,648;  126,027; 9120,247; 4,69880
1005,48;  532,948;  116,827; 9054,348; 4,65588
1006,03;  513,347;  117,927; 9005,947; 4,44891
1006,58;  519,148;  111,128; 8858,647; 4,66441
1007,13;  473,147;  107,927; 8851,247; 4,17713
1007,68;  495,247;  104,728; 8818,747; 4,48151
1008,23;  515,247;  133,727; 8715,848; 4,44552
1008,78;  494,448;  112,027; 8711,147; 4,44720
1009,33;  497,948;  130,327; 8604,447; 4,33815
1009,88;  465,747;   88,228; 8605,447; 4,43243
1010,43;  492,047;  124,228; 8525,848; 4,37796
1010,98;  464,848;   99,827; 8492,447; 4,34930
1011,52;  463,647;   95,827; 8398,447; 4,43017
1012,07;  508,848;  150,327; 8388,247; 4,35207
1012,62;  470,047;  104,628; 8320,747; 4,44760
1013,17;  470,647;  113,128; 8276,947; 4,37932
1013,72;  444,647;   95,728; 8223,848; 4,29275
1014,27;  450,747;  121,228; 8163,047; 4,09758
1014,82;  433,348;   95,728; 7981,147; 4,28157
1015,37;  400,547;   94,128; 7887,848; 3,93163
1015,92;  433,848;  118,427; 7731,447; 4,14317
1016,47;  405,448;  102,628; 7596,447; 4,04093
1017,02;  385,448;   93,128; 7494,047; 3,94978
1017,57;  406,448;  112,527; 7367,248; 4,05143
1018,11;  390,047;   99,827; 7284,647; 4,03935
1018,66;  413,848;  130,928; 7236,947; 3,98141
1019,21;  400,747;  112,327; 7082,447; 4,13795
1019,76;  369,647;   93,628; 6976,348; 4,01033
1020,31;  356,247;   98,827; 6900,348; 3,78474
1020,86;  364,448;   93,927; 6846,248; 4,00633
1021,41;  358,047;   94,827; 6743,047; 3,95926
1021,96;  363,647;  104,128; 6702,147; 3,93330
1022,50;  385,348;  133,027; 6633,047; 3,88183
1023,05;  354,448;  100,128; 6498,748; 3,97461
1023,60;  353,848;  102,628; 6447,947; 3,95914
1024,15;  325,948;   86,927; 6297,348; 3,84869
1024,70;  357,948;  117,427; 6274,447; 3,90644
1025,25;  322,147;   97,728; 6228,447; 3,66058
1025,79;  348,747;  122,228; 6171,147; 3,74480
1026,34;  327,848;  101,427; 6090,447; 3,78059
1026,89;  339,247;  114,827; 6060,147; 3,77473
1027,44;  317,047;  104,827; 5966,348; 3,62056
1027,99;  323,247;  103,027; 5876,547; 3,81431
1028,53;  311,448;   96,728; 5813,647; 3,75587
1029,08;  330,448;  116,628; 5784,147; 3,77273
1029,63;  339,147;  115,327; 5690,348; 4,01469
1030,18;  310,147;  103,027; 5656,147; 3,72980
1030,73;  295,348;   96,027; 5543,647; 3,65885
1031,27;  289,047;   96,027; 5490,147; 3,57834
1031,82;  300,147;   88,827; 5398,447; 3,97995
1032,37;  304,547;  108,527; 5371,147; 3,72476
1032,92;  296,047;  115,827; 5293,348; 3,48082
1033,46;  283,147;  100,228; 5164,647; 3,61186
1034,01;  273,948;   93,927; 5108,748; 3,58976
1034,56;  282,647;  117,728; 5101,348; 3,30924
1035,11;  287,348;  107,128; 5004,248; 3,68012
1035,65;  288,547;  101,527; 4981,547; 3,83236
1036,20;  272,547;   92,927; 4950,047; 3,69808
1036,75;  303,848;  122,728; 4905,848; 3,78665
1037,29;  269,047;  103,927; 4828,647; 3,49481
1037,84;  259,747;   94,527; 4709,147; 3,58036
1038,39;  262,848;  103,827; 4639,547; 3,50595
1038,94;  246,648;   75,728; 4562,848; 3,80912
1039,48;  252,848;   96,628; 4571,947; 3,49070
1040,03;  272,147;  112,427; 4492,248; 3,64673
1040,58;  257,547;   98,128; 4393,447; 3,71148
1041,12;  249,747;  107,827; 4359,547; 3,33794
1041,67;  247,447;  109,128; 4320,947; 3,28409
1042,22;  269,848;  120,527; 4276,447; 3,59295
1042,76;  239,048;   99,827; 4151,447; 3,43616
1043,31;  251,247;  110,728; 4086,548; 3,53437
1043,86;  259,547;  114,628; 4037,647; 3,69409
1044,40;  248,747;  110,327; 4005,847; 3,55331
1044,95;  236,747;  115,228; 3962,147; 3,15889
1045,50;  220,148;   84,628; 3881,548; 3,56921
1046,04;  255,947;  120,628; 3843,548; 3,63478
1046,59;  229,148;   97,927; 3796,548; 3,54781
1047,13;  255,947;  126,128; 3766,347; 3,56627
1047,68;  251,947;  119,427; 3689,948; 3,71150
1048,23;  245,447;  123,228; 3670,847; 3,44513
1048,77;  227,247;  105,628; 3606,948; 3,47355
1049,32;  231,247;  108,228; 3568,048; 3,55568
1049,86;  231,947;   99,027; 3502,847; 3,90502
1050,41;  214,548;   91,527; 3451,248; 3,66161
1050,96;  228,747;  113,628; 3423,347; 3,47824
1051,50;  221,848;  104,927; 3366,948; 3,58428
1052,05;  221,848;  119,427; 3347,448; 3,17284
1052,59;  215,048;   99,827; 3256,748; 3,64976
1053,14;  198,848;   95,427; 3219,948; 3,30995
1053,69;  195,247;  104,128; 3185,448; 2,95717
1054,23;  213,648;  118,427; 3134,748; 3,15683
1054,78;  212,048;  114,628; 3053,847; 3,31448
1055,32;  236,148;  130,027; 3055,548; 3,62739
1055,87;  179,648;   86,128; 2966,347; 3,24697
1056,41;  189,648;   96,128; 2919,548; 3,31230
1056,96;  202,447;  107,728; 2911,948; 3,37777
1057,50;  232,148;  124,427; 2892,048; 3,89215
1058,05;  183,747;   76,527; 2784,248; 3,95979
1058,59;  210,747;  112,128; 2788,548; 3,68477
1059,14;  206,348;  117,527; 2774,748; 3,34259
1059,68;  175,348;   85,827; 2677,147; 3,45461
1060,23;  221,048;  130,928; 2707,448; 3,49774
1060,77;  204,848;  112,728; 2641,347; 3,64309
1061,32;  210,048;  122,628; 2596,847; 3,53323
1061,86;  201,048;  115,827; 2570,748; 3,47140
1062,41;  189,247;  106,128; 2522,048; 3,44051
1062,95;  194,247;  101,628; 2446,048; 3,95066
1063,50;  199,648;  119,927; 2427,847; 3,45419
1064,04;  181,247;  101,128; 2392,548; 3,49652
1064,59;  196,247;  124,427; 2369,948; 3,19837
1065,13;  197,348;  122,327; 2316,948; 3,41836
1065,68;  191,747;  125,128; 2272,948; 3,10175
1066,22;  212,947;  117,427; 2267,748; 4,44213
1066,76;  213,947;  137,027; 2243,448; 3,65169
1067,31;  182,848;  105,927; 2185,248; 3,69929
1067,85;  183,148;  102,728; 2165,948; 3,89779
1068,40;  194,947;  117,927; 2147,847; 3,79424
1068,94;  180,247;  102,327; 2097,548; 3,90533
1069,49;  172,048;  100,128; 2098,048; 3,59974
1070,03;  188,848;  102,628; 2031,848; 4,46916
1070,57;  164,048;  100,427; 2008,147; 3,33487
1071,12;  154,747;   90,327; 1958,448; 3,44839
1071,66;  204,947;  145,327; 2002,448; 3,21035
1072,21;  190,848;  124,427; 1952,047; 3,63424
1072,75;  188,048;  112,427; 1928,547; 4,16382
1073,29;  150,247;   92,427; 1865,047; 3,26184
1073,84;  179,348;  107,728; 1884,848; 4,03012
1074,38;  169,148;  104,427; 1862,448; 3,68141
1074,92;  173,348;  121,027; 1845,547; 3,03389
1075,47;  196,747;  134,327; 1822,448; 3,69760
1076,01;  194,548;  137,628; 1818,647; 3,38604
1076,56;  165,947;  102,027; 1735,848; 3,91230
1077,10;  147,848;   87,628; 1681,248; 3,77882
1077,64;  165,048;   99,628; 1726,147; 4,02208
1078,19;  197,447;  129,628; 1703,948; 4,30789
1078,73;  176,947;  123,527; 1661,248; 3,47397
1079,27;  188,848;  128,227; 1683,848; 3,89684
1079,81;  189,548;  136,727; 1662,547; 3,46175
1080,36;  170,747;  113,327; 1624,547; 3,79958
1080,90;  162,148;  107,228; 1608,848; 3,65738
1081,44;  155,447;  103,027; 1572,647; 3,56691
1081,99;  134,048;   81,728; 1551,748; 3,55914
1082,53;  170,348;  125,527; 1540,147; 3,16834
1083,07;  169,848;  122,827; 1522,147; 3,36020
1083,62;  169,447;  121,128; 1502,948; 3,49684
1084,16;  157,348;  112,228; 1487,248; 3,28141
1084,70;  179,447;  121,327; 1481,848; 4,27190
1085,24;  178,247;  117,527; 1450,948; 4,55370
1085,79;  160,247;  109,728; 1423,147; 3,84645
1086,33;  152,447;  100,628; 1400,047; 3,98793
1086,87;  154,447;  122,228; 1391,448; 2,53857
1087,41;  157,348;  106,827; 1360,547; 4,02961
1087,96;  179,947;  131,827; 1364,748; 3,90293
1088,50;  163,947;  102,628; 1345,848; 4,93235
1089,04;  178,848;  138,727; 1334,147; 3,35614
1089,58;  141,048;   93,427; 1286,848; 3,99021
1090,13;  148,048;  113,628; 1273,848; 2,96668
1090,67;  169,247;  114,728; 1274,948; 4,69911
1091,21;  141,148;  111,228; 1250,848; 2,62544
1091,75;  160,247;  112,327; 1235,948; 4,26479
1092,29;  161,947;  121,427; 1240,647; 3,62038
1092,84;  148,247;  104,628; 1213,147; 3,93498
1093,38;  187,048;  134,128; 1226,448; 4,84473
1093,92;  168,848;  128,027; 1210,748; 3,77013
1094,46;  170,747;  128,527; 1207,248; 3,91390
1095,00;  151,148;  110,228; 1150,448; 3,93378
1095,54;  148,148;   92,027; 1139,547; 5,35742
1096,09;  156,148;  113,128; 1144,047; 4,17297
1096,63;  164,747;  130,527; 1128,647; 3,42845
1097,17;  141,548;  109,427; 1108,147; 3,21612
1097,71;  170,648;  126,128; 1099,248; 4,57498
1098,25;  132,548;   97,927; 1059,547; 3,60018
1098,79;  164,348;  124,728; 1078,647; 4,15339
1099,33;  162,447;  117,728; 1040,147; 4,84812
1099,88;  156,648;  118,628; 1035,848; 4,14513
1100,42;  121,448;  103,628; 1000,747; 1,98636

