INBUCR0216_M
Integration time [ms]:   8,000
Averaging Nr. [scans]: 10
Smoothing Nr. [pixels]: 0
Data measured with spectrometer [name]: 7314920SP
Wave   ;Sample   ;Dark     ;Reference;Reflectance
[nm]   ;[counts] ;[counts] ;[counts] ;[%]

 199,42;  125,521;   72,222;  210,244;38,61629
 200,02;  137,701;  102,008;  189,811;40,65124
 200,62;  103,069;   74,992;  115,875;68,67601
 201,22;  139,435;   92,709;  193,470;46,37318
 201,82;  118,623;   64,025;  211,220;37,09211
 202,42;  137,156;   95,408;  188,025;45,07666
 203,03;   83,933;   55,806;  149,594;29,99030
 203,63;  110,154;   65,404;  161,149;46,73906
 204,23;  116,606;   81,415;  188,764;32,78139
 204,83;  118,265;   76,103;  162,076;49,04050
 205,43;  115,821;   65,122;  182,444;43,21354
 206,03;   92,320;   56,103;  131,590;47,97809
 206,63;   90,505;   81,096;  130,910;18,88773
 207,24;  139,580;   77,929;  242,810;37,39167
 207,84;   77,175;   57,902;  135,404;24,86798
 208,44;   93,835;   59,009;  153,170;36,98565
 209,04;   61,950;   53,697;  112,596;14,01193
 209,64;  116,253;   72,519;  200,426;34,19145
 210,24;   85,465;   50,503;  130,176;43,88135
 210,84;   94,180;   60,310;  167,756;31,52286
 211,44;  109,159;   86,511;  189,701;21,94728
 212,05;   92,850;   61,997;  128,496;46,39577
 212,65;  110,633;   75,406;  151,694;46,17672
 213,25;  128,356;   96,208;  175,325;40,63432
 213,85;  116,229;   84,098;  157,241;43,92788
 214,45;   94,665;   59,703;  144,876;41,04773
 215,05;   68,480;   46,810;  150,056;20,98881
 215,65;   99,625;   64,010;  156,742;38,40570
 216,25;   72,865;   47,903;  131,676;29,79669
 216,85;   81,091;   45,209;  131,084;41,78366
 217,45;   88,633;   61,406;  140,794;34,29649
 218,05;   98,593;   56,513;  170,560;36,89715
 218,66;   65,646;   35,109;  126,597;33,37817
 219,26;   77,554;   40,904;  108,649;54,10043
 219,86;   71,416;   30,415;  147,291;35,08118
 220,46;  101,348;   62,212;  165,774;37,79004
 221,06;  100,006;   50,415;  173,264;40,36707
 221,66;   91,740;   49,317;  185,122;31,23808
 222,26;   82,253;   47,619;  163,026;30,00965
 222,86;  110,567;   70,807;  163,753;42,77792
 223,46;   83,065;   54,503;  138,276;34,09403
 224,06;  110,061;   63,215;  169,877;43,91984
 224,66;  104,482;   59,613;  169,732;40,74573
 225,26;   90,714;   55,111;  162,715;33,08713
 225,86;   93,987;   43,521;  183,285;36,10796
 226,46;   86,412;   58,307;  160,639;27,46417
 227,06;   77,282;   30,313;  143,532;41,48489
 227,66;   71,684;   58,298;  114,355;23,87894
 228,27;   83,448;   40,012;  159,574;36,32936
 228,87;  130,737;   91,313;  208,446;33,65785
 229,47;   81,997;   37,020;  166,312;34,78734
 230,07;   53,114;   18,811;  112,215;36,72549
 230,67;   86,891;   40,209;  142,184;45,77762
 231,27;   62,848;   30,212;  143,374;28,84014
 231,87;   91,391;   40,109;  147,584;47,71503
 232,47;  115,791;   59,528;  218,437;35,40585
 233,07;   74,360;   37,496;  115,524;47,24517
 233,67;   87,333;   55,906;  155,694;31,49407
 234,27;   48,520;   20,103;  106,490;32,89528
 234,87;   82,316;   43,315;  164,991;32,05356
 235,47;   74,914;   20,211;  136,915;46,87336
 236,07;   67,307;   29,800;  113,786;44,65882
 236,67;   83,586;   59,802;  134,031;32,04169
 237,27;   80,610;   47,023;  174,316;26,38585
 237,87;   89,282;   44,213;  155,532;40,48615
 238,47;   64,701;   24,408;  124,611;40,21138
 239,07;   75,408;   26,119;  172,740;33,61654
 239,67;  112,072;   47,333;  213,158;39,04046
 240,27;  103,587;   43,621;  186,385;42,00353
 240,87;  109,155;   59,423;  199,102;35,60424
 241,47;   75,148;   48,693;   99,120;52,46076
 242,07;   72,222;   48,007;  129,466;29,72744
 242,67;   60,965;    5,722;  135,930;42,42700
 243,27;   54,165;   23,603;  102,476;38,74784
 243,87;  105,261;   50,915;  171,077;45,22709
 244,47;   81,606;   43,215;  154,464;34,50863
 245,07;   46,380;   13,110;  116,356;32,22406
 245,67;   78,433;   43,706;  124,694;42,87955
 246,27;   67,505;   36,296;  104,710;45,61759
 246,87;   57,667;   29,007;  121,153;31,10316
 247,46;   37,769;   12,792;   58,475;54,67437
 248,06;   62,693;   21,613;  126,060;39,33103
 248,66;   81,753;   43,719;  153,526;34,63645
 249,26;   65,307;   30,300;  102,586;48,42867
 249,86;   94,387;   44,721;  160,885;42,75500
 250,46;   71,536;    4,828;  172,023;39,89797
 251,06;   61,333;   30,406;  103,194;42,48955
 251,66;   59,572;   18,014;  130,305;37,00874
 252,26;   60,697;   40,501;  110,659;28,78626
 252,86;   68,480;   26,710;  135,356;38,44599
 253,46;   26,265;   -0,997;   71,476;37,61620
 254,06;   61,263;   46,300;  117,300;21,07450
 254,66;   73,721;   43,622;  156,244;26,72564
 255,26;   99,331;   47,221;  183,271;38,30230
 255,86;   53,548;   53,693;   90,620;-0,39439
 256,46;   61,959;   27,311;  117,701;38,33104
 257,05;   63,427;   24,314;  137,219;34,64252
 257,65;   92,216;   55,915;  159,191;35,14996
 258,25;   87,897;   44,920;  174,412;33,18912
 258,85;   60,680;   24,210;  114,956;40,18912
 259,45;   46,391;   13,309;  104,284;36,36351
 260,05;   69,765;   39,503;  115,376;39,88452
 260,65;   84,397;   49,901;  110,459;56,96337
 261,25;   75,261;   35,715;  144,777;36,25994
 261,85;   47,495;    3,916;  117,036;38,52445
 262,45;   90,080;   58,110;  146,656;36,10557
 263,04;   95,976;   54,121;  181,157;32,94706
 263,64;   75,299;   46,104;  120,435;39,27653
 264,24;   82,350;   50,116;  169,050;27,10286
 264,84;  118,633;   72,525;  200,347;36,07256
 265,44;   55,788;   27,105;  102,308;38,14120
 266,04;   69,173;   40,299;  110,528;41,11480
 266,64;   74,286;   46,002;  130,331;33,54032
 267,24;   70,486;   37,402;  107,331;47,31103
 267,84;   58,356;   35,308;  124,625;25,80550
 268,43;   80,578;   63,006;  136,180;24,01349
 269,03;   80,746;   52,609;  143,797;30,85609
 269,63;   85,052;   71,300;  125,873;25,19889
 270,23;   39,684;   18,498;   87,355;30,76784
 270,83;   77,597;   57,001;  121,259;32,05183
 271,43;   54,144;   42,005;  112,221;17,28762
 272,03;   88,688;   66,705;  133,008;33,15581
 272,62;   70,125;   31,410;  109,542;49,54991
 273,22;   60,137;   11,613;  120,746;44,46357
 273,82;   33,475;   23,684;   41,950;53,60250
 274,42;   44,692;   31,194;   62,506;43,10907
 275,02;   52,016;   37,396;   87,038;29,45106
 275,62;  100,297;   49,620;  176,012;40,09528
 276,21;   68,303;   22,012;  119,787;47,34475
 276,81;   66,575;   46,802;  100,904;36,54811
 277,41;   77,484;   34,617;  138,809;41,14285
 278,01;   41,816;   30,596;   62,038;35,68505
 278,61;   77,435;   53,409;  127,970;32,22333
 279,20;  106,987;   66,621;  179,185;35,86043
 279,80;    7,177;    2,887;   19,827;25,32588
 280,40;   67,507;   49,500;  111,686;28,95699
 281,00;   38,035;   -1,591;   79,870;48,64426
 281,60;   64,089;   24,024;  147,561;32,43132
 282,20;   65,759;   44,011;  129,701;25,37916
 282,79;   55,578;   32,006;  103,580;32,93325
 283,39;   42,652;   24,500;   69,873;40,00600
 283,99;   38,460;   24,796;   62,724;36,02732
 284,59;   49,569;   11,311;   95,329;45,53633
 285,19;   49,120;   27,803;   93,790;32,30522
 285,78;   60,759;   26,011;  114,401;39,31149
 286,38;   68,705;   46,196;   90,310;51,02424
 286,98;   54,678;   42,206;  104,180;20,12396
 287,58;   50,106;   10,015;  106,264;41,65296
 288,17;   67,531;   30,221;  134,771;35,68654
 288,77;   76,359;   25,130;  160,455;37,85639
 289,37;   44,480;    7,610;  106,556;37,26278
 289,97;   61,560;   51,596;   89,824;26,06577
 290,57;   83,074;   40,218;  142,281;41,98961
 291,16;   92,088;   62,005;  153,508;32,87684
 291,76;   47,337;    9,813;  111,846;36,77677
 292,36;   57,954;   34,804;   91,949;40,51149
 292,96;   46,942;   12,920;  112,799;34,06315
 293,55;   47,375;   24,302;   95,904;32,22428
 294,15;   57,403;   21,012;  117,487;37,72106
 294,75;   56,805;   46,296;   87,510;25,49803
 295,35;   50,188;   30,905;   87,208;34,24916
 295,94;   64,131;   47,602;  101,718;30,54343
 296,54;   56,812;   20,307;  102,039;44,66394
 297,14;   71,840;   35,817;  149,522;31,68099
 297,73;   32,439;   23,498;   65,969;21,05318
 298,33;   62,363;   41,300;   94,600;39,51748
 298,93;   73,567;   47,607;  131,952;30,77836
 299,53;   56,763;   21,519;  133,654;31,43048
 300,12;   36,440;    5,217;  115,922;28,20370
 300,72;   82,799;   58,004;  131,835;33,58293
 301,32;   75,516;   37,415;  153,391;32,85290
 301,92;   34,337;   15,294;   52,693;50,91881
 302,51;   42,010;   22,804;   94,763;26,69008
 303,11;   49,920;   21,403;   92,290;40,22915
 303,71;   61,801;   25,908;  111,711;41,83188
 304,30;   44,018;   24,399;   89,214;30,26896
 304,90;   32,663;   22,400;   83,400;16,82445
 305,50;   52,184;   35,598;   93,655;28,56816
 306,09;   51,407;   27,100;  107,186;30,35137
 306,69;   72,750;   37,316;  149,950;31,45987
 307,29;   35,930;   40,383;   43,764;-131,70624
 307,88;   89,269;   51,611;  142,529;41,42053
 308,48;   44,848;    7,612;  111,974;35,67976
 309,08;   14,579;    6,391;   47,803;19,77361
 309,68;   51,339;   25,198;   76,769;50,69018
 310,27;   52,325;    3,310;  109,342;46,22600
 310,87;   66,612;   40,507;  113,439;35,79318
 311,47;   80,165;   52,803;  134,376;33,54245
 312,06;   60,895;   54,797;   99,183;13,73706
 312,66;   92,588;   58,605;  130,408;47,32867
 313,26;   80,572;   57,714;  154,805;23,54230
 313,85;   67,620;   48,603;  102,090;35,55489
 314,45;   68,835;   43,309;  124,070;31,60688
 315,04;   78,495;   52,497;  102,883;51,59682
 315,64;   52,399;   32,204;   92,535;33,47302
 316,24;   68,848;   45,412;  136,874;25,62382
 316,83;   65,707;   44,800;  109,286;32,42128
 317,43;   60,244;   34,805;  112,521;32,73280
 318,03;   70,658;   46,992;  105,248;40,62428
 318,62;   85,588;   83,886;  116,254; 5,25663
 319,22;   54,756;   23,508;  114,325;34,40840
 319,82;   86,688;   41,505;  135,108;48,27133
 320,41;   93,101;   50,808;  152,511;41,58482
 321,01;   94,484;   87,098;  148,755;11,97889
 321,60;   90,992;   75,494;  138,706;24,51822
 322,20;  113,621;   57,422;  215,744;35,49663
 322,80;   95,399;   51,404;  154,635;42,61768
 323,39;   73,571;   51,895;  113,651;35,09902
 323,99;   90,097;   62,501;  142,359;34,55617
 324,59;   84,158;   68,792;  121,248;29,29311
 325,18;   87,010;   47,504;  158,863;35,47619
 325,78;   93,739;   66,698;  150,369;32,31882
 326,37;  105,033;   65,706;  177,794;35,08609
 326,97;  100,399;   72,204;  176,935;26,92094
 327,57;   50,069;   49,692;  114,875; 0,57868
 328,16;   80,848;   66,793;  136,120;20,27259
 328,76;   79,831;   65,802;  159,418;14,98547
 329,35;  112,716;   70,715;  202,591;31,84923
 329,95;   80,559;   46,311;  172,301;27,18264
 330,54;   95,165;   57,403;  166,676;34,55710
 331,14;   65,875;   37,202;  149,004;25,64640
 331,74;   94,184;   65,898;  158,355;30,59348
 332,33;   88,748;   36,712;  182,074;35,79760
 332,93;   68,537;   48,294;  153,293;19,27924
 333,52;   78,352;   51,300;  173,173;22,19668
 334,12;  113,146;   76,609;  216,397;26,13750
 334,71;   73,607;   55,600;  177,586;14,76172
 335,31;  114,720;   68,403;  194,790;36,64715
 335,90;   54,401;   38,089;  116,458;20,81381
 336,50;   64,405;   31,796;  151,710;27,19346
 337,10;   82,125;   43,110;  224,742;21,47993
 337,69;   76,105;   58,596;  164,910;16,46888
 338,29;   77,554;   38,604;  183,549;26,87244
 338,88;   71,767;   36,207;  199,452;21,78325
 339,48;   82,756;   69,289;  185,372;11,60137
 340,07;   91,641;   51,901;  214,445;24,44888
 340,67;   93,816;   44,015;  244,991;24,77984
 341,26;   91,407;   52,500;  219,286;23,32763
 341,86;  109,514;   73,011;  274,415;18,12431
 342,45;  103,069;   51,411;  255,729;25,28350
 343,05;   98,469;   41,711;  268,829;24,99086
 343,64;   89,786;   62,602;  262,431;13,60380
 344,24;   66,305;   33,096;  233,710;16,55354
 344,83;  103,860;   72,396;  265,724;16,27514
 345,43;   83,031;   42,302;  272,018;17,73007
 346,02;   83,591;   43,109;  299,884;15,76542
 346,62;  110,072;   49,414;  334,805;21,25415
 347,21;   95,139;   56,098;  304,069;15,74438
 347,81;   84,974;   33,118;  351,481;16,28831
 348,40;   69,548;   34,893;  282,320;14,00590
 349,00;   84,358;   60,892;  331,448; 8,67319
 349,59;  126,437;   71,813;  420,746;15,65472
 350,19;   93,372;   44,914;  383,305;14,31995
 350,78;   88,620;   51,303;  373,790;11,57172
 351,38;   84,091;   30,009;  377,584;15,55971
 351,97;   69,031;   42,702;  406,118; 7,24480
 352,57;   86,248;   52,312;  422,774; 9,16045
 353,16;   72,871;   39,295;  383,751; 9,74748
 353,76;   99,637;   46,613;  467,346;12,60288
 354,35;  100,414;   17,411;  484,915;17,75452
 354,95;  109,903;   51,712;  515,687;12,54196
 355,54;   93,356;   38,008;  504,925;11,85408
 356,14;   97,114;   42,611;  534,915;11,07102
 356,73;   90,656;   52,589;  490,871; 8,68553
 357,32;   91,101;   26,908;  533,411;12,67377
 357,92;  102,418;   36,718;  583,967;12,00555
 358,51;  124,263;   51,519;  631,554;12,54141
 359,11;  126,074;   47,018;  646,981;13,17680
 359,70;  113,727;   30,014;  629,419;13,96604
 360,30;  110,777;   58,187;  603,727; 9,64001
 360,89;   92,967;   25,007;  639,453;11,06041
 361,48;  137,503;   54,112;  712,987;12,65666
 362,08;  109,344;   25,005;  677,021;12,93507
 362,67;  106,269;   33,892;  669,375;11,38931
 363,27;  144,310;   64,804;  752,763;11,55678
 363,86;  127,084;   36,998;  746,555;12,69607
 364,46;  148,148;   56,393;  812,720;12,13157
 365,05;  160,839;   75,379;  800,115;11,79186
 365,64;  169,352;   53,582;  858,719;14,37891
 366,24;  188,871;   39,876;  899,498;17,33254
 366,83;  217,432;   64,668; 1001,887;16,29973
 367,43;  229,446;   69,837; 1018,860;16,81830
 368,02;  265,082;   44,141; 1136,095;20,23356
 368,61;  307,680;   63,919; 1250,365;20,54547
 369,21;  279,600;   44,061; 1249,760;19,53547
 369,80;  327,354;   59,322; 1383,066;20,24799
 370,39;  402,396;   60,519; 1588,676;22,37186
 370,99;  421,521;   42,468; 1618,624;24,04919
 371,58;  434,515;   33,423; 1699,364;24,07601
 372,18;  475,923;   38,200; 1809,762;24,70833
 372,77;  460,526;   50,550; 1827,654;23,06989
 373,36;  500,588;   52,342; 1852,343;24,90253
 373,96;  457,578;   53,009; 1748,685;23,85891
 374,55;  441,539;   39,534; 1728,804;23,79751
 375,14;  413,882;   37,250; 1608,468;23,97068
 375,74;  402,474;   73,973; 1533,970;22,50008
 376,33;  336,987;   50,595; 1398,327;21,24992
 376,92;  329,101;   41,936; 1361,138;21,76809
 377,52;  427,637;   93,712; 1534,810;23,17152
 378,11;  370,969;   61,010; 1438,393;22,50345
 378,71;  407,673;   79,636; 1530,799;22,60514
 379,30;  430,695;   57,953; 1617,807;23,89594
 379,89;  433,999;   56,742; 1639,606;23,83384
 380,49;  462,863;   31,556; 1680,725;26,15302
 381,08;  484,886;   81,520; 1641,749;25,85299
 381,67;  463,956;   58,726; 1650,543;25,45709
 382,26;  456,986;   44,520; 1663,849;25,47140
 382,86;  456,547;   51,912; 1684,538;24,78434
 383,45;  497,976;   63,740; 1765,375;25,51875
 384,04;  488,086;   52,739; 1794,203;24,99894
 384,64;  505,267;   47,044; 1831,224;25,68257
 385,23;  510,475;   71,621; 1827,321;24,99597
 385,82;  539,304;   55,649; 1889,958;26,36712
 386,42;  588,319;   67,274; 1996,892;27,00249
 387,01;  567,578;   67,543; 1922,351;26,95883
 387,60;  572,924;   76,228; 1970,060;26,22703
 388,20;  558,176;   48,340; 2018,675;25,87559
 388,79;  644,997;   83,357; 2123,583;27,52834
 389,38;  558,886;   54,020; 2028,549;25,56892
 389,97;  630,614;   58,048; 2147,386;27,40419
 390,57;  659,301;   74,645; 2194,082;27,58544
 391,16;  666,801;   77,945; 2258,282;27,00757
 391,75;  678,244;   56,642; 2278,892;27,97172
 392,34;  728,647;   65,865; 2381,022;28,62794
 392,94;  726,087;   55,558; 2418,156;28,38100
 393,53;  730,182;   38,151; 2418,703;29,07021
 394,12;  769,206;   61,871; 2581,588;28,07200
 394,72;  770,189;   73,643; 2576,379;27,83138
 395,31;  788,504;   50,649; 2629,658;28,61000
 395,90;  825,664;   41,475; 2732,778;29,13789
 396,49;  881,370;   59,286; 2807,207;29,91661
 397,09;  862,140;   56,254; 2772,993;29,66372
 397,68;  895,743;   64,576; 2914,023;29,16939
 398,27;  922,868;   63,382; 3016,531;29,10407
 398,86;  946,721;   53,778; 3036,468;29,93752
 399,45;  994,709;   61,894; 3185,318;29,86514
 400,05;  946,389;   47,961; 3091,132;29,52275
 400,64;  978,176;   67,859; 3225,428;28,82969
 401,23;  996,268;   55,563; 3253,277;29,41804
 401,82; 1029,668;   63,863; 3288,777;29,94823
 402,42; 1056,291;   66,665; 3369,608;29,96195
 403,01; 1092,543;   77,976; 3502,223;29,62889
 403,60; 1126,366;   73,197; 3538,808;30,38914
 404,19; 1140,253;   80,976; 3582,651;30,25060
 404,78; 1119,849;   68,668; 3550,598;30,18959
 405,38; 1189,190;   77,499; 3734,039;30,40281
 405,97; 1167,479;   55,281; 3700,958;30,50730
 406,56; 1222,805;   76,387; 3843,565;30,43173
 407,15; 1215,962;   68,690; 3813,955;30,63260
 407,74; 1238,675;   86,793; 3924,359;30,01595
 408,34; 1241,979;   59,000; 3935,712;30,51502
 408,93; 1263,732;   64,696; 4017,449;30,33421
 409,52; 1262,328;   55,908; 4063,050;30,10676
 410,11; 1318,622;   90,297; 4169,222;30,11394
 410,70; 1285,902;   58,983; 4135,689;30,09584
 411,29; 1307,815;   65,186; 4164,293;30,31463
 411,89; 1359,762;   71,609; 4289,809;30,53799
 412,48; 1333,760;   55,186; 4249,779;30,48147
 413,07; 1364,592;   66,503; 4362,416;30,21685
 413,66; 1391,573;   69,808; 4401,236;30,51569
 414,25; 1402,043;   80,814; 4542,030;29,61590
 414,84; 1379,932;   72,596; 4521,849;29,38328
 415,44; 1423,585;   92,492; 4528,687;30,00530
 416,03; 1422,665;   72,912; 4620,185;29,68268
 416,62; 1450,101;   78,017; 4684,620;29,78515
 417,21; 1427,016;   74,205; 4680,046;29,37163
 417,80; 1426,088;   82,814; 4723,417;28,94611
 418,39; 1457,937;   83,422; 4766,355;29,35159
 418,98; 1406,437;   59,003; 4695,202;29,06333
 419,58; 1399,758;   70,002; 4754,557;28,38597
 420,17; 1425,639;   54,107; 4792,378;28,94584
 420,76; 1444,165;   82,012; 4871,985;28,43758
 421,35; 1423,807;   66,309; 4790,295;28,73629
 421,94; 1462,037;   87,322; 4907,955;28,51732
 422,53; 1434,627;   66,423; 4867,228;28,49947
 423,12; 1422,935;   78,819; 4876,579;28,01550
 423,71; 1391,463;   59,809; 4856,909;27,75956
 424,30; 1427,231;   91,611; 4912,926;27,70239
 424,90; 1381,667;   44,016; 4917,061;27,45000
 425,49; 1411,993;   83,922; 4948,069;27,30326
 426,08; 1427,393;   92,422; 5032,169;27,02508
 426,67; 1393,852;   56,110; 4951,881;27,32444
 427,26; 1415,831;   70,530; 5041,180;27,06489
 427,85; 1417,612;   69,216; 5000,047;27,34621
 428,44; 1462,008;   70,628; 5078,549;27,78358
 429,03; 1482,429;   83,027; 5133,804;27,70667
 429,62; 1478,584;   84,326; 5156,817;27,48665
 430,21; 1487,744;   89,633; 5174,883;27,49345
 430,80; 1504,725;   64,238; 5194,005;28,08094
 431,39; 1488,733;   65,134; 5275,956;27,32006
 431,99; 1502,662;   85,909; 5201,209;27,69639
 432,58; 1540,235;   86,919; 5228,879;28,26386
 433,17; 1518,773;   80,608; 5265,236;27,73902
 433,76; 1579,851;   80,944; 5403,812;28,15976
 434,35; 1614,636;   94,637; 5427,532;28,50231
 434,94; 1643,432;   87,749; 5528,633;28,59246
 435,53; 1644,865;   85,131; 5489,938;28,85827
 436,12; 1665,889;   77,833; 5530,870;29,12240
 436,71; 1674,816;   95,824; 5567,900;28,85545
 437,30; 1718,195;   92,125; 5645,645;29,27998
 437,89; 1769,791;   86,337; 5750,746;29,71985
 438,48; 1757,486;   80,830; 5726,994;29,69550
 439,07; 1774,046;   89,118; 5756,006;29,73286
 439,66; 1846,874;  106,846; 5907,443;29,99740
 440,25; 1843,089;  102,533; 5933,270;29,85138
 440,84; 1866,155;  100,151; 5953,765;30,16947
 441,43; 1921,709;   81,466; 6120,255;30,47370
 442,02; 1917,134;   70,653; 6098,910;30,63043
 442,61; 1911,733;  102,834; 6151,956;29,90351
 443,20; 1964,310;   85,351; 6266,378;30,39882
 443,79; 1951,282;   81,541; 6234,795;30,38622
 444,38; 2016,808;   97,347; 6409,602;30,40848
 444,97; 2020,859;   78,439; 6464,563;30,41625
 445,56; 2034,093;  109,241; 6579,222;29,75051
 446,15; 2071,547;   88,455; 6706,313;29,96576
 446,74; 2058,578;   69,334; 6742,643;29,80896
 447,33; 2120,782;   95,241; 6883,895;29,83716
 447,92; 2152,657;   84,855; 6996,541;29,91748
 448,51; 2179,704;  100,340; 7059,750;29,87845
 449,10; 2198,470;   94,139; 7198,291;29,62114
 449,69; 2221,623;   87,253; 7331,782;29,46182
 450,28; 2247,529;   81,345; 7420,757;29,51441
 450,87; 2255,540;   82,645; 7551,885;29,09125
 451,46; 2308,798;  109,948; 7689,475;29,01038
 452,05; 2325,455;   83,751; 7799,165;29,05488
 452,64; 2340,079;   79,053; 7949,396;28,72842
 453,23; 2407,870;  121,857; 8107,044;28,62817
 453,82; 2413,113;   84,154; 8243,854;28,54220
 454,40; 2405,779;   65,153; 8384,695;28,13407
 454,99; 2451,262;  106,662; 8574,793;27,68733
 455,58; 2414,161;   87,043; 8649,739;27,17740
 456,17; 2463,194;   80,659; 8846,976;27,17828
 456,76; 2495,957;   76,455; 9034,841;27,00824
 457,35; 2544,508;   81,647; 9159,302;27,13103
 457,94; 2554,541;   81,464; 9376,038;26,60775
 458,53; 2563,368;   61,254; 9526,168;26,43568
 459,12; 2663,458;  102,874; 9854,294;26,25858
 459,71; 2627,719;   74,246; 9828,729;26,17742
 460,30; 2664,974;   87,146;10047,144;25,88182
 460,89; 2680,357;   73,955;10215,141;25,70116
 461,48; 2755,440;   79,164;10399,538;25,93197
 462,06; 2808,044;   79,052;10532,938;26,10505
 462,65; 2793,587;   50,349;10614,747;25,96682
 463,24; 2918,656;   97,770;10972,218;25,94049
 463,83; 2935,244;   68,452;11002,037;26,22006
 464,42; 2981,732;   85,649;11187,634;26,08617
 465,01; 3028,878;   73,753;11387,596;26,11956
 465,60; 3091,334;   78,553;11587,810;26,17703
 466,19; 3174,740;   85,064;11761,938;26,45979
 466,77; 3251,947;   85,955;11897,913;26,80327
 467,36; 3297,113;   69,673;12026,008;26,99356
 467,95; 3362,991;   80,156;12155,399;27,18650
 468,54; 3404,419;   89,865;12369,683;26,99188
 469,13; 3451,325;   81,657;12434,158;27,27924
 469,72; 3538,688;   74,968;12666,501;27,50833
 470,31; 3605,577;   85,968;12844,173;27,58702
 470,90; 3647,300;   80,951;12953,451;27,70517
 471,48; 3719,802;   39,174;13142,381;28,08952
 472,07; 3821,506;  121,143;13334,026;28,00572
 472,66; 3834,728;   88,761;13472,034;27,98991
 473,25; 3868,547;   72,055;13588,813;28,08729
 473,84; 3931,053;   61,866;13773,542;28,21819
 474,43; 3956,083;   54,279;14038,502;27,90147
 475,01; 4005,164;   80,066;14139,770;27,91736
 475,60; 4031,443;   49,967;14305,914;27,92852
 476,19; 4101,271;   93,176;14422,298;27,97167
 476,78; 4104,013;   82,173;14542,208;27,81349
 477,37; 4088,643;   58,867;14636,614;27,64334
 477,95; 4156,866;   82,169;14810,445;27,66581
 478,54; 4136,562;   76,062;14981,894;27,24101
 479,13; 4141,162;   63,162;15125,093;27,07488
 479,72; 4150,230;   76,964;15232,811;26,87587
 480,31; 4189,673;   75,880;15418,174;26,81341
 480,89; 4087,464;   70,066;15522,369;25,99870
 481,48; 4168,486;   55,283;15600,078;26,46032
 482,07; 4136,719;   57,765;15750,783;25,99216
 482,66; 4067,606;   68,962;15832,380;25,36661
 483,25; 4125,886;   84,683;15929,778;25,50444
 483,83; 4066,209;   68,466;16050,655;25,01374
 484,42; 4053,740;   63,364;16126,138;24,84239
 485,01; 4063,781;   70,776;16307,025;24,59315
 485,60; 4062,492;   77,194;16445,707;24,34735
 486,18; 4006,766;   67,069;16479,246;24,00472
 486,77; 4008,670;   74,057;16525,145;23,91704
 487,36; 4039,237;   72,094;16711,293;23,84215
 487,95; 4044,209;   70,785;16813,010;23,73295
 488,53; 4018,365;   71,684;16801,322;23,59095
 489,12; 4067,414;   62,692;16952,961;23,71023
 489,71; 4051,667;   39,888;16938,100;23,74085
 490,30; 4126,175;   69,484;17113,451;23,80133
 490,88; 4153,954;   89,585;17127,195;23,85527
 491,47; 4177,558;   69,492;17224,348;23,94696
 492,06; 4227,835;   65,090;17261,617;24,20689
 492,65; 4253,943;   77,986;17233,469;24,34182
 493,23; 4293,541;   68,382;17320,291;24,49096
 493,82; 4345,817;   69,661;17342,307;24,75681
 494,41; 4343,933;   58,487;17437,141;24,65925
 494,99; 4444,953;   84,866;17518,842;25,00914
 495,58; 4471,875;   84,284;17554,650;25,11448
 496,17; 4493,855;   72,370;17509,719;25,35641
 496,76; 4556,966;   93,469;17612,945;25,47734
 497,34; 4604,747;   64,574;17624,666;25,85506
 497,93; 4643,203;   65,474;17590,080;26,12172
 498,52; 4665,262;   75,281;17695,846;26,04900
 499,10; 4710,312;   93,088;17745,086;26,15694
 499,69; 4714,052;   72,282;17776,318;26,21871
 500,28; 4711,273;   45,880;17695,674;26,43313
 500,86; 4767,677;   78,487;17817,127;26,43489
 501,45; 4738,077;   62,587;17787,127;26,37863
 502,04; 4777,467;   74,588;17819,199;26,50314
 502,62; 4809,556;   80,870;17980,617;26,41761
 503,21; 4771,045;   73,771;17892,291;26,36175
 503,80; 4827,656;   80,889;18049,971;26,41630
 504,38; 4800,841;   66,782;18081,592;26,27870
 504,97; 4740,856;   63,789;18149,771;25,86018
 505,56; 4774,539;   86,979;18184,016;25,90236
 506,14; 4703,682;   78,294;18216,379;25,50097
 506,73; 4663,005;   38,396;18106,211;25,59584
 507,32; 4697,084;   77,098;18168,154;25,53740
 507,90; 4642,686;   84,283;18161,578;25,21618
 508,49; 4588,250;   59,197;18255,996;24,88928
 509,08; 4611,647;   77,493;18383,420;24,76878
 509,66; 4544,430;   85,583;18346,564;24,41735
 510,25; 4538,298;   68,886;18430,381;24,34122
 510,83; 4547,705;   75,296;18536,609;24,22584
 511,42; 4498,612;   72,807;18572,838;23,92323
 512,01; 4476,071;   60,695;18642,652;23,76163
 512,59; 4489,356;   62,589;18756,072;23,68080
 513,18; 4482,433;   74,787;18718,840;23,64103
 513,77; 4461,668;   53,173;18818,521;23,49275
 514,35; 4443,490;   48,290;18820,730;23,41305
 514,94; 4496,812;   84,088;18969,385;23,36592
 515,52; 4536,407;   53,000;18990,287;23,67502
 516,11; 4567,360;   92,196;19062,123;23,59084
 516,69; 4574,118;   51,880;18975,660;23,89711
 517,28; 4590,226;  102,676;18976,813;23,77619
 517,87; 4639,236;   69,975;18977,738;24,16606
 518,45; 4704,815;   66,277;19035,684;24,45273
 519,04; 4749,849;   60,478;19057,742;24,68446
 519,62; 4775,835;   53,390;19135,617;24,74787
 520,21; 4830,052;   41,900;19184,572;25,01298
 520,79; 4971,733;   57,406;19303,594;25,53403
 521,38; 5009,020;   58,784;19330,137;25,68702
 521,97; 5179,867;   54,407;19542,053;26,30107
 522,55; 5225,494;   65,078;19568,729;26,45872
 523,14; 5263,539;   34,679;19635,314;26,67699
 523,72; 5400,165;   79,184;19741,822;27,06137
 524,31; 5491,905;   73,996;19769,811;27,50792
 524,89; 5556,488;   55,805;20040,607;27,52433
 525,48; 5626,686;   53,902;20077,531;27,83104
 526,06; 5716,771;   75,395;20128,451;28,13225
 526,65; 5822,982;   73,913;20367,232;28,32986
 527,23; 5830,845;   49,890;20330,645;28,50464
 527,82; 5997,010;   51,304;20600,063;28,93462
 528,41; 6087,441;   68,401;20707,045;29,16393
 528,99; 6189,450;   59,097;20783,096;29,58094
 529,58; 6267,401;   47,789;20840,559;29,91238
 530,16; 6358,033;   56,887;21053,141;30,01081
 530,75; 6511,426;   76,995;21260,465;30,37478
 531,33; 6590,286;   49,602;21294,031;30,78776
 531,92; 6691,730;   56,183;21466,564;30,99220
 532,50; 6878,803;  104,412;21786,588;31,24406
 533,09; 6976,029;   83,598;21850,541;31,66467
 533,67; 7057,104;   78,678;22009,957;31,81952
 534,26; 7181,296;   70,982;22162,506;32,18571
 534,84; 7344,943;   66,086;22364,168;32,64342
 535,42; 7445,426;   63,895;22625,564;32,71713
 536,01; 7566,835;   83,690;22830,316;32,89782
 536,59; 7749,852;   54,600;22982,172;33,56331
 537,18; 7855,952;   80,682;23112,119;33,75938
 537,76; 8008,129;   66,517;23531,195;33,84496
 538,35; 8159,522;   75,907;23692,867;34,22801
 538,93; 8264,471;   89,595;23721,951;34,59188
 539,52; 8394,282;   70,313;24095,432;34,64694
 540,10; 8574,425;   75,810;24403,342;34,93414
 540,69; 8658,703;   91,093;24507,135;35,09009
 541,27; 8725,911;   82,888;24822,186;34,93641
 541,85; 8940,563;   59,400;25106,500;35,45785
 542,44; 9052,086;   67,483;25112,178;35,87428
 543,02; 9219,925;   92,310;25576,242;35,81714
 543,61; 9328,765;   96,503;25801,377;35,91638
 544,19; 9468,418;   68,999;26045,113;36,18485
 544,78; 9536,196;   69,301;26190,260;36,24253
 545,36; 9641,936;  100,009;26530,770;36,10160
 545,94; 9805,927;   66,795;26660,564;36,62186
 546,53; 9888,840;   73,917;26816,822;36,70104
 547,11;10023,057;  105,408;27133,426;36,69396
 547,70;10074,252;   93,082;27194,020;36,82961
 548,28;10156,050;   45,797;27442,697;36,90291
 548,86;10344,250;   87,897;27794,797;37,01732
 549,45;10392,067;   46,507;27921,453;37,11419
 550,03;10494,055;   76,004;28138,549;37,12440
 550,62;10602,707;   70,000;28556,387;36,97453
 551,20;10708,165;   79,903;28837,176;36,95852
 551,78;10773,737;   71,094;28870,492;37,16273
 552,37;10940,826;   58,995;29194,064;37,34960
 552,95;10977,261;   59,696;29443,123;37,15552
 553,54;11156,505;   55,296;29695,211;37,45358
 554,12;11192,499;   74,404;29911,135;37,26311
 554,70;11416,557;   90,408;30498,525;37,24712
 555,29;11411,439;   74,598;30497,770;37,26384
 555,87;11537,993;   61,613;30831,760;37,29713
 556,45;11624,467;   62,488;31186,799;37,14774
 557,04;11794,376;   58,902;31462,805;37,36948
 557,62;11872,775;   63,202;31739,805;37,28169
 558,20;12007,584;   48,717;32057,809;37,36084
 558,79;12151,233;  104,406;32384,094;37,32015
 559,37;12187,665;   53,403;32421,775;37,48802
 559,95;12404,046;   58,009;32974,496;37,50715
 560,54;12356,412;   76,907;33105,141;37,17881
 561,12;12542,497;   61,901;33310,559;37,53714
 561,70;12716,591;   57,109;33693,484;37,63628
 562,29;12808,522;   74,007;34096,867;37,42929
 562,87;12957,567;   81,807;34555,254;37,34979
 563,45;13117,067;   82,507;34828,051;37,51434
 564,04;13186,545;   58,590;34728,145;37,86595
 564,62;13240,501;   63,108;35171,711;37,53323
 565,20;13394,478;   62,387;35393,527;37,73467
 565,78;13587,595;   81,397;35845,984;37,76416
 566,37;13675,263;   67,400;36021,801;37,84756
 566,95;13693,925;   73,010;36297,043;37,60187
 567,53;13890,667;   77,488;36631,398;37,78851
 568,12;13943,649;   61,697;36731,496;37,85664
 568,70;14160,716;   88,396;37224,637;37,89377
 569,28;14244,690;   72,909;37518,684;37,84614
 569,86;14290,320;   69,103;37728,289;37,76294
 570,45;14447,869;   75,011;38155,730;37,74314
 571,03;14549,521;   53,588;38139,211;38,06143
 571,61;14684,271;   57,514;38657,105;37,89355
 572,19;14696,579;   59,991;38611,504;37,96631
 572,78;14867,033;   75,906;39057,594;37,94378
 573,36;15046,826;   86,495;39295,066;38,15577
 573,94;15078,437;   61,294;39533,691;38,04467
 574,52;15203,473;   76,080;39699,473;38,17793
 575,11;15218,048;   48,093;39929,320;38,03783
 575,69;15392,386;   64,102;40206,430;38,18484
 576,27;15374,009;   59,785;40348,609;38,01110
 576,85;15474,727;   40,795;40698,863;37,96032
 577,44;15521,467;   48,888;40863,898;37,90904
 578,02;15591,862;   49,881;40926,648;38,02155
 578,60;15779,893;   62,994;41257,508;38,15289
 579,18;15820,813;   62,292;41632,262;37,90843
 579,76;15892,971;   50,795;41594,051;38,13417
 580,35;16070,759;   68,111;41928,703;38,22843
 580,93;16246,844;   76,905;42284,422;38,31057
 581,51;16207,503;   37,412;42435,488;38,13874
 582,09;16326,390;   66,590;42631,930;38,19962
 582,67;16499,365;   72,803;42942,875;38,31709
 583,26;16572,711;   35,007;43231,340;38,28497
 583,84;16703,982;   39,694;43499,578;38,34407
 584,42;16826,416;   68,796;43810,539;38,31036
 585,00;17021,686;   81,602;44189,230;38,40624
 585,58;17084,775;   37,302;44473,902;38,36359
 586,17;17111,965;   64,784;44458,621;38,39988
 586,75;17091,951;   19,300;44482,672;38,39711
 587,33;17296,910;   63,604;44897,063;38,43849
 587,91;17312,252;   91,000;45095,574;38,26556
 588,49;17433,768;   80,188;45246,199;38,42177
 589,07;17492,588;   60,505;45233,109;38,58994
 589,65;17408,730;   46,902;45181,918;38,46643
 590,24;17483,822;   58,588;45293,613;38,52155
 590,82;17509,344;   35,086;45274,168;38,62646
 591,40;17478,482;   58,994;45434,578;38,38956
 591,98;17468,117;   54,580;45384,961;38,41472
 592,56;17608,543;   72,486;45642,168;38,48185
 593,14;17454,117;   45,880;45612,262;38,20412
 593,72;17644,205;   50,996;45797,711;38,45786
 594,30;17507,563;   52,581;45818,848;38,13940
 594,89;17566,871;   57,095;45617,051;38,43238
 595,47;17617,564;   52,484;45796,723;38,39845
 596,05;17632,975;   39,602;45930,805;38,33713
 596,63;17688,775;   54,302;46063,105;38,32848
 597,21;17676,307;   55,000;46049,988;38,31136
 597,79;17647,631;   45,002;46159,816;38,17131
 598,37;17723,715;   52,411;46221,414;38,27526
 598,95;17639,053;   53,800;46273,074;38,04744
 599,53;17537,168;   46,873;46082,320;37,99310
 600,11;17600,160;   57,096;46384,324;37,86772
 600,70;17534,459;   80,192;46052,746;37,96671
 601,28;17609,582;   45,494;46162,879;38,08561
 601,86;17537,752;   68,300;46300,273;37,78652
 602,44;17470,344;   36,486;46388,270;37,61205
 603,02;17490,111;   39,570;46382,832;37,65497
 603,60;17584,070;   66,176;46730,398;37,54031
 604,18;17489,625;   66,491;46584,891;37,45428
 604,76;17478,391;   58,790;46600,031;37,42831
 605,34;17327,674;   36,599;46312,227;37,36540
 605,92;17276,889;   62,486;46220,855;37,29422
 606,50;17205,922;   37,188;46309,914;37,10336
 607,08;17056,586;   43,702;46046,633;36,98217
 607,66;17051,508;   41,000;46295,488;36,77591
 608,24;16774,221;   48,503;46338,488;36,13248
 608,82;16790,648;   33,993;46369,520;36,16373
 609,40;16550,641;   64,001;46126,047;35,79224
 609,98;16420,070;   35,095;46236,750;35,46404
 610,56;16197,120;   52,784;46044,535;35,10268
 611,14;16052,539;   49,098;46042,070;34,79541
 611,72;15785,350;   64,597;46143,598;34,11696
 612,30;15543,846;   41,690;46084,242;33,66919
 612,88;15406,694;   71,478;46250,930;33,20788
 613,46;15119,322;   42,588;46000,414;32,80559
 614,04;15024,456;   50,408;46040,227;32,55949
 614,62;14800,810;   51,785;45729,809;32,28910
 615,20;14683,588;   57,905;45750,707;32,00872
 615,78;14570,425;   32,910;45702,141;31,83219
 616,36;14520,137;   47,494;45707,492;31,69655
 616,94;14414,508;   26,000;45666,988;31,52541
 617,52;14421,743;   34,005;45546,723;31,61257
 618,10;14553,428;   72,180;45702,289;31,73617
 618,68;14636,763;   25,800;45447,398;32,16743
 619,26;14731,078;   44,406;45536,379;32,28410
 619,84;14677,024;   40,491;45161,188;32,43862
 620,42;14833,705;   40,896;45357,211;32,64345
 621,00;14851,005;   39,096;45365,609;32,67824
 621,58;14887,752;   39,482;45249,020;32,84323
 622,16;15013,927;   57,014;45337,918;33,03139
 622,74;15039,707;   57,600;45236,785;33,16153
 623,32;14966,418;   44,799;45204,113;33,04217
 623,90;15009,116;   79,315;45023,992;33,21817
 624,48;14901,722;   43,688;44883,313;33,13595
 625,05;14921,322;   40,088;45065,711;33,05059
 625,63;14845,521;   57,388;45042,613;32,87331
 626,21;14744,646;   48,190;44855,445;32,79928
 626,79;14729,765;   74,903;45051,477;32,58332
 627,37;14630,911;   43,088;44755,484;32,62590
 627,95;14626,488;   71,305;44796,508;32,54358
 628,53;14494,705;   57,896;44747,512;32,30462
 629,11;14331,384;   49,879;44640,102;32,02833
 629,69;14396,801;   52,108;44879,012;32,00019
 630,27;14336,324;   84,091;44600,891;32,01540
 630,84;14319,922;   54,488;44537,711;32,06925
 631,42;14265,844;   61,005;44855,422;31,71118
 632,00;14218,973;   45,980;44578,773;31,82597
 632,58;14281,903;   61,493;44575,133;31,94619
 633,16;14298,183;   59,113;44579,633;31,98316
 633,74;14211,916;   66,096;44446,836;31,87378
 634,32;14155,954;   57,385;44291,395;31,87269
 634,90;14240,537;   61,113;44901,246;31,62217
 635,47;14055,431;   38,283;44333,266;31,64500
 636,05;14006,854;   42,085;44188,996;31,63249
 636,63;14022,905;   54,696;44344,809;31,53798
 637,21;13934,271;   62,095;44528,051;31,19730
 637,79;13998,229;   70,898;44448,043;31,38402
 638,37;13786,432;   64,468;44258,387;31,04944
 638,94;13645,039;   47,098;44318,270;30,71512
 639,52;13567,839;   42,198;44423,570;30,47594
 640,10;13468,871;   72,894;44524,383;30,13617
 640,68;13359,961;   57,694;44555,723;29,89406
 641,26;13286,052;   33,794;44602,766;29,73427
 641,84;13180,142;   54,794;44264,703;29,68870
 642,41;13026,731;   33,394;44386,445;29,29525
 642,99;13097,621;   61,194;44412,684;29,39344
 643,57;12996,512;   27,195;44380,227;29,24111
 644,15;12873,201;   34,095;44424,863;28,92292
 644,73;13000,191;   51,095;44794,105;28,94105
 645,30;12979,981;   69,595;44532,445;29,03634
 645,88;13039,871;   53,895;44571,184;29,17064
 646,46;13155,762;   57,295;44724,324;29,32469
 647,04;13151,151;   47,895;44548,164;29,44534
 647,61;13292,741;   45,795;44756,004;29,62846
 648,19;13413,731;   69,795;44812,445;29,82375
 648,77;13395,821;   32,095;44807,887;29,84587
 649,35;13497,812;   61,995;44879,125;29,97920
 649,92;13616,801;   52,995;44855,965;30,27434
 650,50;13688,691;   31,796;44722,105;30,55896
 651,08;13696,182;   47,596;44624,445;30,61810
 651,66;13734,871;   27,196;44888,984;30,55535
 652,23;13794,562;   56,496;44823,027;30,68825
 652,81;13769,651;   45,996;45074,367;30,47780
 653,39;13780,441;   69,596;45120,406;30,43418
 653,97;13851,131;   33,196;45228,348;30,57393
 654,54;13654,621;   37,096;45073,086;30,23698
 655,12;13697,411;   30,696;45271,324;30,20894
 655,70;13730,102;   49,196;45327,367;30,21523
 656,28;13583,591;   45,596;45491,605;29,78918
 656,85;13502,781;   44,896;45428,547;29,65360
 657,43;13351,371;   17,297;45216,785;29,50050
 658,01;13414,361;   21,797;45644,426;29,35509
 658,58;13424,451;   70,597;45949,367;29,10683
 659,16;13363,841;   57,397;45552,508;29,24807
 659,74;13338,731;   78,497;45746,246;29,03632
 660,32;13362,521;   79,297;45955,586;28,95444
 660,89;13290,911;   37,497;45904,125;28,89555
 661,47;13376,901;   53,597;46094,566;28,93793
 662,05;13496,791;   35,997;46285,605;29,10467
 662,62;13672,681;   73,597;46643,047;29,20173
 663,20;13749,771;   94,697;46661,586;29,32357
 663,78;13869,761;   67,397;46944,527;29,44370
 664,35;14064,351;   51,597;47161,066;29,74509
 664,93;14144,641;   64,698;47390,008;29,75140
 665,51;14252,931;   54,798;47523,445;29,91055
 666,08;14349,721;   52,598;47587,188;30,07730
 666,66;14569,411;   54,898;48219,926;30,13496
 667,23;14695,301;   73,498;48259,168;30,34471
 667,81;14869,991;   67,298;48827,809;30,35795
 668,39;14863,881;   53,798;48982,547;30,26867
 668,96;15065,171;   64,898;49249,488;30,49791
 669,54;15109,861;   52,398;49565,027;30,41136
 670,12;15203,451;   62,098;50043,266;30,29412
 670,69;15247,041;   72,198;50587,309;30,04020
 671,27;15208,831;   42,698;50804,949;29,87679
 671,84;15128,921;   52,699;50686,289;29,77514
 672,42;15199,511;   77,899;51094,227;29,64073
 673,00;15135,701;   61,099;51364,270;29,38337
 673,57;14947,991;   73,699;51056,109;29,17534
 674,15;15036,581;   76,499;51454,246;29,11782
 674,72;14913,971;   64,499;51271,988;28,99863
 675,30;14844,761;   68,499;51194,930;28,90141
 675,88;14783,351;   47,299;51369,867;28,71262
 676,45;14815,541;   68,799;51601,406;28,61633
 677,03;14878,531;   70,999;51397,750;28,84954
 677,60;14858,820;   36,999;51440,387;28,83433
 678,18;15063,811;   63,399;51741,328;29,02673
 678,76;15095,101;   39,800;51655,566;29,16803
 679,33;15289,591;   60,000;51613,008;29,54162
 679,91;15360,480;   48,100;51616,250;29,69348
 680,48;15498,271;   49,900;51590,789;29,97304
 681,06;15691,360;   53,900;51551,828;30,36522
 681,63;15828,451;   48,800;51360,969;30,75226
 682,21;16010,141;   75,100;51466,910;31,00697
 682,78;15906,131;   22,700;50943,648;31,19233
 683,36;16065,320;   54,300;51124,789;31,35083
 683,93;16214,311;   48,100;50885,328;31,79994
 684,51;16250,301;   45,600;50889,270;31,87162
 685,08;16376,591;   50,900;51123,410;31,96571
 685,66;16489,480;   59,001;51258,648;32,09100
 686,24;16602,771;   45,801;51266,789;32,32458
 686,81;16606,861;   58,201;51376,027;32,24739
 687,39;16399,150;   46,201;51314,770;31,89664
 687,96;16628,941;   54,201;51515,711;32,20803
 688,54;16601,430;   25,401;51650,148;32,10869
 689,11;16595,320;   31,501;51776,789;32,01029
 689,69;16497,611;   41,901;51664,027;31,87724
 690,26;16577,801;   60,901;52121,570;31,72625
 690,84;16491,691;   57,601;51906,211;31,69630
 691,41;16496,080;   51,001;52199,750;31,53494
 691,98;16538,971;   40,201;52310,590;31,56428
 692,56;16345,761;   37,101;52299,531;31,20532
 693,13;16480,150;   66,302;52835,871;31,10476
 693,71;16467,840;   35,502;52870,508;31,10123
 694,28;16465,930;   34,302;52895,852;31,08427
 694,86;16603,920;   51,802;53283,488;31,09448
 695,43;16609,111;   69,202;53173,031;31,14636
 696,01;16846,701;   54,302;53738,871;31,27975
 696,58;16915,291;   45,002;53627,512;31,48469
 697,16;17100,580;   49,502;53758,352;31,74724
 697,73;17400,971;   80,802;54265,191;31,96524
 698,30;17352,561;   52,702;53928,930;32,11037
 698,88;17640,951;   45,602;54095,770;32,55374
 699,45;17819,840;   40,902;54204,309;32,82463
 700,03;17998,330;   58,803;54551,648;32,92089
 700,60;18106,121;   69,203;54563,492;33,09873
 701,18;18342,010;   73,403;54806,930;33,37736
 701,75;18559,301;   75,303;55150,672;33,56128
 702,32;18640,891;   47,703;54894,012;33,90053
 702,90;18993,080;   54,703;55278,152;34,29409
 703,47;19094,170;   64,703;55434,191;34,36815
 704,05;19276,160;   82,503;55625,531;34,55637
 704,62;19268,750;   40,303;55573,270;34,62528
 705,19;19435,939;   48,703;55701,609;34,83598
 705,77;19422,031;   30,503;55980,852;34,65846
 706,34;19529,520;   65,903;55939,090;34,83534
 706,91;19596,109;   51,604;56105,730;34,86720
 707,49;19661,400;   64,904;56452,871;34,75298
 708,06;19719,391;   81,504;56656,609;34,71118
 708,64;19786,779;   41,804;56518,352;34,96137
 709,21;19896,270;   66,604;56773,191;34,96889
 709,78;19836,061;   54,904;56750,332;34,89021
 710,36;19943,551;   68,504;57047,770;34,88119
 710,93;20047,041;   69,704;57101,910;35,02817
 711,50;20103,029;   53,104;57382,551;34,97317
 712,08;20398,020;   64,704;57739,492;35,25512
 712,65;20381,811;   77,104;57507,930;35,35507
 713,22;20519,699;   88,404;57647,773;35,49604
 713,80;20582,189;   89,904;57985,113;35,39548
 714,37;20618,080;   62,705;57654,953;35,69122
 714,94;20628,971;   67,705;57721,691;35,66322
 715,52;20746,961;   58,905;57599,434;35,95389
 716,09;20950,850;   63,205;57731,973;36,22003
 716,66;21028,740;   74,205;57502,613;36,48810
 717,23;21052,830;   72,805;57685,254;36,41578
 717,81;21149,020;   58,805;57459,191;36,74229
 718,38;21256,410;   51,605;57252,332;37,07087
 718,95;21228,801;   70,805;57242,070;37,00809
 719,53;21302,090;   58,505;57111,012;37,23515
 720,10;21297,381;   78,805;56880,754;37,35537
 720,67;21158,570;   49,405;56701,691;37,26092
 721,24;21175,461;   68,006;56407,832;37,46454
 721,82;21187,551;   65,506;56337,973;37,53531
 722,39;21347,641;   63,006;56449,414;37,74781
 722,96;21381,230;   79,706;56495,953;37,75778
 723,53;21307,920;   87,306;56453,094;37,64804
 724,11;21359,811;   67,806;56521,234;37,71605
 724,68;21377,000;   69,806;56581,574;37,70399
 725,25;21301,391;   74,206;56729,711;37,46712
 725,82;21526,381;   99,706;57170,152;37,54426
 726,40;21482,570;   62,206;57214,395;37,47952
 726,97;21542,359;   67,806;57301,234;37,52100
 727,54;21701,051;   62,706;57229,973;37,85093
 728,11;21856,240;   53,607;57361,813;38,04452
 728,69;21790,730;   49,507;57573,352;37,79515
 729,26;21891,619;   58,707;57865,293;37,76890
 729,83;22013,609;   53,707;58108,832;37,82595
 730,40;22218,400;   58,407;58192,074;38,11904
 730,97;22379,590;   47,007;58596,813;38,14288
 731,55;22640,580;   47,407;58769,953;38,47444
 732,12;22777,369;  100,907;58623,992;38,74789
 732,69;22731,561;   71,407;58612,434;38,70816
 733,26;22897,650;   53,407;58592,074;39,02419
 733,83;23193,939;   50,907;58912,113;39,31797
 734,41;23365,230;   74,707;59208,754;39,38598
 734,98;23477,619;   62,607;59257,492;39,55580
 735,55;23686,410;   55,908;59487,133;39,76109
 736,12;23885,699;   72,208;59456,172;40,10088
 736,69;24088,990;   90,408;59613,313;40,31823
 737,26;24277,279;   68,108;59770,754;40,54958
 737,84;24376,270;   62,508;59579,195;40,85201
 738,41;24414,660;   59,908;59723,734;40,81996
 738,98;24464,949;   70,608;59579,676;40,99265
 739,55;24472,439;   62,008;59464,215;41,09348
 740,12;24756,029;   79,008;59831,754;41,29856
 740,69;24806,320;   71,408;59967,594;41,29631
 741,26;24766,109;   69,108;59921,535;41,26316
 741,83;24765,600;   69,208;59843,773;41,31589
 742,41;24855,289;   74,309;60309,313;41,14050
 742,98;24934,080;  103,909;60395,656;41,18337
 743,55;24970,670;   69,509;60240,496;41,38400
 744,12;24905,359;   57,709;60022,535;41,43704
 744,69;24815,449;   75,109;60194,574;41,15196
 745,26;24799,141;   46,009;59896,914;41,35799
 745,83;24852,129;   62,409;60193,254;41,22630
 746,40;24825,320;   64,009;60053,293;41,27622
 746,97;24752,510;   47,509;59961,535;41,23409
 747,55;24803,500;   72,209;60003,477;41,26609
 748,12;24860,490;   64,409;60031,316;41,34961
 748,69;24750,580;   64,109;60045,355;41,15698
 749,26;24775,969;   68,610;60145,594;41,12616
 749,83;24730,561;   62,210;60013,035;41,14764
 750,40;24813,949;  103,510;59932,074;41,30208
 750,97;24809,939;  103,510;60095,516;41,18287
 751,54;24792,830;   43,310;59869,254;41,36921
 752,11;24799,020;   67,510;59894,594;41,33832
 752,68;24915,709;  102,510;59665,434;41,65880
 753,25;24925,000;   71,610;59511,777;41,81245
 753,82;25038,789;   72,910;59701,414;41,86903
 754,39;25054,379;   76,010;59739,355;41,86552
 754,96;25052,270;   72,910;59250,297;42,21099
 755,53;25078,359;   52,210;59510,137;42,09052
 756,10;25280,549;   70,911;59313,574;42,55318
 756,67;25308,039;   81,611;59430,316;42,50544
 757,24;25210,229;   82,211;59289,656;42,44064
 757,81;25225,820;   43,711;59342,195;42,46670
 758,38;25282,809;   60,311;59341,734;42,54705
 758,95;25362,799;   84,911;59414,574;42,60582
 759,52;25202,189;   59,511;58757,516;42,83396
 760,09;25102,680;   70,811;58642,957;42,73681
 760,66;25018,969;   68,611;58366,598;42,79797
 761,23;25107,559;   85,611;58358,438;42,93931
 761,80;24981,049;   74,811;58348,176;42,74035
 762,37;24945,139;   87,411;58400,617;42,62796
 762,94;25019,729;   84,011;58434,258;42,73455
 763,51;24908,219;   59,112;58202,297;42,73778
 764,08;24913,010;   68,712;58167,637;42,76206
 764,65;24786,898;   87,212;57945,176;42,69021
 765,22;24875,289;   59,812;57632,418;43,10293
 765,79;24724,580;   79,712;57326,059;43,05055
 766,36;24642,068;   80,612;57346,598;42,89013
 766,93;24743,059;   65,712;57506,738;42,96119
 767,50;24513,350;   77,912;57339,375;42,67344
 768,07;24648,539;   77,312;57431,219;42,84142
 768,64;24668,229;   91,312;57245,355;43,00119
 769,21;24386,318;   64,112;56750,797;42,90638
 769,78;24355,309;   78,412;56606,938;42,94628
 770,34;24241,000;   44,213;56182,477;43,10213
 770,91;24340,590;   63,513;56215,117;43,23488
 771,48;24303,080;   69,513;55998,656;43,32905
 772,05;24308,969;   79,213;55701,898;43,56092
 772,62;24120,359;   51,913;55274,836;43,58416
 773,19;24118,750;   66,313;55428,477;43,44562
 773,76;24090,439;   78,913;55294,016;43,48724
 774,33;24047,930;   75,413;55158,156;43,52092
 774,90;23972,818;   60,413;54598,199;43,84557
 775,47;23945,109;   70,013;54692,637;43,70917
 776,03;23933,000;   77,913;54517,977;43,81899
 776,60;23915,789;   63,713;54224,719;44,03920
 777,17;23853,779;   66,414;54057,457;44,05798
 777,74;23657,770;   41,514;53490,098;44,18500
 778,31;23726,559;   71,414;53612,637;44,18118
 778,88;23595,648;   44,614;53275,879;44,24286
 779,45;23492,939;   91,914;53168,418;44,08924
 780,01;23483,629;   80,414;53129,656;44,11602
 780,58;23345,420;   75,314;52949,398;44,01042
 781,15;23242,809;   60,014;52661,438;44,07256
 781,72;23160,500;   74,014;52554,078;43,99096
 782,29;22953,389;   69,114;52079,219;43,99967
 782,86;22819,879;   75,114;51771,258;43,99702
 783,42;22728,670;   70,814;51617,297;43,95616
 783,99;22639,059;   66,514;51666,738;43,74505
 784,56;22567,148;   75,815;51183,078;44,00810
 785,13;22456,238;   65,615;51106,617;43,86792
 785,70;22297,629;   63,815;50902,359;43,73417
 786,26;22268,119;   80,715;50828,699;43,72076
 786,83;22152,709;   81,915;50547,141;43,73466
 787,40;22054,898;   71,915;50338,180;43,73308
 787,97;21985,189;   50,915;50082,520;43,84084
 788,54;21970,680;   76,715;50067,559;43,79595
 789,10;21776,668;   70,915;49707,098;43,72970
 789,67;21690,658;   88,815;49374,039;43,83026
 790,24;21498,049;   67,215;49515,980;43,33947
 790,81;21396,738;   85,715;48790,621;43,75539
 791,37;21345,328;   89,816;48703,758;43,72308
 791,94;21403,719;   77,416;48731,301;43,83268
 792,51;21226,510;   55,216;48281,039;43,90033
 793,08;21365,699;   78,116;48263,180;44,17880
 793,64;21269,689;   70,516;47992,719;44,23664
 794,21;21153,979;   91,216;47794,559;44,15364
 794,78;20947,168;   67,216;47492,598;44,02696
 795,35;20831,559;   74,916;47095,641;44,14360
 795,91;20672,748;   58,816;46888,879;44,01859
 796,48;20663,738;   76,616;46538,621;44,30959
 797,05;20525,029;   66,716;46539,961;44,02170
 797,62;20553,619;   57,616;46365,500;44,26029
 798,18;20319,508;   65,717;46022,840;44,07106
 798,75;20205,600;   60,917;45731,480;44,10868
 799,32;20124,988;   71,517;45653,219;43,99457
 799,88;19962,279;   71,317;45503,160;43,78198
 800,45;19763,568;   43,617;45090,801;43,77621
 801,02;19762,158;   70,617;45058,039;43,77122
 801,58;19525,248;  103,217;44902,180;43,35375
 802,15;19470,639;   78,917;44603,820;43,55253
 802,72;19210,029;   86,717;44283,559;43,26850
 803,28;19087,418;   62,217;44124,699;43,17778
 803,85;18945,309;   51,017;43840,340;43,14817
 804,42;18854,998;   86,817;43684,180;43,04889
 804,98;18869,389;  110,518;43623,922;43,11056
 805,55;18646,678;   63,118;43303,762;42,97707
 806,12;18594,568;  101,318;43094,000;43,01488
 806,68;18402,959;   75,418;42643,539;43,05462
 807,25;18395,248;  100,118;42538,480;43,10989
 807,82;18205,139;   94,218;42414,621;42,79477
 808,38;18113,729;   78,818;42374,461;42,64011
 808,95;18120,219;   71,618;42215,199;42,82645
 809,52;18057,209;   67,418;42170,340;42,72813
 810,08;17994,898;   78,418;42035,480;42,70194
 810,65;18009,689;   70,318;42062,520;42,72072
 811,21;18060,578;   81,418;42152,461;42,73524
 811,78;18176,869;  103,518;42171,902;42,96184
 812,35;18039,758;   77,619;41843,543;43,00668
 812,91;18069,449;   96,919;42028,383;42,86168
 813,48;18096,139;   73,519;41847,520;43,14315
 814,04;17995,229;   84,319;41782,961;42,95322
 814,61;17948,418;   86,119;41608,602;43,01838
 815,18;17819,908;   80,719;41371,543;42,96158
 815,74;17816,299;   85,619;41303,980;43,01646
 816,31;17799,488;   87,719;40917,621;43,37941
 816,87;17554,479;   48,519;40470,363;43,30817
 817,44;17428,768;   89,319;40395,402;43,01943
 818,00;17314,658;   56,519;40200,641;42,99045
 818,57;17233,949;   93,519;39997,082;42,95464
 819,14;17332,639;   97,720;39811,922;43,39737
 819,70;17185,928;   88,420;39535,660;43,34272
 820,27;16997,619;   77,320;39377,602;43,05389
 820,83;16889,508;   77,020;39086,941;43,09798
 821,40;16686,598;  107,520;38849,980;42,79304
 821,96;16727,188;   81,620;38601,422;43,21301
 822,53;16582,578;   83,020;38411,762;43,04748
 823,09;16378,168;  109,920;38424,301;42,45990
 823,66;16281,158;   88,420;38045,141;42,66106
 824,22;16255,049;   85,720;37912,484;42,74574
 824,79;16033,838;   84,920;37523,723;42,59997
 825,35;16042,328;   93,320;37602,664;42,52009
 825,92;15895,219;   80,021;37253,602;42,54419
 826,48;15884,309;  107,521;37167,043;42,57148
 827,05;15695,898;   99,421;36937,082;42,33840
 827,61;15581,788;   84,421;36644,523;42,38874
 828,18;15515,578;   74,121;36543,762;42,34058
 828,74;15566,868;   88,421;36346,004;42,69023
 829,31;15487,658;   99,621;36305,645;42,50132
 829,87;15408,849;   85,121;36173,883;42,46122
 830,44;15381,438;   91,621;36054,922;42,51506
 831,00;15289,229;   97,221;35964,465;42,35622
 831,57;15317,318;  113,021;35736,305;42,68079
 832,13;15122,208;   81,521;35201,441;42,82665
 832,69;15139,498;   81,021;35253,785;42,81289
 833,26;15082,188;   92,922;35075,125;42,84826
 833,82;15043,878;  103,122;34779,063;43,08681
 834,39;14871,468;   82,922;34662,203;42,76707
 834,95;14851,059;   75,222;34586,445;42,81458
 835,52;14811,849;  114,822;34573,582;42,65106
 836,08;14764,138;  102,222;34467,223;42,66526
 836,64;14703,128;   88,722;34415,863;42,57391
 837,21;14572,418;  100,422;34108,805;42,55420
 837,77;14587,408;   87,922;33973,742;42,78924
 838,34;14510,898;   80,322;33883,184;42,69040
 838,90;14438,088;   74,022;33688,023;42,73239
 839,46;14420,078;  102,722;33660,965;42,66420
 840,03;14369,968;   89,823;33589,305;42,62796
 840,59;14281,358;   98,623;33224,945;42,81410
 841,16;14176,148;  115,023;33197,586;42,50313
 841,72;13946,938;   60,623;32782,023;42,43802
 842,28;13899,628;   88,023;33006,664;41,95679
 842,85;13825,618;  111,223;32981,305;41,72303
 843,41;13786,308;  115,623;32759,645;41,87807
 843,97;13823,298;  101,523;32628,484;42,18585
 844,54;13699,088;  103,923;32606,424;41,82806
 845,10;13575,278;  101,623;32435,264;41,67070
 845,67;13594,968;   84,723;32257,805;41,99239
 846,23;13518,458;   89,623;32027,045;42,04733
 846,79;13483,448;   95,524;31792,686;42,23698
 847,36;13406,638;   74,924;31579,225;42,31712
 847,92;13331,428;   98,924;31430,064;42,23435
 848,48;13275,618;   52,124;31495,006;42,05561
 849,04;13210,508;   76,124;31293,445;42,07403
 849,61;13186,298;   69,624;31314,285;41,98053
 850,17;13210,888;   75,324;31291,824;42,07891
 850,73;13176,278;   79,824;31295,666;41,95451
 851,30;13123,868;   67,024;31085,805;42,09335
 851,86;12986,357;   82,024;30886,045;41,89172
 852,42;13061,248;   68,124;30971,785;42,04396
 852,99;12960,538;   94,224;30848,025;41,83650
 853,55;12964,428;  105,124;30691,564;42,04250
 854,11;12914,018;   74,425;30375,906;42,37282
 854,67;12906,008;   95,225;30426,945;42,23560
 855,24;12794,698;   67,225;30329,586;42,05711
 855,80;12716,288;   89,225;30332,326;41,75188
 856,36;12714,078;   86,525;30215,365;41,91185
 856,92;12529,368;   62,925;30050,506;41,57202
 857,49;12532,558;   83,025;29960,646;41,66842
 858,05;12422,748;   79,825;29911,785;41,37483
 858,61;12449,938;   66,325;29929,727;41,46752
 859,17;12331,228;   89,325;29718,566;41,31696
 859,74;12288,218;   83,025;29678,205;41,24047
 860,30;12283,607;  113,925;29483,246;41,43672
 860,86;12193,498;   68,026;29312,586;41,46232
 861,42;12123,487;   86,626;29074,326;41,52403
 861,99;12059,178;   63,326;29042,166;41,39521
 862,55;11949,468;   75,226;28893,006;41,20457
 863,11;12017,058;   91,926;29061,646;41,16412
 863,67;11888,748;   76,826;28852,586;41,04817
 864,23;11889,737;   90,526;28750,727;41,16933
 864,80;11816,527;   70,326;28544,666;41,25188
 865,36;11806,117;   65,426;28649,607;41,07409
 865,92;11753,008;  100,126;28461,146;41,08767
 866,48;11633,998;   89,526;28425,188;40,74185
 867,04;11627,987;   67,426;28159,627;41,15221
 867,60;11668,678;   91,327;28118,768;41,30720
 868,17;11576,168;  104,427;27939,207;41,21369
 868,73;11398,458;   82,127;27621,646;41,09124
 869,29;11347,548;   65,927;27596,787;40,97809
 869,85;11326,037;  113,027;27568,627;40,84052
 870,41;11210,527;   81,527;27384,168;40,76163
 870,97;11207,317;  107,827;27213,406;40,94910
 871,54;11055,308;   85,727;26980,947;40,78636
 872,10;11062,997;   88,627;26828,088;41,04185
 872,66;10935,088;   62,827;26528,428;41,08073
 873,22;10853,777;   93,127;26519,367;40,71957
 873,78;10695,867;   78,627;26172,908;40,68800
 874,34;10650,258;  104,228;26033,547;40,67222
 874,90;10628,058;  120,827;25783,248;40,94403
 875,46;10531,258;   99,728;25709,348;40,73286
 876,03;10422,457;   98,927;25420,648;40,76946
 876,59;10320,558;   77,327;25181,547;40,80282
 877,15;10186,758;  109,827;25149,047;40,24459
 877,71;10135,857;  106,228;25212,648;39,94847
 878,27;10088,957;   96,427;24989,248;40,14221
 878,83;10045,558;  116,827;25022,148;39,86590
 879,39;10026,357;  100,027;24973,648;39,90706
 879,95; 9970,758;   98,827;24843,648;39,89494
 880,51; 9952,857;   83,728;24936,047;39,71110
 881,07;10009,157;   90,527;25061,848;39,72009
 881,63; 9996,157;  101,027;25156,047;39,49360
 882,19;10011,758;   87,628;24975,447;39,87545
 882,75;10034,357;  101,427;25261,947;39,47824
 883,31;10071,258;  105,327;25428,648;39,35475
 883,88;10079,758;   98,927;25336,748;39,54712
 884,44; 9998,957;   91,927;25417,947;39,11799
 885,00;10180,857;  107,427;25761,848;39,26586
 885,56;10169,758;  107,827;25751,648;39,23725
 886,12;10232,758;  111,228;25842,648;39,33529
 886,68;10212,258;   99,228;25852,348;39,26915
 887,24;10371,857;  117,927;26350,547;39,08847
 887,80;10302,657;   90,728;26280,748;38,99168
 888,36;10462,957;  116,327;26529,848;39,17172
 888,92;10421,657;  125,728;26572,047;38,93143
 889,48;10569,457;  103,128;26954,447;38,97883
 890,04;10533,957;  109,128;26947,547;38,84293
 890,60;10667,357;  112,128;27251,248;38,89304
 891,16;10545,357;   96,628;27188,848;38,56727
 891,72;10645,258;  118,228;27260,547;38,78456
 892,28;10589,758;  134,827;27331,547;38,44188
 892,84;10495,058;  104,728;27348,848;38,13788
 893,39;10495,558;  123,927;27411,947;38,00800
 893,95;10417,957;  114,228;27186,348;38,06030
 894,51;10279,258;   76,327;26955,748;37,95815
 895,07;10310,157;  129,727;27084,848;37,76807
 895,63;10107,058;   77,128;26839,947;37,47711
 896,19;10065,357;   97,128;26677,248;37,50258
 896,75;10021,758;  124,927;26555,748;37,44428
 897,31; 9861,357;   90,728;26203,148;37,41756
 897,87; 9709,957;  101,728;25897,248;37,24767
 898,43; 9612,758;  106,527;25790,848;37,01180
 898,99; 9517,758;  117,427;25589,047;36,90511
 899,55; 9472,258;  119,927;25597,447;36,70817
 900,11; 9299,857;  108,327;25305,447;36,47849
 900,67; 9208,657;   98,527;25075,248;36,47448
 901,22; 9082,357;  119,628;24861,047;36,22561
 901,78; 8985,357;   91,628;24661,248;36,19808
 902,34; 8882,157;  111,228;24532,248;35,91549
 902,90; 8849,058;   80,827;24335,148;36,15121
 903,46; 8740,857;  105,728;24231,348;35,79236
 904,02; 8665,457;  100,527;24123,947;35,65242
 904,58; 8513,357;   90,728;23850,848;35,44860
 905,14; 8466,657;   68,527;23822,947;35,35397
 905,70; 8453,058;   83,927;23630,748;35,54251
 906,25; 8401,157;   90,628;23553,348;35,42015
 906,81; 8331,157;   94,628;23392,047;35,35383
 907,37; 8228,957;   98,827;23257,447;35,10628
 907,93; 8209,857;   89,527;23089,748;35,30544
 908,49; 8185,257;   99,628;22999,447;35,30871
 909,05; 8143,558;   97,827;22927,848;35,24189
 909,60; 8068,658;  108,228;22788,748;35,09809
 910,16; 7936,558;   74,228;22700,748;34,74830
 910,72; 7936,757;  110,427;22663,447;34,70192
 911,28; 7837,357;  102,128;22408,248;34,67761
 911,84; 7793,857;   90,628;22454,148;34,44551
 912,39; 7723,458;   78,427;22258,547;34,46794
 912,95; 7619,458;  102,728;22258,148;33,92727
 913,51; 7524,458;   98,327;22083,547;33,77783
 914,07; 7376,658;   98,728;21907,547;33,37150
 914,63; 7369,058;   76,128;21874,547;33,45623
 915,18; 7272,058;   87,628;21589,648;33,41281
 915,74; 7213,458;   80,927;21587,248;33,16481
 916,30; 7179,458;   59,528;21357,648;33,42985
 916,86; 7075,658;   93,728;21262,648;32,98198
 917,42; 7047,158;  100,228;21321,348;32,73593
 917,97; 6905,158;   77,427;21064,748;32,53264
 918,53; 6811,158;   74,927;20915,447;32,32276
 919,09; 6765,658;   98,728;20860,447;32,11165
 919,65; 6695,857;   85,527;20650,848;32,14309
 920,20; 6599,257;   73,527;20532,748;31,89628
 920,76; 6494,857;   72,027;20320,547;31,72000
 921,32; 6467,757;   82,027;20178,947;31,77467
 921,87; 6409,357;  102,728;19954,348;31,76884
 922,43; 6243,658;   77,027;19849,648;31,18772
 922,99; 6155,558;   67,427;19482,748;31,35735
 923,55; 6104,458;   70,527;19338,047;31,31659
 924,10; 6057,458;   73,027;19189,547;31,30502
 924,66; 5949,857;   87,827;18955,648;31,06893
 925,22; 5858,058;   55,228;18851,248;30,87265
 925,77; 5808,158;   82,128;18536,348;31,02830
 926,33; 5714,357;   95,927;18507,947;30,51501
 926,89; 5629,757;   71,427;18124,148;30,78943
 927,44; 5574,357;   62,327;17937,248;30,83667
 928,00; 5444,158;   71,228;17715,447;30,45150
 928,56; 5424,958;   88,827;17529,648;30,59564
 929,12; 5275,757;   87,728;17383,348;29,99621
 929,67; 5123,658;   69,527;17014,248;29,82717
 930,23; 5052,857;   56,127;16842,248;29,76703
 930,78; 5070,458;  115,628;16704,547;29,86831
 931,34; 4885,257;   72,327;16173,647;29,89152
 931,90; 4764,658;   73,128;15997,647;29,46105
 932,45; 4639,058;   83,427;15594,647;29,36990
 933,01; 4452,757;   64,728;15138,247;29,11085
 933,57; 4262,058;   74,527;14649,048;28,73186
 934,12; 4133,857;   82,628;14015,147;29,07751
 934,68; 3898,958;   64,427;13299,647;28,97217
 935,24; 3617,758;   77,027;12511,147;28,47592
 935,79; 3443,258;   75,228;11770,247;28,79884
 936,35; 3196,357;  101,827;10989,848;28,42142
 936,90; 2936,857;   84,427;10143,848;28,35581
 937,46; 2694,157;   83,728; 9403,947;28,00824
 938,02; 2498,657;   73,527; 8615,747;28,38993
 938,57; 2327,657;   81,728; 8016,047;28,30652
 939,13; 2169,058;   80,228; 7513,447;28,10128
 939,68; 2008,958;   68,628; 6973,248;28,10191
 940,24; 1882,557;   71,527; 6581,047;27,82125
 940,79; 1849,757;  110,628; 6292,447;28,13298
 941,35; 1731,557;  101,228; 6079,047;27,27299
 941,91; 1677,057;   75,527; 5851,348;27,72818
 942,46; 1644,858;   77,128; 5791,947;27,43271
 943,02; 1598,257;   79,927; 5671,348;27,15464
 943,57; 1571,557;   64,427; 5573,547;27,35700
 944,13; 1597,557;   79,027; 5648,147;27,26697
 944,68; 1607,557;   78,027; 5685,248;27,27787
 945,24; 1595,057;   90,427; 5783,147;26,43077
 945,79; 1614,757;   73,027; 5876,147;26,56726
 946,35; 1620,157;   60,627; 5994,447;26,28206
 946,90; 1682,157;  114,927; 6160,147;25,92511
 947,46; 1686,458;   64,927; 6271,248;26,12708
 948,01; 1693,757;   57,827; 6434,447;25,65513
 948,57; 1797,757;  104,827; 6687,547;25,71779
 949,12; 1778,657;   79,827; 6797,248;25,28992
 949,68; 1841,657;  103,327; 7106,647;24,82151
 950,23; 1874,458;   83,527; 7300,047;24,81709
 950,79; 1876,757;   83,327; 7497,748;24,18840
 951,34; 1956,657;  100,927; 7735,248;24,30773
 951,90; 1982,657;   70,527; 7954,848;24,25231
 952,45; 2022,057;   97,628; 8185,147;23,79506
 953,01; 2040,257;   82,628; 8326,348;23,74692
 953,56; 2073,157;   88,228; 8589,947;23,34739
 954,12; 2057,857;   52,028; 8720,447;23,13951
 954,67; 2106,258;   77,327; 8976,247;22,79973
 955,23; 2131,657;   76,927; 9148,048;22,65134
 955,78; 2162,857;   73,927; 9338,348;22,54788
 956,33; 2181,458;   63,728; 9521,548;22,39131
 956,89; 2164,058;   59,928; 9696,848;21,83405
 957,44; 2180,857;   69,628; 9882,348;21,51524
 958,00; 2221,357;   59,428;10075,548;21,58450
 958,55; 2216,558;   61,627;10222,348;21,20844
 959,10; 2221,258;   69,327;10408,747;20,81287
 959,66; 2250,857;   82,527;10609,048;20,59873
 960,21; 2246,357;   81,427;10733,147;20,32470
 960,77; 2233,958;   70,327;10817,147;20,13275
 961,32; 2263,357;   64,728;10986,548;20,13062
 961,87; 2309,657;   88,527;11049,147;20,26464
 962,43; 2267,657;   70,728;11118,048;19,88654
 962,98; 2294,058;   94,327;11290,247;19,64761
 963,54; 2239,558;   47,228;11352,147;19,39271
 964,09; 2245,357;   79,027;11395,348;19,14341
 964,64; 2275,458;   74,527;11550,747;19,17818
 965,20; 2235,357;   60,327;11524,247;18,97283
 965,75; 2301,058;   81,728;11624,447;19,22710
 966,30; 2278,958;   70,827;11653,848;19,06351
 966,86; 2278,958;   78,527;11719,247;18,90287
 967,41; 2230,258;   93,527;11768,048;18,30251
 967,96; 2246,758;   76,728;11864,647;18,40893
 968,52; 2257,558;   93,228;11930,647;18,28380
 969,07; 2183,958;   77,628;11868,348;17,86430
 969,62; 2218,958;   79,527;11967,147;17,99713
 970,18; 2173,657;   75,728;12076,747;17,48126
 970,73; 2147,458;   80,728;12023,048;17,30593
 971,28; 2169,558;   96,327;12036,348;17,36371
 971,84; 2126,458;   77,527;12048,848;17,11532
 972,39; 2150,758;  100,228;12039,548;17,17460
 972,94; 2087,657;   66,228;12109,947;16,78410
 973,49; 2031,458;   96,628;12092,447;16,12920
 974,05; 2037,858;   76,728;12000,747;16,44689
 974,60; 2044,057;   93,228;12070,048;16,28838
 975,15; 1992,057;   88,628;12097,447;15,85027
 975,71; 1917,458;   65,128;11908,548;15,64016
 976,26; 1971,257;   98,927;11977,247;15,76258
 976,81; 1904,557;   91,827;11959,048;15,27510
 977,36; 1900,557;   98,728;11983,247;15,16115
 977,92; 1871,057;   96,527;12038,848;14,85917
 978,47; 1833,257;   81,927;11925,647;14,78699
 979,02; 1829,157;   93,228;11922,548;14,67481
 979,57; 1800,358;   88,427;11895,747;14,49889
 980,13; 1764,157;   83,527;11783,147;14,36483
 980,68; 1764,757;   82,927;11805,147;14,34737
 981,23; 1756,657;   90,527;11802,247;14,22618
 981,78; 1724,358;   92,427;11735,247;14,01662
 982,33; 1662,858;   90,728;11677,848;13,56791
 982,89; 1672,657;   89,927;11703,647;13,62811
 983,44; 1642,358;   83,027;11608,947;13,52890
 983,99; 1677,157;  118,628;11622,647;13,54770
 984,54; 1628,858;   96,128;11457,247;13,49101
 985,09; 1617,858;   93,728;11413,947;13,46378
 985,65; 1575,157;   91,327;11470,747;13,03959
 986,20; 1577,458;  106,927;11419,548;12,99902
 986,75; 1565,557;  108,628;11414,447;12,88655
 987,30; 1535,358;  102,827;11258,348;12,84145
 987,85; 1527,757;   90,228;11246,747;12,88511
 988,40; 1493,757;  108,527;11213,747;12,47368
 988,96; 1494,257;  108,027;11133,947;12,57247
 989,51; 1453,858;  115,427;11038,447;12,25330
 990,06; 1478,358;  138,227;11045,147;12,28697
 990,61; 1433,057;   92,128;10938,348;12,36311
 991,16; 1419,157;  118,927;10940,048;12,01567
 991,71; 1373,257;   92,527;10792,848;11,96908
 992,26; 1371,858;  102,427;10714,848;11,96174
 992,81; 1334,757;  104,728;10660,548;11,65262
 993,37; 1347,858;  137,727;10574,647;11,59470
 993,92; 1319,757;  121,728;10458,048;11,59049
 994,47; 1286,858;  124,628;10466,848;11,23772
 995,02; 1284,958;  137,027;10490,947;11,08691
 995,57; 1235,157;  110,427;10392,848;10,93838
 996,12; 1244,858;  145,727;10300,348;10,82394
 996,67; 1212,958;  129,628;10209,147;10,74783
 997,22; 1186,858;  113,527;10126,947;10,71892
 997,77; 1181,757;  121,527;10148,647;10,57362
 998,32; 1153,358;  111,628;10071,647;10,45912
 998,87; 1143,858;  125,128; 9984,647;10,33245
 999,42; 1133,358;  127,927; 9851,147;10,34050
 999,97; 1076,858;  108,927; 9777,548;10,01105
1000,53; 1105,157;  142,727; 9784,247; 9,98214
1001,08; 1056,057;  107,228; 9686,947; 9,90457
1001,63; 1067,458;  153,027; 9649,647; 9,62901
1002,18;  989,557;   83,728; 9424,147; 9,69796
1002,73; 1029,157;  138,327; 9412,947; 9,60503
1003,28; 1008,857;  124,327; 9381,947; 9,55462
1003,83; 1003,857;  125,927; 9218,247; 9,65573
1004,38; 1010,557;  149,928; 9191,647; 9,51843
1004,93;  967,758;  126,027; 9120,247; 9,35857
1005,48;  939,557;  116,827; 9054,348; 9,20535
1006,03;  930,657;  117,927; 9005,947; 9,14411
1006,58;  923,458;  111,128; 8858,647; 9,28640
1007,13;  903,458;  107,927; 8851,247; 9,09872
1007,68;  903,758;  104,728; 8818,747; 9,16948
1008,23;  909,557;  133,727; 8715,848; 9,04007
1008,78;  883,357;  112,027; 8711,147; 8,96987
1009,33;  888,458;  130,327; 8604,447; 8,94642
1009,88;  852,258;   88,228; 8605,447; 8,97042
1010,43;  860,758;  124,228; 8525,848; 8,76652
1010,98;  854,357;   99,827; 8492,447; 8,99040
1011,52;  839,157;   95,827; 8398,447; 8,95296
1012,07;  868,057;  150,327; 8388,247; 8,71252
1012,62;  828,857;  104,628; 8320,747; 8,81474
1013,17;  804,857;  113,128; 8276,947; 8,47312
1013,72;  783,958;   95,728; 8223,848; 8,46727
1014,27;  779,357;  121,228; 8163,047; 8,18384
1014,82;  757,458;   95,728; 7981,147; 8,39182
1015,37;  737,557;   94,128; 7887,848; 8,25575
1015,92;  748,657;  118,427; 7731,447; 8,27832
1016,47;  709,958;  102,628; 7596,447; 8,10441
1017,02;  674,657;   93,128; 7494,047; 7,85754
1017,57;  692,057;  112,527; 7367,248; 7,98832
1018,11;  678,258;   99,827; 7284,647; 8,05072
1018,66;  671,857;  130,928; 7236,947; 7,61228
1019,21;  666,258;  112,327; 7082,447; 7,94721
1019,76;  619,657;   93,628; 6976,348; 7,64276
1020,31;  599,057;   98,827; 6900,348; 7,35468
1020,86;  612,857;   93,927; 6846,248; 7,68521
1021,41;  582,258;   94,827; 6743,047; 7,33174
1021,96;  597,458;  104,128; 6702,147; 7,47694
1022,50;  592,758;  133,027; 6633,047; 7,07275
1023,05;  571,657;  100,128; 6498,748; 7,36924
1023,60;  569,458;  102,628; 6447,947; 7,35708
1024,15;  552,057;   86,927; 6297,348; 7,48951
1024,70;  575,458;  117,427; 6274,447; 7,43915
1025,25;  537,258;   97,728; 6228,447; 7,16931
1025,79;  549,057;  122,228; 6171,147; 7,05630
1026,34;  531,057;  101,427; 6090,447; 7,17363
1026,89;  542,357;  114,827; 6060,147; 7,19103
1027,44;  506,557;  104,827; 5966,348; 6,85368
1027,99;  513,657;  103,027; 5876,547; 7,11230
1028,53;  494,258;   96,728; 5813,647; 6,95357
1029,08;  527,857;  116,628; 5784,147; 7,25591
1029,63;  498,158;  115,327; 5690,348; 6,86688
1030,18;  486,258;  103,027; 5656,147; 6,90117
1030,73;  464,758;   96,027; 5543,647; 6,76864
1031,27;  466,158;   96,027; 5490,147; 6,86173
1031,82;  473,758;   88,827; 5398,447; 7,24967
1032,37;  484,557;  108,527; 5371,147; 7,14530
1032,92;  463,758;  115,827; 5293,348; 6,72001
1033,46;  457,957;  100,228; 5164,647; 7,06359
1034,01;  448,758;   93,927; 5108,748; 7,07563
1034,56;  446,258;  117,728; 5101,348; 6,59220
1035,11;  444,557;  107,128; 5004,248; 6,89038
1035,65;  435,957;  101,527; 4981,547; 6,85305
1036,20;  445,457;   92,927; 4950,047; 7,25800
1036,75;  447,557;  122,728; 4905,848; 6,79117
1037,29;  419,957;  103,927; 4828,647; 6,68886
1037,84;  414,957;   94,527; 4709,147; 6,94380
1038,39;  419,158;  103,827; 4639,547; 6,95215
1038,94;  385,858;   75,728; 4562,848; 6,91156
1039,48;  400,858;   96,628; 4571,947; 6,79795
1040,03;  404,557;  112,427; 4492,248; 6,66991
1040,58;  394,457;   98,128; 4393,447; 6,89890
1041,12;  373,858;  107,827; 4359,547; 6,25700
1041,67;  381,658;  109,128; 4320,947; 6,47060
1042,22;  393,358;  120,527; 4276,447; 6,56485
1042,76;  368,457;   99,827; 4151,447; 6,63019
1043,31;  361,158;  110,728; 4086,548; 6,29883
1043,86;  370,858;  114,628; 4037,647; 6,53145
1044,40;  361,758;  110,327; 4005,847; 6,45434
1044,95;  354,358;  115,228; 3962,147; 6,21614
1045,50;  326,557;   84,628; 3881,548; 6,37174
1046,04;  365,158;  120,628; 3843,548; 6,56823
1046,59;  324,658;   97,927; 3796,548; 6,13012
1047,13;  356,957;  126,128; 3766,347; 6,34110
1047,68;  335,758;  119,427; 3689,948; 6,05878
1048,23;  342,158;  123,228; 3670,847; 6,17118
1048,77;  308,957;  105,628; 3606,948; 5,80724
1049,32;  323,957;  108,228; 3568,048; 6,23529
1049,86;  333,258;   99,027; 3502,847; 6,88139
1050,41;  306,957;   91,527; 3451,248; 6,41214
1050,96;  317,057;  113,628; 3423,347; 6,14644
1051,50;  313,057;  104,927; 3366,948; 6,38040
1052,05;  310,758;  119,427; 3347,448; 5,92716
1052,59;  288,758;   99,827; 3256,748; 5,98463
1053,14;  287,957;   95,427; 3219,948; 6,16191
1053,69;  289,858;  104,128; 3185,448; 6,02761
1054,23;  308,457;  118,427; 3134,748; 6,30006
1054,78;  301,358;  114,628; 3053,847; 6,35305
1055,32;  311,457;  130,027; 3055,548; 6,20163
1055,87;  264,658;   86,128; 2966,347; 6,19848
1056,41;  271,057;   96,128; 2919,548; 6,19568
1056,96;  283,957;  107,728; 2911,948; 6,28446
1057,50;  319,858;  124,427; 2892,048; 7,06130
1058,05;  250,557;   76,527; 2784,248; 6,42718
1058,59;  268,057;  112,128; 2788,548; 5,82607
1059,14;  286,557;  117,527; 2774,748; 6,36116
1059,68;  238,758;   85,827; 2677,147; 5,90163
1060,23;  288,258;  130,928; 2707,448; 6,10630
1060,77;  274,758;  112,728; 2641,347; 6,40784
1061,32;  267,758;  122,628; 2596,847; 5,86569
1061,86;  268,057;  115,827; 2570,748; 6,20102
1062,41;  266,358;  106,128; 2522,048; 6,63226
1062,95;  265,658;  101,628; 2446,048; 6,99661
1063,50;  259,358;  119,927; 2427,847; 6,04137
1064,04;  247,158;  101,128; 2392,548; 6,37290
1064,59;  265,057;  124,427; 2369,948; 6,26269
1065,13;  261,658;  122,327; 2316,948; 6,34871
1065,68;  238,458;  125,128; 2272,948; 5,27651
1066,22;  256,457;  117,427; 2267,748; 6,46555
1066,76;  256,158;  137,027; 2243,448; 5,65557
1067,31;  242,758;  105,927; 2185,248; 6,58052
1067,85;  236,357;  102,728; 2165,948; 6,47677
1068,40;  237,857;  117,927; 2147,847; 5,90811
1068,94;  225,258;  102,327; 2097,548; 6,16123
1069,49;  229,958;  100,128; 2098,048; 6,49826
1070,03;  231,258;  102,628; 2031,848; 6,66746
1070,57;  219,658;  100,427; 2008,147; 6,24987
1071,12;  204,057;   90,327; 1958,448; 6,08794
1071,66;  256,557;  145,327; 2002,448; 5,98938
1072,21;  253,357;  124,427; 1952,047; 7,05453
1072,75;  222,758;  112,427; 1928,547; 6,07504
1073,29;  198,557;   92,427; 1865,047; 5,98718
1073,84;  225,158;  107,728; 1884,848; 6,60788
1074,38;  207,557;  104,427; 1862,448; 5,86626
1074,92;  220,057;  121,027; 1845,547; 5,74247
1075,47;  229,057;  134,327; 1822,448; 5,61157
1076,01;  234,357;  137,628; 1818,647; 5,75424
1076,56;  206,158;  102,027; 1735,848; 6,37341
1077,10;  196,258;   87,628; 1681,248; 6,81656
1077,64;  204,857;   99,628; 1726,147; 6,46964
1078,19;  232,958;  129,628; 1703,948; 6,56347
1078,73;  215,458;  123,527; 1661,248; 5,97833
1079,27;  231,057;  128,227; 1683,848; 6,61023
1079,81;  231,857;  136,727; 1662,547; 6,23468
1080,36;  220,658;  113,327; 1624,547; 7,10221
1080,90;  202,258;  107,228; 1608,848; 6,32850
1081,44;  201,357;  103,027; 1572,647; 6,69085
1081,99;  178,357;   81,728; 1551,748; 6,57338
1082,53;  211,958;  125,527; 1540,147; 6,10977
1083,07;  207,857;  122,827; 1522,147; 6,07652
1083,62;  210,458;  121,128; 1502,948; 6,46466
1084,16;  204,258;  112,228; 1487,248; 6,69299
1084,70;  211,057;  121,327; 1481,848; 6,59527
1085,24;  217,557;  117,527; 1450,948; 7,50176
1085,79;  197,158;  109,728; 1423,147; 6,65667
1086,33;  179,758;  100,628; 1400,047; 6,08964
1086,87;  200,057;  122,228; 1391,448; 6,13211
1087,41;  191,658;  106,827; 1360,547; 6,76626
1087,96;  220,758;  131,827; 1364,748; 7,21296
1088,50;  191,057;  102,628; 1345,848; 7,11298
1089,04;  207,158;  138,727; 1334,147; 5,72435
1089,58;  175,258;   93,427; 1286,848; 6,85677
1090,13;  180,758;  113,628; 1273,848; 5,78597
1090,67;  197,357;  114,728; 1274,948; 7,12192
1091,21;  177,958;  111,228; 1250,848; 5,85546
1091,75;  180,057;  112,327; 1235,948; 6,02784
1092,29;  192,158;  121,427; 1240,647; 6,31958
1092,84;  188,357;  104,628; 1213,147; 7,55331
1093,38;  224,658;  134,128; 1226,448; 8,28786
1093,92;  196,458;  128,027; 1210,748; 6,32019
1094,46;  212,857;  128,527; 1207,248; 7,81760
1095,00;  186,458;  110,228; 1150,448; 7,32826
1095,54;  166,857;   92,027; 1139,547; 7,14354
1096,09;  194,857;  113,128; 1144,047; 7,92787
1096,63;  192,958;  130,527; 1128,647; 6,25476
1097,17;  172,258;  109,427; 1108,147; 6,29105
1097,71;  198,857;  126,128; 1099,248; 7,47390
1098,25;  171,458;   97,927; 1059,547; 7,64647
1098,79;  182,857;  124,728; 1078,647; 6,09380
1099,33;  185,458;  117,728; 1040,147; 7,34264
1099,88;  182,158;  118,628; 1035,848; 6,92636
1100,42;  161,357;  103,628; 1000,747; 6,43504

