PE UV       SUBTECH     SPECTRUM    ASCII       PEDS        4.00        
   -1
CICIMAUCR0250-3.ASC
24/05/30
12:17:02.00
24/05/30
12:17:02.00
Vinicio Soto Monge
C. resplendens, M Ventral
250,000000
1
Lambda 1050
1050L1511233
PerkinElmer UV WinLab 6.3.2.0749 / 2.02.05 Lambda 900 UV/VIS/NIR, Aug  7 2015 09:38:08

0
0
3350/servo 860,8/2
0
0
UV/VIS
1
1
1
DoubleDePol,CommonBeamDepol,RBeamAtt,SBeamAtt,60mm sphere, WB InGaAs Detector
0
0
0
0
Program
Program
3350/servo 860,8/2
3350/0,2 860,8/0,2
3350/0,2 860,8/0,2
0
15.00
 
 
 
0
 
860,8
319,2
860,8
Front
100
on
S:100 R:100
0
0
0
0
 
0
 
 
 
0
 
 
0
0
0
0
0
 
 
 
 
0
0


0
0
#HDR
-1
-1
#GR
nm
%R
1.0
0.0
2500,000000
-1,000000
2251
8
57,892700
4,104500
#DATA
250.000000	0.061845
251.000000	0.060213
252.000000	0.056923
253.000000	0.069542
254.000000	0.071541
255.000000	0.061161
256.000000	0.089743
257.000000	0.064931
258.000000	0.070620
259.000000	0.085895
260.000000	0.073729
261.000000	0.072172
262.000000	0.065703
263.000000	0.082396
264.000000	0.083754
265.000000	0.079966
266.000000	0.062043
267.000000	0.036523
268.000000	0.032903
269.000000	0.052032
270.000000	0.076051
271.000000	0.072676
272.000000	0.057112
273.000000	0.063205
274.000000	0.044543
275.000000	0.063500
276.000000	0.059874
277.000000	0.066909
278.000000	0.076101
279.000000	0.068875
280.000000	0.056705
281.000000	0.084266
282.000000	0.067807
283.000000	0.068195
284.000000	0.083173
285.000000	0.090956
286.000000	0.077294
287.000000	0.067385
288.000000	0.079647
289.000000	0.092115
290.000000	0.078294
291.000000	0.067714
292.000000	0.085100
293.000000	0.080795
294.000000	0.044051
295.000000	0.054839
296.000000	0.081445
297.000000	0.078527
298.000000	0.067617
299.000000	0.067167
300.000000	0.060305
301.000000	0.088628
302.000000	0.111500
303.000000	0.085486
304.000000	0.061864
305.000000	0.068848
306.000000	0.080160
307.000000	0.086476
308.000000	0.081585
309.000000	0.085438
310.000000	0.081092
311.000000	0.092731
312.000000	0.066397
313.000000	0.052098
314.000000	0.100323
315.000000	0.117132
316.000000	0.091833
317.000000	0.475973
318.000000	0.615849
319.000000	0.361853
320.000000	0.203115
321.000000	0.428563
322.000000	0.438407
323.000000	0.288227
324.000000	0.248120
325.000000	0.389627
326.000000	0.445029
327.000000	0.256249
328.000000	0.176967
329.000000	0.299576
330.000000	0.292435
331.000000	0.359466
332.000000	0.294495
333.000000	0.266575
334.000000	0.170220
335.000000	0.166849
336.000000	0.092747
337.000000	0.135879
338.000000	0.141296
339.000000	0.163437
340.000000	0.105571
341.000000	0.078471
342.000000	0.058687
343.000000	0.036349
344.000000	0.032106
345.000000	0.108562
346.000000	0.109669
347.000000	0.111431
348.000000	0.129618
349.000000	0.068391
350.000000	0.024977
351.000000	0.049713
352.000000	0.029679
353.000000	0.027722
354.000000	0.040242
355.000000	0.038834
356.000000	0.129940
357.000000	0.077080
358.000000	0.027765
359.000000	0.014700
360.000000	0.047017
361.000000	0.082653
362.000000	0.076189
363.000000	0.125374
364.000000	0.086257
365.000000	0.105441
366.000000	0.126000
367.000000	0.147523
368.000000	0.167570
369.000000	0.148098
370.000000	0.116779
371.000000	0.136875
372.000000	0.126582
373.000000	0.186334
374.000000	0.224890
375.000000	0.110122
376.000000	0.032771
377.000000	0.018752
378.000000	0.029844
379.000000	0.036207
380.000000	0.038375
381.000000	0.039873
382.000000	0.049414
383.000000	0.039767
384.000000	0.027356
385.000000	0.028167
386.000000	0.044379
387.000000	0.038117
388.000000	0.020354
389.000000	0.014518
390.000000	0.013398
391.000000	0.033886
392.000000	0.038968
393.000000	0.016917
394.000000	0.011173
395.000000	0.028137
396.000000	0.030814
397.000000	0.021724
398.000000	0.014566
399.000000	0.016746
400.000000	0.014478
401.000000	0.013902
402.000000	0.014638
403.000000	0.001893
404.000000	0.025002
405.000000	0.025853
406.000000	0.019679
407.000000	0.029004
408.000000	0.018309
409.000000	0.012050
410.000000	0.013444
411.000000	0.019695
412.000000	0.015314
413.000000	0.023412
414.000000	0.028373
415.000000	0.019433
416.000000	0.024022
417.000000	0.034232
418.000000	0.037574
419.000000	0.043090
420.000000	0.035363
421.000000	0.030966
422.000000	0.036794
423.000000	0.032798
424.000000	0.044710
425.000000	0.038105
426.000000	0.027126
427.000000	0.041977
428.000000	0.042202
429.000000	0.044432
430.000000	0.048527
431.000000	0.047241
432.000000	0.040254
433.000000	0.048624
434.000000	0.051928
435.000000	0.055576
436.000000	0.054564
437.000000	0.048551
438.000000	0.063291
439.000000	0.064497
440.000000	0.062523
441.000000	0.062658
442.000000	0.067216
443.000000	0.080856
444.000000	0.082786
445.000000	0.068450
446.000000	0.071697
447.000000	0.086122
448.000000	0.090653
449.000000	0.063697
450.000000	0.084888
451.000000	0.085077
452.000000	0.097149
453.000000	0.094514
454.000000	0.095473
455.000000	0.099646
456.000000	0.111697
457.000000	0.112623
458.000000	0.129725
459.000000	0.120758
460.000000	0.115887
461.000000	0.116288
462.000000	0.124615
463.000000	0.121933
464.000000	0.124544
465.000000	0.129955
466.000000	0.129926
467.000000	0.127050
468.000000	0.131368
469.000000	0.138404
470.000000	0.146499
471.000000	0.153411
472.000000	0.150335
473.000000	0.155763
474.000000	0.144663
475.000000	0.149212
476.000000	0.147151
477.000000	0.153654
478.000000	0.153038
479.000000	0.144030
480.000000	0.153147
481.000000	0.168296
482.000000	0.175575
483.000000	0.161470
484.000000	0.166589
485.000000	0.163573
486.000000	0.174732
487.000000	0.172323
488.000000	0.166280
489.000000	0.176649
490.000000	0.178366
491.000000	0.179887
492.000000	0.172166
493.000000	0.180971
494.000000	0.182345
495.000000	0.171297
496.000000	0.175580
497.000000	0.187867
498.000000	0.185764
499.000000	0.189445
500.000000	0.190825
501.000000	0.194858
502.000000	0.206348
503.000000	0.189819
504.000000	0.198343
505.000000	0.205919
506.000000	0.216176
507.000000	0.209051
508.000000	0.219551
509.000000	0.223025
510.000000	0.220784
511.000000	0.224609
512.000000	0.234400
513.000000	0.233047
514.000000	0.248379
515.000000	0.243416
516.000000	0.244313
517.000000	0.244048
518.000000	0.247861
519.000000	0.249524
520.000000	0.245739
521.000000	0.243388
522.000000	0.234879
523.000000	0.243377
524.000000	0.238157
525.000000	0.227629
526.000000	0.222180
527.000000	0.216358
528.000000	0.202514
529.000000	0.200364
530.000000	0.200125
531.000000	0.191817
532.000000	0.176481
533.000000	0.172387
534.000000	0.165066
535.000000	0.152857
536.000000	0.150022
537.000000	0.149922
538.000000	0.142431
539.000000	0.137208
540.000000	0.139727
541.000000	0.148428
542.000000	0.149351
543.000000	0.152624
544.000000	0.161169
545.000000	0.149584
546.000000	0.154014
547.000000	0.157059
548.000000	0.162304
549.000000	0.164277
550.000000	0.174430
551.000000	0.166179
552.000000	0.183650
553.000000	0.172231
554.000000	0.179443
555.000000	0.183333
556.000000	0.185929
557.000000	0.192347
558.000000	0.199318
559.000000	0.210191
560.000000	0.210455
561.000000	0.223590
562.000000	0.216621
563.000000	0.213934
564.000000	0.214464
565.000000	0.219434
566.000000	0.222885
567.000000	0.220808
568.000000	0.233358
569.000000	0.241122
570.000000	0.233458
571.000000	0.231421
572.000000	0.225362
573.000000	0.235063
574.000000	0.233423
575.000000	0.235905
576.000000	0.231861
577.000000	0.250736
578.000000	0.254455
579.000000	0.256642
580.000000	0.264782
581.000000	0.267160
582.000000	0.261901
583.000000	0.263043
584.000000	0.259145
585.000000	0.270334
586.000000	0.262957
587.000000	0.263629
588.000000	0.253176
589.000000	0.262649
590.000000	0.282316
591.000000	0.271689
592.000000	0.265375
593.000000	0.266427
594.000000	0.270160
595.000000	0.275077
596.000000	0.276248
597.000000	0.269274
598.000000	0.263979
599.000000	0.268543
600.000000	0.267850
601.000000	0.275542
602.000000	0.285087
603.000000	0.283132
604.000000	0.280374
605.000000	0.283161
606.000000	0.281056
607.000000	0.277458
608.000000	0.286726
609.000000	0.286757
610.000000	0.280007
611.000000	0.290886
612.000000	0.294065
613.000000	0.284809
614.000000	0.294331
615.000000	0.295374
616.000000	0.288238
617.000000	0.279706
618.000000	0.292787
619.000000	0.306266
620.000000	0.300556
621.000000	0.302953
622.000000	0.298736
623.000000	0.306908
624.000000	0.321551
625.000000	0.313401
626.000000	0.317551
627.000000	0.327293
628.000000	0.324853
629.000000	0.330184
630.000000	0.328943
631.000000	0.325423
632.000000	0.327206
633.000000	0.331245
634.000000	0.328714
635.000000	0.327306
636.000000	0.339766
637.000000	0.341748
638.000000	0.342734
639.000000	0.350335
640.000000	0.361085
641.000000	0.371928
642.000000	0.344925
643.000000	0.339251
644.000000	0.355758
645.000000	0.347901
646.000000	0.344301
647.000000	0.346370
648.000000	0.351862
649.000000	0.355759
650.000000	0.347943
651.000000	0.356960
652.000000	0.372830
653.000000	0.386925
654.000000	0.364771
655.000000	0.350395
656.000000	0.368381
657.000000	0.386379
658.000000	0.390592
659.000000	0.383753
660.000000	0.377250
661.000000	0.388875
662.000000	0.395164
663.000000	0.376358
664.000000	0.391729
665.000000	0.377571
666.000000	0.375249
667.000000	0.405656
668.000000	0.400189
669.000000	0.373958
670.000000	0.368537
671.000000	0.382676
672.000000	0.380500
673.000000	0.384910
674.000000	0.392320
675.000000	0.395435
676.000000	0.387644
677.000000	0.385101
678.000000	0.370079
679.000000	0.381188
680.000000	0.365719
681.000000	0.371364
682.000000	0.379687
683.000000	0.383069
684.000000	0.374900
685.000000	0.372755
686.000000	0.375104
687.000000	0.378670
688.000000	0.361079
689.000000	0.364609
690.000000	0.363554
691.000000	0.378226
692.000000	0.359959
693.000000	0.362029
694.000000	0.339587
695.000000	0.342881
696.000000	0.334931
697.000000	0.318170
698.000000	0.332580
699.000000	0.322669
700.000000	0.301294
701.000000	0.298340
702.000000	0.287419
703.000000	0.299963
704.000000	0.321785
705.000000	0.310852
706.000000	0.299939
707.000000	0.304135
708.000000	0.306429
709.000000	0.307118
710.000000	0.267957
711.000000	0.286983
712.000000	0.285380
713.000000	0.255450
714.000000	0.231823
715.000000	0.255711
716.000000	0.234260
717.000000	0.248712
718.000000	0.264908
719.000000	0.229975
720.000000	0.238651
721.000000	0.259156
722.000000	0.246736
723.000000	0.279071
724.000000	0.231348
725.000000	0.197003
726.000000	0.214482
727.000000	0.250971
728.000000	0.189182
729.000000	0.226979
730.000000	0.271899
731.000000	0.240722
732.000000	0.276461
733.000000	0.282750
734.000000	0.258443
735.000000	0.247373
736.000000	0.229872
737.000000	0.231308
738.000000	0.226051
739.000000	0.227110
740.000000	0.208844
741.000000	0.224057
742.000000	0.248714
743.000000	0.237872
744.000000	0.195418
745.000000	0.216760
746.000000	0.229319
747.000000	0.250014
748.000000	0.299035
749.000000	0.261881
750.000000	0.239178
751.000000	0.266041
752.000000	0.247166
753.000000	0.232532
754.000000	0.251107
755.000000	0.235115
756.000000	0.246357
757.000000	0.266079
758.000000	0.198200
759.000000	0.227278
760.000000	0.248453
761.000000	0.259525
762.000000	0.283481
763.000000	0.282184
764.000000	0.293594
765.000000	0.251184
766.000000	0.316579
767.000000	0.332531
768.000000	0.313952
769.000000	0.337392
770.000000	0.337438
771.000000	0.312628
772.000000	0.344459
773.000000	0.210544
774.000000	0.245172
775.000000	0.350707
776.000000	0.315491
777.000000	0.283744
778.000000	0.337477
779.000000	0.254092
780.000000	0.329534
781.000000	0.226881
782.000000	0.168512
783.000000	0.247587
784.000000	0.256022
785.000000	0.327614
786.000000	0.330013
787.000000	0.280802
788.000000	0.248688
789.000000	0.292205
790.000000	0.359416
791.000000	0.293964
792.000000	0.293560
793.000000	0.299122
794.000000	0.362354
795.000000	0.281707
796.000000	0.285311
797.000000	0.191625
798.000000	0.345527
799.000000	0.257622
800.000000	0.327812
801.000000	0.394522
802.000000	0.202713
803.000000	0.275604
804.000000	0.401147
805.000000	0.338006
806.000000	0.371486
807.000000	0.359143
808.000000	0.407365
809.000000	0.380312
810.000000	0.408052
811.000000	0.272282
812.000000	0.392653
813.000000	0.373352
814.000000	0.338573
815.000000	0.380295
816.000000	0.322429
817.000000	0.341162
818.000000	0.300680
819.000000	0.261934
820.000000	0.224759
821.000000	0.309977
822.000000	0.360317
823.000000	0.201570
824.000000	0.227195
825.000000	0.321477
826.000000	0.376885
827.000000	0.452486
828.000000	0.324166
829.000000	0.363983
830.000000	0.296582
831.000000	0.307164
832.000000	0.319395
833.000000	0.361663
834.000000	0.223246
835.000000	0.321701
836.000000	0.404530
837.000000	0.400388
838.000000	0.284932
839.000000	0.292708
840.000000	0.362271
841.000000	0.308956
842.000000	0.370911
843.000000	0.355660
844.000000	0.521121
845.000000	0.296679
846.000000	0.219977
847.000000	0.345490
848.000000	0.225170
849.000000	0.417853
850.000000	0.250439
851.000000	0.510022
852.000000	0.505621
853.000000	0.434528
854.000000	0.334135
855.000000	0.348108
856.000000	0.531596
857.000000	0.397224
858.000000	0.403825
859.000000	0.405671
860.000000	0.405449
861.000000	0.396928
862.000000	0.392761
863.000000	0.401767
864.000000	0.409962
865.000000	0.408813
866.000000	0.406981
867.000000	0.410249
868.000000	0.408799
869.000000	0.410424
870.000000	0.403642
871.000000	0.419978
872.000000	0.464838
873.000000	0.497407
874.000000	0.498613
875.000000	0.492013
876.000000	0.502595
877.000000	0.510895
878.000000	0.513064
879.000000	0.497514
880.000000	0.500057
881.000000	0.522209
882.000000	0.530367
883.000000	0.533955
884.000000	0.539874
885.000000	0.562126
886.000000	0.588731
887.000000	0.585610
888.000000	0.572575
889.000000	0.574158
890.000000	0.571127
891.000000	0.565941
892.000000	0.598151
893.000000	0.618391
894.000000	0.638497
895.000000	0.625819
896.000000	0.625338
897.000000	0.651042
898.000000	0.662883
899.000000	0.668263
900.000000	0.684399
901.000000	0.701911
902.000000	0.718975
903.000000	0.741418
904.000000	0.752797
905.000000	0.757812
906.000000	0.768100
907.000000	0.779582
908.000000	0.791468
909.000000	0.805119
910.000000	0.816435
911.000000	0.836042
912.000000	0.849709
913.000000	0.867897
914.000000	0.895402
915.000000	0.876252
916.000000	0.881028
917.000000	0.883214
918.000000	0.899921
919.000000	0.926241
920.000000	0.942115
921.000000	0.952861
922.000000	0.967191
923.000000	0.981659
924.000000	0.982803
925.000000	0.991195
926.000000	1.014855
927.000000	1.016155
928.000000	1.031498
929.000000	1.034666
930.000000	1.026765
931.000000	1.051625
932.000000	1.061253
933.000000	1.051474
934.000000	1.057822
935.000000	1.073453
936.000000	1.075233
937.000000	1.095775
938.000000	1.093363
939.000000	1.075119
940.000000	1.095891
941.000000	1.106503
942.000000	1.104861
943.000000	1.095517
944.000000	1.110386
945.000000	1.133466
946.000000	1.127147
947.000000	1.115023
948.000000	1.122223
949.000000	1.126813
950.000000	1.120632
951.000000	1.120074
952.000000	1.116991
953.000000	1.122088
954.000000	1.136552
955.000000	1.131944
956.000000	1.125231
957.000000	1.131263
958.000000	1.139999
959.000000	1.138692
960.000000	1.134552
961.000000	1.137661
962.000000	1.138094
963.000000	1.151413
964.000000	1.146897
965.000000	1.131777
966.000000	1.144707
967.000000	1.163482
968.000000	1.160059
969.000000	1.156960
970.000000	1.147699
971.000000	1.158369
972.000000	1.168675
973.000000	1.156212
974.000000	1.149068
975.000000	1.158816
976.000000	1.164505
977.000000	1.156266
978.000000	1.156215
979.000000	1.150838
980.000000	1.159865
981.000000	1.160489
982.000000	1.171042
983.000000	1.166324
984.000000	1.165572
985.000000	1.162426
986.000000	1.170239
987.000000	1.165863
988.000000	1.166975
989.000000	1.177545
990.000000	1.181550
991.000000	1.190071
992.000000	1.178407
993.000000	1.172638
994.000000	1.183631
995.000000	1.175417
996.000000	1.172084
997.000000	1.171754
998.000000	1.183128
999.000000	1.196403
1000.000000	1.181213
1001.000000	1.178112
1002.000000	1.173876
1003.000000	1.186713
1004.000000	1.193495
1005.000000	1.186898
1006.000000	1.185669
1007.000000	1.183136
1008.000000	1.180800
1009.000000	1.191798
1010.000000	1.196835
1011.000000	1.189994
1012.000000	1.187669
1013.000000	1.194366
1014.000000	1.189037
1015.000000	1.192679
1016.000000	1.186885
1017.000000	1.188413
1018.000000	1.198931
1019.000000	1.202628
1020.000000	1.195680
1021.000000	1.204659
1022.000000	1.204249
1023.000000	1.216672
1024.000000	1.208123
1025.000000	1.204898
1026.000000	1.212031
1027.000000	1.218091
1028.000000	1.214271
1029.000000	1.204503
1030.000000	1.210281
1031.000000	1.207659
1032.000000	1.206827
1033.000000	1.209245
1034.000000	1.201616
1035.000000	1.201569
1036.000000	1.223460
1037.000000	1.217894
1038.000000	1.199488
1039.000000	1.212694
1040.000000	1.215051
1041.000000	1.226714
1042.000000	1.206720
1043.000000	1.212086
1044.000000	1.217605
1045.000000	1.227306
1046.000000	1.227957
1047.000000	1.214930
1048.000000	1.206083
1049.000000	1.217487
1050.000000	1.219688
1051.000000	1.228422
1052.000000	1.232937
1053.000000	1.226359
1054.000000	1.223667
1055.000000	1.227590
1056.000000	1.238002
1057.000000	1.227873
1058.000000	1.227041
1059.000000	1.235665
1060.000000	1.235929
1061.000000	1.240597
1062.000000	1.239799
1063.000000	1.248472
1064.000000	1.250605
1065.000000	1.256602
1066.000000	1.249075
1067.000000	1.242266
1068.000000	1.261624
1069.000000	1.262022
1070.000000	1.251862
1071.000000	1.247094
1072.000000	1.241343
1073.000000	1.248769
1074.000000	1.264863
1075.000000	1.257068
1076.000000	1.265832
1077.000000	1.253782
1078.000000	1.264585
1079.000000	1.263140
1080.000000	1.260106
1081.000000	1.264121
1082.000000	1.261557
1083.000000	1.275922
1084.000000	1.280882
1085.000000	1.263353
1086.000000	1.264798
1087.000000	1.272678
1088.000000	1.283694
1089.000000	1.270492
1090.000000	1.270994
1091.000000	1.275591
1092.000000	1.282954
1093.000000	1.281302
1094.000000	1.272853
1095.000000	1.279901
1096.000000	1.289907
1097.000000	1.283020
1098.000000	1.280626
1099.000000	1.286833
1100.000000	1.273526
1101.000000	1.280101
1102.000000	1.289256
1103.000000	1.281488
1104.000000	1.278447
1105.000000	1.284579
1106.000000	1.276655
1107.000000	1.287806
1108.000000	1.290703
1109.000000	1.289754
1110.000000	1.286312
1111.000000	1.281898
1112.000000	1.289541
1113.000000	1.286087
1114.000000	1.298865
1115.000000	1.290441
1116.000000	1.290781
1117.000000	1.293021
1118.000000	1.298597
1119.000000	1.289765
1120.000000	1.287484
1121.000000	1.290862
1122.000000	1.266784
1123.000000	1.275317
1124.000000	1.261628
1125.000000	1.260379
1126.000000	1.258195
1127.000000	1.258291
1128.000000	1.241546
1129.000000	1.223968
1130.000000	1.219517
1131.000000	1.208854
1132.000000	1.200002
1133.000000	1.190850
1134.000000	1.179182
1135.000000	1.175684
1136.000000	1.164792
1137.000000	1.169881
1138.000000	1.171688
1139.000000	1.176475
1140.000000	1.175565
1141.000000	1.175434
1142.000000	1.174176
1143.000000	1.175787
1144.000000	1.179348
1145.000000	1.196423
1146.000000	1.212950
1147.000000	1.214270
1148.000000	1.217615
1149.000000	1.214063
1150.000000	1.208552
1151.000000	1.192478
1152.000000	1.190698
1153.000000	1.175335
1154.000000	1.167065
1155.000000	1.170197
1156.000000	1.162341
1157.000000	1.144689
1158.000000	1.143658
1159.000000	1.142762
1160.000000	1.135851
1161.000000	1.134866
1162.000000	1.131815
1163.000000	1.127112
1164.000000	1.126277
1165.000000	1.127139
1166.000000	1.125600
1167.000000	1.127067
1168.000000	1.118175
1169.000000	1.120151
1170.000000	1.126340
1171.000000	1.128598
1172.000000	1.119507
1173.000000	1.122341
1174.000000	1.130886
1175.000000	1.120345
1176.000000	1.111028
1177.000000	1.108889
1178.000000	1.102374
1179.000000	1.088363
1180.000000	1.095027
1181.000000	1.096187
1182.000000	1.104751
1183.000000	1.109982
1184.000000	1.138814
1185.000000	1.167905
1186.000000	1.185745
1187.000000	1.209868
1188.000000	1.223844
1189.000000	1.241623
1190.000000	1.256817
1191.000000	1.250288
1192.000000	1.242602
1193.000000	1.246379
1194.000000	1.244410
1195.000000	1.234072
1196.000000	1.226372
1197.000000	1.217985
1198.000000	1.211498
1199.000000	1.210370
1200.000000	1.212663
1201.000000	1.205533
1202.000000	1.210435
1203.000000	1.214077
1204.000000	1.221252
1205.000000	1.220270
1206.000000	1.227869
1207.000000	1.232863
1208.000000	1.235802
1209.000000	1.246578
1210.000000	1.256246
1211.000000	1.255649
1212.000000	1.251782
1213.000000	1.259106
1214.000000	1.253560
1215.000000	1.261337
1216.000000	1.265602
1217.000000	1.268020
1218.000000	1.282277
1219.000000	1.284981
1220.000000	1.278885
1221.000000	1.276486
1222.000000	1.284399
1223.000000	1.288594
1224.000000	1.286981
1225.000000	1.290818
1226.000000	1.298795
1227.000000	1.300736
1228.000000	1.291647
1229.000000	1.293200
1230.000000	1.297221
1231.000000	1.298306
1232.000000	1.303768
1233.000000	1.300303
1234.000000	1.300482
1235.000000	1.299081
1236.000000	1.293245
1237.000000	1.302241
1238.000000	1.305034
1239.000000	1.307678
1240.000000	1.305547
1241.000000	1.303716
1242.000000	1.307231
1243.000000	1.316229
1244.000000	1.314709
1245.000000	1.316488
1246.000000	1.324909
1247.000000	1.316474
1248.000000	1.311445
1249.000000	1.325367
1250.000000	1.329778
1251.000000	1.324075
1252.000000	1.326924
1253.000000	1.330219
1254.000000	1.322397
1255.000000	1.331939
1256.000000	1.340468
1257.000000	1.333028
1258.000000	1.325697
1259.000000	1.329814
1260.000000	1.324654
1261.000000	1.330914
1262.000000	1.334430
1263.000000	1.331205
1264.000000	1.332523
1265.000000	1.334819
1266.000000	1.334848
1267.000000	1.340499
1268.000000	1.330498
1269.000000	1.336556
1270.000000	1.335869
1271.000000	1.335201
1272.000000	1.346245
1273.000000	1.350627
1274.000000	1.345495
1275.000000	1.336439
1276.000000	1.335047
1277.000000	1.347161
1278.000000	1.344678
1279.000000	1.339118
1280.000000	1.348841
1281.000000	1.342431
1282.000000	1.343652
1283.000000	1.350830
1284.000000	1.347157
1285.000000	1.352280
1286.000000	1.353584
1287.000000	1.343082
1288.000000	1.354683
1289.000000	1.346177
1290.000000	1.351423
1291.000000	1.348085
1292.000000	1.340118
1293.000000	1.341615
1294.000000	1.348023
1295.000000	1.345383
1296.000000	1.341969
1297.000000	1.353408
1298.000000	1.357741
1299.000000	1.342829
1300.000000	1.339296
1301.000000	1.344895
1302.000000	1.346515
1303.000000	1.351040
1304.000000	1.337971
1305.000000	1.338798
1306.000000	1.348421
1307.000000	1.334204
1308.000000	1.326196
1309.000000	1.342095
1310.000000	1.332894
1311.000000	1.331409
1312.000000	1.325426
1313.000000	1.323507
1314.000000	1.311733
1315.000000	1.312641
1316.000000	1.328161
1317.000000	1.321033
1318.000000	1.305030
1319.000000	1.304235
1320.000000	1.300311
1321.000000	1.295178
1322.000000	1.303842
1323.000000	1.291404
1324.000000	1.296516
1325.000000	1.269137
1326.000000	1.261926
1327.000000	1.272978
1328.000000	1.260211
1329.000000	1.247619
1330.000000	1.253722
1331.000000	1.244618
1332.000000	1.236173
1333.000000	1.227185
1334.000000	1.220179
1335.000000	1.218983
1336.000000	1.226340
1337.000000	1.202702
1338.000000	1.208423
1339.000000	1.197568
1340.000000	1.192862
1341.000000	1.182952
1342.000000	1.173116
1343.000000	1.169558
1344.000000	1.154368
1345.000000	1.151379
1346.000000	1.150530
1347.000000	1.115411
1348.000000	1.114226
1349.000000	1.106361
1350.000000	1.093060
1351.000000	1.077471
1352.000000	1.084956
1353.000000	1.111478
1354.000000	1.080935
1355.000000	1.083254
1356.000000	1.112130
1357.000000	1.105115
1358.000000	1.125123
1359.000000	1.135117
1360.000000	1.103513
1361.000000	1.074028
1362.000000	1.089162
1363.000000	1.087620
1364.000000	1.087318
1365.000000	1.072661
1366.000000	1.070359
1367.000000	1.062361
1368.000000	1.044479
1369.000000	1.035329
1370.000000	1.038578
1371.000000	1.029814
1372.000000	1.029697
1373.000000	1.029982
1374.000000	1.060581
1375.000000	1.044002
1376.000000	1.046265
1377.000000	1.046373
1378.000000	1.037584
1379.000000	1.037397
1380.000000	1.002346
1381.000000	0.977018
1382.000000	0.929944
1383.000000	0.906717
1384.000000	0.928348
1385.000000	0.928267
1386.000000	0.915695
1387.000000	0.928802
1388.000000	0.910198
1389.000000	0.926422
1390.000000	0.926764
1391.000000	0.907485
1392.000000	0.884370
1393.000000	0.908787
1394.000000	0.892120
1395.000000	0.856847
1396.000000	0.842837
1397.000000	0.853719
1398.000000	0.870152
1399.000000	0.832267
1400.000000	0.813179
1401.000000	0.807645
1402.000000	0.829633
1403.000000	0.823381
1404.000000	0.819117
1405.000000	0.788806
1406.000000	0.802773
1407.000000	0.798430
1408.000000	0.791841
1409.000000	0.763444
1410.000000	0.759370
1411.000000	0.762263
1412.000000	0.773306
1413.000000	0.757268
1414.000000	0.766685
1415.000000	0.762167
1416.000000	0.759093
1417.000000	0.777608
1418.000000	0.754582
1419.000000	0.739581
1420.000000	0.749238
1421.000000	0.741963
1422.000000	0.741352
1423.000000	0.741114
1424.000000	0.744045
1425.000000	0.735892
1426.000000	0.728809
1427.000000	0.731968
1428.000000	0.730642
1429.000000	0.735026
1430.000000	0.743573
1431.000000	0.739161
1432.000000	0.724824
1433.000000	0.722320
1434.000000	0.728387
1435.000000	0.724659
1436.000000	0.728036
1437.000000	0.718715
1438.000000	0.711773
1439.000000	0.704969
1440.000000	0.704641
1441.000000	0.715438
1442.000000	0.716410
1443.000000	0.713986
1444.000000	0.703293
1445.000000	0.708580
1446.000000	0.703769
1447.000000	0.697586
1448.000000	0.697268
1449.000000	0.699084
1450.000000	0.696043
1451.000000	0.704401
1452.000000	0.704361
1453.000000	0.704791
1454.000000	0.698416
1455.000000	0.691969
1456.000000	0.694931
1457.000000	0.687559
1458.000000	0.687827
1459.000000	0.685316
1460.000000	0.686717
1461.000000	0.682157
1462.000000	0.687354
1463.000000	0.692594
1464.000000	0.691447
1465.000000	0.679419
1466.000000	0.672760
1467.000000	0.676145
1468.000000	0.683515
1469.000000	0.675715
1470.000000	0.672537
1471.000000	0.681770
1472.000000	0.679438
1473.000000	0.680271
1474.000000	0.682350
1475.000000	0.682870
1476.000000	0.680779
1477.000000	0.674166
1478.000000	0.663281
1479.000000	0.667884
1480.000000	0.677816
1481.000000	0.676720
1482.000000	0.672974
1483.000000	0.665600
1484.000000	0.668634
1485.000000	0.677640
1486.000000	0.679918
1487.000000	0.674992
1488.000000	0.676430
1489.000000	0.677101
1490.000000	0.678628
1491.000000	0.677945
1492.000000	0.677517
1493.000000	0.684048
1494.000000	0.681390
1495.000000	0.679226
1496.000000	0.683889
1497.000000	0.685472
1498.000000	0.693447
1499.000000	0.697192
1500.000000	0.694554
1501.000000	0.695380
1502.000000	0.697092
1503.000000	0.701468
1504.000000	0.712006
1505.000000	0.713451
1506.000000	0.713870
1507.000000	0.709950
1508.000000	0.702974
1509.000000	0.708284
1510.000000	0.709304
1511.000000	0.723328
1512.000000	0.731982
1513.000000	0.724021
1514.000000	0.720477
1515.000000	0.723241
1516.000000	0.727793
1517.000000	0.720827
1518.000000	0.723611
1519.000000	0.735621
1520.000000	0.731199
1521.000000	0.729547
1522.000000	0.739427
1523.000000	0.746982
1524.000000	0.740423
1525.000000	0.734672
1526.000000	0.739184
1527.000000	0.748065
1528.000000	0.747055
1529.000000	0.745480
1530.000000	0.751477
1531.000000	0.740772
1532.000000	0.735527
1533.000000	0.740599
1534.000000	0.746565
1535.000000	0.745186
1536.000000	0.744553
1537.000000	0.735935
1538.000000	0.748603
1539.000000	0.754209
1540.000000	0.747795
1541.000000	0.746423
1542.000000	0.737058
1543.000000	0.751023
1544.000000	0.756706
1545.000000	0.747901
1546.000000	0.756115
1547.000000	0.757233
1548.000000	0.758087
1549.000000	0.765880
1550.000000	0.767149
1551.000000	0.763261
1552.000000	0.759803
1553.000000	0.751199
1554.000000	0.757895
1555.000000	0.755936
1556.000000	0.759392
1557.000000	0.759000
1558.000000	0.760954
1559.000000	0.760134
1560.000000	0.761789
1561.000000	0.762607
1562.000000	0.767589
1563.000000	0.777288
1564.000000	0.763860
1565.000000	0.758113
1566.000000	0.765679
1567.000000	0.766243
1568.000000	0.769946
1569.000000	0.761775
1570.000000	0.761622
1571.000000	0.766819
1572.000000	0.769171
1573.000000	0.768556
1574.000000	0.763687
1575.000000	0.758965
1576.000000	0.771198
1577.000000	0.767626
1578.000000	0.758551
1579.000000	0.763758
1580.000000	0.765203
1581.000000	0.787910
1582.000000	0.786059
1583.000000	0.782665
1584.000000	0.778746
1585.000000	0.777613
1586.000000	0.780735
1587.000000	0.784093
1588.000000	0.778976
1589.000000	0.785677
1590.000000	0.797238
1591.000000	0.792062
1592.000000	0.787784
1593.000000	0.792856
1594.000000	0.808010
1595.000000	0.805329
1596.000000	0.810054
1597.000000	0.810884
1598.000000	0.809890
1599.000000	0.812068
1600.000000	0.812628
1601.000000	0.807653
1602.000000	0.822938
1603.000000	0.822376
1604.000000	0.824231
1605.000000	0.825438
1606.000000	0.830610
1607.000000	0.824311
1608.000000	0.842764
1609.000000	0.825207
1610.000000	0.816688
1611.000000	0.825083
1612.000000	0.832225
1613.000000	0.842270
1614.000000	0.836533
1615.000000	0.844625
1616.000000	0.830947
1617.000000	0.849699
1618.000000	0.855769
1619.000000	0.856354
1620.000000	0.846670
1621.000000	0.863286
1622.000000	0.851521
1623.000000	0.847639
1624.000000	0.853884
1625.000000	0.854987
1626.000000	0.848601
1627.000000	0.848189
1628.000000	0.852725
1629.000000	0.861545
1630.000000	0.868826
1631.000000	0.861623
1632.000000	0.853899
1633.000000	0.858138
1634.000000	0.861194
1635.000000	0.873126
1636.000000	0.872101
1637.000000	0.874375
1638.000000	0.880144
1639.000000	0.872881
1640.000000	0.864920
1641.000000	0.873775
1642.000000	0.867200
1643.000000	0.876374
1644.000000	0.876265
1645.000000	0.863495
1646.000000	0.868911
1647.000000	0.875345
1648.000000	0.875091
1649.000000	0.863260
1650.000000	0.859766
1651.000000	0.848247
1652.000000	0.850508
1653.000000	0.868584
1654.000000	0.853349
1655.000000	0.851322
1656.000000	0.853480
1657.000000	0.844367
1658.000000	0.851856
1659.000000	0.846493
1660.000000	0.854817
1661.000000	0.822974
1662.000000	0.825976
1663.000000	0.824959
1664.000000	0.808403
1665.000000	0.802420
1666.000000	0.793233
1667.000000	0.788695
1668.000000	0.787018
1669.000000	0.780819
1670.000000	0.756482
1671.000000	0.762398
1672.000000	0.746879
1673.000000	0.722704
1674.000000	0.713479
1675.000000	0.706244
1676.000000	0.690164
1677.000000	0.683082
1678.000000	0.676123
1679.000000	0.658962
1680.000000	0.663599
1681.000000	0.675462
1682.000000	0.681461
1683.000000	0.686156
1684.000000	0.697200
1685.000000	0.682506
1686.000000	0.683114
1687.000000	0.666015
1688.000000	0.664184
1689.000000	0.666872
1690.000000	0.663490
1691.000000	0.666922
1692.000000	0.685767
1693.000000	0.670563
1694.000000	0.688087
1695.000000	0.683253
1696.000000	0.697951
1697.000000	0.697249
1698.000000	0.699407
1699.000000	0.709504
1700.000000	0.705385
1701.000000	0.718523
1702.000000	0.704563
1703.000000	0.711216
1704.000000	0.703438
1705.000000	0.718747
1706.000000	0.706219
1707.000000	0.704163
1708.000000	0.694655
1709.000000	0.698767
1710.000000	0.686235
1711.000000	0.680733
1712.000000	0.691636
1713.000000	0.676668
1714.000000	0.678043
1715.000000	0.666464
1716.000000	0.653456
1717.000000	0.665277
1718.000000	0.667772
1719.000000	0.653937
1720.000000	0.650621
1721.000000	0.633123
1722.000000	0.635183
1723.000000	0.639235
1724.000000	0.638899
1725.000000	0.640067
1726.000000	0.629385
1727.000000	0.632272
1728.000000	0.637254
1729.000000	0.642460
1730.000000	0.644731
1731.000000	0.632839
1732.000000	0.634393
1733.000000	0.643693
1734.000000	0.661436
1735.000000	0.664978
1736.000000	0.664323
1737.000000	0.679658
1738.000000	0.690019
1739.000000	0.694625
1740.000000	0.701375
1741.000000	0.698044
1742.000000	0.686928
1743.000000	0.688877
1744.000000	0.703941
1745.000000	0.707863
1746.000000	0.702545
1747.000000	0.691743
1748.000000	0.702884
1749.000000	0.707835
1750.000000	0.702342
1751.000000	0.707999
1752.000000	0.704211
1753.000000	0.699706
1754.000000	0.688797
1755.000000	0.687680
1756.000000	0.694732
1757.000000	0.689347
1758.000000	0.695862
1759.000000	0.696099
1760.000000	0.690331
1761.000000	0.693255
1762.000000	0.696622
1763.000000	0.699877
1764.000000	0.704046
1765.000000	0.708849
1766.000000	0.713917
1767.000000	0.724279
1768.000000	0.712410
1769.000000	0.725784
1770.000000	0.739902
1771.000000	0.730064
1772.000000	0.721200
1773.000000	0.722604
1774.000000	0.725700
1775.000000	0.733552
1776.000000	0.742763
1777.000000	0.746249
1778.000000	0.747679
1779.000000	0.737284
1780.000000	0.742195
1781.000000	0.758978
1782.000000	0.760852
1783.000000	0.751497
1784.000000	0.748231
1785.000000	0.748816
1786.000000	0.745982
1787.000000	0.754065
1788.000000	0.754481
1789.000000	0.750217
1790.000000	0.751325
1791.000000	0.753733
1792.000000	0.755593
1793.000000	0.757479
1794.000000	0.761230
1795.000000	0.754890
1796.000000	0.751819
1797.000000	0.754356
1798.000000	0.756534
1799.000000	0.756762
1800.000000	0.759232
1801.000000	0.749650
1802.000000	0.749621
1803.000000	0.753622
1804.000000	0.751800
1805.000000	0.758059
1806.000000	0.764130
1807.000000	0.763415
1808.000000	0.766827
1809.000000	0.761608
1810.000000	0.746963
1811.000000	0.745957
1812.000000	0.750893
1813.000000	0.751824
1814.000000	0.760646
1815.000000	0.759337
1816.000000	0.750101
1817.000000	0.745957
1818.000000	0.758689
1819.000000	0.761569
1820.000000	0.745978
1821.000000	0.740136
1822.000000	0.737471
1823.000000	0.744152
1824.000000	0.758462
1825.000000	0.768544
1826.000000	0.756951
1827.000000	0.742633
1828.000000	0.751569
1829.000000	0.761140
1830.000000	0.761332
1831.000000	0.759374
1832.000000	0.760349
1833.000000	0.765216
1834.000000	0.770799
1835.000000	0.768375
1836.000000	0.759660
1837.000000	0.752455
1838.000000	0.750957
1839.000000	0.749326
1840.000000	0.753604
1841.000000	0.736323
1842.000000	0.729796
1843.000000	0.748084
1844.000000	0.768424
1845.000000	0.777931
1846.000000	0.773168
1847.000000	0.751716
1848.000000	0.726857
1849.000000	0.730555
1850.000000	0.730654
1851.000000	0.742510
1852.000000	0.744963
1853.000000	0.741157
1854.000000	0.743941
1855.000000	0.738519
1856.000000	0.741735
1857.000000	0.737512
1858.000000	0.736311
1859.000000	0.710231
1860.000000	0.707583
1861.000000	0.711658
1862.000000	0.711050
1863.000000	0.721076
1864.000000	0.715874
1865.000000	0.705782
1866.000000	0.714104
1867.000000	0.699707
1868.000000	0.675095
1869.000000	0.667813
1870.000000	0.652888
1871.000000	0.634272
1872.000000	0.617647
1873.000000	0.601065
1874.000000	0.602191
1875.000000	0.596015
1876.000000	0.579594
1877.000000	0.569626
1878.000000	0.562862
1879.000000	0.561543
1880.000000	0.566684
1881.000000	0.550796
1882.000000	0.544663
1883.000000	0.535455
1884.000000	0.520827
1885.000000	0.520318
1886.000000	0.512726
1887.000000	0.502005
1888.000000	0.481613
1889.000000	0.492694
1890.000000	0.480551
1891.000000	0.456469
1892.000000	0.453701
1893.000000	0.446368
1894.000000	0.447289
1895.000000	0.436060
1896.000000	0.426022
1897.000000	0.419308
1898.000000	0.404462
1899.000000	0.382340
1900.000000	0.382533
1901.000000	0.378124
1902.000000	0.368805
1903.000000	0.346637
1904.000000	0.344991
1905.000000	0.340281
1906.000000	0.331192
1907.000000	0.335119
1908.000000	0.330123
1909.000000	0.330791
1910.000000	0.325046
1911.000000	0.313033
1912.000000	0.295538
1913.000000	0.295895
1914.000000	0.294430
1915.000000	0.289513
1916.000000	0.295944
1917.000000	0.273378
1918.000000	0.271681
1919.000000	0.281114
1920.000000	0.288831
1921.000000	0.272011
1922.000000	0.254295
1923.000000	0.257173
1924.000000	0.255771
1925.000000	0.258260
1926.000000	0.255215
1927.000000	0.257566
1928.000000	0.255321
1929.000000	0.267641
1930.000000	0.261869
1931.000000	0.259693
1932.000000	0.251982
1933.000000	0.248223
1934.000000	0.255329
1935.000000	0.246430
1936.000000	0.253534
1937.000000	0.256385
1938.000000	0.242942
1939.000000	0.248509
1940.000000	0.258149
1941.000000	0.238608
1942.000000	0.258452
1943.000000	0.273782
1944.000000	0.249590
1945.000000	0.260616
1946.000000	0.256809
1947.000000	0.278878
1948.000000	0.260949
1949.000000	0.263513
1950.000000	0.263629
1951.000000	0.256654
1952.000000	0.277296
1953.000000	0.275098
1954.000000	0.287743
1955.000000	0.266581
1956.000000	0.279348
1957.000000	0.283208
1958.000000	0.280022
1959.000000	0.274995
1960.000000	0.278415
1961.000000	0.291720
1962.000000	0.284833
1963.000000	0.292435
1964.000000	0.288536
1965.000000	0.285469
1966.000000	0.290157
1967.000000	0.299883
1968.000000	0.304825
1969.000000	0.305795
1970.000000	0.300433
1971.000000	0.311345
1972.000000	0.312199
1973.000000	0.302413
1974.000000	0.306619
1975.000000	0.325978
1976.000000	0.310882
1977.000000	0.314963
1978.000000	0.315970
1979.000000	0.331361
1980.000000	0.330305
1981.000000	0.341801
1982.000000	0.335427
1983.000000	0.339536
1984.000000	0.334851
1985.000000	0.344101
1986.000000	0.353597
1987.000000	0.337281
1988.000000	0.348191
1989.000000	0.346977
1990.000000	0.348042
1991.000000	0.346750
1992.000000	0.350654
1993.000000	0.369732
1994.000000	0.358761
1995.000000	0.364192
1996.000000	0.353554
1997.000000	0.373860
1998.000000	0.365635
1999.000000	0.369000
2000.000000	0.381508
2001.000000	0.387803
2002.000000	0.392443
2003.000000	0.372134
2004.000000	0.378911
2005.000000	0.372213
2006.000000	0.376056
2007.000000	0.375289
2008.000000	0.371099
2009.000000	0.379847
2010.000000	0.372394
2011.000000	0.375620
2012.000000	0.378354
2013.000000	0.375017
2014.000000	0.374733
2015.000000	0.372763
2016.000000	0.367509
2017.000000	0.353200
2018.000000	0.360060
2019.000000	0.357902
2020.000000	0.365520
2021.000000	0.355875
2022.000000	0.358198
2023.000000	0.353281
2024.000000	0.350671
2025.000000	0.343739
2026.000000	0.342009
2027.000000	0.351725
2028.000000	0.335500
2029.000000	0.328861
2030.000000	0.329988
2031.000000	0.330108
2032.000000	0.329331
2033.000000	0.322971
2034.000000	0.331577
2035.000000	0.325096
2036.000000	0.315168
2037.000000	0.300593
2038.000000	0.302937
2039.000000	0.302446
2040.000000	0.296120
2041.000000	0.300453
2042.000000	0.288869
2043.000000	0.282810
2044.000000	0.284342
2045.000000	0.280804
2046.000000	0.269228
2047.000000	0.279709
2048.000000	0.268868
2049.000000	0.266959
2050.000000	0.261151
2051.000000	0.253600
2052.000000	0.256245
2053.000000	0.252989
2054.000000	0.260255
2055.000000	0.264922
2056.000000	0.268055
2057.000000	0.257535
2058.000000	0.249862
2059.000000	0.251003
2060.000000	0.252640
2061.000000	0.253338
2062.000000	0.257404
2063.000000	0.257156
2064.000000	0.262804
2065.000000	0.267569
2066.000000	0.273539
2067.000000	0.272454
2068.000000	0.265295
2069.000000	0.261765
2070.000000	0.263083
2071.000000	0.269312
2072.000000	0.270925
2073.000000	0.274443
2074.000000	0.268737
2075.000000	0.273298
2076.000000	0.275738
2077.000000	0.279910
2078.000000	0.280232
2079.000000	0.268676
2080.000000	0.270990
2081.000000	0.272891
2082.000000	0.272708
2083.000000	0.270593
2084.000000	0.278482
2085.000000	0.282606
2086.000000	0.275180
2087.000000	0.276812
2088.000000	0.272823
2089.000000	0.269470
2090.000000	0.279258
2091.000000	0.281370
2092.000000	0.272179
2093.000000	0.271337
2094.000000	0.275375
2095.000000	0.272210
2096.000000	0.272864
2097.000000	0.277464
2098.000000	0.282916
2099.000000	0.277808
2100.000000	0.266892
2101.000000	0.269460
2102.000000	0.275612
2103.000000	0.283002
2104.000000	0.284375
2105.000000	0.276873
2106.000000	0.275349
2107.000000	0.269244
2108.000000	0.277057
2109.000000	0.282480
2110.000000	0.274092
2111.000000	0.275156
2112.000000	0.281108
2113.000000	0.283827
2114.000000	0.291168
2115.000000	0.299687
2116.000000	0.293339
2117.000000	0.273813
2118.000000	0.278587
2119.000000	0.284155
2120.000000	0.285675
2121.000000	0.271228
2122.000000	0.269225
2123.000000	0.271672
2124.000000	0.276624
2125.000000	0.271370
2126.000000	0.284060
2127.000000	0.286737
2128.000000	0.273577
2129.000000	0.276853
2130.000000	0.281708
2131.000000	0.280625
2132.000000	0.268287
2133.000000	0.275936
2134.000000	0.286841
2135.000000	0.282394
2136.000000	0.269887
2137.000000	0.268037
2138.000000	0.267838
2139.000000	0.261488
2140.000000	0.269927
2141.000000	0.286106
2142.000000	0.280312
2143.000000	0.264268
2144.000000	0.267087
2145.000000	0.265399
2146.000000	0.265639
2147.000000	0.253277
2148.000000	0.259872
2149.000000	0.263345
2150.000000	0.272677
2151.000000	0.251344
2152.000000	0.242084
2153.000000	0.253636
2154.000000	0.252570
2155.000000	0.255232
2156.000000	0.252500
2157.000000	0.252802
2158.000000	0.251603
2159.000000	0.250311
2160.000000	0.243095
2161.000000	0.255671
2162.000000	0.236326
2163.000000	0.244529
2164.000000	0.253528
2165.000000	0.238024
2166.000000	0.247131
2167.000000	0.245637
2168.000000	0.252189
2169.000000	0.259691
2170.000000	0.255432
2171.000000	0.250978
2172.000000	0.245305
2173.000000	0.247612
2174.000000	0.253287
2175.000000	0.255327
2176.000000	0.246248
2177.000000	0.232396
2178.000000	0.240403
2179.000000	0.246164
2180.000000	0.249676
2181.000000	0.255856
2182.000000	0.256091
2183.000000	0.260051
2184.000000	0.249552
2185.000000	0.257436
2186.000000	0.257700
2187.000000	0.240305
2188.000000	0.240821
2189.000000	0.250940
2190.000000	0.252798
2191.000000	0.260038
2192.000000	0.255119
2193.000000	0.265506
2194.000000	0.252407
2195.000000	0.261642
2196.000000	0.251445
2197.000000	0.266318
2198.000000	0.252486
2199.000000	0.247861
2200.000000	0.257602
2201.000000	0.240586
2202.000000	0.251131
2203.000000	0.248338
2204.000000	0.266432
2205.000000	0.259992
2206.000000	0.250304
2207.000000	0.258719
2208.000000	0.255330
2209.000000	0.248165
2210.000000	0.260656
2211.000000	0.255083
2212.000000	0.249083
2213.000000	0.271355
2214.000000	0.263496
2215.000000	0.271376
2216.000000	0.265032
2217.000000	0.257129
2218.000000	0.261337
2219.000000	0.265360
2220.000000	0.263477
2221.000000	0.266641
2222.000000	0.260175
2223.000000	0.263944
2224.000000	0.242704
2225.000000	0.267363
2226.000000	0.265587
2227.000000	0.264770
2228.000000	0.265837
2229.000000	0.270752
2230.000000	0.244848
2231.000000	0.260867
2232.000000	0.260871
2233.000000	0.255599
2234.000000	0.259602
2235.000000	0.255701
2236.000000	0.251180
2237.000000	0.241909
2238.000000	0.248213
2239.000000	0.245322
2240.000000	0.247327
2241.000000	0.236511
2242.000000	0.239830
2243.000000	0.238873
2244.000000	0.211137
2245.000000	0.216848
2246.000000	0.214749
2247.000000	0.210158
2248.000000	0.211270
2249.000000	0.205947
2250.000000	0.207818
2251.000000	0.195348
2252.000000	0.175751
2253.000000	0.191667
2254.000000	0.170964
2255.000000	0.173150
2256.000000	0.174942
2257.000000	0.172668
2258.000000	0.158071
2259.000000	0.150926
2260.000000	0.146788
2261.000000	0.146455
2262.000000	0.145814
2263.000000	0.148819
2264.000000	0.125292
2265.000000	0.139972
2266.000000	0.136120
2267.000000	0.122852
2268.000000	0.141447
2269.000000	0.152558
2270.000000	0.135755
2271.000000	0.141987
2272.000000	0.133328
2273.000000	0.142029
2274.000000	0.135114
2275.000000	0.141386
2276.000000	0.136698
2277.000000	0.134440
2278.000000	0.146960
2279.000000	0.140915
2280.000000	0.134437
2281.000000	0.157144
2282.000000	0.149224
2283.000000	0.155327
2284.000000	0.158110
2285.000000	0.157134
2286.000000	0.153669
2287.000000	0.143050
2288.000000	0.140015
2289.000000	0.149080
2290.000000	0.153552
2291.000000	0.136370
2292.000000	0.152859
2293.000000	0.156134
2294.000000	0.158701
2295.000000	0.143538
2296.000000	0.147739
2297.000000	0.138624
2298.000000	0.136064
2299.000000	0.138178
2300.000000	0.144417
2301.000000	0.141881
2302.000000	0.138758
2303.000000	0.142703
2304.000000	0.138154
2305.000000	0.144186
2306.000000	0.156745
2307.000000	0.148991
2308.000000	0.148452
2309.000000	0.158670
2310.000000	0.158708
2311.000000	0.162594
2312.000000	0.152591
2313.000000	0.154060
2314.000000	0.159699
2315.000000	0.162444
2316.000000	0.164414
2317.000000	0.168380
2318.000000	0.169216
2319.000000	0.162131
2320.000000	0.173326
2321.000000	0.191488
2322.000000	0.194116
2323.000000	0.180631
2324.000000	0.178906
2325.000000	0.189223
2326.000000	0.182514
2327.000000	0.180572
2328.000000	0.188176
2329.000000	0.188711
2330.000000	0.184498
2331.000000	0.184687
2332.000000	0.191177
2333.000000	0.202325
2334.000000	0.198425
2335.000000	0.188096
2336.000000	0.186287
2337.000000	0.185496
2338.000000	0.185534
2339.000000	0.183290
2340.000000	0.188842
2341.000000	0.197733
2342.000000	0.193052
2343.000000	0.183345
2344.000000	0.174723
2345.000000	0.176536
2346.000000	0.178508
2347.000000	0.196530
2348.000000	0.201664
2349.000000	0.182779
2350.000000	0.181134
2351.000000	0.181268
2352.000000	0.171929
2353.000000	0.174570
2354.000000	0.183596
2355.000000	0.186381
2356.000000	0.190995
2357.000000	0.198230
2358.000000	0.187303
2359.000000	0.183644
2360.000000	0.196644
2361.000000	0.185354
2362.000000	0.164460
2363.000000	0.175875
2364.000000	0.185621
2365.000000	0.186601
2366.000000	0.181261
2367.000000	0.176619
2368.000000	0.178323
2369.000000	0.183351
2370.000000	0.182115
2371.000000	0.180419
2372.000000	0.186102
2373.000000	0.182510
2374.000000	0.179259
2375.000000	0.183804
2376.000000	0.187195
2377.000000	0.180016
2378.000000	0.182769
2379.000000	0.190474
2380.000000	0.179246
2381.000000	0.177746
2382.000000	0.179257
2383.000000	0.174462
2384.000000	0.175526
2385.000000	0.170555
2386.000000	0.166202
2387.000000	0.170788
2388.000000	0.168459
2389.000000	0.176650
2390.000000	0.176039
2391.000000	0.166239
2392.000000	0.158935
2393.000000	0.172491
2394.000000	0.171033
2395.000000	0.172827
2396.000000	0.175938
2397.000000	0.162701
2398.000000	0.150120
2399.000000	0.159342
2400.000000	0.155079
2401.000000	0.162145
2402.000000	0.156182
2403.000000	0.156924
2404.000000	0.160826
2405.000000	0.149460
2406.000000	0.151937
2407.000000	0.142312
2408.000000	0.146150
2409.000000	0.140614
2410.000000	0.144822
2411.000000	0.135505
2412.000000	0.147321
2413.000000	0.145595
2414.000000	0.143828
2415.000000	0.142699
2416.000000	0.147663
2417.000000	0.152843
2418.000000	0.151587
2419.000000	0.150124
2420.000000	0.152398
2421.000000	0.149733
2422.000000	0.134200
2423.000000	0.135939
2424.000000	0.139022
2425.000000	0.149868
2426.000000	0.134143
2427.000000	0.136373
2428.000000	0.142807
2429.000000	0.135726
2430.000000	0.135712
2431.000000	0.140714
2432.000000	0.133993
2433.000000	0.139927
2434.000000	0.130144
2435.000000	0.136593
2436.000000	0.135420
2437.000000	0.140275
2438.000000	0.123097
2439.000000	0.134439
2440.000000	0.131124
2441.000000	0.115350
2442.000000	0.120898
2443.000000	0.128037
2444.000000	0.120062
2445.000000	0.121335
2446.000000	0.104818
2447.000000	0.125372
2448.000000	0.123484
2449.000000	0.133236
2450.000000	0.126982
2451.000000	0.142632
2452.000000	0.142847
2453.000000	0.127279
2454.000000	0.130917
2455.000000	0.114103
2456.000000	0.117170
2457.000000	0.123477
2458.000000	0.126784
2459.000000	0.121912
2460.000000	0.121600
2461.000000	0.107277
2462.000000	0.118940
2463.000000	0.144578
2464.000000	0.112737
2465.000000	0.108017
2466.000000	0.116058
2467.000000	0.106247
2468.000000	0.107357
2469.000000	0.130659
2470.000000	0.142814
2471.000000	0.141365
2472.000000	0.147201
2473.000000	0.154551
2474.000000	0.188153
2475.000000	0.187628
2476.000000	0.108946
2477.000000	0.125000
2478.000000	0.147552
2479.000000	0.077333
2480.000000	0.103857
2481.000000	0.150979
2482.000000	0.198825
2483.000000	0.201293
2484.000000	0.141909
2485.000000	0.133558
2486.000000	0.136773
2487.000000	0.131908
2488.000000	0.179359
2489.000000	0.170732
2490.000000	0.178583
2491.000000	0.131525
2492.000000	0.104362
2493.000000	0.177821
2494.000000	0.120204
2495.000000	0.136683
2496.000000	0.208822
2497.000000	0.168270
2498.000000	0.185701
2499.000000	0.226504
2500.000000	0.130013
