PE UV       SUBTECH     SPECTRUM    ASCII       PEDS        4.00        
   -1
CICIMAUCR0205-3.ASC
24/06/06
14:28:09.00
24/06/06
14:28:09.00
Vinicio Soto Monge
C. cupreomarginata. Sex F. Ventral
250,000000
1
Lambda 1050
1050L1511233
PerkinElmer UV WinLab 6.3.2.0749 / 2.02.05 Lambda 900 UV/VIS/NIR, Aug  7 2015 09:38:08

0
0
3350/servo 860,8/2
0
0
UV/VIS
1
1
1
DoubleDePol,CommonBeamDepol,RBeamAtt,SBeamAtt,60mm sphere, WB InGaAs Detector
0
0
0
0
Program
Program
3350/servo 860,8/2
3350/0,2 860,8/0,2
3350/0,2 860,8/0,2
0
15.00
 
 
 
0
 
860,8
319,2
860,8
Front
100
on
S:100 R:100
0
0
0
0
 
0
 
 
 
0
 
 
0
0
0
0
0
 
 
 
 
0
0


0
0
#HDR
-1
-1
#GR
nm
%R
1.0
0.0
2500,000000
-1,000000
2251
8
59,401500
4,327600
#DATA
2482.000000	10.513110
2481.000000	10.513225
2480.000000	10.440796
2479.000000	10.465629
2478.000000	10.463329
2477.000000	10.472297
2476.000000	10.496900
2475.000000	10.464709
2474.000000	10.530010
2473.000000	10.494945
2472.000000	10.543001
2471.000000	10.534609
2470.000000	10.563120
2469.000000	10.558177
2468.000000	10.601059
2467.000000	10.647621
2466.000000	10.627157
2465.000000	10.671189
2464.000000	10.711542
2463.000000	10.719360
2462.000000	10.790179
2461.000000	10.807654
2460.000000	10.835016
2459.000000	10.827083
2458.000000	10.890545
2457.000000	10.938716
2456.000000	10.997119
2455.000000	11.060925
2454.000000	11.071387
2453.000000	11.097600
2452.000000	11.174167
2451.000000	11.257978
2450.000000	11.320405
2449.000000	11.366851
2448.000000	11.423989
2447.000000	11.462043
2446.000000	11.540220
2445.000000	11.634378
2444.000000	11.660590
2443.000000	11.735663
2442.000000	11.769119
2441.000000	11.837409
2440.000000	11.895467
2439.000000	11.979852
2438.000000	12.060674
2437.000000	12.089185
2436.000000	12.154141
2435.000000	12.218408
2434.000000	12.285088
2433.000000	12.331880
2432.000000	12.414541
2431.000000	12.458573
2430.000000	12.489499
2429.000000	12.572964
2428.000000	12.615847
2427.000000	12.675974
2426.000000	12.715868
2425.000000	12.777030
2424.000000	12.832674
2423.000000	12.862335
2422.000000	12.919588
2421.000000	12.980406
2420.000000	13.019264
2419.000000	13.055249
2418.000000	13.091463
2417.000000	13.125723
2416.000000	13.165847
2415.000000	13.216087
2414.000000	13.256095
2413.000000	13.265982
2412.000000	13.303346
2411.000000	13.339446
2410.000000	13.375660
2409.000000	13.406471
2408.000000	13.427280
2407.000000	13.448894
2406.000000	13.475796
2405.000000	13.503273
2404.000000	13.510286
2403.000000	13.535924
2402.000000	13.561791
2401.000000	13.578231
2400.000000	13.593177
2399.000000	13.609502
2398.000000	13.610077
2397.000000	13.609502
2396.000000	13.625368
2395.000000	13.623528
2394.000000	13.640658
2393.000000	13.661812
2392.000000	13.659053
2391.000000	13.659398
2390.000000	13.674458
2389.000000	13.678942
2388.000000	13.685380
2387.000000	13.697796
2386.000000	13.694462
2385.000000	13.695957
2384.000000	13.681701
2383.000000	13.672619
2382.000000	13.673309
2381.000000	13.652730
2380.000000	13.651235
2379.000000	13.654454
2378.000000	13.641693
2377.000000	13.632495
2376.000000	13.636634
2375.000000	13.618929
2374.000000	13.593062
2373.000000	13.584899
2372.000000	13.582945
2371.000000	13.584669
2370.000000	13.568919
2369.000000	13.548110
2368.000000	13.548915
2367.000000	13.547650
2366.000000	13.529256
2365.000000	13.517069
2364.000000	13.526151
2363.000000	13.515345
2362.000000	13.496835
2361.000000	13.494421
2360.000000	13.486143
2359.000000	13.475681
2358.000000	13.467059
2357.000000	13.451883
2356.000000	13.430384
2355.000000	13.420497
2354.000000	13.429120
2353.000000	13.415324
2352.000000	13.392330
2351.000000	13.384743
2350.000000	13.380259
2349.000000	13.373936
2348.000000	13.365198
2347.000000	13.346114
2346.000000	13.320936
2345.000000	13.325420
2344.000000	13.331513
2343.000000	13.323581
2342.000000	13.334732
2341.000000	13.321971
2340.000000	13.303346
2339.000000	13.300472
2338.000000	13.296333
2337.000000	13.308520
2336.000000	13.310819
2335.000000	13.302082
2334.000000	13.318292
2333.000000	13.318522
2332.000000	13.311509
2331.000000	13.332778
2330.000000	13.338296
2329.000000	13.347379
2328.000000	13.347034
2327.000000	13.347953
2326.000000	13.365083
2325.000000	13.394400
2324.000000	13.385777
2323.000000	13.395779
2322.000000	13.409001
2321.000000	13.395550
2320.000000	13.381754
2319.000000	13.380604
2318.000000	13.375315
2317.000000	13.360600
2316.000000	13.342780
2315.000000	13.326455
2314.000000	13.307025
2313.000000	13.298863
2312.000000	13.268856
2311.000000	13.228963
2310.000000	13.207464
2309.000000	13.187345
2308.000000	13.156649
2307.000000	13.139174
2306.000000	13.109053
2305.000000	13.102730
2304.000000	13.082496
2303.000000	13.057203
2302.000000	13.035245
2301.000000	13.046396
2300.000000	13.040418
2299.000000	13.033060
2298.000000	13.044442
2297.000000	13.035015
2296.000000	13.045707
2295.000000	13.042028
2294.000000	13.062837
2293.000000	13.066056
2292.000000	13.063066
2291.000000	13.099741
2290.000000	13.129057
2289.000000	13.140209
2288.000000	13.173549
2287.000000	13.183091
2286.000000	13.190679
2285.000000	13.216547
2284.000000	13.244484
2283.000000	13.284377
2282.000000	13.305761
2281.000000	13.339561
2280.000000	13.359450
2279.000000	13.393940
2278.000000	13.415439
2277.000000	13.463035
2276.000000	13.469473
2275.000000	13.491317
2274.000000	13.514425
2273.000000	13.519368
2272.000000	13.549490
2271.000000	13.571908
2270.000000	13.594786
2269.000000	13.647441
2268.000000	13.642383
2267.000000	13.689749
2266.000000	13.735735
2265.000000	13.768271
2264.000000	13.835756
2263.000000	13.880363
2262.000000	13.932443
2261.000000	14.024876
2260.000000	14.083739
2259.000000	14.171458
2258.000000	14.256189
2257.000000	14.328388
2256.000000	14.433812
2255.000000	14.538431
2254.000000	14.635003
2253.000000	14.745371
2252.000000	14.858383
2251.000000	14.951276
2250.000000	15.073255
2249.000000	15.163849
2248.000000	15.267434
2247.000000	15.371478
2246.000000	15.422868
2245.000000	15.522429
2244.000000	15.608309
2243.000000	15.687061
2242.000000	15.765469
2241.000000	15.826056
2240.000000	15.868823
2239.000000	15.924467
2238.000000	15.988044
2237.000000	16.022419
2236.000000	16.051045
2235.000000	16.042308
2234.000000	16.051620
2233.000000	16.072774
2232.000000	16.059898
2231.000000	16.079557
2230.000000	16.088639
2229.000000	16.022534
2228.000000	16.029432
2227.000000	16.017935
2226.000000	15.992872
2225.000000	15.965395
2224.000000	15.902969
2223.000000	15.871238
2222.000000	15.814559
2221.000000	15.782829
2220.000000	15.751558
2219.000000	15.687406
2218.000000	15.627509
2217.000000	15.565772
2216.000000	15.538410
2215.000000	15.480927
2214.000000	15.442413
2213.000000	15.378491
2212.000000	15.333425
2211.000000	15.286058
2210.000000	15.250304
2209.000000	15.217193
2208.000000	15.170862
2207.000000	15.141890
2206.000000	15.110390
2205.000000	15.076704
2204.000000	15.046353
2203.000000	15.014737
2202.000000	14.984501
2201.000000	14.974499
2200.000000	14.954380
2199.000000	14.936905
2198.000000	14.899426
2197.000000	14.906209
2196.000000	14.878732
2195.000000	14.874133
2194.000000	14.859073
2193.000000	14.825733
2192.000000	14.836539
2191.000000	14.797451
2190.000000	14.808143
2189.000000	14.762616
2188.000000	14.780666
2187.000000	14.758362
2186.000000	14.728241
2185.000000	14.748360
2184.000000	14.716514
2183.000000	14.724907
2182.000000	14.699040
2181.000000	14.681220
2180.000000	14.677656
2179.000000	14.673172
2178.000000	14.685359
2177.000000	14.661675
2176.000000	14.664090
2175.000000	14.637303
2174.000000	14.655352
2173.000000	14.629945
2172.000000	14.653858
2171.000000	14.684324
2170.000000	14.686623
2169.000000	14.682369
2168.000000	14.700764
2167.000000	14.723297
2166.000000	14.740312
2165.000000	14.760547
2164.000000	14.788483
2163.000000	14.827802
2162.000000	14.861142
2161.000000	14.887585
2160.000000	14.944953
2159.000000	14.982317
2158.000000	15.035431
2157.000000	15.071186
2156.000000	15.131084
2155.000000	15.198339
2154.000000	15.253638
2153.000000	15.327561
2152.000000	15.389528
2151.000000	15.444712
2150.000000	15.522544
2149.000000	15.590030
2148.000000	15.652112
2147.000000	15.724426
2146.000000	15.820882
2145.000000	15.877791
2144.000000	15.942632
2143.000000	16.014831
2142.000000	16.079327
2141.000000	16.166472
2140.000000	16.233612
2139.000000	16.278794
2138.000000	16.354212
2137.000000	16.430895
2136.000000	16.505738
2135.000000	16.565980
2134.000000	16.636225
2133.000000	16.690259
2132.000000	16.739005
2131.000000	16.778783
2130.000000	16.836266
2129.000000	16.876965
2128.000000	16.927895
2127.000000	16.965719
2126.000000	17.012970
2125.000000	17.036883
2124.000000	17.082065
2123.000000	17.113910
2122.000000	17.136214
2121.000000	17.175762
2120.000000	17.194272
2119.000000	17.216116
2118.000000	17.240144
2117.000000	17.248651
2116.000000	17.268540
2115.000000	17.299696
2114.000000	17.311078
2113.000000	17.313492
2112.000000	17.321425
2111.000000	17.303950
2110.000000	17.320735
2109.000000	17.363388
2108.000000	17.363388
2107.000000	17.349937
2106.000000	17.347407
2105.000000	17.342924
2104.000000	17.348212
2103.000000	17.345568
2102.000000	17.336256
2101.000000	17.338440
2100.000000	17.339820
2099.000000	17.337750
2098.000000	17.344763
2097.000000	17.321310
2096.000000	17.310848
2095.000000	17.323494
2094.000000	17.329243
2093.000000	17.348557
2092.000000	17.348902
2091.000000	17.336371
2090.000000	17.329932
2089.000000	17.333152
2088.000000	17.341084
2087.000000	17.322000
2086.000000	17.293028
2085.000000	17.283141
2084.000000	17.280612
2083.000000	17.265896
2082.000000	17.238304
2081.000000	17.195767
2080.000000	17.149665
2079.000000	17.111381
2078.000000	17.068269
2077.000000	17.023432
2076.000000	16.974456
2075.000000	16.909385
2074.000000	16.826379
2073.000000	16.760159
2072.000000	16.682671
2071.000000	16.599550
2070.000000	16.526777
2069.000000	16.443311
2068.000000	16.355247
2067.000000	16.260974
2066.000000	16.178658
2065.000000	16.102665
2064.000000	16.038054
2063.000000	15.949875
2062.000000	15.854683
2061.000000	15.794440
2060.000000	15.738911
2059.000000	15.670851
2058.000000	15.612793
2057.000000	15.557034
2056.000000	15.517141
2055.000000	15.509553
2054.000000	15.504725
2053.000000	15.504150
2052.000000	15.519900
2051.000000	15.547377
2050.000000	15.572900
2049.000000	15.633717
2048.000000	15.684992
2047.000000	15.752477
2046.000000	15.842036
2045.000000	15.921593
2044.000000	16.010692
2043.000000	16.097377
2042.000000	16.192799
2041.000000	16.290176
2040.000000	16.367318
2039.000000	16.467454
2038.000000	16.565750
2037.000000	16.633006
2036.000000	16.709228
2035.000000	16.795568
2034.000000	16.862249
2033.000000	16.932838
2032.000000	16.993081
2031.000000	17.058152
2030.000000	17.119774
2029.000000	17.171969
2028.000000	17.214391
2027.000000	17.230027
2026.000000	17.266586
2025.000000	17.324414
2024.000000	17.364422
2023.000000	17.398797
2022.000000	17.419721
2021.000000	17.436047
2020.000000	17.449728
2019.000000	17.458695
2018.000000	17.482953
2017.000000	17.504797
2016.000000	17.514914
2015.000000	17.498703
2014.000000	17.493645
2013.000000	17.495484
2012.000000	17.496979
2011.000000	17.475365
2010.000000	17.466743
2009.000000	17.456396
2008.000000	17.418687
2007.000000	17.400062
2006.000000	17.377874
2005.000000	17.324644
2004.000000	17.288315
2003.000000	17.243478
2002.000000	17.229337
2001.000000	17.206114
2000.000000	17.138283
1999.000000	17.079076
1998.000000	17.014579
1997.000000	16.959166
1996.000000	16.922951
1995.000000	16.838451
1994.000000	16.777863
1993.000000	16.708654
1992.000000	16.636340
1991.000000	16.573338
1990.000000	16.477686
1989.000000	16.429745
1988.000000	16.364444
1987.000000	16.290865
1986.000000	16.207055
1985.000000	16.121750
1984.000000	16.057943
1983.000000	15.972983
1982.000000	15.898140
1981.000000	15.839277
1980.000000	15.775011
1979.000000	15.703157
1978.000000	15.622680
1977.000000	15.547837
1976.000000	15.481271
1975.000000	15.425628
1974.000000	15.357453
1973.000000	15.284794
1972.000000	15.219723
1971.000000	15.150053
1970.000000	15.098203
1969.000000	15.030028
1968.000000	14.969671
1967.000000	14.919775
1966.000000	14.856889
1965.000000	14.763536
1964.000000	14.726287
1963.000000	14.671907
1962.000000	14.605227
1961.000000	14.549008
1960.000000	14.469796
1959.000000	14.427374
1958.000000	14.348852
1957.000000	14.298841
1956.000000	14.230896
1955.000000	14.179046
1954.000000	14.101099
1953.000000	14.063275
1952.000000	13.990731
1951.000000	13.941755
1950.000000	13.868867
1949.000000	13.834032
1948.000000	13.788045
1947.000000	13.736885
1946.000000	13.695267
1945.000000	13.646866
1944.000000	13.616055
1943.000000	13.572253
1942.000000	13.535924
1941.000000	13.516609
1940.000000	13.480050
1939.000000	13.483614
1938.000000	13.458206
1937.000000	13.445215
1936.000000	13.466944
1935.000000	13.463150
1934.000000	13.434408
1933.000000	13.473612
1932.000000	13.480970
1931.000000	13.504308
1930.000000	13.547650
1929.000000	13.580186
1928.000000	13.638474
1927.000000	13.706189
1926.000000	13.766431
1925.000000	13.852771
1924.000000	13.878409
1923.000000	13.962104
1922.000000	14.046950
1921.000000	14.154443
1920.000000	14.296542
1919.000000	14.431857
1918.000000	14.514633
1917.000000	14.654777
1916.000000	14.771928
1915.000000	14.896207
1914.000000	15.039225
1913.000000	15.253408
1912.000000	15.468855
1911.000000	15.686832
1910.000000	15.875147
1909.000000	16.062542
1908.000000	16.251087
1907.000000	16.506313
1906.000000	16.787176
1905.000000	17.111381
1904.000000	17.512499
1903.000000	17.837739
1902.000000	18.146195
1901.000000	18.515122
1900.000000	18.897271
1899.000000	19.337477
1898.000000	19.803551
1897.000000	20.244103
1896.000000	20.689598
1895.000000	21.053237
1894.000000	21.468496
1893.000000	21.906058
1892.000000	22.396045
1891.000000	22.985364
1890.000000	23.585949
1889.000000	24.126521
1888.000000	24.614094
1887.000000	25.080858
1886.000000	25.590389
1885.000000	26.078307
1884.000000	26.570478
1883.000000	27.110476
1882.000000	27.604372
1881.000000	28.005030
1880.000000	28.402814
1879.000000	28.767603
1878.000000	29.137335
1877.000000	29.529486
1876.000000	29.880478
1875.000000	30.244462
1874.000000	30.574991
1873.000000	30.914487
1872.000000	31.289048
1871.000000	31.573245
1870.000000	31.863765
1869.000000	32.139685
1868.000000	32.388817
1867.000000	32.570234
1866.000000	32.695548
1865.000000	32.768092
1864.000000	32.832473
1863.000000	32.896049
1862.000000	32.968708
1861.000000	33.106783
1860.000000	33.250491
1859.000000	33.387301
1858.000000	33.541816
1857.000000	33.635629
1856.000000	33.686904
1855.000000	33.720819
1854.000000	33.774623
1853.000000	33.816586
1852.000000	33.853950
1851.000000	33.862113
1850.000000	33.852685
1849.000000	33.867516
1848.000000	33.923735
1847.000000	34.012374
1846.000000	34.033413
1845.000000	33.974205
1844.000000	33.923735
1843.000000	33.826473
1842.000000	33.800606
1841.000000	33.824634
1840.000000	33.851306
1839.000000	33.840499
1838.000000	33.814746
1837.000000	33.785890
1836.000000	33.749905
1835.000000	33.693227
1834.000000	33.629076
1833.000000	33.534458
1832.000000	33.442945
1831.000000	33.386956
1830.000000	33.358559
1829.000000	33.324414
1828.000000	33.283716
1827.000000	33.247502
1826.000000	33.205079
1825.000000	33.173923
1824.000000	33.117015
1823.000000	33.043551
1822.000000	32.999174
1821.000000	33.035963
1820.000000	33.074707
1819.000000	33.070453
1818.000000	33.035504
1817.000000	32.978020
1816.000000	32.924101
1815.000000	32.902257
1814.000000	32.865353
1813.000000	32.830978
1812.000000	32.816377
1811.000000	32.789935
1810.000000	32.757170
1809.000000	32.713253
1808.000000	32.661288
1807.000000	32.619670
1806.000000	32.592883
1805.000000	32.569659
1804.000000	32.536549
1803.000000	32.506083
1802.000000	32.467799
1801.000000	32.432619
1800.000000	32.399164
1799.000000	32.361685
1798.000000	32.323861
1797.000000	32.296154
1796.000000	32.266838
1795.000000	32.247408
1794.000000	32.230968
1793.000000	32.197398
1792.000000	32.162678
1791.000000	32.145778
1790.000000	32.134626
1789.000000	32.117036
1788.000000	32.090824
1787.000000	32.085651
1786.000000	32.082661
1785.000000	32.058403
1784.000000	32.051046
1783.000000	32.031501
1782.000000	32.014831
1781.000000	31.988504
1780.000000	31.944587
1779.000000	31.919754
1778.000000	31.889633
1777.000000	31.832839
1776.000000	31.765929
1775.000000	31.714884
1774.000000	31.670507
1773.000000	31.622795
1772.000000	31.552321
1771.000000	31.464142
1770.000000	31.394242
1769.000000	31.323423
1768.000000	31.236278
1767.000000	31.162815
1766.000000	31.094754
1765.000000	31.009909
1764.000000	30.938400
1763.000000	30.877123
1762.000000	30.849186
1761.000000	30.814926
1760.000000	30.774918
1759.000000	30.745946
1758.000000	30.756753
1757.000000	30.738703
1756.000000	30.721228
1755.000000	30.714675
1754.000000	30.705018
1753.000000	30.685704
1752.000000	30.675817
1751.000000	30.646385
1750.000000	30.626151
1749.000000	30.597409
1748.000000	30.552917
1747.000000	30.521646
1746.000000	30.479339
1745.000000	30.423120
1744.000000	30.355750
1743.000000	30.309648
1742.000000	30.250211
1741.000000	30.177897
1740.000000	30.105468
1739.000000	30.017518
1738.000000	29.941526
1737.000000	29.889906
1736.000000	29.805520
1735.000000	29.739070
1734.000000	29.663882
1733.000000	29.607778
1732.000000	29.531210
1731.000000	29.460851
1730.000000	29.402333
1729.000000	29.356346
1728.000000	29.310360
1727.000000	29.277594
1726.000000	29.268052
1725.000000	29.273685
1724.000000	29.266672
1723.000000	29.309900
1722.000000	29.345539
1721.000000	29.417393
1720.000000	29.535809
1719.000000	29.665261
1718.000000	29.804141
1717.000000	29.982914
1716.000000	30.153294
1715.000000	30.323444
1714.000000	30.499918
1713.000000	30.658227
1712.000000	30.804119
1711.000000	30.935986
1710.000000	31.086477
1709.000000	31.199029
1708.000000	31.299165
1707.000000	31.391368
1706.000000	31.490009
1705.000000	31.549677
1704.000000	31.601642
1703.000000	31.655676
1702.000000	31.700053
1701.000000	31.770182
1700.000000	31.833299
1699.000000	31.893082
1698.000000	31.954934
1697.000000	32.010003
1696.000000	32.047137
1695.000000	32.100711
1694.000000	32.100481
1693.000000	32.107034
1692.000000	32.102895
1691.000000	32.112553
1690.000000	32.130143
1689.000000	32.162793
1688.000000	32.219357
1687.000000	32.351108
1686.000000	32.496196
1685.000000	32.680832
1684.000000	32.912489
1683.000000	33.146216
1682.000000	33.389715
1681.000000	33.660576
1680.000000	33.923735
1679.000000	34.186893
1678.000000	34.425333
1677.000000	34.681479
1676.000000	34.913481
1675.000000	35.142149
1674.000000	35.368059
1673.000000	35.578102
1672.000000	35.774005
1671.000000	36.005548
1670.000000	36.209728
1669.000000	36.405286
1668.000000	36.643612
1667.000000	36.865152
1666.000000	37.045994
1665.000000	37.193726
1664.000000	37.361347
1663.000000	37.520461
1662.000000	37.673596
1661.000000	37.854094
1660.000000	37.988605
1659.000000	38.123575
1658.000000	38.253257
1657.000000	38.382595
1656.000000	38.462726
1655.000000	38.540099
1654.000000	38.608389
1653.000000	38.680013
1652.000000	38.717032
1651.000000	38.730483
1650.000000	38.762214
1649.000000	38.777849
1648.000000	38.754166
1647.000000	38.767962
1646.000000	38.734162
1645.000000	38.732438
1644.000000	38.718872
1643.000000	38.702431
1642.000000	38.686106
1641.000000	38.670701
1640.000000	38.651846
1639.000000	38.634486
1638.000000	38.613217
1637.000000	38.569760
1636.000000	38.563552
1635.000000	38.535960
1634.000000	38.506069
1633.000000	38.456978
1632.000000	38.431455
1631.000000	38.390757
1630.000000	38.318788
1629.000000	38.278205
1628.000000	38.221412
1627.000000	38.163928
1626.000000	38.111274
1625.000000	38.049192
1624.000000	37.991479
1623.000000	37.939629
1622.000000	37.878926
1621.000000	37.841792
1620.000000	37.803968
1619.000000	37.727631
1618.000000	37.681644
1617.000000	37.658191
1616.000000	37.623356
1615.000000	37.576105
1614.000000	37.522530
1613.000000	37.482522
1612.000000	37.402620
1611.000000	37.357783
1610.000000	37.291333
1609.000000	37.228331
1608.000000	37.163145
1607.000000	37.092326
1606.000000	37.003687
1605.000000	36.921371
1604.000000	36.839859
1603.000000	36.742713
1602.000000	36.658672
1601.000000	36.571183
1600.000000	36.476450
1599.000000	36.389881
1598.000000	36.306415
1597.000000	36.197887
1596.000000	36.110167
1595.000000	36.021183
1594.000000	35.951743
1593.000000	35.880809
1592.000000	35.811944
1591.000000	35.742389
1590.000000	35.666856
1589.000000	35.596497
1588.000000	35.524183
1587.000000	35.484175
1586.000000	35.413355
1585.000000	35.329890
1584.000000	35.282179
1583.000000	35.224580
1582.000000	35.169281
1581.000000	35.106395
1580.000000	35.065697
1579.000000	35.022354
1578.000000	34.984070
1577.000000	34.941418
1576.000000	34.891867
1575.000000	34.862896
1574.000000	34.846800
1573.000000	34.827256
1572.000000	34.803573
1571.000000	34.803343
1570.000000	34.789662
1569.000000	34.811161
1568.000000	34.823462
1567.000000	34.817829
1566.000000	34.816449
1565.000000	34.809781
1564.000000	34.818059
1563.000000	34.826336
1562.000000	34.823577
1561.000000	34.799894
1560.000000	34.788283
1559.000000	34.754138
1558.000000	34.706541
1557.000000	34.655611
1556.000000	34.589620
1555.000000	34.516962
1554.000000	34.444648
1553.000000	34.359228
1552.000000	34.270703
1551.000000	34.176316
1550.000000	34.072041
1549.000000	33.965697
1548.000000	33.862228
1547.000000	33.759562
1546.000000	33.661266
1545.000000	33.572282
1544.000000	33.497554
1543.000000	33.430528
1542.000000	33.352696
1541.000000	33.280842
1540.000000	33.224164
1539.000000	33.160242
1538.000000	33.104943
1537.000000	33.048265
1536.000000	32.998254
1535.000000	32.954567
1534.000000	32.885012
1533.000000	32.831668
1532.000000	32.777864
1531.000000	32.720036
1530.000000	32.657839
1529.000000	32.602425
1528.000000	32.540573
1527.000000	32.469868
1526.000000	32.410546
1525.000000	32.342831
1524.000000	32.257985
1523.000000	32.202916
1522.000000	32.150607
1521.000000	32.088985
1520.000000	32.006669
1519.000000	31.947116
1518.000000	31.882390
1517.000000	31.807891
1516.000000	31.743855
1515.000000	31.677864
1514.000000	31.616587
1513.000000	31.549102
1512.000000	31.493343
1511.000000	31.447931
1510.000000	31.378607
1509.000000	31.305948
1508.000000	31.250304
1507.000000	31.198914
1506.000000	31.148444
1505.000000	31.092915
1504.000000	31.045779
1503.000000	30.998872
1502.000000	30.948632
1501.000000	30.894598
1500.000000	30.850451
1499.000000	30.819295
1498.000000	30.786759
1497.000000	30.763651
1496.000000	30.738818
1495.000000	30.711226
1494.000000	30.702604
1493.000000	30.703868
1492.000000	30.708697
1491.000000	30.718239
1490.000000	30.729161
1489.000000	30.746981
1488.000000	30.763996
1487.000000	30.782046
1486.000000	30.817225
1485.000000	30.824583
1484.000000	30.850681
1483.000000	30.874938
1482.000000	30.892413
1481.000000	30.921270
1480.000000	30.958059
1479.000000	30.962658
1478.000000	30.966452
1477.000000	30.986916
1476.000000	31.005540
1475.000000	31.022785
1474.000000	31.054056
1473.000000	31.081188
1472.000000	31.113149
1471.000000	31.162355
1470.000000	31.207422
1469.000000	31.236738
1468.000000	31.275482
1467.000000	31.329401
1466.000000	31.379986
1465.000000	31.434710
1464.000000	31.498632
1463.000000	31.560024
1462.000000	31.631303
1461.000000	31.712699
1460.000000	31.773861
1459.000000	31.843071
1458.000000	31.926422
1457.000000	32.009543
1456.000000	32.092319
1455.000000	32.182107
1454.000000	32.259595
1453.000000	32.341451
1452.000000	32.445726
1451.000000	32.524018
1450.000000	32.642663
1449.000000	32.720265
1448.000000	32.777749
1447.000000	32.861559
1446.000000	32.970662
1445.000000	33.081375
1444.000000	33.160587
1443.000000	33.251181
1442.000000	33.353041
1441.000000	33.445704
1440.000000	33.542276
1439.000000	33.649769
1438.000000	33.770944
1437.000000	33.898902
1436.000000	34.026170
1435.000000	34.154357
1434.000000	34.297606
1433.000000	34.433841
1432.000000	34.564443
1431.000000	34.729420
1430.000000	34.905663
1429.000000	35.068801
1428.000000	35.243665
1427.000000	35.442097
1426.000000	35.652141
1425.000000	35.848274
1424.000000	36.077747
1423.000000	36.344239
1422.000000	36.594636
1421.000000	36.818476
1420.000000	37.103937
1419.000000	37.447342
1418.000000	37.779136
1417.000000	38.093109
1416.000000	38.376157
1415.000000	38.693924
1414.000000	39.092973
1413.000000	39.523522
1412.000000	39.924985
1411.000000	40.307019
1410.000000	40.731705
1409.000000	41.259171
1408.000000	41.761230
1407.000000	42.302262
1406.000000	42.789950
1405.000000	43.314887
1404.000000	43.913632
1403.000000	44.376602
1402.000000	44.879810
1401.000000	45.360140
1400.000000	46.035109
1399.000000	46.678231
1398.000000	47.118208
1397.000000	47.460923
1396.000000	47.957808
1395.000000	48.566441
1394.000000	49.105748
1393.000000	49.488932
1392.000000	49.895798
1391.000000	50.411997
1390.000000	50.896466
1389.000000	51.287122
1388.000000	51.837237
1387.000000	52.418967
1386.000000	52.916427
1385.000000	53.376868
1384.000000	53.832250
1383.000000	54.317524
1382.000000	54.757845
1381.000000	55.206560
1380.000000	55.550769
1379.000000	55.809559
1378.000000	56.029375
1377.000000	56.230911
1376.000000	56.475675
1375.000000	56.705493
1374.000000	56.947957
1373.000000	57.174326
1372.000000	57.410812
1371.000000	57.720187
1370.000000	57.986334
1369.000000	58.208909
1368.000000	58.424816
1367.000000	58.691539
1366.000000	58.903882
1365.000000	59.071043
1364.000000	59.289364
1363.000000	59.446868
1362.000000	59.647600
1361.000000	59.840054
1360.000000	60.049753
1359.000000	60.077689
1358.000000	60.247725
1357.000000	60.394307
1356.000000	60.525139
1355.000000	60.745300
1354.000000	61.006389
1353.000000	61.238161
1352.000000	61.408427
1351.000000	61.677678
1350.000000	61.941181
1349.000000	62.207329
1348.000000	62.484973
1347.000000	62.766755
1346.000000	63.016578
1345.000000	63.256743
1344.000000	63.530823
1343.000000	63.800994
1342.000000	64.022649
1341.000000	64.238211
1340.000000	64.486539
1339.000000	64.697847
1338.000000	64.896969
1337.000000	65.110232
1336.000000	65.311883
1335.000000	65.498359
1334.000000	65.669429
1333.000000	65.835326
1332.000000	65.989266
1331.000000	66.148954
1330.000000	66.291168
1329.000000	66.459249
1328.000000	66.587896
1327.000000	66.703668
1326.000000	66.825302
1325.000000	66.935670
1324.000000	67.023964
1323.000000	67.120421
1322.000000	67.226075
1321.000000	67.320003
1320.000000	67.402549
1319.000000	67.494407
1318.000000	67.579367
1317.000000	67.636851
1316.000000	67.723420
1315.000000	67.795619
1314.000000	67.868393
1313.000000	67.944501
1312.000000	67.996351
1311.000000	68.044637
1310.000000	68.079127
1309.000000	68.124309
1308.000000	68.171675
1307.000000	68.216627
1306.000000	68.229963
1305.000000	68.245828
1304.000000	68.265947
1303.000000	68.276064
1302.000000	68.275949
1301.000000	68.282043
1300.000000	68.285492
1299.000000	68.291815
1298.000000	68.287906
1297.000000	68.267442
1296.000000	68.261464
1295.000000	68.263303
1294.000000	68.229043
1293.000000	68.219731
1292.000000	68.197197
1291.000000	68.169260
1290.000000	68.135000
1289.000000	68.092578
1288.000000	68.051880
1287.000000	68.010722
1286.000000	67.965540
1285.000000	67.918059
1284.000000	67.849998
1283.000000	67.812634
1282.000000	67.765498
1281.000000	67.697898
1280.000000	67.656740
1279.000000	67.607304
1278.000000	67.557409
1277.000000	67.533956
1276.000000	67.508893
1275.000000	67.485325
1274.000000	67.470379
1273.000000	67.446926
1272.000000	67.424623
1271.000000	67.428991
1270.000000	67.436464
1269.000000	67.435429
1268.000000	67.442327
1267.000000	67.443477
1266.000000	67.443247
1265.000000	67.443017
1264.000000	67.434855
1263.000000	67.414505
1262.000000	67.401284
1261.000000	67.373118
1260.000000	67.352424
1259.000000	67.323337
1258.000000	67.286778
1257.000000	67.246999
1256.000000	67.194919
1255.000000	67.146404
1254.000000	67.074894
1253.000000	67.004995
1252.000000	66.943373
1251.000000	66.852204
1250.000000	66.752873
1249.000000	66.668718
1248.000000	66.558120
1247.000000	66.438325
1246.000000	66.318760
1245.000000	66.209772
1244.000000	66.084573
1243.000000	65.975815
1242.000000	65.862573
1241.000000	65.734040
1240.000000	65.616775
1239.000000	65.500658
1238.000000	65.390980
1237.000000	65.284636
1236.000000	65.171739
1235.000000	65.055278
1234.000000	64.935368
1233.000000	64.809365
1232.000000	64.682557
1231.000000	64.551610
1230.000000	64.409397
1229.000000	64.253962
1228.000000	64.096113
1227.000000	63.923778
1226.000000	63.749144
1225.000000	63.551402
1224.000000	63.348601
1223.000000	63.154537
1222.000000	62.943919
1221.000000	62.729621
1220.000000	62.515209
1219.000000	62.284931
1218.000000	62.076842
1217.000000	61.866913
1216.000000	61.650891
1215.000000	61.472233
1214.000000	61.293575
1213.000000	61.120206
1212.000000	60.966725
1211.000000	60.816694
1210.000000	60.662984
1209.000000	60.532382
1208.000000	60.400745
1207.000000	60.277961
1206.000000	60.165294
1205.000000	60.062629
1204.000000	59.972955
1203.000000	59.870405
1202.000000	59.779696
1201.000000	59.690597
1200.000000	59.577240
1199.000000	59.461239
1198.000000	59.360184
1197.000000	59.274419
1196.000000	59.138873
1195.000000	59.016894
1194.000000	58.903537
1193.000000	58.765922
1192.000000	58.653025
1191.000000	58.562201
1190.000000	58.462410
1189.000000	58.378025
1188.000000	58.333188
1187.000000	58.308930
1186.000000	58.308125
1185.000000	58.343190
1184.000000	58.396765
1183.000000	58.481725
1182.000000	58.589333
1181.000000	58.720050
1180.000000	58.831683
1179.000000	58.964584
1178.000000	59.100704
1177.000000	59.235560
1176.000000	59.367312
1175.000000	59.468482
1174.000000	59.576321
1173.000000	59.674847
1172.000000	59.790503
1171.000000	59.896272
1170.000000	60.008250
1169.000000	60.134023
1168.000000	60.266809
1167.000000	60.400515
1166.000000	60.568941
1165.000000	60.744955
1164.000000	60.927637
1163.000000	61.127104
1162.000000	61.323236
1161.000000	61.550870
1160.000000	61.789655
1159.000000	62.005218
1158.000000	62.228252
1157.000000	62.445999
1156.000000	62.634659
1155.000000	62.800326
1154.000000	62.972086
1153.000000	63.146145
1152.000000	63.282265
1151.000000	63.396542
1150.000000	63.511968
1149.000000	63.643950
1148.000000	63.766849
1147.000000	63.877677
1146.000000	64.009658
1145.000000	64.155091
1144.000000	64.299374
1143.000000	64.419169
1142.000000	64.552875
1141.000000	64.672670
1140.000000	64.798098
1139.000000	64.953303
1138.000000	65.091723
1137.000000	65.264057
1136.000000	65.449613
1135.000000	65.609417
1134.000000	65.810953
1133.000000	65.929024
1132.000000	66.017663
1131.000000	66.116419
1130.000000	66.214025
1129.000000	66.306918
1128.000000	66.384751
1127.000000	66.436830
1126.000000	66.458444
1125.000000	66.516272
1124.000000	66.530988
1123.000000	66.539725
1122.000000	66.514893
1121.000000	66.478678
1120.000000	66.448097
1119.000000	66.397397
1118.000000	66.339799
1117.000000	66.288524
1116.000000	66.246331
1115.000000	66.160451
1114.000000	66.108026
1113.000000	66.059855
1112.000000	65.975010
1111.000000	65.910744
1110.000000	65.844178
1109.000000	65.780832
1108.000000	65.708518
1107.000000	65.630571
1106.000000	65.561246
1105.000000	65.500428
1104.000000	65.416043
1103.000000	65.338671
1102.000000	65.264747
1101.000000	65.183926
1100.000000	65.072753
1099.000000	65.036769
1098.000000	64.947095
1097.000000	64.857881
1096.000000	64.768092
1095.000000	64.684971
1094.000000	64.589434
1093.000000	64.498726
1092.000000	64.422388
1091.000000	64.312135
1090.000000	64.225910
1089.000000	64.118301
1088.000000	64.011498
1087.000000	63.928262
1086.000000	63.792946
1085.000000	63.679129
1084.000000	63.567497
1083.000000	63.473799
1082.000000	63.377572
1081.000000	63.226047
1080.000000	63.134878
1079.000000	63.027614
1078.000000	62.911843
1077.000000	62.766066
1076.000000	62.673173
1075.000000	62.570623
1074.000000	62.423006
1073.000000	62.312408
1072.000000	62.192843
1071.000000	62.080406
1070.000000	61.938307
1069.000000	61.807015
1068.000000	61.709179
1067.000000	61.586510
1066.000000	61.460506
1065.000000	61.340941
1064.000000	61.202751
1063.000000	61.080427
1062.000000	60.939593
1061.000000	60.812440
1060.000000	60.663559
1059.000000	60.556410
1058.000000	60.404194
1057.000000	60.287848
1056.000000	60.155867
1055.000000	60.004801
1054.000000	59.905010
1053.000000	59.762451
1052.000000	59.641162
1051.000000	59.496994
1050.000000	59.381223
1049.000000	59.249471
1048.000000	59.107027
1047.000000	58.994245
1046.000000	58.891465
1045.000000	58.758679
1044.000000	58.622904
1043.000000	58.489887
1042.000000	58.375036
1041.000000	58.227419
1040.000000	58.128778
1039.000000	58.008523
1038.000000	57.885854
1037.000000	57.765714
1036.000000	57.637756
1035.000000	57.506924
1034.000000	57.393107
1033.000000	57.261126
1032.000000	57.131673
1031.000000	57.014752
1030.000000	56.886335
1029.000000	56.764585
1028.000000	56.636168
1027.000000	56.523271
1026.000000	56.394048
1025.000000	56.250225
1024.000000	56.140547
1023.000000	56.008911
1022.000000	55.871756
1021.000000	55.771160
1020.000000	55.636419
1019.000000	55.517429
1018.000000	55.407406
1017.000000	55.274390
1016.000000	55.156319
1015.000000	55.040663
1014.000000	54.929605
1013.000000	54.802567
1012.000000	54.707720
1011.000000	54.601951
1010.000000	54.492273
1009.000000	54.383515
1008.000000	54.273607
1007.000000	54.159445
1006.000000	54.038615
1005.000000	53.942618
1004.000000	53.844897
1003.000000	53.727631
1002.000000	53.615424
1001.000000	53.502526
1000.000000	53.389055
999.000000	53.267305
998.000000	53.140612
997.000000	53.042431
996.000000	52.928729
995.000000	52.805715
994.000000	52.689598
993.000000	52.576931
992.000000	52.465414
991.000000	52.359415
990.000000	52.230422
989.000000	52.109363
988.000000	51.996466
987.000000	51.883913
986.000000	51.779984
985.000000	51.656510
984.000000	51.545682
983.000000	51.434279
982.000000	51.324946
981.000000	51.215498
980.000000	51.097773
979.000000	50.978667
978.000000	50.881176
977.000000	50.767589
976.000000	50.661130
975.000000	50.542025
974.000000	50.442004
973.000000	50.349686
972.000000	50.224487
971.000000	50.104232
970.000000	50.012259
969.000000	49.890280
968.000000	49.772209
967.000000	49.685294
966.000000	49.594241
965.000000	49.488242
964.000000	49.365573
963.000000	49.276933
962.000000	49.186570
961.000000	49.073328
960.000000	48.978251
959.000000	48.895935
958.000000	48.785222
957.000000	48.680487
956.000000	48.586445
955.000000	48.496081
954.000000	48.403648
953.000000	48.309261
952.000000	48.232348
951.000000	48.129108
950.000000	48.008393
949.000000	47.921364
948.000000	47.831460
947.000000	47.731784
946.000000	47.642915
945.000000	47.541974
944.000000	47.429767
943.000000	47.334920
942.000000	47.242831
941.000000	47.138672
940.000000	47.029799
939.000000	46.933802
938.000000	46.854475
937.000000	46.750890
936.000000	46.637188
935.000000	46.542686
934.000000	46.447953
933.000000	46.379778
932.000000	46.289070
931.000000	46.168010
930.000000	46.087648
929.000000	46.012345
928.000000	45.931179
927.000000	45.836102
926.000000	45.743209
925.000000	45.664112
924.000000	45.606858
923.000000	45.538453
922.000000	45.458667
921.000000	45.404058
920.000000	45.334273
919.000000	45.257705
918.000000	45.206430
917.000000	45.157914
916.000000	45.093303
915.000000	45.032486
914.000000	44.983855
913.000000	44.970519
912.000000	44.936604
911.000000	44.889008
910.000000	44.832214
909.000000	44.789677
908.000000	44.752083
907.000000	44.721502
906.000000	44.692875
905.000000	44.663443
904.000000	44.640910
903.000000	44.634932
902.000000	44.617917
901.000000	44.592624
900.000000	44.569861
899.000000	44.546867
898.000000	44.537440
897.000000	44.530312
896.000000	44.539165
895.000000	44.552731
894.000000	44.520195
893.000000	44.511803
892.000000	44.521230
891.000000	44.511688
890.000000	44.503985
889.000000	44.500996
888.000000	44.482601
887.000000	44.475703
886.000000	44.476968
885.000000	44.471334
884.000000	44.465241
883.000000	44.454664
882.000000	44.449836
881.000000	44.455584
880.000000	44.461907
879.000000	44.439949
878.000000	44.448111
877.000000	44.440064
876.000000	44.409597
875.000000	44.406263
874.000000	44.413621
873.000000	44.383845
872.000000	44.343837
871.000000	44.362116
870.000000	44.447536
869.000000	44.567446
868.000000	44.707246
867.000000	44.842906
866.000000	44.982131
865.000000	45.098937
864.000000	45.238966
863.000000	45.370257
862.000000	45.513851
861.000000	45.663077
860.000000	45.800347
859.000000	45.933593
858.000000	46.098800
857.000000	45.350300
856.000000	46.462600
855.000000	46.483500
854.000000	47.112900
853.000000	47.109000
852.000000	47.260900
851.000000	47.410000
850.000000	47.828300
849.000000	47.891800
848.000000	48.329300
847.000000	48.213200
846.000000	48.520900
845.000000	48.816700
844.000000	48.635100
843.000000	49.155800
842.000000	49.104600
841.000000	49.324200
840.000000	49.282000
839.000000	49.527900
838.000000	49.766800
837.000000	49.688200
836.000000	49.685300
835.000000	50.055800
834.000000	50.093400
833.000000	50.339200
832.000000	50.346000
831.000000	50.505900
830.000000	50.408100
829.000000	50.631800
828.000000	50.665400
827.000000	50.781700
826.000000	50.796000
825.000000	50.792600
824.000000	50.773400
823.000000	50.893100
822.000000	50.984800
821.000000	50.983900
820.000000	51.245500
819.000000	51.320800
818.000000	51.312000
817.000000	51.224700
816.000000	51.361800
815.000000	51.474100
814.000000	51.444100
813.000000	51.530000
812.000000	51.364200
811.000000	51.420300
810.000000	51.460500
809.000000	51.457700
808.000000	51.557000
807.000000	51.414200
806.000000	51.561300
805.000000	51.516000
804.000000	51.505200
803.000000	51.444700
802.000000	51.530200
801.000000	51.521000
800.000000	51.594800
799.000000	51.372900
798.000000	51.430900
797.000000	51.295700
796.000000	51.307600
795.000000	51.335900
794.000000	51.118800
793.000000	51.227200
792.000000	51.004600
791.000000	51.136000
790.000000	51.064300
789.000000	50.988500
788.000000	50.928800
787.000000	50.934400
786.000000	50.873900
785.000000	50.798700
784.000000	50.712300
783.000000	50.590800
782.000000	50.506600
781.000000	50.475600
780.000000	50.462600
779.000000	50.337900
778.000000	50.282300
777.000000	50.187600
776.000000	50.117600
775.000000	50.000200
774.000000	49.970200
773.000000	49.900000
772.000000	49.635700
771.000000	49.646200
770.000000	49.488000
769.000000	49.393000
768.000000	49.332600
767.000000	49.257500
766.000000	49.171200
765.000000	48.866200
764.000000	48.880000
763.000000	48.783400
762.000000	48.716600
761.000000	48.588000
760.000000	48.425800
759.000000	48.172300
758.000000	48.109800
757.000000	48.022200
756.000000	47.906500
755.000000	47.755500
754.000000	47.602600
753.000000	47.488700
752.000000	47.354400
751.000000	47.182200
750.000000	47.073000
749.000000	46.925600
748.000000	46.761200
747.000000	46.648200
746.000000	46.416600
745.000000	46.261500
744.000000	46.147400
743.000000	45.926100
742.000000	45.732200
741.000000	45.582300
740.000000	45.452800
739.000000	45.189500
738.000000	44.967100
737.000000	44.764600
736.000000	44.467300
735.000000	44.254300
734.000000	44.093800
733.000000	43.831800
732.000000	43.536800
731.000000	43.351000
730.000000	43.149100
729.000000	42.854200
728.000000	42.625000
727.000000	42.413600
726.000000	42.088100
725.000000	41.795800
724.000000	41.526200
723.000000	41.275500
722.000000	41.036800
721.000000	40.831200
720.000000	40.436000
719.000000	40.191600
718.000000	39.940300
717.000000	39.630300
716.000000	39.351100
715.000000	39.063800
714.000000	38.731500
713.000000	38.425300
712.000000	38.163100
711.000000	37.821300
710.000000	37.466900
709.000000	37.187400
708.000000	36.845900
707.000000	36.481000
706.000000	36.160300
705.000000	35.843200
704.000000	35.523300
703.000000	35.199200
702.000000	34.896500
701.000000	34.538300
700.000000	34.164200
699.000000	33.882800
698.000000	33.569300
697.000000	33.297400
696.000000	32.972500
695.000000	32.630400
694.000000	32.331700
693.000000	32.037900
692.000000	31.743400
691.000000	31.458000
690.000000	31.183000
689.000000	30.940500
688.000000	30.661500
687.000000	30.352700
686.000000	30.090300
685.000000	29.848600
684.000000	29.544500
683.000000	29.298400
682.000000	29.089100
681.000000	28.878400
680.000000	28.625400
679.000000	28.435100
678.000000	28.234900
677.000000	28.034300
676.000000	27.878500
675.000000	27.739100
674.000000	27.574500
673.000000	27.428600
672.000000	27.280400
671.000000	27.128800
670.000000	26.988900
669.000000	26.857300
668.000000	26.786300
667.000000	26.721700
666.000000	26.627800
665.000000	26.547500
664.000000	26.495300
663.000000	26.439200
662.000000	26.382300
661.000000	26.352000
660.000000	26.325300
659.000000	26.301700
658.000000	26.293700
657.000000	26.304800
656.000000	26.308800
655.000000	26.329200
654.000000	26.388000
653.000000	26.434500
652.000000	26.493400
651.000000	26.583800
650.000000	26.671700
649.000000	26.780700
648.000000	26.918500
647.000000	27.055000
646.000000	27.169500
645.000000	27.316600
644.000000	27.480800
643.000000	27.637800
642.000000	27.819500
641.000000	28.001400
640.000000	28.174200
639.000000	28.353200
638.000000	28.530100
637.000000	28.748800
636.000000	28.968700
635.000000	29.152400
634.000000	29.333900
633.000000	29.534400
632.000000	29.723600
631.000000	29.918600
630.000000	30.107200
629.000000	30.295700
628.000000	30.481300
627.000000	30.658300
626.000000	30.824700
625.000000	30.986100
624.000000	31.154800
623.000000	31.331500
622.000000	31.499900
621.000000	31.635900
620.000000	31.805200
619.000000	31.990300
618.000000	32.113500
617.000000	32.251000
616.000000	32.402100
615.000000	32.526700
614.000000	32.668400
613.000000	32.815700
612.000000	32.946000
611.000000	33.089400
610.000000	33.203200
609.000000	33.289300
608.000000	33.413000
607.000000	33.523200
606.000000	33.620200
605.000000	33.680500
604.000000	33.763400
603.000000	33.852700
602.000000	33.937000
601.000000	33.989800
600.000000	34.030300
599.000000	34.077700
598.000000	34.117000
597.000000	34.163200
596.000000	34.197100
595.000000	34.207000
594.000000	34.226500
593.000000	34.222500
592.000000	34.219900
591.000000	34.204400
590.000000	34.199800
589.000000	34.179600
588.000000	34.125800
587.000000	34.105500
586.000000	34.072700
585.000000	34.032400
584.000000	33.965700
583.000000	33.904400
582.000000	33.845700
581.000000	33.755400
580.000000	33.670600
579.000000	33.568800
578.000000	33.457100
577.000000	33.370500
576.000000	33.253900
575.000000	33.133000
574.000000	32.985600
573.000000	32.850500
572.000000	32.699000
571.000000	32.548100
570.000000	32.379500
569.000000	32.225600
568.000000	32.026400
567.000000	31.845800
566.000000	31.640300
565.000000	31.444500
564.000000	31.229600
563.000000	31.004500
562.000000	30.783700
561.000000	30.538300
560.000000	30.315200
559.000000	29.981600
558.000000	29.723500
557.000000	29.462400
556.000000	29.211300
555.000000	28.957000
554.000000	28.670800
553.000000	28.398600
552.000000	28.105100
551.000000	27.800300
550.000000	27.512400
549.000000	27.218300
548.000000	26.931300
547.000000	26.625500
546.000000	26.329100
545.000000	26.028100
544.000000	25.713100
543.000000	25.409300
542.000000	25.098500
541.000000	24.765300
540.000000	24.443300
539.000000	24.143600
538.000000	23.836700
537.000000	23.525100
536.000000	23.218400
535.000000	22.914600
534.000000	22.587300
533.000000	22.266700
532.000000	21.930100
531.000000	21.613400
530.000000	21.318400
529.000000	21.000200
528.000000	20.694000
527.000000	20.396800
526.000000	20.079500
525.000000	19.797500
524.000000	19.478600
523.000000	19.181000
522.000000	18.870700
521.000000	18.596100
520.000000	18.322000
519.000000	18.020900
518.000000	17.763800
517.000000	17.496400
516.000000	17.251500
515.000000	16.993900
514.000000	16.742800
513.000000	16.507400
512.000000	16.302600
511.000000	16.075100
510.000000	15.886200
509.000000	15.695500
508.000000	15.503200
507.000000	15.306500
506.000000	15.140300
505.000000	14.982000
504.000000	14.817900
503.000000	14.684300
502.000000	14.568300
501.000000	14.423500
500.000000	14.296600
499.000000	14.185700
498.000000	14.063500
497.000000	13.962800
496.000000	13.878900
495.000000	13.783400
494.000000	13.696200
493.000000	13.604300
492.000000	13.516700
491.000000	13.443600
490.000000	13.348700
489.000000	13.284700
488.000000	13.227800
487.000000	13.154800
486.000000	13.089100
485.000000	13.010600
484.000000	12.952100
483.000000	12.888600
482.000000	12.817500
481.000000	12.729400
480.000000	12.650600
479.000000	12.556200
478.000000	12.466900
477.000000	12.370600
476.000000	12.302500
475.000000	12.201300
474.000000	12.116600
473.000000	12.028300
472.000000	11.941800
471.000000	11.842500
470.000000	11.757300
469.000000	11.687900
468.000000	11.598700
467.000000	11.486700
466.000000	11.379200
465.000000	11.301800
464.000000	11.207900
463.000000	11.123600
462.000000	11.054000
461.000000	10.968800
460.000000	10.880100
459.000000	10.776700
458.000000	10.682300
457.000000	10.594200
456.000000	10.506500
455.000000	10.423100
454.000000	10.322800
453.000000	10.200900
452.000000	10.110900
451.000000	10.010600
450.000000	9.888600
449.000000	9.785900
448.000000	9.673900
447.000000	9.549900
446.000000	9.452200
445.000000	9.363700
444.000000	9.235200
443.000000	9.146400
442.000000	9.012200
441.000000	8.903700
440.000000	8.764700
439.000000	8.659000
438.000000	8.532600
437.000000	8.420000
436.000000	8.327200
435.000000	8.213100
434.000000	8.086300
433.000000	7.990800
432.000000	7.908600
431.000000	7.807100
430.000000	7.694900
429.000000	7.591900
428.000000	7.507900
427.000000	7.409000
426.000000	7.323900
425.000000	7.247800
424.000000	7.141500
423.000000	7.066400
422.000000	6.981500
421.000000	6.906300
420.000000	6.810100
419.000000	6.731300
418.000000	6.670100
417.000000	6.590700
416.000000	6.554500
415.000000	6.474800
414.000000	6.383200
413.000000	6.336100
412.000000	6.256000
411.000000	6.199100
410.000000	6.141400
409.000000	6.087300
408.000000	6.031000
407.000000	5.991700
406.000000	5.934500
405.000000	5.888800
404.000000	5.829100
403.000000	5.788500
402.000000	5.721200
401.000000	5.672500
400.000000	5.647000
399.000000	5.609300
398.000000	5.563700
397.000000	5.518300
396.000000	5.507800
395.000000	5.464800
394.000000	5.431000
393.000000	5.388000
392.000000	5.358600
391.000000	5.335500
390.000000	5.277600
389.000000	5.273200
388.000000	5.257200
387.000000	5.234600
386.000000	5.223500
385.000000	5.200200
384.000000	5.171600
383.000000	5.155000
382.000000	5.132300
381.000000	5.124100
380.000000	5.095400
379.000000	5.077800
378.000000	5.082700
377.000000	5.062200
376.000000	4.927900
375.000000	4.516000
374.000000	4.327600
373.000000	4.542500
372.000000	4.624000
371.000000	4.708400
370.000000	4.788300
369.000000	4.747600
368.000000	4.740500
367.000000	4.859400
366.000000	4.941900
365.000000	4.886900
364.000000	4.949400
363.000000	4.787300
362.000000	4.657900
361.000000	4.853500
360.000000	4.951700
359.000000	4.862000
358.000000	4.880300
357.000000	4.877100
356.000000	4.894600
355.000000	5.173300
354.000000	4.965100
353.000000	4.910200
352.000000	4.978900
351.000000	4.970500
350.000000	4.970300
349.000000	4.872600
348.000000	4.787800
347.000000	4.957300
346.000000	5.007100
345.000000	4.878000
344.000000	4.786700
343.000000	4.901400
342.000000	5.188800
341.000000	5.031600
340.000000	4.835600
339.000000	4.802600
338.000000	4.802300
337.000000	5.049500
336.000000	5.126000
335.000000	4.890300
334.000000	4.896500
333.000000	5.183400
332.000000	5.234300
331.000000	5.319000
330.000000	5.368800
329.000000	5.185000
328.000000	5.258900
327.000000	5.305200
326.000000	5.279300
325.000000	5.069200
324.000000	5.244800
323.000000	5.509700
322.000000	5.523300
321.000000	5.659500
320.000000	5.766700
319.000000	5.911000
318.000000	5.625300
317.000000	5.387000
316.000000	5.166300
315.000000	5.013900
314.000000	5.054300
313.000000	5.043100
312.000000	5.032100
311.000000	5.049800
310.000000	5.055700
309.000000	5.055500
308.000000	5.062500
307.000000	5.077700
306.000000	5.107500
305.000000	5.049400
304.000000	5.047900
303.000000	5.050000
302.000000	5.060400
301.000000	5.112100
300.000000	5.099200
299.000000	5.089600
298.000000	5.078200
297.000000	5.102700
296.000000	5.133200
295.000000	5.132100
294.000000	5.141900
293.000000	5.163700
292.000000	5.151800
291.000000	5.154000
290.000000	5.135100
289.000000	5.159300
288.000000	5.183500
287.000000	5.198200
286.000000	5.174600
285.000000	5.147100
284.000000	5.186200
283.000000	5.225300
282.000000	5.207900
281.000000	5.212800
280.000000	5.208400
279.000000	5.179500
278.000000	5.185900
277.000000	5.241500
276.000000	5.251400
275.000000	5.263700
274.000000	5.277600
273.000000	5.269300
272.000000	5.281400
271.000000	5.307200
270.000000	5.344600
269.000000	5.358100
268.000000	5.323000
267.000000	5.341100
266.000000	5.386200
265.000000	5.388200
264.000000	5.399900
263.000000	5.427900
262.000000	5.456900
261.000000	5.492100
260.000000	5.542800
259.000000	5.500000
258.000000	5.530900
257.000000	5.551500
256.000000	5.594200
255.000000	5.635600
254.000000	5.608500
253.000000	5.647700
252.000000	5.650300
251.000000	5.637700
250.000000	5.676200
