PE UV       SUBTECH     SPECTRUM    ASCII       PEDS        4.00        
   -1
INBUCR0126-4.Sample.ASC
24/02/07
11:54:53.00
24/02/07
11:54:53.00
Vinicio Soto Monge
Color café con ambos élitros (Det: A. Solís) COSTA RICA Prov. Guanacaste, Bagaces, P.N Palo Verde, Sector Palo Verde. 10 m. 6-27 MAY 2000. W. Porras. de Luz. L_N_260300_390150 #57445 INB0003168439 INBIOCRI COSTA RICA 
250,000000
1
Lambda 1050
1050L1511233
PerkinElmer UV WinLab 6.3.2.0749 / 2.02.05 Lambda 900 UV/VIS/NIR, Aug  7 2015 09:38:08

0
0
3350/servo 860,8/2
0
0
UV/VIS
1
1
1
DoubleDePol,CommonBeamDepol,RBeamAtt,SBeamAtt,60mm sphere, WB InGaAs Detector
0
0
0
0
Program
Program
3350/servo 860,8/2
3350/0,2 860,8/0,2
3350/0,2 860,8/0,2
0
15.00
 
 
 
0
 
860,8
319,2
860,8
Front
100
on
S:100 R:100
0
0
0
0
 
0
 
 
 
0
 
 
0
0
0
0
0
 
 
 
 
0
0


0
0
#HDR
-1
-1
#GR
nm
%R
1.0
0.0
2500,000000
-1,000000
2251
8
14,684900
1,075400
#DATA

250.000000	nan
251.000000	nan
252.000000	nan
253.000000	nan
254.000000	nan
255.000000	nan
256.000000	nan
257.000000	nan
258.000000	nan
259.000000	3.903348
260.000000	3.895362
261.000000	3.883406
262.000000	3.873697
263.000000	3.860429
264.000000	3.848928
265.000000	3.838480
266.000000	3.825318
267.000000	3.811829
268.000000	3.797640
269.000000	3.782954
270.000000	3.766893
271.000000	3.752493
272.000000	3.735138
273.000000	3.719759
274.000000	3.705555
275.000000	3.689739
276.000000	3.677172
277.000000	3.663016
278.000000	3.650674
279.000000	3.641259
280.000000	3.632967
281.000000	3.625605
282.000000	3.616838
283.000000	3.613235
284.000000	3.608510
285.000000	3.604958
286.000000	3.599865
287.000000	3.598256
288.000000	3.597625
289.000000	3.595378
290.000000	3.593193
291.000000	3.591723
292.000000	3.593428
293.000000	3.593365
294.000000	3.594041
295.000000	3.597567
296.000000	3.600427
297.000000	3.602737
298.000000	3.602561
299.000000	3.604436
300.000000	3.606603
301.000000	3.608689
302.000000	3.609359
303.000000	3.607714
304.000000	3.607365
305.000000	3.605547
306.000000	3.603806
307.000000	3.603314
308.000000	3.604248
309.000000	3.604778
310.000000	3.602466
311.000000	3.601618
312.000000	3.597552
313.000000	3.596546
314.000000	3.596134
315.000000	3.594789
316.000000	3.595131
317.000000	3.615234
318.000000	3.629280
319.000000	3.647077
320.000000	3.662785
321.000000	3.678517
322.000000	3.694392
323.000000	3.711918
324.000000	3.724165
325.000000	3.738891
326.000000	3.742695
327.000000	3.732275
328.000000	3.721469
329.000000	3.711226
330.000000	3.710441
331.000000	3.700769
332.000000	3.694114
333.000000	3.685431
334.000000	3.680160
335.000000	3.674272
336.000000	3.677091
337.000000	3.671527
338.000000	3.672916
339.000000	3.665509
340.000000	3.655068
341.000000	3.651187
342.000000	3.646125
343.000000	3.642674
344.000000	3.638082
345.000000	3.635445
346.000000	3.630942
347.000000	3.628189
348.000000	3.626758
349.000000	3.630753
350.000000	3.631098
351.000000	3.630395
352.000000	3.629680
353.000000	3.627025
354.000000	3.626940
355.000000	3.620995
356.000000	3.621760
357.000000	3.620693
358.000000	3.619404
359.000000	3.614838
360.000000	3.610633
361.000000	3.607323
362.000000	3.606855
363.000000	3.606331
364.000000	3.606186
365.000000	3.608101
366.000000	3.605433
367.000000	3.603777
368.000000	3.601185
369.000000	3.599980
370.000000	3.599326
371.000000	3.601272
372.000000	3.600263
373.000000	3.596416
374.000000	3.589006
375.000000	3.585705
376.000000	3.584996
377.000000	3.576948
378.000000	3.568059
379.000000	3.559850
380.000000	3.551646
381.000000	3.542349
382.000000	3.534604
383.000000	3.529703
384.000000	3.526867
385.000000	3.519781
386.000000	3.511547
387.000000	3.511750
388.000000	3.512545
389.000000	3.513305
390.000000	3.514377
391.000000	3.514794
392.000000	3.515016
393.000000	3.516148
394.000000	3.517587
395.000000	3.519791
396.000000	3.521845
397.000000	3.523325
398.000000	3.524833
399.000000	3.526908
400.000000	3.529299
401.000000	3.532359
402.000000	3.535767
403.000000	3.538903
404.000000	3.542328
405.000000	3.545343
406.000000	3.549305
407.000000	3.554283
408.000000	3.559560
409.000000	3.565621
410.000000	3.571953
411.000000	3.578920
412.000000	3.586880
413.000000	3.595623
414.000000	3.604995
415.000000	3.615416
416.000000	3.626509
417.000000	3.638630
418.000000	3.651441
419.000000	3.664978
420.000000	3.679913
421.000000	3.695948
422.000000	3.712495
423.000000	3.729872
424.000000	3.748155
425.000000	3.767357
426.000000	3.787364
427.000000	3.808141
428.000000	3.829910
429.000000	3.852455
430.000000	3.875489
431.000000	3.899126
432.000000	3.923484
433.000000	3.948257
434.000000	3.973687
435.000000	3.999953
436.000000	4.026960
437.000000	4.054462
438.000000	4.082715
439.000000	4.111916
440.000000	4.141952
441.000000	4.172195
442.000000	4.202955
443.000000	4.234598
444.000000	4.267006
445.000000	4.299987
446.000000	4.333050
447.000000	4.366450
448.000000	4.400462
449.000000	4.434812
450.000000	4.469854
451.000000	4.505948
452.000000	4.542632
453.000000	4.579721
454.000000	4.617282
455.000000	4.655424
456.000000	4.694588
457.000000	4.734534
458.000000	4.774757
459.000000	4.815050
460.000000	4.855555
461.000000	4.896481
462.000000	4.937951
463.000000	4.980001
464.000000	5.022512
465.000000	5.065410
466.000000	5.108492
467.000000	5.151859
468.000000	5.196022
469.000000	5.240944
470.000000	5.285896
471.000000	5.330836
472.000000	5.375967
473.000000	5.421861
474.000000	5.467848
475.000000	5.513629
476.000000	5.559692
477.000000	5.605917
478.000000	5.652184
479.000000	5.698355
480.000000	5.744725
481.000000	5.791744
482.000000	5.838863
483.000000	5.885107
484.000000	5.931441
485.000000	5.978144
486.000000	6.024808
487.000000	6.071273
488.000000	6.117217
489.000000	6.163002
490.000000	6.209340
491.000000	6.255180
492.000000	6.300993
493.000000	6.347156
494.000000	6.393197
495.000000	6.439126
496.000000	6.485081
497.000000	6.531183
498.000000	6.577396
499.000000	6.623596
500.000000	6.669811
501.000000	6.715976
502.000000	6.762306
503.000000	6.808447
504.000000	6.855167
505.000000	6.902305
506.000000	6.949262
507.000000	6.996518
508.000000	7.044299
509.000000	7.092730
510.000000	7.140856
511.000000	7.189706
512.000000	7.238814
513.000000	7.288474
514.000000	7.338152
515.000000	7.388044
516.000000	7.438778
517.000000	7.490119
518.000000	7.541716
519.000000	7.593601
520.000000	7.646483
521.000000	7.700096
522.000000	7.754705
523.000000	7.809800
524.000000	7.865744
525.000000	7.922404
526.000000	7.979343
527.000000	8.036565
528.000000	8.094809
529.000000	8.153719
530.000000	8.213071
531.000000	8.272862
532.000000	8.333023
533.000000	8.393870
534.000000	8.455033
535.000000	8.516410
536.000000	8.578980
537.000000	8.641834
538.000000	8.704644
539.000000	8.767700
540.000000	8.831240
541.000000	8.895304
542.000000	8.959317
543.000000	9.024208
544.000000	9.089297
545.000000	9.155071
546.000000	9.220626
547.000000	9.286810
548.000000	9.353174
549.000000	9.419800
550.000000	9.486581
551.000000	9.553341
552.000000	9.620789
553.000000	9.688052
554.000000	9.756044
555.000000	9.823548
556.000000	9.891650
557.000000	9.959195
558.000000	10.027735
559.000000	10.096361
560.000000	10.162080
561.000000	10.227674
562.000000	10.292938
563.000000	10.358683
564.000000	10.424233
565.000000	10.490133
566.000000	10.556121
567.000000	10.622801
568.000000	10.689217
569.000000	10.756480
570.000000	10.827210
571.000000	10.898156
572.000000	10.969679
573.000000	11.041785
574.000000	11.114492
575.000000	11.187814
576.000000	11.261454
577.000000	11.335398
578.000000	11.409878
579.000000	11.484328
580.000000	11.559448
581.000000	11.634983
582.000000	11.711018
583.000000	11.786730
584.000000	11.862850
585.000000	11.939119
586.000000	12.016591
587.000000	12.094621
588.000000	12.173418
589.000000	12.252225
590.000000	12.331406
591.000000	12.411106
592.000000	12.492099
593.000000	12.572858
594.000000	12.654167
595.000000	12.736771
596.000000	12.818550
597.000000	12.901661
598.000000	12.984725
599.000000	13.068555
600.000000	13.152947
601.000000	13.237997
602.000000	13.323134
603.000000	13.409030
604.000000	13.495188
605.000000	13.580038
606.000000	13.665680
607.000000	13.751826
608.000000	13.838766
609.000000	13.924916
610.000000	14.010614
611.000000	14.096218
612.000000	14.181930
613.000000	14.268218
614.000000	14.353278
615.000000	14.439975
616.000000	14.527053
617.000000	14.612956
618.000000	14.697544
619.000000	14.783414
620.000000	14.868749
621.000000	14.954101
622.000000	15.038967
623.000000	15.123579
624.000000	15.208675
625.000000	15.294030
626.000000	15.377617
627.000000	15.461626
628.000000	15.544972
629.000000	15.628069
630.000000	15.711982
631.000000	15.795648
632.000000	15.878633
633.000000	15.961184
634.000000	16.043867
635.000000	16.126141
636.000000	16.209874
637.000000	16.292051
638.000000	16.374863
639.000000	16.457463
640.000000	16.539242
641.000000	16.621547
642.000000	16.704221
643.000000	16.786796
644.000000	16.869205
645.000000	16.950409
646.000000	17.031241
647.000000	17.112238
648.000000	17.193167
649.000000	17.274683
650.000000	17.357215
651.000000	17.438321
652.000000	17.519502
653.000000	17.600126
654.000000	17.681484
655.000000	17.762024
656.000000	17.842840
657.000000	17.924698
658.000000	18.007437
659.000000	18.087893
660.000000	18.167215
661.000000	18.247762
662.000000	18.328247
663.000000	18.408880
664.000000	18.488447
665.000000	18.568618
666.000000	18.647682
667.000000	18.726107
668.000000	18.804120
669.000000	18.884264
670.000000	18.963577
671.000000	19.041686
672.000000	19.119705
673.000000	19.198329
674.000000	19.276686
675.000000	19.355589
676.000000	19.434569
677.000000	19.513149
678.000000	19.589657
679.000000	19.666292
680.000000	19.743485
681.000000	19.820288
682.000000	19.896043
683.000000	19.972064
684.000000	20.048242
685.000000	20.123977
686.000000	20.198808
687.000000	20.274008
688.000000	20.350277
689.000000	20.425766
690.000000	20.500975
691.000000	20.576811
692.000000	20.654193
693.000000	20.730282
694.000000	20.806571
695.000000	20.883378
696.000000	20.960982
697.000000	21.037610
698.000000	21.113958
699.000000	21.191055
700.000000	21.267569
701.000000	21.343709
702.000000	21.418496
703.000000	21.492608
704.000000	21.567587
705.000000	21.641916
706.000000	21.715732
707.000000	21.791663
708.000000	21.868107
709.000000	21.943186
710.000000	22.019063
711.000000	22.094800
712.000000	22.170682
713.000000	22.248401
714.000000	22.325969
715.000000	22.402584
716.000000	22.479676
717.000000	22.554882
718.000000	22.630401
719.000000	22.706214
720.000000	22.782035
721.000000	22.859061
722.000000	22.935836
723.000000	23.012520
724.000000	23.089713
725.000000	23.167756
726.000000	23.245754
727.000000	23.324861
728.000000	23.404396
729.000000	23.484185
730.000000	23.562895
731.000000	23.639113
732.000000	23.715779
733.000000	23.794144
734.000000	23.871692
735.000000	23.949565
736.000000	24.027292
737.000000	24.104134
738.000000	24.182175
739.000000	24.260019
740.000000	24.338235
741.000000	24.419599
742.000000	24.500585
743.000000	24.580339
744.000000	24.659922
745.000000	24.739761
746.000000	24.820050
747.000000	24.901578
748.000000	24.982320
749.000000	25.064178
750.000000	25.148622
751.000000	25.229866
752.000000	25.311236
753.000000	25.393555
754.000000	25.474650
755.000000	25.555806
756.000000	25.638290
757.000000	25.718907
758.000000	25.800012
759.000000	25.880212
760.000000	25.960668
761.000000	26.046757
762.000000	26.134171
763.000000	26.217946
764.000000	26.301937
765.000000	26.389143
766.000000	26.475923
767.000000	26.564347
768.000000	26.651767
769.000000	26.738503
770.000000	26.824322
771.000000	26.907439
772.000000	26.989495
773.000000	27.072833
774.000000	27.160040
775.000000	27.243936
776.000000	27.330557
777.000000	27.415300
778.000000	27.499452
779.000000	27.584407
780.000000	27.668697
781.000000	27.754225
782.000000	27.840165
783.000000	27.927719
784.000000	28.014167
785.000000	28.100975
786.000000	28.185846
787.000000	28.273373
788.000000	28.362969
789.000000	28.452096
790.000000	28.540794
791.000000	28.627979
792.000000	28.717467
793.000000	28.806383
794.000000	28.893355
795.000000	28.980155
796.000000	29.068162
797.000000	29.155259
798.000000	29.241704
799.000000	29.331352
800.000000	29.422268
801.000000	29.517706
802.000000	29.611531
803.000000	29.698598
804.000000	29.790931
805.000000	29.882026
806.000000	29.970391
807.000000	30.062287
808.000000	30.153579
809.000000	30.237897
810.000000	30.330442
811.000000	30.414686
812.000000	30.499512
813.000000	30.589914
814.000000	30.677451
815.000000	30.764883
816.000000	30.851897
817.000000	30.938360
818.000000	31.024935
819.000000	31.114514
820.000000	31.194249
821.000000	31.277239
822.000000	31.359091
823.000000	31.439452
824.000000	31.517338
825.000000	31.595203
826.000000	31.676431
827.000000	31.755280
828.000000	31.835352
829.000000	31.911654
830.000000	31.990415
831.000000	32.063006
832.000000	32.138677
833.000000	32.218910
834.000000	32.299202
835.000000	32.379393
836.000000	32.450830
837.000000	32.519862
838.000000	32.591862
839.000000	32.661311
840.000000	32.727401
841.000000	32.802451
842.000000	32.869722
843.000000	32.941539
844.000000	33.010398
845.000000	33.079495
846.000000	33.150254
847.000000	33.214491
848.000000	33.269601
849.000000	33.326232
850.000000	33.393603
851.000000	33.447782
852.000000	33.498482
853.000000	33.552611
854.000000	33.602546
855.000000	33.635594
856.000000	33.678547
857.000000	33.744207
858.000000	33.941025
859.000000	34.082993
860.000000	34.189857
861.000000	34.326420
862.000000	34.444414
863.000000	34.562529
864.000000	34.676318
865.000000	34.806542
866.000000	34.925922
867.000000	35.025463
868.000000	34.989450
869.000000	35.024918
870.000000	35.080737
871.000000	35.108000
872.000000	35.164897
873.000000	35.204985
874.000000	35.258760
875.000000	35.293435
876.000000	35.341195
877.000000	35.394940
878.000000	35.450995
879.000000	35.482905
880.000000	35.509080
881.000000	35.542860
882.000000	35.562915
883.000000	35.584785
884.000000	35.619508
885.000000	35.673110
886.000000	35.707307
887.000000	35.741303
888.000000	35.764140
889.000000	35.801195
890.000000	35.854245
891.000000	35.896802
892.000000	35.943762
893.000000	35.982725
894.000000	36.004168
895.000000	36.031960
896.000000	36.066205
897.000000	36.099200
898.000000	36.139745
899.000000	36.179997
900.000000	36.208005
901.000000	36.237958
902.000000	36.275963
903.000000	36.321215
904.000000	36.368585
905.000000	36.403317
906.000000	36.438818
907.000000	36.468755
908.000000	36.506752
909.000000	36.536862
910.000000	36.569835
911.000000	36.617540
912.000000	36.660373
913.000000	36.703045
914.000000	36.742027
915.000000	36.782285
916.000000	36.823480
917.000000	36.868830
918.000000	36.911572
919.000000	36.959128
920.000000	37.007677
921.000000	37.044263
922.000000	37.085020
923.000000	37.129590
924.000000	37.170950
925.000000	37.214732
926.000000	37.260590
927.000000	37.302348
928.000000	37.346015
929.000000	37.387200
930.000000	37.429257
931.000000	37.473510
932.000000	37.516575
933.000000	37.557470
934.000000	37.599258
935.000000	37.639075
936.000000	37.677978
937.000000	37.718135
938.000000	37.755840
939.000000	37.795705
940.000000	37.831933
941.000000	37.866153
942.000000	37.896723
943.000000	37.930700
944.000000	37.967745
945.000000	38.006687
946.000000	38.042815
947.000000	38.082245
948.000000	38.121860
949.000000	38.158802
950.000000	38.198418
951.000000	38.239027
952.000000	38.277230
953.000000	38.312928
954.000000	38.349653
955.000000	38.385100
956.000000	38.421615
957.000000	38.454077
958.000000	38.486255
959.000000	38.519800
960.000000	38.552657
961.000000	38.586323
962.000000	38.620455
963.000000	38.653150
964.000000	38.683262
965.000000	38.713145
966.000000	38.741830
967.000000	38.770472
968.000000	38.801150
969.000000	38.832885
970.000000	38.863878
971.000000	38.895070
972.000000	38.927357
973.000000	38.959883
974.000000	38.991605
975.000000	39.023705
976.000000	39.055523
977.000000	39.089402
978.000000	39.120998
979.000000	39.150515
980.000000	39.180540
981.000000	39.210462
982.000000	39.238183
983.000000	39.264922
984.000000	39.291398
985.000000	39.319147
986.000000	39.347927
987.000000	39.374155
988.000000	39.401247
989.000000	39.429378
990.000000	39.457322
991.000000	39.483990
992.000000	39.510960
993.000000	39.538127
994.000000	39.566803
995.000000	39.594853
996.000000	39.621388
997.000000	39.648360
998.000000	39.675330
999.000000	39.702040
1000.000000	39.728507
1001.000000	39.755898
1002.000000	39.783917
1003.000000	39.811538
1004.000000	39.838223
1005.000000	39.864918
1006.000000	39.891582
1007.000000	39.917450
1008.000000	39.943530
1009.000000	39.968927
1010.000000	39.993958
1011.000000	40.019605
1012.000000	40.046085
1013.000000	40.073163
1014.000000	40.099685
1015.000000	40.126295
1016.000000	40.153675
1017.000000	40.180870
1018.000000	40.207843
1019.000000	40.235598
1020.000000	40.264020
1021.000000	40.293823
1022.000000	40.323655
1023.000000	40.353617
1024.000000	40.385423
1025.000000	40.417013
1026.000000	40.448503
1027.000000	40.481915
1028.000000	40.515260
1029.000000	40.547890
1030.000000	40.581442
1031.000000	40.615160
1032.000000	40.649142
1033.000000	40.683415
1034.000000	40.716650
1035.000000	40.748753
1036.000000	40.781210
1037.000000	40.814555
1038.000000	40.848610
1039.000000	40.882390
1040.000000	40.915360
1041.000000	40.946948
1042.000000	40.977578
1043.000000	41.008202
1044.000000	41.039400
1045.000000	41.072230
1046.000000	41.104493
1047.000000	41.135782
1048.000000	41.166580
1049.000000	41.197305
1050.000000	41.228527
1051.000000	41.261550
1052.000000	41.296220
1053.000000	41.330298
1054.000000	41.363050
1055.000000	41.395353
1056.000000	41.428112
1057.000000	41.461000
1058.000000	41.494298
1059.000000	41.529717
1060.000000	41.563965
1061.000000	41.595470
1062.000000	41.626765
1063.000000	41.658037
1064.000000	41.690547
1065.000000	41.722988
1066.000000	41.756723
1067.000000	41.789627
1068.000000	41.821758
1069.000000	41.853542
1070.000000	41.886175
1071.000000	41.919953
1072.000000	41.952960
1073.000000	41.986630
1074.000000	42.018735
1075.000000	42.050798
1076.000000	42.082927
1077.000000	42.116605
1078.000000	42.150310
1079.000000	42.182293
1080.000000	42.213660
1081.000000	42.243895
1082.000000	42.273733
1083.000000	42.301902
1084.000000	42.331185
1085.000000	42.360165
1086.000000	42.387527
1087.000000	42.413702
1088.000000	42.439400
1089.000000	42.464643
1090.000000	42.489333
1091.000000	42.514060
1092.000000	42.538240
1093.000000	42.562233
1094.000000	42.585805
1095.000000	42.609315
1096.000000	42.632478
1097.000000	42.654272
1098.000000	42.675635
1099.000000	42.696995
1100.000000	42.717413
1101.000000	42.737303
1102.000000	42.755713
1103.000000	42.774417
1104.000000	42.791528
1105.000000	42.807855
1106.000000	42.823545
1107.000000	42.839683
1108.000000	42.855068
1109.000000	42.868685
1110.000000	42.882347
1111.000000	42.895442
1112.000000	42.908763
1113.000000	42.919615
1114.000000	42.930687
1115.000000	42.940373
1116.000000	42.949020
1117.000000	42.955522
1118.000000	42.961368
1119.000000	42.967433
1120.000000	42.971495
1121.000000	42.974585
1122.000000	42.975295
1123.000000	42.975777
1124.000000	42.972710
1125.000000	42.966327
1126.000000	42.956570
1127.000000	42.944518
1128.000000	42.928717
1129.000000	42.910103
1130.000000	42.886062
1131.000000	42.855632
1132.000000	42.820070
1133.000000	42.782120
1134.000000	42.744100
1135.000000	42.703285
1136.000000	42.658878
1137.000000	42.608150
1138.000000	42.554365
1139.000000	42.497465
1140.000000	42.441920
1141.000000	42.387832
1142.000000	42.334970
1143.000000	42.280535
1144.000000	42.225220
1145.000000	42.171082
1146.000000	42.119312
1147.000000	42.071735
1148.000000	42.025170
1149.000000	41.979168
1150.000000	41.933110
1151.000000	41.887365
1152.000000	41.841520
1153.000000	41.794337
1154.000000	41.744560
1155.000000	41.692155
1156.000000	41.636180
1157.000000	41.576158
1158.000000	41.513670
1159.000000	41.446115
1160.000000	41.373595
1161.000000	41.297242
1162.000000	41.217017
1163.000000	41.133218
1164.000000	41.045460
1165.000000	40.955157
1166.000000	40.864342
1167.000000	40.774167
1168.000000	40.683967
1169.000000	40.596050
1170.000000	40.512105
1171.000000	40.430537
1172.000000	40.353215
1173.000000	40.278650
1174.000000	40.210343
1175.000000	40.145635
1176.000000	40.085707
1177.000000	40.029025
1178.000000	39.975855
1179.000000	39.925902
1180.000000	39.877945
1181.000000	39.832105
1182.000000	39.788245
1183.000000	39.747393
1184.000000	39.709305
1185.000000	39.676630
1186.000000	39.647595
1187.000000	39.623668
1188.000000	39.603980
1189.000000	39.591893
1190.000000	39.586253
1191.000000	39.587840
1192.000000	39.596140
1193.000000	39.611900
1194.000000	39.633135
1195.000000	39.658262
1196.000000	39.688012
1197.000000	39.720470
1198.000000	39.755585
1199.000000	39.792003
1200.000000	39.829042
1201.000000	39.865470
1202.000000	39.901767
1203.000000	39.937225
1204.000000	39.972113
1205.000000	40.006527
1206.000000	40.038515
1207.000000	40.070033
1208.000000	40.102013
1209.000000	40.132965
1210.000000	40.163573
1211.000000	40.195782
1212.000000	40.227437
1213.000000	40.259815
1214.000000	40.292225
1215.000000	40.324830
1216.000000	40.359893
1217.000000	40.396327
1218.000000	40.433035
1219.000000	40.470460
1220.000000	40.508978
1221.000000	40.547708
1222.000000	40.587975
1223.000000	40.628820
1224.000000	40.670035
1225.000000	40.712342
1226.000000	40.753770
1227.000000	40.794810
1228.000000	40.835622
1229.000000	40.876573
1230.000000	40.916885
1231.000000	40.956043
1232.000000	40.993690
1233.000000	41.030558
1234.000000	41.065767
1235.000000	41.099943
1236.000000	41.132638
1237.000000	41.164767
1238.000000	41.196087
1239.000000	41.226075
1240.000000	41.255558
1241.000000	41.284620
1242.000000	41.314608
1243.000000	41.344375
1244.000000	41.374220
1245.000000	41.404382
1246.000000	41.435828
1247.000000	41.468110
1248.000000	41.500125
1249.000000	41.532218
1250.000000	41.564915
1251.000000	41.597515
1252.000000	41.628878
1253.000000	41.660065
1254.000000	41.690842
1255.000000	41.719175
1256.000000	41.745040
1257.000000	41.768412
1258.000000	41.790570
1259.000000	41.810922
1260.000000	41.828715
1261.000000	41.844572
1262.000000	41.858750
1263.000000	41.871040
1264.000000	41.881623
1265.000000	41.891480
1266.000000	41.900430
1267.000000	41.909020
1268.000000	41.917033
1269.000000	41.923273
1270.000000	41.928418
1271.000000	41.932702
1272.000000	41.936222
1273.000000	41.939480
1274.000000	41.942835
1275.000000	41.947155
1276.000000	41.951477
1277.000000	41.956225
1278.000000	41.962035
1279.000000	41.969068
1280.000000	41.977405
1281.000000	41.987880
1282.000000	41.999640
1283.000000	42.012295
1284.000000	42.026063
1285.000000	42.041083
1286.000000	42.057505
1287.000000	42.074117
1288.000000	42.090710
1289.000000	42.109127
1290.000000	42.128123
1291.000000	42.146420
1292.000000	42.164133
1293.000000	42.180293
1294.000000	42.195907
1295.000000	42.210605
1296.000000	42.223483
1297.000000	42.235422
1298.000000	42.246505
1299.000000	42.255440
1300.000000	42.262515
1301.000000	42.268277
1302.000000	42.272737
1303.000000	42.276940
1304.000000	42.279628
1305.000000	42.280595
1306.000000	42.280698
1307.000000	42.278562
1308.000000	42.274213
1309.000000	42.268003
1310.000000	42.259905
1311.000000	42.250017
1312.000000	42.238343
1313.000000	42.224737
1314.000000	42.208973
1315.000000	42.191040
1316.000000	42.170995
1317.000000	42.150198
1318.000000	42.128302
1319.000000	42.103693
1320.000000	42.077987
1321.000000	42.051563
1322.000000	42.024080
1323.000000	41.994195
1324.000000	41.962663
1325.000000	41.929655
1326.000000	41.894893
1327.000000	41.857893
1328.000000	41.818512
1329.000000	41.777085
1330.000000	41.732225
1331.000000	41.683802
1332.000000	41.632677
1333.000000	41.578600
1334.000000	41.521917
1335.000000	41.461215
1336.000000	41.397217
1337.000000	41.330432
1338.000000	41.259865
1339.000000	41.186690
1340.000000	41.110728
1341.000000	41.029888
1342.000000	40.944595
1343.000000	40.856713
1344.000000	40.764565
1345.000000	40.668660
1346.000000	40.570630
1347.000000	40.469660
1348.000000	40.364247
1349.000000	40.254683
1350.000000	40.142155
1351.000000	40.028717
1352.000000	39.912812
1353.000000	39.799267
1354.000000	39.689615
1355.000000	39.584480
1356.000000	39.479208
1357.000000	39.375127
1358.000000	39.275802
1359.000000	39.180890
1360.000000	39.095140
1361.000000	39.019560
1362.000000	38.947940
1363.000000	38.873865
1364.000000	38.800103
1365.000000	38.723095
1366.000000	38.642525
1367.000000	38.563205
1368.000000	38.479757
1369.000000	38.389545
1370.000000	38.287887
1371.000000	38.171140
1372.000000	38.040132
1373.000000	37.892885
1374.000000	37.726183
1375.000000	37.545248
1376.000000	37.350270
1377.000000	37.137605
1378.000000	36.911928
1379.000000	36.681090
1380.000000	36.446670
1381.000000	36.217435
1382.000000	35.998508
1383.000000	35.792350
1384.000000	35.600007
1385.000000	35.417727
1386.000000	35.251015
1387.000000	35.104512
1388.000000	34.974105
1389.000000	34.850752
1390.000000	34.735340
1391.000000	34.624968
1392.000000	34.518880
1393.000000	34.416090
1394.000000	34.319558
1395.000000	34.234322
1396.000000	34.149932
1397.000000	34.052635
1398.000000	33.950783
1399.000000	33.854325
1400.000000	33.763155
1401.000000	33.658025
1402.000000	33.540073
1403.000000	33.414288
1404.000000	33.280615
1405.000000	33.132638
1406.000000	32.977545
1407.000000	32.821590
1408.000000	32.664370
1409.000000	32.495787
1410.000000	32.311065
1411.000000	32.124432
1412.000000	31.942135
1413.000000	31.764515
1414.000000	31.585380
1415.000000	31.403173
1416.000000	31.220263
1417.000000	31.043300
1418.000000	30.870935
1419.000000	30.703645
1420.000000	30.539870
1421.000000	30.382098
1422.000000	30.229955
1423.000000	30.080670
1424.000000	29.932488
1425.000000	29.790235
1426.000000	29.656655
1427.000000	29.526050
1428.000000	29.394842
1429.000000	29.267183
1430.000000	29.146760
1431.000000	29.035050
1432.000000	28.925873
1433.000000	28.817203
1434.000000	28.715483
1435.000000	28.618300
1436.000000	28.523700
1437.000000	28.432758
1438.000000	28.346365
1439.000000	28.261183
1440.000000	28.179945
1441.000000	28.099923
1442.000000	28.020940
1443.000000	27.944878
1444.000000	27.870570
1445.000000	27.801750
1446.000000	27.733830
1447.000000	27.664365
1448.000000	27.594355
1449.000000	27.529420
1450.000000	27.464480
1451.000000	27.400838
1452.000000	27.337875
1453.000000	27.274597
1454.000000	27.210907
1455.000000	27.144720
1456.000000	27.078340
1457.000000	27.014555
1458.000000	26.951158
1459.000000	26.886785
1460.000000	26.822190
1461.000000	26.755988
1462.000000	26.689845
1463.000000	26.625335
1464.000000	26.560282
1465.000000	26.496498
1466.000000	26.434585
1467.000000	26.371303
1468.000000	26.309127
1469.000000	26.248070
1470.000000	26.188358
1471.000000	26.130628
1472.000000	26.073350
1473.000000	26.016568
1474.000000	25.959518
1475.000000	25.904678
1476.000000	25.851162
1477.000000	25.800520
1478.000000	25.751027
1479.000000	25.703570
1480.000000	25.659028
1481.000000	25.615787
1482.000000	25.575935
1483.000000	25.539343
1484.000000	25.506740
1485.000000	25.476222
1486.000000	25.447498
1487.000000	25.421735
1488.000000	25.397827
1489.000000	25.374067
1490.000000	25.351297
1491.000000	25.331488
1492.000000	25.314687
1493.000000	25.300235
1494.000000	25.287078
1495.000000	25.275892
1496.000000	25.267108
1497.000000	25.261755
1498.000000	25.261303
1499.000000	25.266018
1500.000000	25.274303
1501.000000	25.286127
1502.000000	25.301765
1503.000000	25.320798
1504.000000	25.345813
1505.000000	25.375053
1506.000000	25.408728
1507.000000	25.445362
1508.000000	25.484410
1509.000000	25.525427
1510.000000	25.568707
1511.000000	25.614308
1512.000000	25.662310
1513.000000	25.711595
1514.000000	25.761412
1515.000000	25.810998
1516.000000	25.860705
1517.000000	25.909590
1518.000000	25.959263
1519.000000	26.009287
1520.000000	26.058782
1521.000000	26.107455
1522.000000	26.155335
1523.000000	26.201995
1524.000000	26.247602
1525.000000	26.293813
1526.000000	26.339145
1527.000000	26.384635
1528.000000	26.429203
1529.000000	26.472610
1530.000000	26.516363
1531.000000	26.558825
1532.000000	26.598537
1533.000000	26.637977
1534.000000	26.677530
1535.000000	26.715180
1536.000000	26.752098
1537.000000	26.787680
1538.000000	26.822260
1539.000000	26.856105
1540.000000	26.888370
1541.000000	26.920720
1542.000000	26.953572
1543.000000	26.986595
1544.000000	27.019905
1545.000000	27.054827
1546.000000	27.091625
1547.000000	27.130088
1548.000000	27.170390
1549.000000	27.212635
1550.000000	27.257538
1551.000000	27.304382
1552.000000	27.352655
1553.000000	27.400583
1554.000000	27.447897
1555.000000	27.494498
1556.000000	27.538597
1557.000000	27.580320
1558.000000	27.618313
1559.000000	27.652137
1560.000000	27.681803
1561.000000	27.706252
1562.000000	27.725855
1563.000000	27.741935
1564.000000	27.753685
1565.000000	27.760998
1566.000000	27.765150
1567.000000	27.765307
1568.000000	27.763090
1569.000000	27.758350
1570.000000	27.751330
1571.000000	27.743682
1572.000000	27.736248
1573.000000	27.728600
1574.000000	27.722085
1575.000000	27.716183
1576.000000	27.711205
1577.000000	27.708605
1578.000000	27.708713
1579.000000	27.712628
1580.000000	27.719770
1581.000000	27.729572
1582.000000	27.742957
1583.000000	27.759442
1584.000000	27.778287
1585.000000	27.800482
1586.000000	27.826165
1587.000000	27.854060
1588.000000	27.884280
1589.000000	27.916328
1590.000000	27.948687
1591.000000	27.982123
1592.000000	28.016650
1593.000000	28.053055
1594.000000	28.090925
1595.000000	28.130463
1596.000000	28.171090
1597.000000	28.214453
1598.000000	28.258830
1599.000000	28.304035
1600.000000	28.352637
1601.000000	28.403607
1602.000000	28.455510
1603.000000	28.507697
1604.000000	28.560177
1605.000000	28.613738
1606.000000	28.668085
1607.000000	28.721862
1608.000000	28.774720
1609.000000	28.827013
1610.000000	28.879185
1611.000000	28.930380
1612.000000	28.979065
1613.000000	29.026497
1614.000000	29.072987
1615.000000	29.116275
1616.000000	29.157945
1617.000000	29.197850
1618.000000	29.236193
1619.000000	29.272510
1620.000000	29.306503
1621.000000	29.338730
1622.000000	29.371297
1623.000000	29.404265
1624.000000	29.437045
1625.000000	29.469487
1626.000000	29.500450
1627.000000	29.530998
1628.000000	29.561267
1629.000000	29.592953
1630.000000	29.623668
1631.000000	29.654337
1632.000000	29.685115
1633.000000	29.714018
1634.000000	29.741460
1635.000000	29.768228
1636.000000	29.794095
1637.000000	29.818133
1638.000000	29.841667
1639.000000	29.861950
1640.000000	29.880825
1641.000000	29.897735
1642.000000	29.911787
1643.000000	29.923837
1644.000000	29.934652
1645.000000	29.944130
1646.000000	29.952838
1647.000000	29.959803
1648.000000	29.965000
1649.000000	29.967387
1650.000000	29.967482
1651.000000	29.964298
1652.000000	29.959318
1653.000000	29.951120
1654.000000	29.938685
1655.000000	29.920955
1656.000000	29.897325
1657.000000	29.867722
1658.000000	29.831312
1659.000000	29.788930
1660.000000	29.739738
1661.000000	29.684247
1662.000000	29.621353
1663.000000	29.551085
1664.000000	29.473780
1665.000000	29.389605
1666.000000	29.298887
1667.000000	29.203190
1668.000000	29.097875
1669.000000	28.987625
1670.000000	28.872002
1671.000000	28.751265
1672.000000	28.624905
1673.000000	28.497070
1674.000000	28.366270
1675.000000	28.231895
1676.000000	28.095950
1677.000000	27.957415
1678.000000	27.820143
1679.000000	27.681327
1680.000000	27.540053
1681.000000	27.397525
1682.000000	27.255063
1683.000000	27.109850
1684.000000	26.965655
1685.000000	26.824795
1686.000000	26.688410
1687.000000	26.559280
1688.000000	26.444097
1689.000000	26.343130
1690.000000	26.258727
1691.000000	26.190805
1692.000000	26.142140
1693.000000	26.110318
1694.000000	26.093072
1695.000000	26.088552
1696.000000	26.093422
1697.000000	26.104620
1698.000000	26.115925
1699.000000	26.125305
1700.000000	26.131203
1701.000000	26.132825
1702.000000	26.126615
1703.000000	26.113412
1704.000000	26.092710
1705.000000	26.064722
1706.000000	26.029003
1707.000000	25.986725
1708.000000	25.935358
1709.000000	25.875052
1710.000000	25.806415
1711.000000	25.730355
1712.000000	25.644475
1713.000000	25.549700
1714.000000	25.446262
1715.000000	25.334960
1716.000000	25.215920
1717.000000	25.090210
1718.000000	24.960902
1719.000000	24.829753
1720.000000	24.699723
1721.000000	24.571895
1722.000000	24.450843
1723.000000	24.339513
1724.000000	24.241400
1725.000000	24.158650
1726.000000	24.091822
1727.000000	24.041150
1728.000000	24.007538
1729.000000	23.990165
1730.000000	23.988910
1731.000000	24.000593
1732.000000	24.024460
1733.000000	24.057157
1734.000000	24.098363
1735.000000	24.145815
1736.000000	24.200093
1737.000000	24.259378
1738.000000	24.324267
1739.000000	24.393650
1740.000000	24.464537
1741.000000	24.539765
1742.000000	24.616885
1743.000000	24.695730
1744.000000	24.772455
1745.000000	24.848492
1746.000000	24.922675
1747.000000	24.993975
1748.000000	25.059840
1749.000000	25.121380
1750.000000	25.179343
1751.000000	25.230112
1752.000000	25.273470
1753.000000	25.310782
1754.000000	25.343970
1755.000000	25.371363
1756.000000	25.393250
1757.000000	25.411612
1758.000000	25.427465
1759.000000	25.440202
1760.000000	25.450525
1761.000000	25.461050
1762.000000	25.473055
1763.000000	25.486240
1764.000000	25.500435
1765.000000	25.517720
1766.000000	25.538785
1767.000000	25.562168
1768.000000	25.589080
1769.000000	25.621153
1770.000000	25.656950
1771.000000	25.695000
1772.000000	25.734820
1773.000000	25.776565
1774.000000	25.820530
1775.000000	25.865090
1776.000000	25.909135
1777.000000	25.953405
1778.000000	25.996040
1779.000000	26.036487
1780.000000	26.075065
1781.000000	26.111560
1782.000000	26.146145
1783.000000	26.178675
1784.000000	26.208037
1785.000000	26.233623
1786.000000	26.256690
1787.000000	26.277175
1788.000000	26.294468
1789.000000	26.309323
1790.000000	26.321310
1791.000000	26.332772
1792.000000	26.343815
1793.000000	26.354948
1794.000000	26.366060
1795.000000	26.378918
1796.000000	26.391200
1797.000000	26.404142
1798.000000	26.418840
1799.000000	26.434345
1800.000000	26.452385
1801.000000	26.470893
1802.000000	26.487740
1803.000000	26.503768
1804.000000	26.521095
1805.000000	26.537640
1806.000000	26.556305
1807.000000	26.574777
1808.000000	26.591037
1809.000000	26.605700
1810.000000	26.621203
1811.000000	26.638703
1812.000000	26.656842
1813.000000	26.673970
1814.000000	26.689857
1815.000000	26.704537
1816.000000	26.716560
1817.000000	26.724950
1818.000000	26.732312
1819.000000	26.744000
1820.000000	26.759032
1821.000000	26.773198
1822.000000	26.783888
1823.000000	26.789497
1824.000000	26.792400
1825.000000	26.797422
1826.000000	26.805198
1827.000000	26.818133
1828.000000	26.835397
1829.000000	26.850760
1830.000000	26.862150
1831.000000	26.871258
1832.000000	26.883163
1833.000000	26.899825
1834.000000	26.918985
1835.000000	26.939263
1836.000000	26.962438
1837.000000	26.986798
1838.000000	27.010922
1839.000000	27.037245
1840.000000	27.068100
1841.000000	27.104475
1842.000000	27.139878
1843.000000	27.169443
1844.000000	27.191760
1845.000000	27.209377
1846.000000	27.226552
1847.000000	27.249862
1848.000000	27.277950
1849.000000	27.298660
1850.000000	27.303915
1851.000000	27.298917
1852.000000	27.294878
1853.000000	27.296857
1854.000000	27.305633
1855.000000	27.314635
1856.000000	27.313562
1857.000000	27.298032
1858.000000	27.274352
1859.000000	27.253267
1860.000000	27.238015
1861.000000	27.222417
1862.000000	27.200305
1863.000000	27.169205
1864.000000	27.125052
1865.000000	27.072820
1866.000000	27.015875
1867.000000	26.954473
1868.000000	26.884773
1869.000000	26.805678
1870.000000	26.722792
1871.000000	26.633337
1872.000000	26.538535
1873.000000	26.438565
1874.000000	26.333828
1875.000000	26.218700
1876.000000	26.096848
1877.000000	25.962980
1878.000000	25.816490
1879.000000	25.656137
1880.000000	25.476730
1881.000000	25.282725
1882.000000	25.079560
1883.000000	24.864092
1884.000000	24.637800
1885.000000	24.402755
1886.000000	24.154028
1887.000000	23.894295
1888.000000	23.623740
1889.000000	23.346525
1890.000000	23.064650
1891.000000	22.773565
1892.000000	22.471015
1893.000000	22.159520
1894.000000	21.840635
1895.000000	21.512690
1896.000000	21.178323
1897.000000	20.842305
1898.000000	20.505643
1899.000000	20.167250
1900.000000	19.821333
1901.000000	19.479237
1902.000000	19.142092
1903.000000	18.810125
1904.000000	18.482645
1905.000000	18.168658
1906.000000	17.865995
1907.000000	17.568750
1908.000000	17.280983
1909.000000	17.001838
1910.000000	16.736598
1911.000000	16.480277
1912.000000	16.237240
1913.000000	16.012410
1914.000000	15.794925
1915.000000	15.585823
1916.000000	15.382692
1917.000000	15.193457
1918.000000	15.014603
1919.000000	14.850722
1920.000000	14.698740
1921.000000	14.560742
1922.000000	14.428275
1923.000000	14.295120
1924.000000	14.180057
1925.000000	14.069373
1926.000000	13.974560
1927.000000	13.888378
1928.000000	13.810823
1929.000000	13.737180
1930.000000	13.670012
1931.000000	13.609050
1932.000000	13.553070
1933.000000	13.507907
1934.000000	13.464030
1935.000000	13.427537
1936.000000	13.398805
1937.000000	13.375852
1938.000000	13.361915
1939.000000	13.354587
1940.000000	13.355880
1941.000000	13.358430
1942.000000	13.366872
1943.000000	13.380760
1944.000000	13.404785
1945.000000	13.434300
1946.000000	13.463672
1947.000000	13.497290
1948.000000	13.530638
1949.000000	13.564763
1950.000000	13.601212
1951.000000	13.644940
1952.000000	13.693500
1953.000000	13.744203
1954.000000	13.793130
1955.000000	13.846212
1956.000000	13.902470
1957.000000	13.959193
1958.000000	14.016610
1959.000000	14.076515
1960.000000	14.135358
1961.000000	14.192873
1962.000000	14.250272
1963.000000	14.309610
1964.000000	14.370495
1965.000000	14.431453
1966.000000	14.489077
1967.000000	14.546838
1968.000000	14.606700
1969.000000	14.666358
1970.000000	14.725343
1971.000000	14.786388
1972.000000	14.845842
1973.000000	14.904255
1974.000000	14.961865
1975.000000	15.018097
1976.000000	15.077738
1977.000000	15.135790
1978.000000	15.194970
1979.000000	15.256165
1980.000000	15.318402
1981.000000	15.381342
1982.000000	15.444045
1983.000000	15.506120
1984.000000	15.566520
1985.000000	15.630135
1986.000000	15.690907
1987.000000	15.752725
1988.000000	15.813125
1989.000000	15.871068
1990.000000	15.929213
1991.000000	15.983077
1992.000000	16.038650
1993.000000	16.091650
1994.000000	16.145935
1995.000000	16.195665
1996.000000	16.243518
1997.000000	16.291258
1998.000000	16.334430
1999.000000	16.375930
2000.000000	16.415012
2001.000000	16.452842
2002.000000	16.485588
2003.000000	16.520917
2004.000000	16.551830
2005.000000	16.578930
2006.000000	16.602592
2007.000000	16.621320
2008.000000	16.638815
2009.000000	16.651663
2010.000000	16.662608
2011.000000	16.667540
2012.000000	16.668075
2013.000000	16.660525
2014.000000	16.648475
2015.000000	16.634725
2016.000000	16.619027
2017.000000	16.598202
2018.000000	16.571280
2019.000000	16.538995
2020.000000	16.501030
2021.000000	16.464405
2022.000000	16.422942
2023.000000	16.376395
2024.000000	16.328582
2025.000000	16.274430
2026.000000	16.214650
2027.000000	16.155998
2028.000000	16.094092
2029.000000	16.028382
2030.000000	15.954300
2031.000000	15.874705
2032.000000	15.795570
2033.000000	15.712575
2034.000000	15.624720
2035.000000	15.537935
2036.000000	15.445705
2037.000000	15.346222
2038.000000	15.244688
2039.000000	15.143160
2040.000000	15.041363
2041.000000	14.935295
2042.000000	14.827360
2043.000000	14.717715
2044.000000	14.608893
2045.000000	14.497897
2046.000000	14.391393
2047.000000	14.287248
2048.000000	14.183740
2049.000000	14.083675
2050.000000	13.992563
2051.000000	13.905578
2052.000000	13.823145
2053.000000	13.754375
2054.000000	13.698575
2055.000000	13.656322
2056.000000	13.622580
2057.000000	13.599883
2058.000000	13.594395
2059.000000	13.601105
2060.000000	13.616700
2061.000000	13.642430
2062.000000	13.680378
2063.000000	13.727232
2064.000000	13.778115
2065.000000	13.831265
2066.000000	13.892443
2067.000000	13.963410
2068.000000	14.034920
2069.000000	14.107997
2070.000000	14.182903
2071.000000	14.263003
2072.000000	14.343495
2073.000000	14.423933
2074.000000	14.502812
2075.000000	14.580813
2076.000000	14.657587
2077.000000	14.728788
2078.000000	14.795145
2079.000000	14.855552
2080.000000	14.909742
2081.000000	14.960400
2082.000000	15.003617
2083.000000	15.040087
2084.000000	15.076007
2085.000000	15.109865
2086.000000	15.140150
2087.000000	15.161827
2088.000000	15.179640
2089.000000	15.195705
2090.000000	15.211448
2091.000000	15.218695
2092.000000	15.223710
2093.000000	15.229865
2094.000000	15.228585
2095.000000	15.222440
2096.000000	15.217990
2097.000000	15.216870
2098.000000	15.214230
2099.000000	15.205922
2100.000000	15.196710
2101.000000	15.191790
2102.000000	15.186395
2103.000000	15.178548
2104.000000	15.175715
2105.000000	15.170993
2106.000000	15.162762
2107.000000	15.162790
2108.000000	15.168333
2109.000000	15.176828
2110.000000	15.184988
2111.000000	15.187072
2112.000000	15.191600
2113.000000	15.199537
2114.000000	15.199810
2115.000000	15.198268
2116.000000	15.192185
2117.000000	15.176337
2118.000000	15.163835
2119.000000	15.156653
2120.000000	15.141748
2121.000000	15.132220
2122.000000	15.120365
2123.000000	15.102825
2124.000000	15.083265
2125.000000	15.059670
2126.000000	15.040008
2127.000000	15.015043
2128.000000	14.976662
2129.000000	14.937857
2130.000000	14.904277
2131.000000	14.863710
2132.000000	14.818395
2133.000000	14.767993
2134.000000	14.713190
2135.000000	14.666853
2136.000000	14.608500
2137.000000	14.549285
2138.000000	14.494882
2139.000000	14.428115
2140.000000	14.363888
2141.000000	14.297577
2142.000000	14.227775
2143.000000	14.160395
2144.000000	14.099735
2145.000000	14.029445
2146.000000	13.951550
2147.000000	13.877693
2148.000000	13.793910
2149.000000	13.715578
2150.000000	13.631552
2151.000000	13.556952
2152.000000	13.478178
2153.000000	13.397432
2154.000000	13.311667
2155.000000	13.227412
2156.000000	13.162515
2157.000000	13.093700
2158.000000	13.029113
2159.000000	12.966227
2160.000000	12.903173
2161.000000	12.829603
2162.000000	12.774063
2163.000000	12.726122
2164.000000	12.673222
2165.000000	12.629350
2166.000000	12.579535
2167.000000	12.532715
2168.000000	12.489547
2169.000000	12.446130
2170.000000	12.414285
2171.000000	12.388037
2172.000000	12.348897
2173.000000	12.309703
2174.000000	12.286210
2175.000000	12.256285
2176.000000	12.228865
2177.000000	12.208645
2178.000000	12.183100
2179.000000	12.161900
2180.000000	12.142287
2181.000000	12.128295
2182.000000	12.106410
2183.000000	12.097925
2184.000000	12.078955
2185.000000	12.068923
2186.000000	12.056715
2187.000000	12.030658
2188.000000	12.020798
2189.000000	12.000872
2190.000000	11.967178
2191.000000	11.930845
2192.000000	11.913925
2193.000000	11.873015
2194.000000	11.851400
2195.000000	11.804910
2196.000000	11.760115
2197.000000	11.709465
2198.000000	11.646910
2199.000000	11.596357
2200.000000	11.550460
2201.000000	11.494142
2202.000000	11.434730
2203.000000	11.372745
2204.000000	11.305262
2205.000000	11.255005
2206.000000	11.204045
2207.000000	11.177920
2208.000000	11.157055
2209.000000	11.134542
2210.000000	11.118165
2211.000000	11.119117
2212.000000	11.126072
2213.000000	11.142970
2214.000000	11.171370
2215.000000	11.203608
2216.000000	11.242497
2217.000000	11.281147
2218.000000	11.323612
2219.000000	11.371710
2220.000000	11.423222
2221.000000	11.469365
2222.000000	11.521337
2223.000000	11.590405
2224.000000	11.649490
2225.000000	11.707150
2226.000000	11.766542
2227.000000	11.829622
2228.000000	11.883410
2229.000000	11.934195
2230.000000	11.982620
2231.000000	12.031282
2232.000000	12.070477
2233.000000	12.104468
2234.000000	12.131282
2235.000000	12.156145
2236.000000	12.168257
2237.000000	12.176227
2238.000000	12.187572
2239.000000	12.195477
2240.000000	12.196170
2241.000000	12.186850
2242.000000	12.174530
2243.000000	12.149785
2244.000000	12.115888
2245.000000	12.078515
2246.000000	12.038070
2247.000000	11.978675
2248.000000	11.914762
2249.000000	11.852267
2250.000000	11.783078
2251.000000	11.723632
2252.000000	11.648837
2253.000000	11.577950
2254.000000	11.506900
2255.000000	11.446400
2256.000000	11.377050
2257.000000	11.306620
2258.000000	11.244290
2259.000000	11.179763
2260.000000	11.108780
2261.000000	11.036770
2262.000000	10.975148
2263.000000	10.902835
2264.000000	10.838587
2265.000000	10.775507
2266.000000	10.734472
2267.000000	10.709528
2268.000000	10.681550
2269.000000	10.651050
2270.000000	10.628720
2271.000000	10.606020
2272.000000	10.589015
2273.000000	10.581925
2274.000000	10.579300
2275.000000	10.570280
2276.000000	10.569265
2277.000000	10.567148
2278.000000	10.566037
2279.000000	10.569062
2280.000000	10.585895
2281.000000	10.590607
2282.000000	10.594600
2283.000000	10.592050
2284.000000	10.586770
2285.000000	10.585475
2286.000000	10.568290
2287.000000	10.550075
2288.000000	10.529995
2289.000000	10.525498
2290.000000	10.513182
2291.000000	10.510037
2292.000000	10.497655
2293.000000	10.499697
2294.000000	10.511310
2295.000000	10.514627
2296.000000	10.513602
2297.000000	10.511292
2298.000000	10.520788
2299.000000	10.507380
2300.000000	10.495992
2301.000000	10.503497
2302.000000	10.531862
2303.000000	10.553028
2304.000000	10.563577
2305.000000	10.580992
2306.000000	10.602855
2307.000000	10.630960
2308.000000	10.652900
2309.000000	10.685675
2310.000000	10.719775
2311.000000	10.740445
2312.000000	10.755118
2313.000000	10.774675
2314.000000	10.798303
2315.000000	10.821368
2316.000000	10.849842
2317.000000	10.871630
2318.000000	10.890247
2319.000000	10.909200
2320.000000	10.933893
2321.000000	10.948860
2322.000000	10.964665
2323.000000	10.976225
2324.000000	10.989853
2325.000000	11.013822
2326.000000	11.030850
2327.000000	11.050585
2328.000000	11.073545
2329.000000	11.092280
2330.000000	11.105925
2331.000000	11.121993
2332.000000	11.132805
2333.000000	11.145827
2334.000000	11.152217
2335.000000	11.142917
2336.000000	11.149138
2337.000000	11.173483
2338.000000	11.200473
2339.000000	11.214842
2340.000000	11.225668
2341.000000	11.253490
2342.000000	11.281495
2343.000000	11.310307
2344.000000	11.337355
2345.000000	11.360017
2346.000000	11.383335
2347.000000	11.395302
2348.000000	11.405465
2349.000000	11.421938
2350.000000	11.434188
2351.000000	11.443685
2352.000000	11.456440
2353.000000	11.454130
2354.000000	11.458380
2355.000000	11.487290
2356.000000	11.526633
2357.000000	11.553553
2358.000000	11.578653
2359.000000	11.612163
2360.000000	11.653770
2361.000000	11.680085
2362.000000	11.712920
2363.000000	11.748023
2364.000000	11.773845
2365.000000	11.786480
2366.000000	11.780238
2367.000000	11.775840
2368.000000	11.772963
2369.000000	11.768810
2370.000000	11.766685
2371.000000	11.781553
2372.000000	11.788678
2373.000000	11.798107
2374.000000	11.806785
2375.000000	11.820508
2376.000000	11.832500
2377.000000	11.850173
2378.000000	11.873805
2379.000000	11.904030
2380.000000	11.941693
2381.000000	11.976540
2382.000000	12.002910
2383.000000	12.029682
2384.000000	12.055140
2385.000000	12.061455
2386.000000	12.084980
2387.000000	12.116900
2388.000000	12.130315
2389.000000	12.136162
2390.000000	12.127980
2391.000000	12.112118
2392.000000	12.102332
2393.000000	12.114540
2394.000000	12.125070
2395.000000	12.142415
2396.000000	12.149168
2397.000000	12.146200
2398.000000	12.149035
2399.000000	12.148005
2400.000000	12.150482
2401.000000	12.164645
2402.000000	12.178233
2403.000000	12.172687
2404.000000	12.171115
2405.000000	12.164708
2406.000000	12.165145
2407.000000	12.154837
2408.000000	12.154982
2409.000000	12.157770
2410.000000	12.146945
2411.000000	12.131370
2412.000000	12.125310
2413.000000	12.099642
2414.000000	12.073245
2415.000000	12.073190
2416.000000	12.064230
2417.000000	12.061222
2418.000000	12.024052
2419.000000	12.005680
2420.000000	12.006740
2421.000000	12.001605
2422.000000	11.975442
2423.000000	11.972722
2424.000000	11.973842
2425.000000	11.935757
2426.000000	11.903310
2427.000000	11.854553
2428.000000	11.831703
2429.000000	11.799553
2430.000000	11.743267
2431.000000	11.675092
2432.000000	11.629190
2433.000000	11.616172
2434.000000	11.545925
2435.000000	11.526262
2436.000000	11.500148
2437.000000	11.478098
2438.000000	11.466292
2439.000000	11.474995
2440.000000	11.463680
2441.000000	11.467355
2442.000000	11.467090
2443.000000	11.406985
2444.000000	11.427767
2445.000000	11.390315
2446.000000	11.340363
2447.000000	11.330140
2448.000000	11.305320
2449.000000	11.280342
2450.000000	11.282042
2451.000000	11.290743
2452.000000	11.233355
2453.000000	11.219423
2454.000000	11.180750
2455.000000	11.215667
2456.000000	11.293832
2457.000000	11.288645
2458.000000	11.294647
2459.000000	11.282692
2460.000000	11.257800
2461.000000	11.228727
2462.000000	11.285255
2463.000000	11.308370
2464.000000	11.345570
2465.000000	11.356025
2466.000000	11.323820
2467.000000	11.393445
2468.000000	11.421292
2469.000000	11.489768
2470.000000	11.555760
2471.000000	11.637945
2472.000000	11.708390
2473.000000	11.795187
2474.000000	11.894665
2475.000000	12.027595
2476.000000	12.170690
2477.000000	12.277577
2478.000000	12.420167
2479.000000	12.508273
2480.000000	12.607178
2481.000000	12.777095
2482.000000	12.910665
2483.000000	13.038240
2484.000000	13.128470
2485.000000	13.207200
2486.000000	13.325822
2487.000000	13.417160
2488.000000	13.488038
2489.000000	13.572685
2490.000000	13.724438
2491.000000	13.820530
2492.000000	13.941230
2493.000000	14.072557
2494.000000	14.246987
2495.000000	14.392888
2496.000000	14.498720
2497.000000	14.655192
2498.000000	14.876073
2499.000000	15.104720
2500.000000	15.312545
2501.000000	19.116880
2502.000000	23.060872
2503.000000	27.404498
2504.000000	31.569862
2505.000000	35.593195
2506.000000	39.603903
2507.000000	44.172450
2508.000000	48.274280
2509.000000	52.769042
2510.000000	57.282910
2511.000000	58.444070
2512.000000	59.082010
2513.000000	59.164620
2514.000000	59.795380
2515.000000	60.467220
2516.000000	61.561180
2517.000000	61.638690
2518.000000	62.313960
2519.000000	62.486900
2520.000000	63.073510
2521.000000	63.342450
2522.000000	63.841720
2523.000000	65.247260
2524.000000	66.008430
2525.000000	66.664760
2526.000000	67.144140
2527.000000	68.145670
2528.000000	69.174520
2529.000000	70.475560
2530.000000	71.461530
2531.000000	72.280860
2532.000000	73.590000
2533.000000	73.952060
2534.000000	74.933150
2535.000000	76.136200
2536.000000	77.009620
2537.000000	78.090020
2538.000000	79.618950
2539.000000	80.652520
2540.000000	81.291110
2541.000000	82.508200
2542.000000	83.596990
2543.000000	84.853520
2544.000000	85.545250
2545.000000	85.779700
2546.000000	86.689120
2547.000000	87.314570
2548.000000	87.186420
2549.000000	87.783670
2550.000000	88.125710
2551.000000	88.125410
2552.000000	88.281910
2553.000000	88.619640
2554.000000	89.631990
2555.000000	90.584200
2556.000000	90.921660
2557.000000	91.198430
2558.000000	92.004200
2559.000000	92.484390
2560.000000	93.387900
2561.000000	93.903540
2562.000000	94.695780
2563.000000	95.658900
2564.000000	95.443190
2565.000000	95.716300
2566.000000	95.545830
2567.000000	95.751320
2568.000000	95.740520
2569.000000	95.880510
2570.000000	96.699540
2571.000000	97.793700
2572.000000	97.747990
2573.000000	97.258530
2574.000000	97.417810
2575.000000	97.872280
2576.000000	98.707750
2577.000000	98.964750
2578.000000	99.126480
2579.000000	98.959530
2580.000000	98.377610
2581.000000	97.920750
2582.000000	97.802640
2583.000000	97.969330
2584.000000	98.419540
2585.000000	98.514530
2586.000000	98.518270
2587.000000	98.614020
2588.000000	98.857490
2589.000000	99.115670
2590.000000	98.887440
2591.000000	99.111470
2592.000000	100.259270
2593.000000	101.105120
2594.000000	100.618670
2595.000000	100.237730
2596.000000	100.440770
2597.000000	100.457620
2598.000000	99.831520
2599.000000	99.405330
2600.000000	99.794340
2601.000000	100.373060
2602.000000	99.692960
2603.000000	98.595510
2604.000000	99.160710
2605.000000	99.596710
2606.000000	99.360330
2607.000000	99.888790
2608.000000	100.837720
2609.000000	101.191960
2610.000000	100.545290
2611.000000	99.489520
2612.000000	99.681910
2613.000000	100.738100
2614.000000	100.879640
2615.000000	100.371630
2616.000000	100.051370
2617.000000	99.796680
2618.000000	99.599570
2619.000000	99.839260
2620.000000	100.300360
2621.000000	100.480260
2622.000000	100.334770
2623.000000	99.329600
2624.000000	98.549040
2625.000000	98.790920
2626.000000	98.769070
2627.000000	98.543220
2628.000000	98.398650
2629.000000	98.255850
2630.000000	98.435480
2631.000000	98.806330
2632.000000	98.766930
2633.000000	99.400390
2634.000000	100.375700
2635.000000	100.576860
2636.000000	100.789720
2637.000000	100.980890
2638.000000	100.876930
2639.000000	101.220630
2640.000000	101.345660
2641.000000	101.478420
2642.000000	101.655960
2643.000000	101.996420
2644.000000	101.443190
2645.000000	101.549850
2646.000000	101.991230
2647.000000	102.200220
2648.000000	102.943020
2649.000000	103.020520
2650.000000	102.644340
2651.000000	102.182830
2652.000000	101.797550
2653.000000	101.120860
2654.000000	101.330610
2655.000000	101.557710
2656.000000	101.620740
2657.000000	101.572530
2658.000000	101.316440
2659.000000	101.262680
2660.000000	101.797360
2661.000000	101.730800
2662.000000	101.621350
2663.000000	101.246890
2664.000000	100.575560
2665.000000	99.954650
2666.000000	99.893770
2667.000000	99.495320
2668.000000	99.133420
2669.000000	98.630670
2670.000000	98.724890
2671.000000	99.075630
2672.000000	98.689050
2673.000000	98.473940
2674.000000	99.293300
2675.000000	99.774690
2676.000000	99.382430
2677.000000	100.108690
2678.000000	99.910190
2679.000000	99.666380
2680.000000	99.082240
2681.000000	98.552110
2682.000000	98.959150
2683.000000	99.662100
2684.000000	99.961820
2685.000000	99.975010
2686.000000	99.996590
2687.000000	99.148920
2688.000000	100.399390
2689.000000	101.194350
2690.000000	102.321150
2691.000000	102.532940
2692.000000	103.264610
2693.000000	103.160840
2694.000000	102.230510
2695.000000	101.287940
2696.000000	101.384880
2697.000000	101.228130
2698.000000	100.372180
2699.000000	100.191390
2700.000000	98.727090
2701.000000	98.819350
2702.000000	98.054970
2703.000000	97.784240
2704.000000	98.283340
2705.000000	98.846930
2706.000000	99.556360
2707.000000	100.288650
2708.000000	99.980920
2709.000000	100.206630
2710.000000	100.666230
2711.000000	101.169670
2712.000000	101.332510
2713.000000	101.859530
2714.000000	101.654810
2715.000000	101.894380
2716.000000	101.423460
2717.000000	101.099920
2718.000000	100.927060
2719.000000	99.794730
2720.000000	99.969160
2721.000000	100.345460
2722.000000	100.491440
2723.000000	99.686870
2724.000000	99.515810
2725.000000	99.761780
2726.000000	100.376300
2727.000000	100.373400
2728.000000	100.802950
2729.000000	101.536310
2730.000000	102.380510
2731.000000	101.598140
2732.000000	101.258940
2733.000000	101.185780
2734.000000	101.926130
2735.000000	101.252250
2736.000000	101.150830
2737.000000	101.578160
2738.000000	101.442380
2739.000000	101.944300
2740.000000	101.303550
2741.000000	101.757280
2742.000000	101.360940
2743.000000	102.280830
2744.000000	101.716530
2745.000000	102.807940
2746.000000	102.019650
2747.000000	101.319710
2748.000000	101.923700
2749.000000	102.020450
2750.000000	101.019090
2751.000000	101.075260
2752.000000	102.522490
2753.000000	102.990270
2754.000000	104.111330
2755.000000	103.940030
2756.000000	104.275460
2757.000000	104.173410
2758.000000	104.392730
2759.000000	104.489370
2760.000000	105.025000
2761.000000	104.148860
2762.000000	103.930110
2763.000000	102.738970
2764.000000	101.412360
2765.000000	100.314490
2766.000000	100.013250
2767.000000	100.647330
2768.000000	99.900640
2769.000000	99.710350
2770.000000	99.378560
2771.000000	99.770420
2772.000000	99.328140
2773.000000	99.684310
2774.000000	100.174360
2775.000000	100.347880
2776.000000	100.766360
2777.000000	100.846900
2778.000000	100.617140
2779.000000	100.029720
2780.000000	100.815650
2781.000000	100.803240
2782.000000	100.768700
2783.000000	101.211270
2784.000000	101.286960
2785.000000	102.137700
2786.000000	101.785340
2787.000000	102.457360
2788.000000	103.032830
2789.000000	103.460780
2790.000000	103.353530
2791.000000	103.579300
2792.000000	103.559440
2793.000000	103.243900
2794.000000	102.295770
2795.000000	101.992570
2796.000000	101.879850
2797.000000	101.378910
2798.000000	101.522060
2799.000000	101.212290
2800.000000	100.787430
2801.000000	100.340920
2802.000000	99.946420
2803.000000	100.175230
2804.000000	101.676880
2805.000000	101.758410
2806.000000	102.353320
2807.000000	102.252290
2808.000000	101.696330
2809.000000	102.055330
2810.000000	102.673640
2811.000000	103.205780
2812.000000	103.312990
2813.000000	103.311060
2814.000000	102.486360
2815.000000	102.093290
2816.000000	102.064590
2817.000000	102.118940
2818.000000	102.469150
2819.000000	102.405940
2820.000000	102.539270
2821.000000	102.158360
2822.000000	102.381290
2823.000000	102.512440
2824.000000	102.262390
2825.000000	101.966910
2826.000000	101.234800
2827.000000	100.768630
2828.000000	100.445240
2829.000000	99.709550
2830.000000	99.448980
2831.000000	99.761550
2832.000000	99.594770
2833.000000	99.249650
2834.000000	99.414510
2835.000000	99.411550
2836.000000	99.895960
2837.000000	100.114750
2838.000000	100.175590
2839.000000	100.924520
2840.000000	101.329850
2841.000000	101.607640
2842.000000	101.296880
2843.000000	100.855540
2844.000000	101.245260
2845.000000	102.031930
2846.000000	102.437280
2847.000000	103.077450
2848.000000	103.777760
2849.000000	104.276380
2850.000000	104.136690
2851.000000	103.413650
2852.000000	103.576120
2853.000000	104.255680
2854.000000	103.950720
2855.000000	103.313350
2856.000000	102.392240
2857.000000	101.351910
2858.000000	100.540420
2859.000000	99.998130
2860.000000	99.485600
2861.000000	99.362260
2862.000000	99.348640
2863.000000	98.605540
2864.000000	98.091300
2865.000000	97.843010
2866.000000	97.925000
2867.000000	98.151610
2868.000000	98.665800
2869.000000	99.352260
2870.000000	99.472690
2871.000000	99.183470
2872.000000	98.855640
2873.000000	98.831680
2874.000000	99.023810
2875.000000	99.815990
2876.000000	100.234920
2877.000000	100.103670
2878.000000	99.533340
2879.000000	98.466460
2880.000000	99.266030
2881.000000	101.050580
2882.000000	102.293450
2883.000000	102.972280
2884.000000	103.107730
2885.000000	102.614720
2886.000000	102.025080
2887.000000	101.688420
2888.000000	101.078840
2889.000000	101.647880
2890.000000	101.420400
2891.000000	101.274500
2892.000000	101.446340
2893.000000	101.430370
2894.000000	101.321670
2895.000000	101.225810
2896.000000	101.089890
2897.000000	100.793460
2898.000000	101.054160
2899.000000	100.339150
2900.000000	99.813810
2901.000000	99.107230
2902.000000	98.429610
2903.000000	98.356370
2904.000000	99.324960
2905.000000	100.192790
2906.000000	101.065470
2907.000000	102.217380
2908.000000	102.224800
2909.000000	101.984150
2910.000000	101.535850
2911.000000	100.720760
2912.000000	100.606960
2913.000000	100.878230
2914.000000	100.127140
2915.000000	99.239890
2916.000000	99.408840
2917.000000	99.270440
2918.000000	99.730050
2919.000000	100.237710
2920.000000	100.023050
2921.000000	100.178770
2922.000000	100.149600
2923.000000	99.879870
2924.000000	99.593020
2925.000000	99.534440
2926.000000	99.090060
2927.000000	98.673250
2928.000000	98.613260
2929.000000	98.607820
2930.000000	98.993700
2931.000000	98.898940
2932.000000	98.346840
2933.000000	97.658310
2934.000000	97.762780
2935.000000	97.692400
2936.000000	97.648800
2937.000000	97.813900
2938.000000	98.333890
2939.000000	98.342440
2940.000000	98.420750
2941.000000	98.585070
2942.000000	99.133990
2943.000000	100.323320
2944.000000	101.716260
2945.000000	102.969640
2946.000000	103.723330
2947.000000	103.735760
2948.000000	103.045040
2949.000000	102.527740
2950.000000	103.117830
2951.000000	103.753970
2952.000000	102.942780
2953.000000	102.732860
2954.000000	101.269070
2955.000000	100.576550
2956.000000	99.778290
2957.000000	100.168840
2958.000000	100.554010
2959.000000	101.320460
2960.000000	100.555670
2961.000000	99.884360
2962.000000	100.487600
2963.000000	100.939120
2964.000000	101.439290
2965.000000	101.304790
2966.000000	101.837470
2967.000000	101.993030
2968.000000	102.476920
2969.000000	103.160220
2970.000000	103.376080
2971.000000	104.144980
2972.000000	104.603780
2973.000000	104.638600
2974.000000	104.337680
2975.000000	104.775000
2976.000000	104.496030
2977.000000	104.178400
2978.000000	103.631000
2979.000000	102.125470
2980.000000	101.807190
2981.000000	101.024420
2982.000000	101.197630
2983.000000	100.577550
2984.000000	100.612120
2985.000000	100.023090
2986.000000	99.703480
2987.000000	99.535830
2988.000000	99.261570
2989.000000	99.413970
2990.000000	99.711080
2991.000000	99.880420
2992.000000	99.002640
2993.000000	98.541930
2994.000000	98.825900
2995.000000	99.129350
2996.000000	99.268650
2997.000000	100.243180
2998.000000	100.232070
2999.000000	100.153450
3000.000000	100.305040
