PE UV       SUBTECH     SPECTRUM    ASCII       PEDS        4.00        
   -1
INBUCR0421-4.Sample.ASC
24/02/09
12:37:30.00
24/02/09
12:37:30.00
Vinicio Soto Monge
Chrysina optima. La Catarata. P. N. Tapantí, Prov. Cartago. COSTA RICA. 1700 m. Ago 1994. G. Mora, L_N_190900_560300 #3183. INBIOCRI002037917
250,000000
1
Lambda 1050
1050L1511233
PerkinElmer UV WinLab 6.3.2.0749 / 2.02.05 Lambda 900 UV/VIS/NIR, Aug  7 2015 09:38:08

0
0
3350/servo 860,8/2
0
0
UV/VIS
1
1
1
DoubleDePol,CommonBeamDepol,RBeamAtt,SBeamAtt,60mm sphere, WB InGaAs Detector
0
0
0
0
Program
Program
3350/servo 860,8/2
3350/0,2 860,8/0,2
3350/0,2 860,8/0,2
0
15.00
 
 
 
0
 
860,8
319,2
860,8
Front
100
on
S:100 R:100
0
0
0
0
 
0
 
 
 
0
 
 
0
0
0
0
0
 
 
 
 
0
0


0
0
#HDR
-1
-1
#GR
nm
%R
1.0
0.0
2500,000000
-1,000000
2251
8
18,666700
0,939500
#DATA

250.000000	nan
251.000000	nan
252.000000	nan
253.000000	nan
254.000000	nan
255.000000	nan
256.000000	nan
257.000000	nan
258.000000	nan
259.000000	3.372535
260.000000	3.372924
261.000000	3.373452
262.000000	3.373626
263.000000	3.373315
264.000000	3.373706
265.000000	3.373234
266.000000	3.371374
267.000000	3.369663
268.000000	3.367845
269.000000	3.365368
270.000000	3.364213
271.000000	3.362828
272.000000	3.360169
273.000000	3.359098
274.000000	3.356780
275.000000	3.354711
276.000000	3.354064
277.000000	3.353880
278.000000	3.353269
279.000000	3.353044
280.000000	3.352440
281.000000	3.353837
282.000000	3.353761
283.000000	3.353061
284.000000	3.353748
285.000000	3.355211
286.000000	3.356837
287.000000	3.359739
288.000000	3.361655
289.000000	3.362605
290.000000	3.365261
291.000000	3.365949
292.000000	3.368841
293.000000	3.373061
294.000000	3.377761
295.000000	3.383798
296.000000	3.389569
297.000000	3.393470
298.000000	3.399870
299.000000	3.404664
300.000000	3.408936
301.000000	3.413762
302.000000	3.419161
303.000000	3.421925
304.000000	3.425767
305.000000	3.429277
306.000000	3.433361
307.000000	3.438574
308.000000	3.441892
309.000000	3.445782
310.000000	3.451287
311.000000	3.486160
312.000000	3.490371
313.000000	3.493985
314.000000	3.497607
315.000000	3.528931
316.000000	3.533238
317.000000	3.590173
318.000000	3.650196
319.000000	3.707182
320.000000	3.765451
321.000000	3.784888
322.000000	3.845277
323.000000	3.908518
324.000000	3.965762
325.000000	3.988864
326.000000	4.032072
327.000000	4.028025
328.000000	4.012231
329.000000	4.006438
330.000000	3.994177
331.000000	3.988355
332.000000	3.970194
333.000000	3.952365
334.000000	3.942697
335.000000	3.937051
336.000000	3.941711
337.000000	3.939870
338.000000	3.941826
339.000000	3.940118
340.000000	3.935374
341.000000	3.935838
342.000000	3.940576
343.000000	3.942718
344.000000	3.941526
345.000000	3.943470
346.000000	3.942629
347.000000	3.939037
348.000000	3.941207
349.000000	3.938211
350.000000	3.943111
351.000000	3.951537
352.000000	3.951090
353.000000	3.952673
354.000000	3.952535
355.000000	3.948865
356.000000	3.947062
357.000000	3.949403
358.000000	3.951357
359.000000	3.955295
360.000000	3.956489
361.000000	3.953783
362.000000	3.957416
363.000000	3.985965
364.000000	4.018804
365.000000	4.055760
366.000000	4.088473
367.000000	4.121413
368.000000	4.150531
369.000000	4.179611
370.000000	4.208692
371.000000	4.233561
372.000000	4.260705
373.000000	4.259694
374.000000	4.249447
375.000000	4.267638
376.000000	4.293275
377.000000	4.315035
378.000000	4.340453
379.000000	4.366868
380.000000	4.394447
381.000000	4.454179
382.000000	4.511411
383.000000	4.571282
384.000000	4.637777
385.000000	4.673760
386.000000	4.703908
387.000000	4.766877
388.000000	4.830033
389.000000	4.893076
390.000000	4.956024
391.000000	4.990344
392.000000	5.024571
393.000000	5.087361
394.000000	5.150209
395.000000	5.212833
396.000000	5.275686
397.000000	5.309394
398.000000	5.372128
399.000000	5.434812
400.000000	5.497806
401.000000	5.560611
402.000000	5.622815
403.000000	5.656330
404.000000	5.690391
405.000000	5.753627
406.000000	5.816157
407.000000	5.878728
408.000000	5.912233
409.000000	5.946168
410.000000	5.979531
411.000000	6.013087
412.000000	6.047154
413.000000	6.081064
414.000000	6.143760
415.000000	6.177279
416.000000	6.210937
417.000000	6.244846
418.000000	6.279080
419.000000	6.312970
420.000000	6.346773
421.000000	6.380646
422.000000	6.414635
423.000000	6.448593
424.000000	6.453250
425.000000	6.458073
426.000000	6.463201
427.000000	6.468450
428.000000	6.473430
429.000000	6.478705
430.000000	6.484525
431.000000	6.490331
432.000000	6.496069
433.000000	6.502087
434.000000	6.508337
435.000000	6.485531
436.000000	6.462681
437.000000	6.439909
438.000000	6.417147
439.000000	6.394456
440.000000	6.371870
441.000000	6.349093
442.000000	6.326228
443.000000	6.303378
444.000000	6.280597
445.000000	6.287110
446.000000	6.293940
447.000000	6.300870
448.000000	6.307805
449.000000	6.285644
450.000000	6.263451
451.000000	6.241525
452.000000	6.219637
453.000000	6.197653
454.000000	6.175771
455.000000	6.153568
456.000000	6.131301
457.000000	6.109112
458.000000	6.087149
459.000000	6.094364
460.000000	6.101571
461.000000	6.108728
462.000000	6.115953
463.000000	6.123441
464.000000	6.131047
465.000000	6.138885
466.000000	6.146720
467.000000	6.154462
468.000000	6.162128
469.000000	6.198996
470.000000	6.235983
471.000000	6.272896
472.000000	6.309771
473.000000	6.346546
474.000000	6.383270
475.000000	6.419855
476.000000	6.456097
477.000000	6.492320
478.000000	6.528531
479.000000	6.535193
480.000000	6.541167
481.000000	6.546699
482.000000	6.551694
483.000000	6.585477
484.000000	6.619486
485.000000	6.654020
486.000000	6.689563
487.000000	6.725746
488.000000	6.762208
489.000000	6.799536
490.000000	6.838353
491.000000	6.878539
492.000000	6.919878
493.000000	6.933079
494.000000	6.946917
495.000000	6.960985
496.000000	6.975050
497.000000	6.989057
498.000000	7.003543
499.000000	7.018652
500.000000	7.033618
501.000000	7.048600
502.000000	7.063707
503.000000	7.078923
504.000000	7.123098
505.000000	7.167223
506.000000	7.211366
507.000000	7.255462
508.000000	7.299030
509.000000	7.341941
510.000000	7.413500
511.000000	7.484991
512.000000	7.556471
513.000000	7.656368
514.000000	7.726761
515.000000	7.796816
516.000000	7.866445
517.000000	7.964622
518.000000	8.062580
519.000000	8.160363
520.000000	8.258161
521.000000	8.355405
522.000000	8.452377
523.000000	8.520518
524.000000	8.617976
525.000000	8.715522
526.000000	8.813232
527.000000	8.882035
528.000000	8.951420
529.000000	9.021040
530.000000	9.090693
531.000000	9.160991
532.000000	9.231425
533.000000	9.302187
534.000000	9.344147
535.000000	9.386139
536.000000	9.428310
537.000000	9.471079
538.000000	9.514097
539.000000	9.557360
540.000000	9.601006
541.000000	9.644401
542.000000	9.687891
543.000000	9.731260
544.000000	9.774554
545.000000	9.817975
546.000000	9.861536
547.000000	9.905106
548.000000	9.948399
549.000000	9.991410
550.000000	10.005442
551.000000	10.019580
552.000000	10.033675
553.000000	10.047810
554.000000	10.062073
555.000000	10.076389
556.000000	10.090082
557.000000	10.103387
558.000000	10.116839
559.000000	10.130638
560.000000	10.138502
561.000000	10.144959
562.000000	10.151317
563.000000	10.157253
564.000000	10.162772
565.000000	10.167950
566.000000	10.173340
567.000000	10.178927
568.000000	10.184055
569.000000	10.188753
570.000000	10.198815
571.000000	10.209977
572.000000	10.221485
573.000000	10.233302
574.000000	10.245045
575.000000	10.257141
576.000000	10.269231
577.000000	10.281029
578.000000	10.293018
579.000000	10.305134
580.000000	10.317497
581.000000	10.329792
582.000000	10.341640
583.000000	10.353313
584.000000	10.336168
585.000000	10.319119
586.000000	10.301609
587.000000	10.284223
588.000000	10.266742
589.000000	10.249231
590.000000	10.231688
591.000000	10.214778
592.000000	10.197610
593.000000	10.180823
594.000000	10.193052
595.000000	10.204858
596.000000	10.216873
597.000000	10.228778
598.000000	10.241068
599.000000	10.223530
600.000000	10.206661
601.000000	10.189010
602.000000	10.171910
603.000000	10.154337
604.000000	10.136727
605.000000	10.119294
606.000000	10.101808
607.000000	10.084737
608.000000	10.067068
609.000000	10.079111
610.000000	10.090336
611.000000	10.101912
612.000000	10.113343
613.000000	10.124994
614.000000	10.136705
615.000000	10.148195
616.000000	10.159707
617.000000	10.171129
618.000000	10.182546
619.000000	10.194018
620.000000	10.176469
621.000000	10.158699
622.000000	10.141053
623.000000	10.123244
624.000000	10.105360
625.000000	10.087597
626.000000	10.070074
627.000000	10.052462
628.000000	10.035329
629.000000	10.018944
630.000000	10.031480
631.000000	10.044243
632.000000	10.057315
633.000000	10.070375
634.000000	10.083271
635.000000	10.096441
636.000000	10.110115
637.000000	10.123983
638.000000	10.137211
639.000000	10.150704
640.000000	10.164745
641.000000	10.178877
642.000000	10.192306
643.000000	10.206615
644.000000	10.221260
645.000000	10.236673
646.000000	10.251743
647.000000	10.266802
648.000000	10.282384
649.000000	10.297407
650.000000	10.312735
651.000000	10.357005
652.000000	10.402126
653.000000	10.446822
654.000000	10.490981
655.000000	10.534701
656.000000	10.578998
657.000000	10.623548
658.000000	10.667914
659.000000	10.712342
660.000000	10.756757
661.000000	10.771842
662.000000	10.816167
663.000000	10.860563
664.000000	10.905532
665.000000	10.950172
666.000000	10.994667
667.000000	11.038755
668.000000	11.083238
669.000000	11.156632
670.000000	11.229780
671.000000	11.303381
672.000000	11.347456
673.000000	11.390997
674.000000	11.434460
675.000000	11.478468
676.000000	11.521605
677.000000	11.593949
678.000000	11.666370
679.000000	11.709726
680.000000	11.752539
681.000000	11.795529
682.000000	11.838424
683.000000	11.881771
684.000000	11.954749
685.000000	12.027660
686.000000	12.100806
687.000000	12.144701
688.000000	12.188032
689.000000	12.230932
690.000000	12.274247
691.000000	12.317441
692.000000	12.389827
693.000000	12.462054
694.000000	12.504953
695.000000	12.547723
696.000000	12.591034
697.000000	12.633930
698.000000	12.677733
699.000000	12.722094
700.000000	12.765886
701.000000	12.809692
702.000000	12.852891
703.000000	12.896326
704.000000	12.939427
705.000000	12.981506
706.000000	13.023901
707.000000	13.067295
708.000000	13.110520
709.000000	13.153963
710.000000	13.196562
711.000000	13.238799
712.000000	13.252620
713.000000	13.266830
714.000000	13.281370
715.000000	13.325845
716.000000	13.369845
717.000000	13.413643
718.000000	13.457123
719.000000	13.500253
720.000000	13.544361
721.000000	13.588551
722.000000	13.632541
723.000000	13.676154
724.000000	13.720118
725.000000	13.735105
726.000000	13.750336
727.000000	13.765390
728.000000	13.780266
729.000000	13.795100
730.000000	13.839537
731.000000	13.884222
732.000000	13.929067
733.000000	13.974329
734.000000	14.019276
735.000000	14.064049
736.000000	14.108786
737.000000	14.153418
738.000000	14.198158
739.000000	14.243275
740.000000	14.259130
741.000000	14.274524
742.000000	14.289812
743.000000	14.304727
744.000000	14.318720
745.000000	14.333431
746.000000	14.348865
747.000000	14.393384
748.000000	14.438278
749.000000	14.482622
750.000000	14.526624
751.000000	14.571217
752.000000	14.616687
753.000000	14.661870
754.000000	14.707630
755.000000	14.752729
756.000000	14.796826
757.000000	14.811984
758.000000	14.827008
759.000000	14.841985
760.000000	14.857660
761.000000	14.874418
762.000000	14.891257
763.000000	14.908186
764.000000	14.954143
765.000000	15.000578
766.000000	15.046766
767.000000	15.092006
768.000000	15.137509
769.000000	15.183975
770.000000	15.230569
771.000000	15.276390
772.000000	15.321415
773.000000	15.366721
774.000000	15.383165
775.000000	15.398631
776.000000	15.415497
777.000000	15.433167
778.000000	15.449738
779.000000	15.466605
780.000000	15.482167
781.000000	15.497142
782.000000	15.542157
783.000000	15.585978
784.000000	15.630223
785.000000	15.676343
786.000000	15.721063
787.000000	15.764804
788.000000	15.809656
789.000000	15.854089
790.000000	15.900467
791.000000	15.946874
792.000000	15.962590
793.000000	15.979241
794.000000	15.994900
795.000000	16.010131
796.000000	16.026279
797.000000	16.043064
798.000000	16.060649
799.000000	16.076732
800.000000	16.092688
801.000000	16.138104
802.000000	16.182617
803.000000	16.228561
804.000000	16.276112
805.000000	16.321572
806.000000	16.367070
807.000000	16.414239
808.000000	16.463570
809.000000	16.513526
810.000000	16.562859
811.000000	16.582632
812.000000	16.603030
813.000000	16.622975
814.000000	16.642707
815.000000	16.662494
816.000000	16.680192
817.000000	16.696688
818.000000	16.740206
819.000000	16.784202
820.000000	16.827176
821.000000	16.872038
822.000000	16.914926
823.000000	16.954654
824.000000	16.995818
825.000000	17.036717
826.000000	17.079507
827.000000	17.120378
828.000000	17.132737
829.000000	17.142754
830.000000	17.153315
831.000000	17.164295
832.000000	17.174887
833.000000	17.187271
834.000000	17.196965
835.000000	17.207548
836.000000	17.214151
837.000000	17.251686
838.000000	17.288008
839.000000	17.326605
840.000000	17.365636
841.000000	17.404851
842.000000	17.443058
843.000000	17.478687
844.000000	17.516815
845.000000	17.555241
846.000000	17.592896
847.000000	17.600506
848.000000	17.612506
849.000000	17.613692
850.000000	17.616535
851.000000	17.615774
852.000000	17.617415
853.000000	17.618849
854.000000	17.609798
855.000000	17.604044
856.000000	17.596738
857.000000	17.600895
858.000000	17.884688
859.000000	17.923125
860.000000	17.960856
861.000000	17.977253
862.000000	17.996928
863.000000	18.021068
864.000000	18.054151
865.000000	18.109861
866.000000	18.121971
867.000000	18.123842
868.000000	17.842630
869.000000	17.817940
870.000000	17.791397
871.000000	17.788630
872.000000	17.759378
873.000000	17.754597
874.000000	17.723882
875.000000	17.667470
876.000000	17.685720
877.000000	17.679037
878.000000	17.645360
879.000000	17.636558
880.000000	17.627905
881.000000	17.619050
882.000000	17.636242
883.000000	17.602410
884.000000	17.594970
885.000000	17.587365
886.000000	17.554633
887.000000	17.547677
888.000000	17.566030
889.000000	17.558003
890.000000	17.525440
891.000000	17.518252
892.000000	17.485360
893.000000	17.477467
894.000000	17.468352
895.000000	17.461118
896.000000	17.453202
897.000000	17.444330
898.000000	17.435662
899.000000	17.428475
900.000000	17.446945
901.000000	17.438635
902.000000	17.456610
903.000000	17.475795
904.000000	17.469875
905.000000	17.462978
906.000000	17.457458
907.000000	17.452712
908.000000	17.448417
909.000000	17.443595
910.000000	17.438877
911.000000	17.435543
912.000000	17.431510
913.000000	17.427015
914.000000	17.449060
915.000000	17.470402
916.000000	17.491377
917.000000	17.512802
918.000000	17.534073
919.000000	17.529542
920.000000	17.524620
921.000000	17.519692
922.000000	17.513980
923.000000	17.509388
924.000000	17.502415
925.000000	17.494170
926.000000	17.487390
927.000000	17.479177
928.000000	17.470487
929.000000	17.487738
930.000000	17.504815
931.000000	17.520392
932.000000	17.536092
933.000000	17.551535
934.000000	17.569765
935.000000	17.588415
936.000000	17.605695
937.000000	17.622205
938.000000	17.638628
939.000000	17.654492
940.000000	17.645437
941.000000	17.636192
942.000000	17.652475
943.000000	17.642635
944.000000	17.630175
945.000000	17.618905
946.000000	17.607698
947.000000	17.597415
948.000000	17.586930
949.000000	17.577347
950.000000	17.591777
951.000000	17.606853
952.000000	17.596832
953.000000	17.612108
954.000000	17.628602
955.000000	17.643670
956.000000	17.657467
957.000000	17.671430
958.000000	17.686138
959.000000	17.700350
960.000000	17.714935
961.000000	17.729337
962.000000	17.743510
963.000000	17.757365
964.000000	17.770757
965.000000	17.784365
966.000000	17.798520
967.000000	17.813073
968.000000	17.826608
969.000000	17.838990
970.000000	17.851585
971.000000	17.864965
972.000000	17.877208
973.000000	17.889147
974.000000	17.901738
975.000000	17.914832
976.000000	17.927250
977.000000	17.939397
978.000000	17.951640
979.000000	17.964780
980.000000	17.977282
981.000000	17.989400
982.000000	18.001812
983.000000	18.014465
984.000000	18.025830
985.000000	18.037445
986.000000	18.050127
987.000000	18.062587
988.000000	18.075305
989.000000	18.086895
990.000000	18.098855
991.000000	18.110860
992.000000	18.122825
993.000000	18.133248
994.000000	18.143770
995.000000	18.154830
996.000000	18.165250
997.000000	18.175028
998.000000	18.184920
999.000000	18.195885
1000.000000	18.206028
1001.000000	18.215065
1002.000000	18.224815
1003.000000	18.236175
1004.000000	18.247605
1005.000000	18.257382
1006.000000	18.266790
1007.000000	18.276770
1008.000000	18.286555
1009.000000	18.295718
1010.000000	18.305995
1011.000000	18.316952
1012.000000	18.327295
1013.000000	18.337007
1014.000000	18.346275
1015.000000	18.355980
1016.000000	18.366095
1017.000000	18.375712
1018.000000	18.385510
1019.000000	18.395970
1020.000000	18.405873
1021.000000	18.415337
1022.000000	18.424430
1023.000000	18.432940
1024.000000	18.441620
1025.000000	18.450845
1026.000000	18.460213
1027.000000	18.469102
1028.000000	18.477758
1029.000000	18.486415
1030.000000	18.494960
1031.000000	18.504033
1032.000000	18.513685
1033.000000	18.523770
1034.000000	18.533820
1035.000000	18.543642
1036.000000	18.553023
1037.000000	18.561725
1038.000000	18.569917
1039.000000	18.578448
1040.000000	18.587635
1041.000000	18.596493
1042.000000	18.604377
1043.000000	18.612135
1044.000000	18.619840
1045.000000	18.626732
1046.000000	18.634735
1047.000000	18.643992
1048.000000	18.653365
1049.000000	18.662577
1050.000000	18.671822
1051.000000	18.680473
1052.000000	18.714230
1053.000000	18.747712
1054.000000	18.781950
1055.000000	18.817150
1056.000000	18.851370
1057.000000	18.884720
1058.000000	18.918235
1059.000000	18.952015
1060.000000	18.984918
1061.000000	19.017832
1062.000000	19.026153
1063.000000	19.034992
1064.000000	19.043557
1065.000000	19.051405
1066.000000	19.059088
1067.000000	19.067528
1068.000000	19.076467
1069.000000	19.085220
1070.000000	19.095060
1071.000000	19.105600
1072.000000	19.115265
1073.000000	19.125640
1074.000000	19.135625
1075.000000	19.146088
1076.000000	19.157137
1077.000000	19.167310
1078.000000	19.176355
1079.000000	19.184895
1080.000000	19.193797
1081.000000	19.202545
1082.000000	19.210875
1083.000000	19.218708
1084.000000	19.227377
1085.000000	19.235437
1086.000000	19.243403
1087.000000	19.251915
1088.000000	19.261138
1089.000000	19.270622
1090.000000	19.277855
1091.000000	19.284865
1092.000000	19.293578
1093.000000	19.302753
1094.000000	19.311325
1095.000000	19.320405
1096.000000	19.328865
1097.000000	19.337772
1098.000000	19.371337
1099.000000	19.405015
1100.000000	19.439125
1101.000000	19.473942
1102.000000	19.507690
1103.000000	19.542122
1104.000000	19.576825
1105.000000	19.610067
1106.000000	19.643103
1107.000000	19.676013
1108.000000	19.684052
1109.000000	19.692837
1110.000000	19.702980
1111.000000	19.712812
1112.000000	19.721948
1113.000000	19.729545
1114.000000	19.736272
1115.000000	19.745193
1116.000000	19.754080
1117.000000	19.762408
1118.000000	19.769973
1119.000000	19.775958
1120.000000	19.781435
1121.000000	19.786938
1122.000000	19.794897
1123.000000	19.801705
1124.000000	19.809155
1125.000000	19.815100
1126.000000	19.820888
1127.000000	19.827148
1128.000000	19.834597
1129.000000	19.842580
1130.000000	19.848805
1131.000000	19.852005
1132.000000	19.852300
1133.000000	19.853995
1134.000000	19.856890
1135.000000	19.861965
1136.000000	19.866035
1137.000000	19.867843
1138.000000	19.867610
1139.000000	19.867483
1140.000000	19.867545
1141.000000	19.871063
1142.000000	19.875217
1143.000000	19.878872
1144.000000	19.880758
1145.000000	19.881255
1146.000000	19.882548
1147.000000	19.884413
1148.000000	19.888443
1149.000000	19.891597
1150.000000	19.871073
1151.000000	19.850252
1152.000000	19.829483
1153.000000	19.808788
1154.000000	19.786755
1155.000000	19.765342
1156.000000	19.742902
1157.000000	19.721495
1158.000000	19.699240
1159.000000	19.675305
1160.000000	19.676150
1161.000000	19.675415
1162.000000	19.673623
1163.000000	19.670635
1164.000000	19.668067
1165.000000	19.662500
1166.000000	19.658305
1167.000000	19.653893
1168.000000	19.647907
1169.000000	19.643702
1170.000000	19.638932
1171.000000	19.634473
1172.000000	19.630790
1173.000000	19.628172
1174.000000	19.626548
1175.000000	19.625633
1176.000000	19.624430
1177.000000	19.622935
1178.000000	19.623060
1179.000000	19.623173
1180.000000	19.622737
1181.000000	19.624010
1182.000000	19.624932
1183.000000	19.626840
1184.000000	19.628135
1185.000000	19.630442
1186.000000	19.633470
1187.000000	19.637760
1188.000000	19.641027
1189.000000	19.645362
1190.000000	19.650893
1191.000000	19.657093
1192.000000	19.664953
1193.000000	19.671872
1194.000000	19.680745
1195.000000	19.689463
1196.000000	19.698715
1197.000000	19.707575
1198.000000	19.718945
1199.000000	19.729770
1200.000000	19.742660
1201.000000	19.754082
1202.000000	19.765462
1203.000000	19.777500
1204.000000	19.788540
1205.000000	19.800415
1206.000000	19.813057
1207.000000	19.851320
1208.000000	19.888695
1209.000000	19.925865
1210.000000	19.962297
1211.000000	19.999575
1212.000000	20.037213
1213.000000	20.074990
1214.000000	20.113420
1215.000000	20.151783
1216.000000	20.188705
1217.000000	20.201757
1218.000000	20.214453
1219.000000	20.227332
1220.000000	20.238990
1221.000000	20.249355
1222.000000	20.259170
1223.000000	20.268630
1224.000000	20.278375
1225.000000	20.287750
1226.000000	20.296888
1227.000000	20.303397
1228.000000	20.309712
1229.000000	20.315570
1230.000000	20.321018
1231.000000	20.326775
1232.000000	20.332582
1233.000000	20.337165
1234.000000	20.340863
1235.000000	20.344772
1236.000000	20.348425
1237.000000	20.352353
1238.000000	20.381260
1239.000000	20.410632
1240.000000	20.440243
1241.000000	20.469925
1242.000000	20.499322
1243.000000	20.530477
1244.000000	20.562030
1245.000000	20.593668
1246.000000	20.625872
1247.000000	20.658450
1248.000000	20.666565
1249.000000	20.675288
1250.000000	20.684867
1251.000000	20.695242
1252.000000	20.706645
1253.000000	20.717807
1254.000000	20.728735
1255.000000	20.739570
1256.000000	20.750522
1257.000000	20.762757
1258.000000	20.775370
1259.000000	20.787890
1260.000000	20.799412
1261.000000	20.810128
1262.000000	20.819763
1263.000000	20.827437
1264.000000	20.835068
1265.000000	20.843293
1266.000000	20.850860
1267.000000	20.857490
1268.000000	20.863330
1269.000000	20.868067
1270.000000	20.872285
1271.000000	20.875972
1272.000000	20.879207
1273.000000	20.883528
1274.000000	20.887510
1275.000000	20.890773
1276.000000	20.894327
1277.000000	20.897633
1278.000000	20.900993
1279.000000	20.904492
1280.000000	20.908325
1281.000000	20.912110
1282.000000	20.916325
1283.000000	20.920522
1284.000000	20.924853
1285.000000	20.954672
1286.000000	20.984130
1287.000000	21.013320
1288.000000	21.042922
1289.000000	21.072778
1290.000000	21.103300
1291.000000	21.134825
1292.000000	21.166875
1293.000000	21.199113
1294.000000	21.231280
1295.000000	21.237823
1296.000000	21.244650
1297.000000	21.251475
1298.000000	21.258083
1299.000000	21.264972
1300.000000	21.271795
1301.000000	21.277995
1302.000000	21.283720
1303.000000	21.288687
1304.000000	21.293070
1305.000000	21.297242
1306.000000	21.300620
1307.000000	21.303997
1308.000000	21.307257
1309.000000	21.310037
1310.000000	21.312058
1311.000000	21.312755
1312.000000	21.312740
1313.000000	21.313230
1314.000000	21.313410
1315.000000	21.312463
1316.000000	21.310927
1317.000000	21.308340
1318.000000	21.304368
1319.000000	21.299362
1320.000000	21.294135
1321.000000	21.288940
1322.000000	21.283455
1323.000000	21.277035
1324.000000	21.270463
1325.000000	21.263917
1326.000000	21.257010
1327.000000	21.250520
1328.000000	21.219738
1329.000000	21.189193
1330.000000	21.156805
1331.000000	21.123483
1332.000000	21.090263
1333.000000	21.056405
1334.000000	21.022005
1335.000000	20.987560
1336.000000	20.953535
1337.000000	20.918748
1338.000000	20.908215
1339.000000	20.896832
1340.000000	20.886530
1341.000000	20.875845
1342.000000	20.863715
1343.000000	20.851423
1344.000000	20.838543
1345.000000	20.824222
1346.000000	20.809043
1347.000000	20.794730
1348.000000	20.755270
1349.000000	20.713990
1350.000000	20.670785
1351.000000	20.626965
1352.000000	20.581930
1353.000000	20.537275
1354.000000	20.495912
1355.000000	20.457622
1356.000000	20.418488
1357.000000	20.376100
1358.000000	20.356503
1359.000000	20.336040
1360.000000	20.294300
1361.000000	20.261330
1362.000000	20.229933
1363.000000	20.194310
1364.000000	20.156725
1365.000000	20.116008
1366.000000	20.047295
1367.000000	19.980857
1368.000000	19.914950
1369.000000	19.847130
1370.000000	19.799187
1371.000000	19.741845
1372.000000	19.652010
1373.000000	19.557072
1374.000000	19.452185
1375.000000	19.340400
1376.000000	19.246235
1377.000000	19.118333
1378.000000	18.979705
1379.000000	18.838957
1380.000000	18.696392
1381.000000	18.559473
1382.000000	18.431800
1383.000000	18.314230
1384.000000	18.203420
1385.000000	18.099230
1386.000000	18.007258
1387.000000	17.953378
1388.000000	17.915343
1389.000000	17.882523
1390.000000	17.827998
1391.000000	17.773575
1392.000000	17.745830
1393.000000	17.717550
1394.000000	17.694512
1395.000000	17.682865
1396.000000	17.672355
1397.000000	17.651490
1398.000000	17.622998
1399.000000	17.600700
1400.000000	17.616435
1401.000000	17.627325
1402.000000	17.627902
1403.000000	17.600088
1404.000000	17.572668
1405.000000	17.535432
1406.000000	17.494960
1407.000000	17.460325
1408.000000	17.428287
1409.000000	17.392295
1410.000000	17.343197
1411.000000	17.265280
1412.000000	17.192113
1413.000000	17.148165
1414.000000	17.103610
1415.000000	17.055325
1416.000000	17.003383
1417.000000	16.951680
1418.000000	16.901968
1419.000000	16.853045
1420.000000	16.777050
1421.000000	16.729170
1422.000000	16.683875
1423.000000	16.638450
1424.000000	16.589890
1425.000000	16.542082
1426.000000	16.498355
1427.000000	16.456148
1428.000000	16.412543
1429.000000	16.366338
1430.000000	16.348460
1431.000000	16.308933
1432.000000	16.269220
1433.000000	16.228867
1434.000000	16.188020
1435.000000	16.148860
1436.000000	16.111720
1437.000000	16.074420
1438.000000	16.037970
1439.000000	16.001947
1440.000000	15.967070
1441.000000	15.955435
1442.000000	15.944698
1443.000000	15.932923
1444.000000	15.924372
1445.000000	15.920733
1446.000000	15.915340
1447.000000	15.906913
1448.000000	15.872713
1449.000000	15.840790
1450.000000	15.810700
1451.000000	15.781440
1452.000000	15.751278
1453.000000	15.721395
1454.000000	15.689943
1455.000000	15.655375
1456.000000	15.622127
1457.000000	15.590380
1458.000000	15.583775
1459.000000	15.576160
1460.000000	15.567125
1461.000000	15.558435
1462.000000	15.550817
1463.000000	15.544235
1464.000000	15.536330
1465.000000	15.528970
1466.000000	15.523080
1467.000000	15.516552
1468.000000	15.509365
1469.000000	15.503045
1470.000000	15.497582
1471.000000	15.492337
1472.000000	15.460975
1473.000000	15.429963
1474.000000	15.399103
1475.000000	15.367788
1476.000000	15.336247
1477.000000	15.306778
1478.000000	15.278750
1479.000000	15.250045
1480.000000	15.220258
1481.000000	15.190340
1482.000000	15.186020
1483.000000	15.180442
1484.000000	15.175635
1485.000000	15.171550
1486.000000	15.166987
1487.000000	15.161812
1488.000000	15.157700
1489.000000	15.152867
1490.000000	15.146752
1491.000000	15.141535
1492.000000	15.136565
1493.000000	15.132380
1494.000000	15.128702
1495.000000	15.125580
1496.000000	15.122397
1497.000000	15.120323
1498.000000	15.118275
1499.000000	15.118330
1500.000000	15.120242
1501.000000	15.122718
1502.000000	15.125558
1503.000000	15.130543
1504.000000	15.136590
1505.000000	15.142590
1506.000000	15.148893
1507.000000	15.156060
1508.000000	15.164505
1509.000000	15.172018
1510.000000	15.205402
1511.000000	15.239362
1512.000000	15.274295
1513.000000	15.308775
1514.000000	15.343077
1515.000000	15.377930
1516.000000	15.414055
1517.000000	15.449578
1518.000000	15.484430
1519.000000	15.520457
1520.000000	15.531475
1521.000000	15.541933
1522.000000	15.552277
1523.000000	15.561982
1524.000000	15.571948
1525.000000	15.581973
1526.000000	15.592018
1527.000000	15.601875
1528.000000	15.611817
1529.000000	15.621955
1530.000000	15.632120
1531.000000	15.641912
1532.000000	15.651793
1533.000000	15.661748
1534.000000	15.671152
1535.000000	15.680060
1536.000000	15.713198
1537.000000	15.746473
1538.000000	15.779800
1539.000000	15.812315
1540.000000	15.843905
1541.000000	15.874940
1542.000000	15.906160
1543.000000	15.938110
1544.000000	15.970800
1545.000000	16.003392
1546.000000	16.010798
1547.000000	16.018152
1548.000000	16.025832
1549.000000	16.034345
1550.000000	16.043990
1551.000000	16.053755
1552.000000	16.062845
1553.000000	16.071760
1554.000000	16.080492
1555.000000	16.089463
1556.000000	16.098755
1557.000000	16.108112
1558.000000	16.116453
1559.000000	16.123278
1560.000000	16.128963
1561.000000	16.134427
1562.000000	16.140132
1563.000000	16.145275
1564.000000	16.149790
1565.000000	16.152650
1566.000000	16.154420
1567.000000	16.155695
1568.000000	16.156440
1569.000000	16.157378
1570.000000	16.158553
1571.000000	16.159447
1572.000000	16.159535
1573.000000	16.159525
1574.000000	16.159880
1575.000000	16.161167
1576.000000	16.163373
1577.000000	16.165278
1578.000000	16.168170
1579.000000	16.172117
1580.000000	16.175657
1581.000000	16.180257
1582.000000	16.185662
1583.000000	16.191342
1584.000000	16.197827
1585.000000	16.229357
1586.000000	16.260583
1587.000000	16.292700
1588.000000	16.325173
1589.000000	16.357352
1590.000000	16.390085
1591.000000	16.422395
1592.000000	16.455253
1593.000000	16.488160
1594.000000	16.519950
1595.000000	16.526350
1596.000000	16.533965
1597.000000	16.541830
1598.000000	16.548883
1599.000000	16.555688
1600.000000	16.562812
1601.000000	16.570332
1602.000000	16.577842
1603.000000	16.585528
1604.000000	16.593655
1605.000000	16.602450
1606.000000	16.610945
1607.000000	16.619903
1608.000000	16.629213
1609.000000	16.638768
1610.000000	16.673295
1611.000000	16.707217
1612.000000	16.739805
1613.000000	16.771207
1614.000000	16.802975
1615.000000	16.834980
1616.000000	16.865965
1617.000000	16.895733
1618.000000	16.925085
1619.000000	16.953920
1620.000000	16.957720
1621.000000	16.961165
1622.000000	16.965273
1623.000000	16.970025
1624.000000	16.974178
1625.000000	16.977022
1626.000000	16.980690
1627.000000	16.984723
1628.000000	16.988250
1629.000000	16.992145
1630.000000	16.995417
1631.000000	16.999778
1632.000000	17.004117
1633.000000	17.008547
1634.000000	17.012810
1635.000000	17.017795
1636.000000	17.021650
1637.000000	17.024423
1638.000000	17.027563
1639.000000	17.029757
1640.000000	17.032097
1641.000000	17.033605
1642.000000	17.034482
1643.000000	17.035485
1644.000000	17.036257
1645.000000	17.036722
1646.000000	17.038142
1647.000000	17.039858
1648.000000	17.042413
1649.000000	17.044215
1650.000000	17.044963
1651.000000	17.045157
1652.000000	17.045315
1653.000000	17.043833
1654.000000	17.041265
1655.000000	17.038535
1656.000000	17.033652
1657.000000	17.027955
1658.000000	17.020085
1659.000000	17.011688
1660.000000	17.003140
1661.000000	16.992668
1662.000000	16.981100
1663.000000	16.944035
1664.000000	16.906202
1665.000000	16.865882
1666.000000	16.824368
1667.000000	16.782315
1668.000000	16.734595
1669.000000	16.685370
1670.000000	16.634620
1671.000000	16.585037
1672.000000	16.534968
1673.000000	16.509860
1674.000000	16.457865
1675.000000	16.406290
1676.000000	16.355575
1677.000000	16.303068
1678.000000	16.255057
1679.000000	16.207912
1680.000000	16.160680
1681.000000	16.111588
1682.000000	16.062148
1683.000000	16.011010
1684.000000	15.986118
1685.000000	15.936365
1686.000000	15.886918
1687.000000	15.839752
1688.000000	15.794270
1689.000000	15.750303
1690.000000	15.709202
1691.000000	15.671430
1692.000000	15.636827
1693.000000	15.606150
1694.000000	15.579272
1695.000000	15.579797
1696.000000	15.582315
1697.000000	15.584995
1698.000000	15.588353
1699.000000	15.591557
1700.000000	15.594425
1701.000000	15.596712
1702.000000	15.597055
1703.000000	15.597152
1704.000000	15.596170
1705.000000	15.593938
1706.000000	15.590613
1707.000000	15.586417
1708.000000	15.580795
1709.000000	15.574958
1710.000000	15.566258
1711.000000	15.555985
1712.000000	15.544853
1713.000000	15.531690
1714.000000	15.516488
1715.000000	15.474802
1716.000000	15.430322
1717.000000	15.385050
1718.000000	15.338888
1719.000000	15.291610
1720.000000	15.245930
1721.000000	15.200502
1722.000000	15.156257
1723.000000	15.113128
1724.000000	15.070517
1725.000000	15.054597
1726.000000	15.042685
1727.000000	15.033373
1728.000000	15.026415
1729.000000	15.021608
1730.000000	15.018990
1731.000000	15.017988
1732.000000	15.018458
1733.000000	15.019497
1734.000000	15.023058
1735.000000	15.028423
1736.000000	15.033825
1737.000000	15.040228
1738.000000	15.047453
1739.000000	15.055795
1740.000000	15.064460
1741.000000	15.073377
1742.000000	15.082745
1743.000000	15.092212
1744.000000	15.101043
1745.000000	15.110662
1746.000000	15.121545
1747.000000	15.131730
1748.000000	15.141428
1749.000000	15.175180
1750.000000	15.207503
1751.000000	15.240153
1752.000000	15.271715
1753.000000	15.303480
1754.000000	15.335325
1755.000000	15.364983
1756.000000	15.393453
1757.000000	15.420910
1758.000000	15.448742
1759.000000	15.451005
1760.000000	15.453762
1761.000000	15.456085
1762.000000	15.457933
1763.000000	15.459360
1764.000000	15.461490
1765.000000	15.464985
1766.000000	15.468320
1767.000000	15.471870
1768.000000	15.476288
1769.000000	15.481718
1770.000000	15.486687
1771.000000	15.491437
1772.000000	15.497150
1773.000000	15.503735
1774.000000	15.510160
1775.000000	15.516638
1776.000000	15.522935
1777.000000	15.530462
1778.000000	15.537330
1779.000000	15.543975
1780.000000	15.551720
1781.000000	15.560177
1782.000000	15.567607
1783.000000	15.574153
1784.000000	15.579852
1785.000000	15.584765
1786.000000	15.589842
1787.000000	15.593385
1788.000000	15.595277
1789.000000	15.595718
1790.000000	15.595205
1791.000000	15.593790
1792.000000	15.593053
1793.000000	15.592853
1794.000000	15.592410
1795.000000	15.591615
1796.000000	15.590125
1797.000000	15.588658
1798.000000	15.586605
1799.000000	15.610375
1800.000000	15.635755
1801.000000	15.662330
1802.000000	15.688325
1803.000000	15.712240
1804.000000	15.736055
1805.000000	15.761693
1806.000000	15.788415
1807.000000	15.815230
1808.000000	15.840610
1809.000000	15.839270
1810.000000	15.838025
1811.000000	15.838025
1812.000000	15.838262
1813.000000	15.838735
1814.000000	15.838685
1815.000000	15.836940
1816.000000	15.832632
1817.000000	15.824103
1818.000000	15.814407
1819.000000	15.810057
1820.000000	15.812605
1821.000000	15.819167
1822.000000	15.823123
1823.000000	15.820580
1824.000000	15.813205
1825.000000	15.804375
1826.000000	15.798928
1827.000000	15.800810
1828.000000	15.807480
1829.000000	15.811843
1830.000000	15.810583
1831.000000	15.802480
1832.000000	15.792122
1833.000000	15.782875
1834.000000	15.775305
1835.000000	15.770903
1836.000000	15.770090
1837.000000	15.769975
1838.000000	15.768617
1839.000000	15.766960
1840.000000	15.767055
1841.000000	15.776300
1842.000000	15.791750
1843.000000	15.804245
1844.000000	15.807795
1845.000000	15.802168
1846.000000	15.796035
1847.000000	15.800603
1848.000000	15.815830
1849.000000	15.827960
1850.000000	15.825893
1851.000000	15.808535
1852.000000	15.789217
1853.000000	15.781260
1854.000000	15.787347
1855.000000	15.800965
1856.000000	15.805440
1857.000000	15.792090
1858.000000	15.771812
1859.000000	15.758332
1860.000000	15.755245
1861.000000	15.757683
1862.000000	15.756668
1863.000000	15.746467
1864.000000	15.726680
1865.000000	15.699837
1866.000000	15.671370
1867.000000	15.642180
1868.000000	15.606298
1869.000000	15.568915
1870.000000	15.511015
1871.000000	15.456003
1872.000000	15.408312
1873.000000	15.369297
1874.000000	15.335737
1875.000000	15.308723
1876.000000	15.258983
1877.000000	15.209540
1878.000000	15.157683
1879.000000	15.095490
1880.000000	15.043435
1881.000000	14.957705
1882.000000	14.864745
1883.000000	14.767397
1884.000000	14.668852
1885.000000	14.565577
1886.000000	14.482615
1887.000000	14.367777
1888.000000	14.248602
1889.000000	14.129962
1890.000000	14.015402
1891.000000	13.905620
1892.000000	13.794753
1893.000000	13.678237
1894.000000	13.555017
1895.000000	13.398240
1896.000000	13.237482
1897.000000	13.103625
1898.000000	12.974395
1899.000000	12.824988
1900.000000	12.675395
1901.000000	12.545328
1902.000000	12.411500
1903.000000	12.253882
1904.000000	12.104705
1905.000000	11.995175
1906.000000	11.894752
1907.000000	11.797985
1908.000000	11.672880
1909.000000	11.565170
1910.000000	11.454945
1911.000000	11.349020
1912.000000	11.253162
1913.000000	11.165418
1914.000000	11.079005
1915.000000	10.987145
1916.000000	10.891550
1917.000000	10.793942
1918.000000	10.726587
1919.000000	10.668792
1920.000000	10.619508
1921.000000	10.574900
1922.000000	10.503930
1923.000000	10.454310
1924.000000	10.401390
1925.000000	10.350013
1926.000000	10.306115
1927.000000	10.269545
1928.000000	10.237665
1929.000000	10.206278
1930.000000	10.173768
1931.000000	10.139310
1932.000000	10.128795
1933.000000	10.120675
1934.000000	10.115120
1935.000000	10.112230
1936.000000	10.108318
1937.000000	10.105467
1938.000000	10.103842
1939.000000	10.103607
1940.000000	10.104923
1941.000000	10.107295
1942.000000	10.110152
1943.000000	10.113690
1944.000000	10.119567
1945.000000	10.127245
1946.000000	10.138448
1947.000000	10.148985
1948.000000	10.157855
1949.000000	10.164758
1950.000000	10.171810
1951.000000	10.178997
1952.000000	10.188065
1953.000000	10.198090
1954.000000	10.209405
1955.000000	10.220513
1956.000000	10.229202
1957.000000	10.264615
1958.000000	10.274865
1959.000000	10.311005
1960.000000	10.347955
1961.000000	10.385058
1962.000000	10.422147
1963.000000	10.460390
1964.000000	10.497210
1965.000000	10.533537
1966.000000	10.569143
1967.000000	10.578997
1968.000000	10.614608
1969.000000	10.624785
1970.000000	10.634100
1971.000000	10.643137
1972.000000	10.652400
1973.000000	10.661808
1974.000000	10.671520
1975.000000	10.680148
1976.000000	10.689975
1977.000000	10.699378
1978.000000	10.707157
1979.000000	10.741545
1980.000000	10.777667
1981.000000	10.813415
1982.000000	10.848353
1983.000000	10.882020
1984.000000	10.916287
1985.000000	10.951968
1986.000000	10.987448
1987.000000	11.022575
1988.000000	11.059392
1989.000000	11.069755
1990.000000	11.078990
1991.000000	11.089550
1992.000000	11.100285
1993.000000	11.111408
1994.000000	11.121278
1995.000000	11.130605
1996.000000	11.140250
1997.000000	11.175003
1998.000000	11.183090
1999.000000	11.190707
2000.000000	11.198142
2001.000000	11.229525
2002.000000	11.261300
2003.000000	11.290913
2004.000000	11.320345
2005.000000	11.350532
2006.000000	11.379180
2007.000000	11.382388
2008.000000	11.409387
2009.000000	11.436885
2010.000000	11.463910
2011.000000	11.464810
2012.000000	11.463285
2013.000000	11.462422
2014.000000	11.460240
2015.000000	11.456830
2016.000000	11.453163
2017.000000	11.448403
2018.000000	11.444405
2019.000000	11.439225
2020.000000	11.430570
2021.000000	11.421833
2022.000000	11.413488
2023.000000	11.404310
2024.000000	11.394533
2025.000000	11.382493
2026.000000	11.369753
2027.000000	11.331452
2028.000000	11.317110
2029.000000	11.301535
2030.000000	11.261382
2031.000000	11.221085
2032.000000	11.179385
2033.000000	11.137870
2034.000000	11.096272
2035.000000	11.053493
2036.000000	11.009823
2037.000000	10.991765
2038.000000	10.948295
2039.000000	10.903985
2040.000000	10.884900
2041.000000	10.864068
2042.000000	10.843345
2043.000000	10.821767
2044.000000	10.799803
2045.000000	10.779203
2046.000000	10.759018
2047.000000	10.737613
2048.000000	10.717120
2049.000000	10.672907
2050.000000	10.628732
2051.000000	10.587085
2052.000000	10.547287
2053.000000	10.507630
2054.000000	10.470255
2055.000000	10.460530
2056.000000	10.452265
2057.000000	10.421957
2058.000000	10.393425
2059.000000	10.391905
2060.000000	10.417785
2061.000000	10.445660
2062.000000	10.475262
2063.000000	10.507450
2064.000000	10.540765
2065.000000	10.549405
2066.000000	10.559990
2067.000000	10.595558
2068.000000	10.631897
2069.000000	10.668997
2070.000000	10.681538
2071.000000	10.693998
2072.000000	10.706003
2073.000000	10.716188
2074.000000	10.725345
2075.000000	10.759675
2076.000000	10.793533
2077.000000	10.827438
2078.000000	10.835023
2079.000000	10.866155
2080.000000	10.896980
2081.000000	10.926720
2082.000000	10.954860
2083.000000	10.983675
2084.000000	11.012210
2085.000000	11.014303
2086.000000	11.015108
2087.000000	11.014320
2088.000000	11.037845
2089.000000	11.036290
2090.000000	11.033843
2091.000000	11.030263
2092.000000	11.027203
2093.000000	11.023347
2094.000000	11.018117
2095.000000	11.012868
2096.000000	11.007520
2097.000000	11.001830
2098.000000	10.996155
2099.000000	10.990737
2100.000000	10.984882
2101.000000	10.978320
2102.000000	10.971213
2103.000000	10.964280
2104.000000	10.958020
2105.000000	10.951420
2106.000000	10.943878
2107.000000	10.935987
2108.000000	10.927917
2109.000000	10.919702
2110.000000	10.911773
2111.000000	10.903910
2112.000000	10.895290
2113.000000	10.886060
2114.000000	10.876805
2115.000000	10.866625
2116.000000	10.856465
2117.000000	10.847238
2118.000000	10.862343
2119.000000	10.850690
2120.000000	10.838197
2121.000000	10.825970
2122.000000	10.839260
2123.000000	10.828260
2124.000000	10.815797
2125.000000	10.828217
2126.000000	10.815600
2127.000000	10.802315
2128.000000	10.764565
2129.000000	10.752422
2130.000000	10.740440
2131.000000	10.727065
2132.000000	10.688035
2133.000000	10.673395
2134.000000	10.659203
2135.000000	10.620505
2136.000000	10.606090
2137.000000	10.590972
2138.000000	10.550813
2139.000000	10.535690
2140.000000	10.519752
2141.000000	10.503900
2142.000000	10.488230
2143.000000	10.471947
2144.000000	10.455805
2145.000000	10.414300
2146.000000	10.398017
2147.000000	10.381488
2148.000000	10.389312
2149.000000	10.346925
2150.000000	10.304265
2151.000000	10.262295
2152.000000	10.220700
2153.000000	10.180090
2154.000000	10.139575
2155.000000	10.124345
2156.000000	10.084652
2157.000000	10.020332
2158.000000	9.981433
2159.000000	9.968985
2160.000000	9.957537
2161.000000	9.921510
2162.000000	9.885770
2163.000000	9.850260
2164.000000	9.815200
2165.000000	9.781063
2166.000000	9.746395
2167.000000	9.738618
2168.000000	9.706290
2169.000000	9.672795
2170.000000	9.639512
2171.000000	9.631555
2172.000000	9.623895
2173.000000	9.615845
2174.000000	9.608232
2175.000000	9.599502
2176.000000	9.566822
2177.000000	9.532707
2178.000000	9.498875
2179.000000	9.464430
2180.000000	9.429490
2181.000000	9.393097
2182.000000	9.355155
2183.000000	9.317267
2184.000000	9.276768
2185.000000	9.235335
2186.000000	9.217230
2187.000000	9.196625
2188.000000	9.172560
2189.000000	9.120525
2190.000000	9.065783
2191.000000	9.008712
2192.000000	8.947667
2193.000000	8.882597
2194.000000	8.815050
2195.000000	8.744180
2196.000000	8.669145
2197.000000	8.590712
2198.000000	8.486133
2199.000000	8.405548
2200.000000	8.322730
2201.000000	8.239743
2202.000000	8.158962
2203.000000	8.078785
2204.000000	8.000547
2205.000000	7.925880
2206.000000	7.830003
2207.000000	7.740115
2208.000000	7.680270
2209.000000	7.624988
2210.000000	7.576875
2211.000000	7.534360
2212.000000	7.496045
2213.000000	7.465160
2214.000000	7.439158
2215.000000	7.417815
2216.000000	7.425400
2217.000000	7.436555
2218.000000	7.451210
2219.000000	7.493895
2220.000000	7.514633
2221.000000	7.534900
2222.000000	7.581670
2223.000000	7.628295
2224.000000	7.675117
2225.000000	7.721547
2226.000000	7.768295
2227.000000	7.812925
2228.000000	7.856978
2229.000000	7.875027
2230.000000	7.914418
2231.000000	7.953735
2232.000000	7.966830
2233.000000	7.977345
2234.000000	7.987045
2235.000000	8.019243
2236.000000	8.049255
2237.000000	8.078482
2238.000000	8.105372
2239.000000	8.130525
2240.000000	8.154943
2241.000000	8.177982
2242.000000	8.174387
2243.000000	8.193192
2244.000000	8.212630
2245.000000	8.205655
2246.000000	8.198218
2247.000000	8.191310
2248.000000	8.183427
2249.000000	8.176610
2250.000000	8.142955
2251.000000	8.134945
2252.000000	8.152378
2253.000000	8.122100
2254.000000	8.090340
2255.000000	8.060360
2256.000000	8.030267
2257.000000	8.025525
2258.000000	8.022647
2259.000000	8.019950
2260.000000	8.044185
2261.000000	8.043677
2262.000000	8.045042
2263.000000	8.071820
2264.000000	8.099533
2265.000000	8.127990
2266.000000	8.159358
2267.000000	8.165605
2268.000000	8.171033
2269.000000	8.176778
2270.000000	8.183222
2271.000000	8.191595
2272.000000	8.199388
2273.000000	8.207755
2274.000000	8.216088
2275.000000	8.224683
2276.000000	8.232370
2277.000000	8.240005
2278.000000	8.272812
2279.000000	8.305568
2280.000000	8.338660
2281.000000	8.370493
2282.000000	8.402022
2283.000000	8.433760
2284.000000	8.465192
2285.000000	8.496453
2286.000000	8.528065
2287.000000	8.560225
2288.000000	8.566410
2289.000000	8.571845
2290.000000	8.602633
2291.000000	8.608703
2292.000000	8.615020
2293.000000	8.621488
2294.000000	8.652533
2295.000000	8.683250
2296.000000	8.712385
2297.000000	8.741557
2298.000000	8.772180
2299.000000	8.803462
2300.000000	8.809795
2301.000000	8.840735
2302.000000	8.871285
2303.000000	8.901705
2304.000000	8.908112
2305.000000	8.915097
2306.000000	8.923285
2307.000000	8.956165
2308.000000	8.988805
2309.000000	9.021620
2310.000000	9.053710
2311.000000	9.086490
2312.000000	9.119983
2313.000000	9.152420
2314.000000	9.184585
2315.000000	9.216105
2316.000000	9.221777
2317.000000	9.227730
2318.000000	9.233163
2319.000000	9.238445
2320.000000	9.218597
2321.000000	9.221840
2322.000000	9.224683
2323.000000	9.227232
2324.000000	9.228793
2325.000000	9.229423
2326.000000	9.254088
2327.000000	9.252802
2328.000000	9.251388
2329.000000	9.249520
2330.000000	9.297548
2331.000000	9.320615
2332.000000	9.342780
2333.000000	9.365253
2334.000000	9.387525
2335.000000	9.410570
2336.000000	9.434245
2337.000000	9.458225
2338.000000	9.482133
2339.000000	9.506070
2340.000000	9.505060
2341.000000	9.504400
2342.000000	9.503683
2343.000000	9.502923
2344.000000	9.503032
2345.000000	9.503342
2346.000000	9.504993
2347.000000	9.508770
2348.000000	9.514837
2349.000000	9.519990
2350.000000	9.545295
2351.000000	9.541982
2352.000000	9.564975
2353.000000	9.590253
2354.000000	9.616858
2355.000000	9.643918
2356.000000	9.670182
2357.000000	9.694397
2358.000000	9.716115
2359.000000	9.739155
2360.000000	9.742047
2361.000000	9.773835
2362.000000	9.779803
2363.000000	9.782985
2364.000000	9.810033
2365.000000	9.811925
2366.000000	9.813550
2367.000000	9.814965
2368.000000	9.816840
2369.000000	9.843580
2370.000000	9.845057
2371.000000	9.846200
2372.000000	9.847370
2373.000000	9.874610
2374.000000	9.876345
2375.000000	9.902392
2376.000000	9.928550
2377.000000	9.954485
2378.000000	9.980173
2379.000000	9.980135
2380.000000	9.979788
2381.000000	9.979665
2382.000000	9.979352
2383.000000	9.978717
2384.000000	9.977782
2385.000000	9.950790
2386.000000	9.923395
2387.000000	9.895930
2388.000000	9.868033
2389.000000	9.865350
2390.000000	9.887350
2391.000000	9.909018
2392.000000	9.930297
2393.000000	9.925685
2394.000000	9.896043
2395.000000	9.917085
2396.000000	9.962365
2397.000000	10.007338
2398.000000	10.027465
2399.000000	10.021810
2400.000000	10.016037
2401.000000	10.035488
2402.000000	10.029320
2403.000000	10.022270
2404.000000	10.065223
2405.000000	10.058450
2406.000000	10.052292
2407.000000	10.045337
2408.000000	10.036890
2409.000000	10.028150
2410.000000	10.019208
2411.000000	9.959192
2412.000000	9.949415
2413.000000	9.965018
2414.000000	9.955320
2415.000000	9.994855
2416.000000	9.983588
2417.000000	9.972403
2418.000000	9.985238
2419.000000	9.997500
2420.000000	9.984267
2421.000000	10.021693
2422.000000	10.033342
2423.000000	10.019077
2424.000000	10.029777
2425.000000	10.014053
2426.000000	9.997778
2427.000000	10.007360
2428.000000	10.018107
2429.000000	10.003592
2430.000000	10.013830
2431.000000	9.997485
2432.000000	9.981715
2433.000000	9.966340
2434.000000	9.925625
2435.000000	9.885755
2436.000000	9.895423
2437.000000	9.854470
2438.000000	9.838245
2439.000000	9.872550
2440.000000	9.882385
2441.000000	9.892678
2442.000000	9.927615
2443.000000	9.962050
2444.000000	9.946015
2445.000000	9.953432
2446.000000	9.937315
2447.000000	9.946035
2448.000000	9.955147
2449.000000	9.938200
2450.000000	9.970950
2451.000000	10.005392
2452.000000	9.964175
2453.000000	9.924423
2454.000000	9.985445
2455.000000	10.021810
2456.000000	10.107392
2457.000000	10.168360
2458.000000	10.178833
2459.000000	10.240393
2460.000000	10.252878
2461.000000	10.288988
2462.000000	10.399908
2463.000000	10.459225
2464.000000	10.466962
2465.000000	10.478925
2466.000000	10.442492
2467.000000	10.480192
2468.000000	10.542193
2469.000000	10.608292
2470.000000	10.723968
2471.000000	10.789727
2472.000000	10.832762
2473.000000	10.950715
2474.000000	11.046070
2475.000000	11.190350
2476.000000	11.308587
2477.000000	11.429045
2478.000000	11.525495
2479.000000	11.595533
2480.000000	11.666160
2481.000000	11.786773
2482.000000	11.905852
2483.000000	12.006182
2484.000000	12.203870
2485.000000	12.374697
2486.000000	12.646765
2487.000000	12.792040
2488.000000	12.992230
2489.000000	13.190582
2490.000000	13.321333
2491.000000	13.472942
2492.000000	13.676185
2493.000000	13.918150
2494.000000	14.047078
2495.000000	14.153055
2496.000000	14.132848
2497.000000	14.343802
2498.000000	14.521420
2499.000000	14.796273
2500.000000	15.047320
2501.000000	18.846462
2502.000000	22.595437
2503.000000	26.601760
2504.000000	30.748788
2505.000000	35.095035
2506.000000	39.692173
2507.000000	44.134575
2508.000000	48.781900
2509.000000	53.007530
2510.000000	57.400000
2511.000000	58.400000
2512.000000	59.100000
2513.000000	59.800000
2514.000000	60.300000
2515.000000	60.900000
2516.000000	61.500000
2517.000000	62.300000
2518.000000	62.700000
2519.000000	63.200000
2520.000000	64.200000
2521.000000	65.000000
2522.000000	66.600000
2523.000000	67.300000
2524.000000	68.600000
2525.000000	69.400000
2526.000000	70.100000
2527.000000	70.500000
2528.000000	71.500000
2529.000000	72.900000
2530.000000	74.000000
2531.000000	74.700000
2532.000000	74.900000
2533.000000	76.300000
2534.000000	77.300000
2535.000000	78.300000
2536.000000	78.900000
2537.000000	79.500000
2538.000000	79.800000
2539.000000	80.400000
2540.000000	80.900000
2541.000000	81.600000
2542.000000	82.000000
2543.000000	82.100000
2544.000000	82.700000
2545.000000	83.200000
2546.000000	84.300000
2547.000000	85.300000
2548.000000	86.500000
2549.000000	87.200000
2550.000000	87.800000
2551.000000	88.800000
2552.000000	90.000000
2553.000000	90.800000
2554.000000	90.800000
2555.000000	90.500000
2556.000000	90.100000
2557.000000	90.700000
2558.000000	90.800000
2559.000000	91.000000
2560.000000	91.000000
2561.000000	90.700000
2562.000000	90.400000
2563.000000	90.800000
2564.000000	91.300000
2565.000000	92.300000
2566.000000	93.200000
2567.000000	93.800000
2568.000000	94.600000
2569.000000	95.500000
2570.000000	96.700000
2571.000000	97.700000
2572.000000	98.800000
2573.000000	98.700000
2574.000000	99.000000
2575.000000	99.800000
2576.000000	100.200000
2577.000000	100.000000
2578.000000	99.500000
2579.000000	99.000000
2580.000000	98.900000
2581.000000	99.100000
2582.000000	99.000000
2583.000000	99.100000
2584.000000	98.500000
2585.000000	97.800000
2586.000000	98.000000
2587.000000	98.600000
2588.000000	99.100000
2589.000000	99.200000
2590.000000	99.000000
2591.000000	99.100000
2592.000000	99.300000
2593.000000	99.600000
2594.000000	100.200000
2595.000000	101.000000
2596.000000	101.300000
2597.000000	101.200000
2598.000000	100.800000
2599.000000	100.700000
2600.000000	100.800000
2601.000000	100.400000
2602.000000	100.100000
2603.000000	100.100000
2604.000000	100.000000
2605.000000	99.400000
2606.000000	98.800000
2607.000000	98.600000
2608.000000	99.000000
2609.000000	99.400000
2610.000000	99.100000
2611.000000	98.800000
2612.000000	98.900000
2613.000000	99.000000
2614.000000	99.700000
2615.000000	100.400000
2616.000000	100.800000
2617.000000	101.000000
2618.000000	101.000000
2619.000000	100.900000
2620.000000	101.400000
2621.000000	101.700000
2622.000000	101.700000
2623.000000	102.100000
2624.000000	102.500000
2625.000000	102.000000
2626.000000	101.500000
2627.000000	101.000000
2628.000000	101.100000
2629.000000	101.900000
2630.000000	102.000000
2631.000000	102.000000
2632.000000	101.700000
2633.000000	100.900000
2634.000000	100.200000
2635.000000	100.700000
2636.000000	101.800000
2637.000000	102.200000
2638.000000	101.800000
2639.000000	101.200000
2640.000000	100.900000
2641.000000	101.600000
2642.000000	102.400000
2643.000000	102.900000
2644.000000	103.000000
2645.000000	103.000000
2646.000000	101.900000
2647.000000	101.700000
2648.000000	101.900000
2649.000000	101.100000
2650.000000	101.100000
2651.000000	100.700000
2652.000000	100.700000
2653.000000	100.800000
2654.000000	99.900000
2655.000000	99.400000
2656.000000	100.100000
2657.000000	100.000000
2658.000000	100.800000
2659.000000	101.900000
2660.000000	102.300000
2661.000000	103.200000
2662.000000	102.900000
2663.000000	103.400000
2664.000000	104.600000
2665.000000	104.400000
2666.000000	103.700000
2667.000000	103.500000
2668.000000	103.100000
2669.000000	103.100000
2670.000000	102.600000
2671.000000	102.400000
2672.000000	102.900000
2673.000000	102.200000
2674.000000	102.300000
2675.000000	103.900000
2676.000000	105.000000
2677.000000	106.000000
2678.000000	106.800000
2679.000000	106.400000
2680.000000	106.700000
2681.000000	105.700000
2682.000000	105.600000
2683.000000	106.300000
2684.000000	105.800000
2685.000000	103.900000
2686.000000	102.900000
2687.000000	102.300000
2688.000000	101.200000
2689.000000	100.900000
2690.000000	101.300000
2691.000000	100.900000
2692.000000	99.900000
2693.000000	99.600000
2694.000000	100.100000
2695.000000	101.300000
2696.000000	102.100000
2697.000000	103.200000
2698.000000	103.200000
2699.000000	103.600000
2700.000000	103.400000
2701.000000	103.700000
2702.000000	103.100000
2703.000000	103.500000
2704.000000	103.100000
2705.000000	102.200000
2706.000000	101.200000
2707.000000	99.200000
2708.000000	99.500000
2709.000000	99.200000
2710.000000	98.700000
2711.000000	99.200000
2712.000000	100.100000
2713.000000	99.000000
2714.000000	98.700000
2715.000000	100.500000
2716.000000	101.300000
2717.000000	102.900000
2718.000000	102.300000
2719.000000	102.900000
2720.000000	102.000000
2721.000000	101.700000
2722.000000	102.600000
2723.000000	102.100000
2724.000000	102.900000
2725.000000	101.400000
2726.000000	101.100000
2727.000000	100.800000
2728.000000	101.100000
2729.000000	100.300000
2730.000000	101.700000
2731.000000	101.000000
2732.000000	100.600000
2733.000000	101.500000
2734.000000	101.200000
2735.000000	100.600000
2736.000000	100.900000
2737.000000	101.500000
2738.000000	100.600000
2739.000000	102.100000
2740.000000	101.700000
2741.000000	102.300000
2742.000000	102.300000
2743.000000	102.300000
2744.000000	102.500000
2745.000000	103.200000
2746.000000	103.100000
2747.000000	102.100000
2748.000000	102.800000
2749.000000	101.600000
2750.000000	101.800000
2751.000000	102.700000
2752.000000	102.900000
2753.000000	102.500000
2754.000000	101.700000
2755.000000	102.000000
2756.000000	102.300000
2757.000000	103.000000
2758.000000	103.200000
2759.000000	103.900000
2760.000000	103.800000
2761.000000	103.700000
2762.000000	103.400000
2763.000000	104.400000
2764.000000	104.600000
2765.000000	103.900000
2766.000000	103.800000
2767.000000	103.500000
2768.000000	104.500000
2769.000000	104.300000
2770.000000	104.500000
2771.000000	103.900000
2772.000000	104.300000
2773.000000	104.100000
2774.000000	103.900000
2775.000000	105.000000
2776.000000	104.800000
2777.000000	105.100000
2778.000000	104.000000
2779.000000	103.800000
2780.000000	103.800000
2781.000000	104.600000
2782.000000	104.000000
2783.000000	102.900000
2784.000000	103.000000
2785.000000	103.100000
2786.000000	103.100000
2787.000000	102.800000
2788.000000	102.900000
2789.000000	103.000000
2790.000000	102.900000
2791.000000	101.900000
2792.000000	102.000000
2793.000000	103.200000
2794.000000	103.000000
2795.000000	102.100000
2796.000000	102.500000
2797.000000	101.900000
2798.000000	102.200000
2799.000000	101.800000
2800.000000	101.400000
2801.000000	101.200000
2802.000000	101.400000
2803.000000	101.200000
2804.000000	101.600000
2805.000000	101.900000
2806.000000	101.000000
2807.000000	101.000000
2808.000000	100.600000
2809.000000	100.200000
2810.000000	100.500000
2811.000000	101.100000
2812.000000	101.600000
2813.000000	101.300000
2814.000000	101.700000
2815.000000	102.500000
2816.000000	103.400000
2817.000000	104.100000
2818.000000	103.700000
2819.000000	104.100000
2820.000000	104.500000
2821.000000	105.000000
2822.000000	104.800000
2823.000000	104.900000
2824.000000	103.800000
2825.000000	102.600000
2826.000000	102.600000
2827.000000	103.100000
2828.000000	103.900000
2829.000000	104.200000
2830.000000	103.800000
2831.000000	103.000000
2832.000000	102.700000
2833.000000	102.900000
2834.000000	104.000000
2835.000000	105.000000
2836.000000	104.600000
2837.000000	103.600000
2838.000000	103.000000
2839.000000	102.400000
2840.000000	102.000000
2841.000000	101.600000
2842.000000	101.800000
2843.000000	102.400000
2844.000000	102.400000
2845.000000	102.200000
2846.000000	101.800000
2847.000000	101.200000
2848.000000	101.200000
2849.000000	101.800000
2850.000000	102.300000
2851.000000	102.700000
2852.000000	102.100000
2853.000000	101.000000
2854.000000	100.800000
2855.000000	100.600000
2856.000000	101.000000
2857.000000	101.800000
2858.000000	102.000000
2859.000000	102.000000
2860.000000	101.900000
2861.000000	102.300000
2862.000000	102.800000
2863.000000	102.500000
2864.000000	102.100000
2865.000000	101.800000
2866.000000	101.700000
2867.000000	101.300000
2868.000000	101.200000
2869.000000	100.700000
2870.000000	100.400000
2871.000000	100.100000
2872.000000	99.600000
2873.000000	100.000000
2874.000000	100.300000
2875.000000	100.600000
2876.000000	101.000000
2877.000000	101.200000
2878.000000	101.000000
2879.000000	101.400000
2880.000000	101.700000
2881.000000	101.500000
2882.000000	101.600000
2883.000000	101.900000
2884.000000	101.900000
2885.000000	101.300000
2886.000000	100.900000
2887.000000	101.900000
2888.000000	103.100000
2889.000000	102.700000
2890.000000	102.000000
2891.000000	102.500000
2892.000000	102.900000
2893.000000	102.900000
2894.000000	102.900000
2895.000000	103.200000
2896.000000	103.300000
2897.000000	102.300000
2898.000000	101.600000
2899.000000	102.000000
2900.000000	102.500000
2901.000000	101.900000
2902.000000	101.600000
2903.000000	101.400000
2904.000000	100.900000
2905.000000	101.300000
2906.000000	101.500000
2907.000000	101.300000
2908.000000	101.300000
2909.000000	101.300000
2910.000000	101.100000
2911.000000	101.300000
2912.000000	101.700000
2913.000000	102.000000
2914.000000	102.500000
2915.000000	101.500000
2916.000000	100.700000
2917.000000	101.300000
2918.000000	101.700000
2919.000000	102.300000
2920.000000	102.600000
2921.000000	102.700000
2922.000000	102.300000
2923.000000	102.400000
2924.000000	102.400000
2925.000000	102.600000
2926.000000	102.500000
2927.000000	101.500000
2928.000000	101.000000
2929.000000	100.700000
2930.000000	100.300000
2931.000000	99.800000
2932.000000	99.400000
2933.000000	98.300000
2934.000000	99.100000
2935.000000	99.800000
2936.000000	100.500000
2937.000000	100.900000
2938.000000	101.000000
2939.000000	100.200000
2940.000000	100.100000
2941.000000	101.000000
2942.000000	102.000000
2943.000000	102.400000
2944.000000	101.600000
2945.000000	100.800000
2946.000000	100.100000
2947.000000	99.500000
2948.000000	99.000000
2949.000000	99.000000
2950.000000	99.500000
2951.000000	98.900000
2952.000000	98.400000
2953.000000	99.000000
2954.000000	98.400000
2955.000000	98.900000
2956.000000	99.800000
2957.000000	100.700000
2958.000000	101.300000
2959.000000	100.900000
2960.000000	101.000000
2961.000000	100.900000
2962.000000	100.500000
2963.000000	99.700000
2964.000000	100.200000
2965.000000	99.700000
2966.000000	99.400000
2967.000000	98.700000
2968.000000	98.700000
2969.000000	99.300000
2970.000000	98.700000
2971.000000	98.800000
2972.000000	98.700000
2973.000000	98.800000
2974.000000	99.000000
2975.000000	98.900000
2976.000000	99.400000
2977.000000	100.200000
2978.000000	100.000000
2979.000000	100.600000
2980.000000	100.800000
2981.000000	101.200000
2982.000000	101.100000
2983.000000	101.800000
2984.000000	101.500000
2985.000000	101.900000
2986.000000	100.600000
2987.000000	101.400000
2988.000000	101.700000
2989.000000	100.700000
2990.000000	100.700000
2991.000000	100.500000
2992.000000	101.400000
2993.000000	101.100000
2994.000000	100.600000
2995.000000	100.700000
2996.000000	102.100000
2997.000000	101.500000
2998.000000	101.600000
2999.000000	102.900000
3000.000000	103.000000
