PE UV       SUBTECH     SPECTRUM    ASCII       PEDS        4.00        
   -1
INBUCR0425-4.Sample.ASC
24/02/09
14:27:19.00
24/02/09
14:27:19.00
Vinicio Soto Monge
Verde rugoso. INBIOCRI001320065. Sin cabeza.
250,000000
1
Lambda 1050
1050L1511233
PerkinElmer UV WinLab 6.3.2.0749 / 2.02.05 Lambda 900 UV/VIS/NIR, Aug  7 2015 09:38:08

0
0
3350/servo 860,8/2
0
0
UV/VIS
1
1
1
DoubleDePol,CommonBeamDepol,RBeamAtt,SBeamAtt,60mm sphere, WB InGaAs Detector
0
0
0
0
Program
Program
3350/servo 860,8/2
3350/0,2 860,8/0,2
3350/0,2 860,8/0,2
0
15.00
 
 
 
0
 
860,8
319,2
860,8
Front
100
on
S:100 R:100
0
0
0
0
 
0
 
 
 
0
 
 
0
0
0
0
0
 
 
 
 
0
0


0
0
#HDR
-1
-1
#GR
nm
%R
1.0
0.0
2500,000000
-1,000000
2251
8
17,754400
1,534800
#DATA

250.000000	nan
251.000000	nan
252.000000	nan
253.000000	nan
254.000000	nan
255.000000	nan
256.000000	nan
257.000000	nan
258.000000	nan
259.000000	4.483995
260.000000	4.481456
261.000000	4.511330
262.000000	4.475034
263.000000	4.472431
264.000000	4.436523
265.000000	4.433518
266.000000	4.395887
267.000000	4.359542
268.000000	4.322638
269.000000	4.318584
270.000000	4.281571
271.000000	4.244330
272.000000	4.241273
273.000000	4.238354
274.000000	4.235239
275.000000	4.199475
276.000000	4.197629
277.000000	4.195816
278.000000	4.194019
279.000000	4.191900
280.000000	4.222153
281.000000	4.221454
282.000000	4.219831
283.000000	4.218098
284.000000	4.216346
285.000000	4.246613
286.000000	4.244103
287.000000	4.275075
288.000000	4.272442
289.000000	4.269887
290.000000	4.234470
291.000000	4.232063
292.000000	4.229932
293.000000	4.227385
294.000000	4.225955
295.000000	4.191508
296.000000	4.189618
297.000000	4.153830
298.000000	4.151922
299.000000	4.149899
300.000000	4.148797
301.000000	4.147177
302.000000	4.178469
303.000000	4.210726
304.000000	4.209276
305.000000	4.240129
306.000000	4.271124
307.000000	4.303440
308.000000	4.334994
309.000000	4.366343
310.000000	4.397368
311.000000	4.428975
312.000000	4.427382
313.000000	4.425720
314.000000	4.455921
315.000000	4.453800
316.000000	4.454517
317.000000	4.462315
318.000000	4.472083
319.000000	4.478913
320.000000	4.487890
321.000000	4.496176
322.000000	4.498713
323.000000	4.503867
324.000000	4.506195
325.000000	4.510961
326.000000	4.515806
327.000000	4.509160
328.000000	4.502718
329.000000	4.498760
330.000000	4.492237
331.000000	4.486109
332.000000	4.483938
333.000000	4.479708
334.000000	4.480163
335.000000	4.477476
336.000000	4.472822
337.000000	4.472872
338.000000	4.471646
339.000000	4.469875
340.000000	4.466283
341.000000	4.464213
342.000000	4.463764
343.000000	4.462661
344.000000	4.461857
345.000000	4.460736
346.000000	4.458686
347.000000	4.456027
348.000000	4.453925
349.000000	4.451123
350.000000	4.451267
351.000000	4.449414
352.000000	4.447933
353.000000	4.448005
354.000000	4.445893
355.000000	4.443530
356.000000	4.442777
357.000000	4.441419
358.000000	4.438075
359.000000	4.436681
360.000000	4.435165
361.000000	4.433318
362.000000	4.430964
363.000000	4.428269
364.000000	4.426979
365.000000	4.427476
366.000000	4.427598
367.000000	4.427000
368.000000	4.427695
369.000000	4.427932
370.000000	4.428554
371.000000	4.428351
372.000000	4.428979
373.000000	4.427545
374.000000	4.426009
375.000000	4.423748
376.000000	4.418279
377.000000	4.407313
378.000000	4.397349
379.000000	4.388184
380.000000	4.378531
381.000000	4.370578
382.000000	4.362251
383.000000	4.355714
384.000000	4.349560
385.000000	4.344552
386.000000	4.342245
387.000000	4.346420
388.000000	4.350432
389.000000	4.355047
390.000000	4.359917
391.000000	4.364876
392.000000	4.370544
393.000000	4.376201
394.000000	4.381862
395.000000	4.387627
396.000000	4.393764
397.000000	4.400131
398.000000	4.406517
399.000000	4.412733
400.000000	4.419247
401.000000	4.425737
402.000000	4.432149
403.000000	4.438652
404.000000	4.445199
405.000000	4.452331
406.000000	4.459369
407.000000	4.466339
408.000000	4.473588
409.000000	4.480943
410.000000	4.488131
411.000000	4.495177
412.000000	4.502208
413.000000	4.509421
414.000000	4.516873
415.000000	4.523953
416.000000	4.530865
417.000000	4.537889
418.000000	4.544956
419.000000	4.552079
420.000000	4.558942
421.000000	4.565807
422.000000	4.572562
423.000000	4.579081
424.000000	4.585526
425.000000	4.591862
426.000000	4.631281
427.000000	4.670595
428.000000	4.709144
429.000000	4.747516
430.000000	4.785989
431.000000	4.824630
432.000000	4.863322
433.000000	4.901406
434.000000	4.939279
435.000000	4.976893
436.000000	4.981453
437.000000	4.985864
438.000000	4.990330
439.000000	4.994587
440.000000	4.998522
441.000000	5.002095
442.000000	5.005252
443.000000	5.008440
444.000000	5.011243
445.000000	5.013877
446.000000	5.016388
447.000000	5.018995
448.000000	5.021503
449.000000	5.023383
450.000000	5.025153
451.000000	5.026707
452.000000	5.028076
453.000000	5.029588
454.000000	5.030855
455.000000	5.031994
456.000000	5.033064
457.000000	5.033548
458.000000	5.033925
459.000000	5.034819
460.000000	5.035686
461.000000	5.036522
462.000000	5.037416
463.000000	5.038214
464.000000	5.039189
465.000000	5.040188
466.000000	5.041134
467.000000	5.042323
468.000000	5.043713
469.000000	5.045312
470.000000	5.047020
471.000000	5.048791
472.000000	5.050858
473.000000	5.053265
474.000000	5.056208
475.000000	5.059824
476.000000	5.063807
477.000000	5.068364
478.000000	5.073608
479.000000	5.079295
480.000000	5.085391
481.000000	5.091884
482.000000	5.099016
483.000000	5.107181
484.000000	5.116632
485.000000	5.127688
486.000000	5.140895
487.000000	5.156347
488.000000	5.173811
489.000000	5.226501
490.000000	5.282129
491.000000	5.340814
492.000000	5.402279
493.000000	5.466266
494.000000	5.532526
495.000000	5.600599
496.000000	5.670181
497.000000	5.741363
498.000000	5.814505
499.000000	5.856385
500.000000	5.899865
501.000000	5.977952
502.000000	6.058026
503.000000	6.139999
504.000000	6.223648
505.000000	6.309363
506.000000	6.397159
507.000000	6.486839
508.000000	6.578253
509.000000	6.671710
510.000000	6.799905
511.000000	6.897024
512.000000	6.995949
513.000000	7.096746
514.000000	7.199056
515.000000	7.302684
516.000000	7.407905
517.000000	7.547371
518.000000	7.688128
519.000000	7.829969
520.000000	7.940126
521.000000	8.051531
522.000000	8.163916
523.000000	8.310026
524.000000	8.457398
525.000000	8.606220
526.000000	8.755833
527.000000	8.873104
528.000000	8.991136
529.000000	9.142766
530.000000	9.295057
531.000000	9.447381
532.000000	9.599821
533.000000	9.719534
534.000000	9.871615
535.000000	10.021767
536.000000	10.169725
537.000000	10.315822
538.000000	10.459121
539.000000	10.566007
540.000000	10.668628
541.000000	10.800286
542.000000	10.927474
543.000000	11.049014
544.000000	11.132879
545.000000	11.212547
546.000000	11.288619
547.000000	11.360523
548.000000	11.428564
549.000000	11.493238
550.000000	11.555729
551.000000	11.615518
552.000000	11.672443
553.000000	11.727582
554.000000	11.780440
555.000000	11.831487
556.000000	11.880336
557.000000	11.927195
558.000000	11.972486
559.000000	12.016168
560.000000	12.046482
561.000000	12.039378
562.000000	12.029914
563.000000	12.018430
564.000000	12.004299
565.000000	11.987649
566.000000	11.968191
567.000000	11.946461
568.000000	11.922297
569.000000	11.895894
570.000000	11.877701
571.000000	11.859014
572.000000	11.838311
573.000000	11.781792
574.000000	11.723251
575.000000	11.661962
576.000000	11.598892
577.000000	11.533072
578.000000	11.464412
579.000000	11.392757
580.000000	11.318990
581.000000	11.243027
582.000000	11.164633
583.000000	11.117344
584.000000	11.067701
585.000000	10.983894
586.000000	10.898432
587.000000	10.811929
588.000000	10.724579
589.000000	10.636707
590.000000	10.547208
591.000000	10.457649
592.000000	10.367502
593.000000	10.243749
594.000000	10.120248
595.000000	10.029264
596.000000	9.939098
597.000000	9.850115
598.000000	9.762905
599.000000	9.677143
600.000000	9.594674
601.000000	9.514832
602.000000	9.405986
603.000000	9.333735
604.000000	9.264708
605.000000	9.198636
606.000000	9.135150
607.000000	9.073271
608.000000	9.012399
609.000000	8.952720
610.000000	8.893795
611.000000	8.834458
612.000000	8.807556
613.000000	8.780595
614.000000	8.753467
615.000000	8.726903
616.000000	8.700916
617.000000	8.675913
618.000000	8.652647
619.000000	8.631104
620.000000	8.611405
621.000000	8.594431
622.000000	8.579825
623.000000	8.567555
624.000000	8.558636
625.000000	8.552032
626.000000	8.547321
627.000000	8.544921
628.000000	8.543592
629.000000	8.543652
630.000000	8.544685
631.000000	8.546342
632.000000	8.548200
633.000000	8.551071
634.000000	8.553076
635.000000	8.554942
636.000000	8.556949
637.000000	8.558918
638.000000	8.561003
639.000000	8.563638
640.000000	8.566092
641.000000	8.569328
642.000000	8.573535
643.000000	8.577818
644.000000	8.583162
645.000000	8.590337
646.000000	8.598238
647.000000	8.607099
648.000000	8.617808
649.000000	8.630014
650.000000	8.643865
651.000000	8.658660
652.000000	8.675087
653.000000	8.725642
654.000000	8.777808
655.000000	8.830498
656.000000	8.884407
657.000000	8.939776
658.000000	8.995650
659.000000	9.052130
660.000000	9.110170
661.000000	9.169823
662.000000	9.230286
663.000000	9.259127
664.000000	9.289224
665.000000	9.321407
666.000000	9.387943
667.000000	9.456334
668.000000	9.525981
669.000000	9.597702
670.000000	9.670695
671.000000	9.745403
672.000000	9.822326
673.000000	9.901405
674.000000	10.015030
675.000000	10.130048
676.000000	10.213672
677.000000	10.298503
678.000000	10.385722
679.000000	10.474277
680.000000	10.596855
681.000000	10.720736
682.000000	10.845142
683.000000	10.970373
684.000000	11.063362
685.000000	11.156507
686.000000	11.282172
687.000000	11.408145
688.000000	11.534121
689.000000	11.659593
690.000000	11.751793
691.000000	11.842747
692.000000	11.965583
693.000000	12.087089
694.000000	12.207421
695.000000	12.326905
696.000000	12.413005
697.000000	12.498218
698.000000	12.581491
699.000000	12.695974
700.000000	12.810174
701.000000	12.922979
702.000000	13.002314
703.000000	13.080978
704.000000	13.158846
705.000000	13.236721
706.000000	13.314632
707.000000	13.425532
708.000000	13.536942
709.000000	13.616025
710.000000	13.695283
711.000000	13.775744
712.000000	13.856075
713.000000	13.936778
714.000000	14.051287
715.000000	14.166149
716.000000	14.281321
717.000000	14.362744
718.000000	14.444962
719.000000	14.527840
720.000000	14.610173
721.000000	14.692086
722.000000	14.808024
723.000000	14.924207
724.000000	15.007226
725.000000	15.089321
726.000000	15.171814
727.000000	15.254247
728.000000	15.335767
729.000000	15.416651
730.000000	15.529126
731.000000	15.641594
732.000000	15.720399
733.000000	15.797137
734.000000	15.873030
735.000000	15.949502
736.000000	16.024269
737.000000	16.097737
738.000000	16.170545
739.000000	16.275022
740.000000	16.346780
741.000000	16.416913
742.000000	16.484959
743.000000	16.553192
744.000000	16.620382
745.000000	16.684992
746.000000	16.748725
747.000000	16.811739
748.000000	16.873375
749.000000	16.901410
750.000000	16.928148
751.000000	16.953915
752.000000	16.978925
753.000000	17.002635
754.000000	17.025744
755.000000	17.081411
756.000000	17.135396
757.000000	17.188826
758.000000	17.240863
759.000000	17.290814
760.000000	17.342153
761.000000	17.393867
762.000000	17.443924
763.000000	17.493408
764.000000	17.541618
765.000000	17.556389
766.000000	17.571719
767.000000	17.585925
768.000000	17.600469
769.000000	17.615816
770.000000	17.629281
771.000000	17.640765
772.000000	17.652043
773.000000	17.664175
774.000000	17.676826
775.000000	17.689766
776.000000	17.702308
777.000000	17.714060
778.000000	17.724794
779.000000	17.734451
780.000000	17.744334
781.000000	17.754973
782.000000	17.766148
783.000000	17.776091
784.000000	17.787142
785.000000	17.798610
786.000000	17.808435
787.000000	17.819982
788.000000	17.833742
789.000000	17.848078
790.000000	17.860922
791.000000	17.874139
792.000000	17.887115
793.000000	17.899900
794.000000	17.911707
795.000000	17.922812
796.000000	17.935269
797.000000	17.947565
798.000000	17.958076
799.000000	17.967689
800.000000	17.977774
801.000000	17.985529
802.000000	17.993314
803.000000	17.968118
804.000000	17.941026
805.000000	17.913246
806.000000	17.884185
807.000000	17.851625
808.000000	17.821789
809.000000	17.792927
810.000000	17.763033
811.000000	17.731130
812.000000	17.698202
813.000000	17.697969
814.000000	17.697070
815.000000	17.692579
816.000000	17.656016
817.000000	17.621316
818.000000	17.582532
819.000000	17.541913
820.000000	17.499829
821.000000	17.459049
822.000000	17.416590
823.000000	17.372377
824.000000	17.325550
825.000000	17.278655
826.000000	17.263966
827.000000	17.215145
828.000000	17.163585
829.000000	17.111688
830.000000	17.056785
831.000000	17.001076
832.000000	16.946938
833.000000	16.890282
834.000000	16.831954
835.000000	16.774033
836.000000	16.713900
837.000000	16.651958
838.000000	16.589548
839.000000	16.527217
840.000000	16.468481
841.000000	16.407833
842.000000	16.345387
843.000000	16.282491
844.000000	16.222699
845.000000	16.160147
846.000000	16.095770
847.000000	16.032726
848.000000	15.969792
849.000000	15.901813
850.000000	15.828047
851.000000	15.757705
852.000000	15.688382
853.000000	15.619218
854.000000	15.546777
855.000000	15.475114
856.000000	15.374745
857.000000	15.333257
858.000000	15.576684
859.000000	15.570592
860.000000	15.570165
861.000000	15.570599
862.000000	15.573150
863.000000	15.554401
864.000000	15.541538
865.000000	15.533822
866.000000	15.535071
867.000000	15.536535
868.000000	15.232172
869.000000	15.182305
870.000000	15.133645
871.000000	15.084597
872.000000	15.034627
873.000000	14.960703
874.000000	14.910740
875.000000	14.859448
876.000000	14.832605
877.000000	14.780783
878.000000	14.754208
879.000000	14.703457
880.000000	14.651023
881.000000	14.574940
882.000000	14.523303
883.000000	14.521335
884.000000	14.493845
885.000000	14.466002
886.000000	14.413297
887.000000	14.385503
888.000000	14.356345
889.000000	14.352295
890.000000	14.349195
891.000000	14.345783
892.000000	14.317687
893.000000	14.289320
894.000000	14.261338
895.000000	14.234715
896.000000	14.232085
897.000000	14.206000
898.000000	14.180745
899.000000	14.155402
900.000000	14.130683
901.000000	14.130560
902.000000	14.106860
903.000000	14.083585
904.000000	14.061695
905.000000	14.039195
906.000000	14.017833
907.000000	13.996822
908.000000	13.976600
909.000000	13.957375
910.000000	13.939327
911.000000	13.921472
912.000000	13.929333
913.000000	13.937530
914.000000	13.946357
915.000000	13.956403
916.000000	13.967887
917.000000	13.978947
918.000000	13.989503
919.000000	14.001980
920.000000	14.013070
921.000000	14.026492
922.000000	14.039595
923.000000	14.053063
924.000000	14.065755
925.000000	14.078075
926.000000	14.089745
927.000000	14.101382
928.000000	14.114818
929.000000	14.126435
930.000000	14.139222
931.000000	14.150495
932.000000	14.162552
933.000000	14.175152
934.000000	14.189865
935.000000	14.205457
936.000000	14.222262
937.000000	14.238778
938.000000	14.254560
939.000000	14.295038
940.000000	14.310980
941.000000	14.351352
942.000000	14.391180
943.000000	14.431793
944.000000	14.471433
945.000000	14.510657
946.000000	14.549815
947.000000	14.590995
948.000000	14.631225
949.000000	14.648380
950.000000	14.691012
951.000000	14.709523
952.000000	14.728305
953.000000	14.745632
954.000000	14.764205
955.000000	14.782570
956.000000	14.799822
957.000000	14.816760
958.000000	14.834588
959.000000	14.851550
960.000000	14.869115
961.000000	14.886707
962.000000	14.904535
963.000000	14.922978
964.000000	14.965042
965.000000	15.007450
966.000000	15.051240
967.000000	15.093977
968.000000	15.137472
969.000000	15.181585
970.000000	15.224395
971.000000	15.267003
972.000000	15.310493
973.000000	15.353742
974.000000	15.371925
975.000000	15.390865
976.000000	15.408672
977.000000	15.426678
978.000000	15.443842
979.000000	15.462100
980.000000	15.480625
981.000000	15.498772
982.000000	15.515935
983.000000	15.533243
984.000000	15.575477
985.000000	15.616672
986.000000	15.658095
987.000000	15.699452
988.000000	15.741478
989.000000	15.782585
990.000000	15.824908
991.000000	15.868010
992.000000	15.909878
993.000000	15.951742
994.000000	15.968420
995.000000	15.985745
996.000000	16.002913
997.000000	16.020457
998.000000	16.037525
999.000000	16.053877
1000.000000	16.069390
1001.000000	16.109648
1002.000000	16.150848
1003.000000	16.193235
1004.000000	16.236255
1005.000000	16.278325
1006.000000	16.319517
1007.000000	16.361125
1008.000000	16.402765
1009.000000	16.444653
1010.000000	16.485737
1011.000000	16.501685
1012.000000	16.517840
1013.000000	16.532392
1014.000000	16.547095
1015.000000	16.562442
1016.000000	16.578080
1017.000000	16.593687
1018.000000	16.609260
1019.000000	16.649992
1020.000000	16.691607
1021.000000	16.733573
1022.000000	16.776430
1023.000000	16.819865
1024.000000	16.862468
1025.000000	16.905245
1026.000000	16.948313
1027.000000	16.991535
1028.000000	17.034695
1029.000000	17.052120
1030.000000	17.069160
1031.000000	17.085825
1032.000000	17.101223
1033.000000	17.116685
1034.000000	17.133002
1035.000000	17.174313
1036.000000	17.215647
1037.000000	17.256660
1038.000000	17.297790
1039.000000	17.339155
1040.000000	17.380192
1041.000000	17.421067
1042.000000	17.461742
1043.000000	17.502468
1044.000000	17.542842
1045.000000	17.558107
1046.000000	17.572990
1047.000000	17.587517
1048.000000	17.602075
1049.000000	17.616805
1050.000000	17.632192
1051.000000	17.647787
1052.000000	17.689005
1053.000000	17.729925
1054.000000	17.770212
1055.000000	17.809880
1056.000000	17.849798
1057.000000	17.890037
1058.000000	17.930575
1059.000000	17.971282
1060.000000	18.011060
1061.000000	18.050977
1062.000000	18.065122
1063.000000	18.079183
1064.000000	18.094248
1065.000000	18.110405
1066.000000	18.126548
1067.000000	18.141597
1068.000000	18.182275
1069.000000	18.222270
1070.000000	18.262297
1071.000000	18.302355
1072.000000	18.342875
1073.000000	18.383657
1074.000000	18.423755
1075.000000	18.463348
1076.000000	18.502667
1077.000000	18.542853
1078.000000	18.556995
1079.000000	18.571172
1080.000000	18.585568
1081.000000	18.599647
1082.000000	18.613422
1083.000000	18.626615
1084.000000	18.638933
1085.000000	18.651845
1086.000000	18.689420
1087.000000	18.727348
1088.000000	18.764470
1089.000000	18.801870
1090.000000	18.838835
1091.000000	18.876048
1092.000000	18.912760
1093.000000	18.949078
1094.000000	18.987025
1095.000000	19.024048
1096.000000	19.035532
1097.000000	19.046875
1098.000000	19.058070
1099.000000	19.068587
1100.000000	19.079945
1101.000000	19.091185
1102.000000	19.102328
1103.000000	19.113775
1104.000000	19.123760
1105.000000	19.133465
1106.000000	19.144573
1107.000000	19.179793
1108.000000	19.215048
1109.000000	19.249588
1110.000000	19.283795
1111.000000	19.317110
1112.000000	19.351095
1113.000000	19.383375
1114.000000	19.415955
1115.000000	19.449265
1116.000000	19.481603
1117.000000	19.487860
1118.000000	19.493665
1119.000000	19.499117
1120.000000	19.503585
1121.000000	19.509152
1122.000000	19.514580
1123.000000	19.521735
1124.000000	19.527378
1125.000000	19.530965
1126.000000	19.533317
1127.000000	19.536877
1128.000000	19.540617
1129.000000	19.544895
1130.000000	19.547128
1131.000000	19.545525
1132.000000	19.541222
1133.000000	19.536525
1134.000000	19.533812
1135.000000	19.533378
1136.000000	19.530508
1137.000000	19.525147
1138.000000	19.518880
1139.000000	19.511330
1140.000000	19.505425
1141.000000	19.501610
1142.000000	19.498017
1143.000000	19.493982
1144.000000	19.488875
1145.000000	19.483087
1146.000000	19.480522
1147.000000	19.477853
1148.000000	19.476435
1149.000000	19.475025
1150.000000	19.473783
1151.000000	19.472008
1152.000000	19.472423
1153.000000	19.471773
1154.000000	19.468825
1155.000000	19.463450
1156.000000	19.456482
1157.000000	19.449168
1158.000000	19.439518
1159.000000	19.427935
1160.000000	19.416325
1161.000000	19.403360
1162.000000	19.386990
1163.000000	19.369142
1164.000000	19.350758
1165.000000	19.332973
1166.000000	19.315300
1167.000000	19.297345
1168.000000	19.278845
1169.000000	19.263253
1170.000000	19.246635
1171.000000	19.230830
1172.000000	19.216388
1173.000000	19.204730
1174.000000	19.194718
1175.000000	19.185288
1176.000000	19.177038
1177.000000	19.171298
1178.000000	19.167345
1179.000000	19.163195
1180.000000	19.158875
1181.000000	19.155125
1182.000000	19.152405
1183.000000	19.149610
1184.000000	19.148833
1185.000000	19.148408
1186.000000	19.149130
1187.000000	19.149543
1188.000000	19.149723
1189.000000	19.152212
1190.000000	19.157415
1191.000000	19.164217
1192.000000	19.172215
1193.000000	19.181930
1194.000000	19.191950
1195.000000	19.202153
1196.000000	19.213145
1197.000000	19.225635
1198.000000	19.264380
1199.000000	19.302502
1200.000000	19.340798
1201.000000	19.379140
1202.000000	19.417865
1203.000000	19.455458
1204.000000	19.492838
1205.000000	19.530915
1206.000000	19.567822
1207.000000	19.605222
1208.000000	19.618607
1209.000000	19.632055
1210.000000	19.643293
1211.000000	19.654393
1212.000000	19.665085
1213.000000	19.675767
1214.000000	19.685470
1215.000000	19.695680
1216.000000	19.705282
1217.000000	19.738670
1218.000000	19.770592
1219.000000	19.801035
1220.000000	19.832258
1221.000000	19.862865
1222.000000	19.892495
1223.000000	19.921420
1224.000000	19.950565
1225.000000	19.978528
1226.000000	20.006370
1227.000000	20.010023
1228.000000	20.014025
1229.000000	20.017952
1230.000000	20.022437
1231.000000	20.026750
1232.000000	20.031358
1233.000000	20.036310
1234.000000	20.041150
1235.000000	20.046197
1236.000000	20.051443
1237.000000	20.055495
1238.000000	20.059503
1239.000000	20.064570
1240.000000	20.069625
1241.000000	20.075140
1242.000000	20.080340
1243.000000	20.085345
1244.000000	20.115890
1245.000000	20.147637
1246.000000	20.180492
1247.000000	20.214880
1248.000000	20.250035
1249.000000	20.284912
1250.000000	20.319575
1251.000000	20.354650
1252.000000	20.391208
1253.000000	20.428715
1254.000000	20.440610
1255.000000	20.451512
1256.000000	20.461650
1257.000000	20.470745
1258.000000	20.479333
1259.000000	20.488105
1260.000000	20.497175
1261.000000	20.505933
1262.000000	20.513412
1263.000000	20.520195
1264.000000	20.527595
1265.000000	20.534258
1266.000000	20.541195
1267.000000	20.547623
1268.000000	20.552992
1269.000000	20.558140
1270.000000	20.562043
1271.000000	20.565715
1272.000000	20.569350
1273.000000	20.572175
1274.000000	20.574288
1275.000000	20.576477
1276.000000	20.604450
1277.000000	20.633292
1278.000000	20.662382
1279.000000	20.691543
1280.000000	20.721225
1281.000000	20.750682
1282.000000	20.780830
1283.000000	20.812317
1284.000000	20.844160
1285.000000	20.876503
1286.000000	20.883565
1287.000000	20.889925
1288.000000	20.896808
1289.000000	20.903650
1290.000000	20.910968
1291.000000	20.919358
1292.000000	20.927570
1293.000000	20.934778
1294.000000	20.942800
1295.000000	20.951430
1296.000000	20.959175
1297.000000	20.966593
1298.000000	20.973672
1299.000000	20.980920
1300.000000	20.987603
1301.000000	20.992413
1302.000000	20.997070
1303.000000	21.002672
1304.000000	21.007613
1305.000000	21.010787
1306.000000	21.012967
1307.000000	21.014820
1308.000000	21.017075
1309.000000	21.018307
1310.000000	21.018475
1311.000000	21.019140
1312.000000	21.019112
1313.000000	21.017355
1314.000000	21.013940
1315.000000	21.010155
1316.000000	21.006392
1317.000000	21.001893
1318.000000	20.996165
1319.000000	20.989808
1320.000000	20.983645
1321.000000	20.976868
1322.000000	20.968725
1323.000000	20.959992
1324.000000	20.951075
1325.000000	20.941978
1326.000000	20.932545
1327.000000	20.923172
1328.000000	20.913010
1329.000000	20.901267
1330.000000	20.888768
1331.000000	20.875908
1332.000000	20.862642
1333.000000	20.847973
1334.000000	20.807613
1335.000000	20.766300
1336.000000	20.723580
1337.000000	20.679362
1338.000000	20.634982
1339.000000	20.590105
1340.000000	20.543760
1341.000000	20.494710
1342.000000	20.445078
1343.000000	20.395045
1344.000000	20.368157
1345.000000	20.339605
1346.000000	20.310365
1347.000000	20.280752
1348.000000	20.249713
1349.000000	20.191292
1350.000000	20.130823
1351.000000	20.069930
1352.000000	20.007337
1353.000000	19.945818
1354.000000	19.888528
1355.000000	19.833757
1356.000000	19.778732
1357.000000	19.723505
1358.000000	19.668765
1359.000000	19.638983
1360.000000	19.590690
1361.000000	19.552610
1362.000000	19.516085
1363.000000	19.477448
1364.000000	19.438182
1365.000000	19.396138
1366.000000	19.351725
1367.000000	19.284253
1368.000000	19.215955
1369.000000	19.145222
1370.000000	19.092330
1371.000000	19.028915
1372.000000	18.934750
1373.000000	18.833713
1374.000000	18.722535
1375.000000	18.606835
1376.000000	18.484455
1377.000000	18.351780
1378.000000	18.209722
1379.000000	18.065900
1380.000000	17.921852
1381.000000	17.784413
1382.000000	17.654953
1383.000000	17.533160
1384.000000	17.416918
1385.000000	17.303832
1386.000000	17.199195
1387.000000	17.132692
1388.000000	17.053403
1389.000000	16.977072
1390.000000	16.902248
1391.000000	16.826007
1392.000000	16.775020
1393.000000	16.723253
1394.000000	16.676150
1395.000000	16.638970
1396.000000	16.603217
1397.000000	16.554938
1398.000000	16.500385
1399.000000	16.453582
1400.000000	16.414600
1401.000000	16.368675
1402.000000	16.311030
1403.000000	16.250152
1404.000000	16.187037
1405.000000	16.114070
1406.000000	16.037507
1407.000000	15.940420
1408.000000	15.871070
1409.000000	15.794610
1410.000000	15.707258
1411.000000	15.617030
1412.000000	15.532872
1413.000000	15.428555
1414.000000	15.322795
1415.000000	15.213970
1416.000000	15.103115
1417.000000	15.018998
1418.000000	14.936330
1419.000000	14.855752
1420.000000	14.777105
1421.000000	14.677007
1422.000000	14.579925
1423.000000	14.507573
1424.000000	14.434090
1425.000000	14.364620
1426.000000	14.298480
1427.000000	14.235290
1428.000000	14.171578
1429.000000	14.106885
1430.000000	14.045740
1431.000000	14.013403
1432.000000	13.980917
1433.000000	13.922225
1434.000000	13.865965
1435.000000	13.811570
1436.000000	13.759242
1437.000000	13.707823
1438.000000	13.657982
1439.000000	13.610178
1440.000000	13.562495
1441.000000	13.515203
1442.000000	13.468168
1443.000000	13.448560
1444.000000	13.430165
1445.000000	13.413588
1446.000000	13.397727
1447.000000	13.379827
1448.000000	13.361103
1449.000000	13.319233
1450.000000	13.279008
1451.000000	13.239158
1452.000000	13.199450
1453.000000	13.159040
1454.000000	13.118575
1455.000000	13.077322
1456.000000	13.034980
1457.000000	12.993560
1458.000000	12.952090
1459.000000	12.934822
1460.000000	12.916557
1461.000000	12.896610
1462.000000	12.877970
1463.000000	12.858900
1464.000000	12.839412
1465.000000	12.819910
1466.000000	12.801267
1467.000000	12.782750
1468.000000	12.764185
1469.000000	12.747145
1470.000000	12.730595
1471.000000	12.714923
1472.000000	12.698393
1473.000000	12.658380
1474.000000	12.618807
1475.000000	12.579095
1476.000000	12.540830
1477.000000	12.502287
1478.000000	12.465098
1479.000000	12.426740
1480.000000	12.389350
1481.000000	12.354658
1482.000000	12.321722
1483.000000	12.314417
1484.000000	12.306915
1485.000000	12.301258
1486.000000	12.295858
1487.000000	12.292158
1488.000000	12.289267
1489.000000	12.287920
1490.000000	12.285747
1491.000000	12.283092
1492.000000	12.280460
1493.000000	12.278825
1494.000000	12.278560
1495.000000	12.278825
1496.000000	12.279097
1497.000000	12.280767
1498.000000	12.284102
1499.000000	12.289080
1500.000000	12.295395
1501.000000	12.302450
1502.000000	12.311530
1503.000000	12.321972
1504.000000	12.333705
1505.000000	12.347033
1506.000000	12.362357
1507.000000	12.403248
1508.000000	12.444615
1509.000000	12.486107
1510.000000	12.528858
1511.000000	12.572180
1512.000000	12.616307
1513.000000	12.660705
1514.000000	12.705457
1515.000000	12.749160
1516.000000	12.792805
1517.000000	12.811825
1518.000000	12.830718
1519.000000	12.849805
1520.000000	12.868272
1521.000000	12.886610
1522.000000	12.903785
1523.000000	12.920240
1524.000000	12.936930
1525.000000	12.953883
1526.000000	12.970635
1527.000000	12.986752
1528.000000	13.002735
1529.000000	13.018402
1530.000000	13.058615
1531.000000	13.098410
1532.000000	13.138285
1533.000000	13.178255
1534.000000	13.217472
1535.000000	13.255732
1536.000000	13.293655
1537.000000	13.331215
1538.000000	13.367692
1539.000000	13.402515
1540.000000	13.412492
1541.000000	13.422590
1542.000000	13.431717
1543.000000	13.441057
1544.000000	13.451200
1545.000000	13.461892
1546.000000	13.472710
1547.000000	13.483380
1548.000000	13.495028
1549.000000	13.508593
1550.000000	13.522857
1551.000000	13.536652
1552.000000	13.552148
1553.000000	13.567083
1554.000000	13.580773
1555.000000	13.594497
1556.000000	13.608055
1557.000000	13.622088
1558.000000	13.634968
1559.000000	13.670462
1560.000000	13.704673
1561.000000	13.737305
1562.000000	13.767552
1563.000000	13.796860
1564.000000	13.825560
1565.000000	13.852602
1566.000000	13.878268
1567.000000	13.901940
1568.000000	13.924508
1569.000000	13.921865
1570.000000	13.918468
1571.000000	13.915748
1572.000000	13.913538
1573.000000	13.911533
1574.000000	13.909838
1575.000000	13.908283
1576.000000	13.906740
1577.000000	13.906575
1578.000000	13.908177
1579.000000	13.911330
1580.000000	13.915650
1581.000000	13.919993
1582.000000	13.924838
1583.000000	13.931217
1584.000000	13.938942
1585.000000	13.947737
1586.000000	13.957902
1587.000000	13.968303
1588.000000	13.978748
1589.000000	13.988643
1590.000000	13.999652
1591.000000	14.011902
1592.000000	14.024888
1593.000000	14.037575
1594.000000	14.049562
1595.000000	14.062392
1596.000000	14.075780
1597.000000	14.089755
1598.000000	14.105177
1599.000000	14.120915
1600.000000	14.135915
1601.000000	14.176588
1602.000000	14.217640
1603.000000	14.258878
1604.000000	14.301110
1605.000000	14.343655
1606.000000	14.385670
1607.000000	14.427400
1608.000000	14.467940
1609.000000	14.509133
1610.000000	14.550387
1611.000000	14.565975
1612.000000	14.581050
1613.000000	14.595145
1614.000000	14.608705
1615.000000	14.621940
1616.000000	14.634713
1617.000000	14.646475
1618.000000	14.657975
1619.000000	14.669307
1620.000000	14.679675
1621.000000	14.689900
1622.000000	14.699920
1623.000000	14.710268
1624.000000	14.720223
1625.000000	14.729045
1626.000000	14.738515
1627.000000	14.748395
1628.000000	14.783410
1629.000000	14.817800
1630.000000	14.851643
1631.000000	14.885725
1632.000000	14.919478
1633.000000	14.952150
1634.000000	14.984445
1635.000000	15.017452
1636.000000	15.049428
1637.000000	15.081250
1638.000000	15.087150
1639.000000	15.091940
1640.000000	15.097217
1641.000000	15.101325
1642.000000	15.104373
1643.000000	15.108212
1644.000000	15.111790
1645.000000	15.113405
1646.000000	15.114923
1647.000000	15.115765
1648.000000	15.116722
1649.000000	15.118383
1650.000000	15.118653
1651.000000	15.117293
1652.000000	15.115837
1653.000000	15.112345
1654.000000	15.107080
1655.000000	15.101475
1656.000000	15.094407
1657.000000	15.085855
1658.000000	15.049605
1659.000000	15.010848
1660.000000	14.969658
1661.000000	14.926855
1662.000000	14.881567
1663.000000	14.834060
1664.000000	14.784267
1665.000000	14.733033
1666.000000	14.678810
1667.000000	14.622730
1668.000000	14.586397
1669.000000	14.547765
1670.000000	14.485043
1671.000000	14.420875
1672.000000	14.356047
1673.000000	14.290687
1674.000000	14.226788
1675.000000	14.160970
1676.000000	14.096820
1677.000000	14.031848
1678.000000	13.969695
1679.000000	13.882505
1680.000000	13.817645
1681.000000	13.752812
1682.000000	13.685915
1683.000000	13.617743
1684.000000	13.548702
1685.000000	13.480998
1686.000000	13.414450
1687.000000	13.351835
1688.000000	13.294390
1689.000000	13.267990
1690.000000	13.249660
1691.000000	13.239065
1692.000000	13.236887
1693.000000	13.241752
1694.000000	13.252323
1695.000000	13.267540
1696.000000	13.284727
1697.000000	13.303230
1698.000000	13.322480
1699.000000	13.339118
1700.000000	13.352313
1701.000000	13.337453
1702.000000	13.319810
1703.000000	13.298985
1704.000000	13.274485
1705.000000	13.245895
1706.000000	13.215307
1707.000000	13.180975
1708.000000	13.143280
1709.000000	13.103520
1710.000000	13.060837
1711.000000	13.039480
1712.000000	13.013580
1713.000000	12.984140
1714.000000	12.950288
1715.000000	12.913790
1716.000000	12.873493
1717.000000	12.830550
1718.000000	12.758620
1719.000000	12.685472
1720.000000	12.613058
1721.000000	12.541132
1722.000000	12.471980
1723.000000	12.407907
1724.000000	12.349825
1725.000000	12.299010
1726.000000	12.255437
1727.000000	12.217810
1728.000000	12.213233
1729.000000	12.214725
1730.000000	12.220398
1731.000000	12.231718
1732.000000	12.246405
1733.000000	12.262738
1734.000000	12.280228
1735.000000	12.297192
1736.000000	12.314333
1737.000000	12.333120
1738.000000	12.352430
1739.000000	12.371738
1740.000000	12.392480
1741.000000	12.413552
1742.000000	12.459803
1743.000000	12.505625
1744.000000	12.551552
1745.000000	12.597870
1746.000000	12.643483
1747.000000	12.688307
1748.000000	12.731643
1749.000000	12.773853
1750.000000	12.813733
1751.000000	12.850928
1752.000000	12.860863
1753.000000	12.869240
1754.000000	12.876775
1755.000000	12.881560
1756.000000	12.885653
1757.000000	12.888188
1758.000000	12.889190
1759.000000	12.889740
1760.000000	12.889900
1761.000000	12.889518
1762.000000	12.890240
1763.000000	12.890395
1764.000000	12.890775
1765.000000	12.892830
1766.000000	12.895950
1767.000000	12.898997
1768.000000	12.903140
1769.000000	12.908568
1770.000000	12.915430
1771.000000	12.923935
1772.000000	12.932102
1773.000000	12.942415
1774.000000	12.952202
1775.000000	12.962115
1776.000000	12.972380
1777.000000	13.008550
1778.000000	13.045730
1779.000000	13.081795
1780.000000	13.117622
1781.000000	13.152530
1782.000000	13.187000
1783.000000	13.220150
1784.000000	13.252792
1785.000000	13.284675
1786.000000	13.314795
1787.000000	13.318327
1788.000000	13.320170
1789.000000	13.321682
1790.000000	13.322618
1791.000000	13.323288
1792.000000	13.324648
1793.000000	13.326538
1794.000000	13.329140
1795.000000	13.331810
1796.000000	13.334210
1797.000000	13.336840
1798.000000	13.339137
1799.000000	13.342238
1800.000000	13.346475
1801.000000	13.351353
1802.000000	13.355480
1803.000000	13.357615
1804.000000	13.358828
1805.000000	13.361677
1806.000000	13.366440
1807.000000	13.371703
1808.000000	13.375840
1809.000000	13.379118
1810.000000	13.381498
1811.000000	13.384692
1812.000000	13.388663
1813.000000	13.392722
1814.000000	13.397180
1815.000000	13.400768
1816.000000	13.401190
1817.000000	13.397020
1818.000000	13.391773
1819.000000	13.389730
1820.000000	13.393332
1821.000000	13.400375
1822.000000	13.403860
1823.000000	13.401620
1824.000000	13.394710
1825.000000	13.386717
1826.000000	13.381983
1827.000000	13.409045
1828.000000	13.440355
1829.000000	13.470227
1830.000000	13.496332
1831.000000	13.516502
1832.000000	13.536062
1833.000000	13.557965
1834.000000	13.583160
1835.000000	13.611192
1836.000000	13.641813
1837.000000	13.648400
1838.000000	13.653910
1839.000000	13.658927
1840.000000	13.665567
1841.000000	13.679802
1842.000000	13.698215
1843.000000	13.713880
1844.000000	13.720227
1845.000000	13.718765
1846.000000	13.718678
1847.000000	13.728107
1848.000000	13.745225
1849.000000	13.758190
1850.000000	13.758460
1851.000000	13.746868
1852.000000	13.734310
1853.000000	13.730353
1854.000000	13.737845
1855.000000	13.749542
1856.000000	13.751448
1857.000000	13.738148
1858.000000	13.718425
1859.000000	13.704452
1860.000000	13.698923
1861.000000	13.696298
1862.000000	13.689615
1863.000000	13.674087
1864.000000	13.625215
1865.000000	13.570900
1866.000000	13.514760
1867.000000	13.457052
1868.000000	13.395398
1869.000000	13.332300
1870.000000	13.271310
1871.000000	13.211898
1872.000000	13.131470
1873.000000	13.057847
1874.000000	13.012258
1875.000000	12.968355
1876.000000	12.923230
1877.000000	12.875600
1878.000000	12.797498
1879.000000	12.709413
1880.000000	12.608458
1881.000000	12.499205
1882.000000	12.383768
1883.000000	12.261190
1884.000000	12.134200
1885.000000	12.003258
1886.000000	11.867655
1887.000000	11.700615
1888.000000	11.554120
1889.000000	11.405890
1890.000000	11.258672
1891.000000	11.086270
1892.000000	10.934988
1893.000000	10.779478
1894.000000	10.619680
1895.000000	10.454635
1896.000000	10.261675
1897.000000	10.095180
1898.000000	9.932282
1899.000000	9.748468
1900.000000	9.564497
1901.000000	9.404495
1902.000000	9.244680
1903.000000	9.063930
1904.000000	8.889398
1905.000000	8.723700
1906.000000	8.591910
1907.000000	8.465200
1908.000000	8.313867
1909.000000	8.185940
1910.000000	8.060593
1911.000000	7.941185
1912.000000	7.830667
1913.000000	7.750475
1914.000000	7.648858
1915.000000	7.548587
1916.000000	7.448670
1917.000000	7.349838
1918.000000	7.281307
1919.000000	7.219558
1920.000000	7.164297
1921.000000	7.112300
1922.000000	7.060400
1923.000000	7.008227
1924.000000	6.981968
1925.000000	6.931710
1926.000000	6.887175
1927.000000	6.847910
1928.000000	6.811205
1929.000000	6.776487
1930.000000	6.741890
1931.000000	6.708155
1932.000000	6.674950
1933.000000	6.643110
1934.000000	6.613175
1935.000000	6.610957
1936.000000	6.609393
1937.000000	6.608785
1938.000000	6.610720
1939.000000	6.612393
1940.000000	6.616000
1941.000000	6.621045
1942.000000	6.627065
1943.000000	6.636113
1944.000000	6.645440
1945.000000	6.656397
1946.000000	6.666935
1947.000000	6.678273
1948.000000	6.690637
1949.000000	6.703005
1950.000000	6.714158
1951.000000	6.726032
1952.000000	6.764500
1953.000000	6.804157
1954.000000	6.845115
1955.000000	6.885988
1956.000000	6.926450
1957.000000	6.967742
1958.000000	7.007122
1959.000000	7.047980
1960.000000	7.090000
1961.000000	7.132263
1962.000000	7.148643
1963.000000	7.164570
1964.000000	7.180615
1965.000000	7.197670
1966.000000	7.214952
1967.000000	7.231220
1968.000000	7.248140
1969.000000	7.263830
1970.000000	7.279415
1971.000000	7.294105
1972.000000	7.310745
1973.000000	7.326038
1974.000000	7.341962
1975.000000	7.356108
1976.000000	7.395830
1977.000000	7.435948
1978.000000	7.476205
1979.000000	7.517680
1980.000000	7.560175
1981.000000	7.603055
1982.000000	7.643832
1983.000000	7.685585
1984.000000	7.726888
1985.000000	7.769432
1986.000000	7.786678
1987.000000	7.804430
1988.000000	7.821770
1989.000000	7.838470
1990.000000	7.854260
1991.000000	7.870048
1992.000000	7.886248
1993.000000	7.901620
1994.000000	7.917235
1995.000000	7.956265
1996.000000	7.996962
1997.000000	8.009737
1998.000000	8.046950
1999.000000	8.083645
2000.000000	8.119635
2001.000000	8.153560
2002.000000	8.187335
2003.000000	8.221312
2004.000000	8.253700
2005.000000	8.261427
2006.000000	8.266035
2007.000000	8.296187
2008.000000	8.299850
2009.000000	8.302112
2010.000000	8.303325
2011.000000	8.304118
2012.000000	8.304022
2013.000000	8.301712
2014.000000	8.298348
2015.000000	8.293180
2016.000000	8.287322
2017.000000	8.279760
2018.000000	8.271690
2019.000000	8.263125
2020.000000	8.252825
2021.000000	8.241017
2022.000000	8.227743
2023.000000	8.213083
2024.000000	8.198282
2025.000000	8.181797
2026.000000	8.164465
2027.000000	8.146645
2028.000000	8.127785
2029.000000	8.107830
2030.000000	8.087707
2031.000000	8.066883
2032.000000	8.019127
2033.000000	7.971535
2034.000000	7.922623
2035.000000	7.898513
2036.000000	7.848693
2037.000000	7.797588
2038.000000	7.745737
2039.000000	7.692925
2040.000000	7.639213
2041.000000	7.585145
2042.000000	7.555783
2043.000000	7.526435
2044.000000	7.496473
2045.000000	7.441537
2046.000000	7.412110
2047.000000	7.384050
2048.000000	7.357477
2049.000000	7.331925
2050.000000	7.307965
2051.000000	7.286690
2052.000000	7.268667
2053.000000	7.252735
2054.000000	7.240242
2055.000000	7.231117
2056.000000	7.225465
2057.000000	7.223830
2058.000000	7.224660
2059.000000	7.228447
2060.000000	7.235620
2061.000000	7.245068
2062.000000	7.256140
2063.000000	7.269827
2064.000000	7.284905
2065.000000	7.300688
2066.000000	7.317890
2067.000000	7.335555
2068.000000	7.353725
2069.000000	7.397170
2070.000000	7.414835
2071.000000	7.432683
2072.000000	7.475630
2073.000000	7.517267
2074.000000	7.558200
2075.000000	7.598265
2076.000000	7.636680
2077.000000	7.673370
2078.000000	7.708992
2079.000000	7.718840
2080.000000	7.752845
2081.000000	7.784945
2082.000000	7.790750
2083.000000	7.794878
2084.000000	7.796370
2085.000000	7.797015
2086.000000	7.796770
2087.000000	7.795483
2088.000000	7.793295
2089.000000	7.790190
2090.000000	7.785850
2091.000000	7.780858
2092.000000	7.775330
2093.000000	7.769755
2094.000000	7.764368
2095.000000	7.758860
2096.000000	7.753005
2097.000000	7.747187
2098.000000	7.741655
2099.000000	7.761345
2100.000000	7.756980
2101.000000	7.753367
2102.000000	7.748935
2103.000000	7.744215
2104.000000	7.740568
2105.000000	7.737123
2106.000000	7.734095
2107.000000	7.731928
2108.000000	7.729175
2109.000000	7.725912
2110.000000	7.747263
2111.000000	7.743012
2112.000000	7.764498
2113.000000	7.786825
2114.000000	7.808445
2115.000000	7.829435
2116.000000	7.849197
2117.000000	7.868130
2118.000000	7.887135
2119.000000	7.856198
2120.000000	7.824978
2121.000000	7.843110
2122.000000	7.810483
2123.000000	7.776278
2124.000000	7.741898
2125.000000	7.707510
2126.000000	7.672860
2127.000000	7.661985
2128.000000	7.650650
2129.000000	7.664055
2130.000000	7.676877
2131.000000	7.663948
2132.000000	7.675405
2133.000000	7.687417
2134.000000	7.673920
2135.000000	7.659715
2136.000000	7.644938
2137.000000	7.605582
2138.000000	7.565580
2139.000000	7.524850
2140.000000	7.484265
2141.000000	7.443835
2142.000000	7.402698
2143.000000	7.360965
2144.000000	7.344667
2145.000000	7.327560
2146.000000	7.310270
2147.000000	7.268145
2148.000000	7.226095
2149.000000	7.208748
2150.000000	7.190095
2151.000000	7.146578
2152.000000	7.104217
2153.000000	7.062063
2154.000000	7.019192
2155.000000	6.978397
2156.000000	6.939317
2157.000000	6.924335
2158.000000	6.909240
2159.000000	6.870068
2160.000000	6.833285
2161.000000	6.822287
2162.000000	6.786657
2163.000000	6.775810
2164.000000	6.742385
2165.000000	6.709023
2166.000000	6.675277
2167.000000	6.643150
2168.000000	6.611863
2169.000000	6.581163
2170.000000	6.574435
2171.000000	6.543502
2172.000000	6.538303
2173.000000	6.509715
2174.000000	6.529822
2175.000000	6.525498
2176.000000	6.522015
2177.000000	6.517750
2178.000000	6.514858
2179.000000	6.511615
2180.000000	6.482890
2181.000000	6.479153
2182.000000	6.475413
2183.000000	6.470695
2184.000000	6.440493
2185.000000	6.409520
2186.000000	6.376803
2187.000000	6.344337
2188.000000	6.310265
2189.000000	6.274468
2190.000000	6.238632
2191.000000	6.200640
2192.000000	6.160125
2193.000000	6.117810
2194.000000	6.073682
2195.000000	6.028107
2196.000000	5.981775
2197.000000	5.933772
2198.000000	5.884650
2199.000000	5.836737
2200.000000	5.788175
2201.000000	5.713995
2202.000000	5.640092
2203.000000	5.567780
2204.000000	5.497067
2205.000000	5.478695
2206.000000	5.436843
2207.000000	5.397317
2208.000000	5.359790
2209.000000	5.325025
2210.000000	5.292715
2211.000000	5.288350
2212.000000	5.288372
2213.000000	5.291008
2214.000000	5.295643
2215.000000	5.277865
2216.000000	5.286843
2217.000000	5.298305
2218.000000	5.311888
2219.000000	5.325910
2220.000000	5.341073
2221.000000	5.382817
2222.000000	5.400200
2223.000000	5.441825
2224.000000	5.484587
2225.000000	5.525017
2226.000000	5.566125
2227.000000	5.606520
2228.000000	5.645338
2229.000000	5.682945
2230.000000	5.719712
2231.000000	5.729538
2232.000000	5.762580
2233.000000	5.770857
2234.000000	5.801683
2235.000000	5.805998
2236.000000	5.808768
2237.000000	5.809010
2238.000000	5.808672
2239.000000	5.805590
2240.000000	5.801448
2241.000000	5.795825
2242.000000	5.789447
2243.000000	5.779960
2244.000000	5.745463
2245.000000	5.734667
2246.000000	5.748238
2247.000000	5.736430
2248.000000	5.747558
2249.000000	5.757817
2250.000000	5.742837
2251.000000	5.727375
2252.000000	5.735837
2253.000000	5.719772
2254.000000	5.702850
2255.000000	5.687603
2256.000000	5.646555
2257.000000	5.630508
2258.000000	5.614675
2259.000000	5.576758
2260.000000	5.564880
2261.000000	5.553772
2262.000000	5.518370
2263.000000	5.509065
2264.000000	5.527650
2265.000000	5.546782
2266.000000	5.566735
2267.000000	5.587460
2268.000000	5.586722
2269.000000	5.585627
2270.000000	5.585445
2271.000000	5.586712
2272.000000	5.587618
2273.000000	5.614758
2274.000000	5.617117
2275.000000	5.618773
2276.000000	5.621377
2277.000000	5.624948
2278.000000	5.652005
2279.000000	5.679360
2280.000000	5.706163
2281.000000	5.733223
2282.000000	5.760512
2283.000000	5.761843
2284.000000	5.786398
2285.000000	5.812698
2286.000000	5.838057
2287.000000	5.838648
2288.000000	5.814875
2289.000000	5.840440
2290.000000	5.865155
2291.000000	5.889845
2292.000000	5.915192
2293.000000	5.941720
2294.000000	5.942918
2295.000000	5.942870
2296.000000	5.944300
2297.000000	5.969690
2298.000000	5.994693
2299.000000	6.020758
2300.000000	6.022823
2301.000000	6.025227
2302.000000	6.052545
2303.000000	6.079322
2304.000000	6.107985
2305.000000	6.137345
2306.000000	6.166852
2307.000000	6.197480
2308.000000	6.203020
2309.000000	6.208543
2310.000000	6.239562
2311.000000	6.270915
2312.000000	6.277412
2313.000000	6.283577
2314.000000	6.288625
2315.000000	6.293200
2316.000000	6.322305
2317.000000	6.350808
2318.000000	6.403070
2319.000000	6.430142
2320.000000	6.431093
2321.000000	6.430928
2322.000000	6.455407
2323.000000	6.479375
2324.000000	6.502590
2325.000000	6.500243
2326.000000	6.471823
2327.000000	6.468445
2328.000000	6.466382
2329.000000	6.463627
2330.000000	6.484505
2331.000000	6.505185
2332.000000	6.502218
2333.000000	6.499948
2334.000000	6.498115
2335.000000	6.546722
2336.000000	6.596925
2337.000000	6.622147
2338.000000	6.622005
2339.000000	6.622310
2340.000000	6.649478
2341.000000	6.677848
2342.000000	6.704965
2343.000000	6.732138
2344.000000	6.759390
2345.000000	6.762757
2346.000000	6.766858
2347.000000	6.771918
2348.000000	6.801940
2349.000000	6.830670
2350.000000	6.832385
2351.000000	6.833770
2352.000000	6.836075
2353.000000	6.839010
2354.000000	6.842250
2355.000000	6.870215
2356.000000	6.871977
2357.000000	6.871760
2358.000000	6.896678
2359.000000	6.923582
2360.000000	6.952047
2361.000000	6.979425
2362.000000	7.005805
2363.000000	7.031855
2364.000000	7.032217
2365.000000	7.032032
2366.000000	7.032200
2367.000000	7.033010
2368.000000	7.033670
2369.000000	7.033865
2370.000000	7.034375
2371.000000	7.035560
2372.000000	7.036860
2373.000000	7.063310
2374.000000	7.114992
2375.000000	7.116860
2376.000000	7.168835
2377.000000	7.196428
2378.000000	7.198692
2379.000000	7.200683
2380.000000	7.202312
2381.000000	7.203265
2382.000000	7.204330
2383.000000	7.204925
2384.000000	7.180450
2385.000000	7.205353
2386.000000	7.204378
2387.000000	7.202815
2388.000000	7.175833
2389.000000	7.149437
2390.000000	7.147420
2391.000000	7.145300
2392.000000	7.167708
2393.000000	7.164522
2394.000000	7.186443
2395.000000	7.182870
2396.000000	7.178565
2397.000000	7.174375
2398.000000	7.220953
2399.000000	7.267223
2400.000000	7.287942
2401.000000	7.308745
2402.000000	7.304393
2403.000000	7.274515
2404.000000	7.269673
2405.000000	7.265050
2406.000000	7.260302
2407.000000	7.254590
2408.000000	7.272800
2409.000000	7.290445
2410.000000	7.284090
2411.000000	7.276923
2412.000000	7.293715
2413.000000	7.310990
2414.000000	7.303037
2415.000000	7.318665
2416.000000	7.308230
2417.000000	7.322858
2418.000000	7.288183
2419.000000	7.252572
2420.000000	7.265112
2421.000000	7.277135
2422.000000	7.265747
2423.000000	7.278870
2424.000000	7.265700
2425.000000	7.227958
2426.000000	7.240707
2427.000000	7.228498
2428.000000	7.215440
2429.000000	7.202175
2430.000000	7.189375
2431.000000	7.177060
2432.000000	7.164038
2433.000000	7.175878
2434.000000	7.187605
2435.000000	7.200317
2436.000000	7.187870
2437.000000	7.174735
2438.000000	7.211437
2439.000000	7.247810
2440.000000	7.209060
2441.000000	7.195075
2442.000000	7.206550
2443.000000	7.168842
2444.000000	7.181398
2445.000000	7.216145
2446.000000	7.227525
2447.000000	7.289095
2448.000000	7.276078
2449.000000	7.289620
2450.000000	7.354410
2451.000000	7.419803
2452.000000	7.459677
2453.000000	7.523053
2454.000000	7.561468
2455.000000	7.552717
2456.000000	7.542528
2457.000000	7.561207
2458.000000	7.630282
2459.000000	7.648772
2460.000000	7.689535
2461.000000	7.681575
2462.000000	7.724360
2463.000000	7.743972
2464.000000	7.788710
2465.000000	7.832790
2466.000000	7.952530
2467.000000	8.046235
2468.000000	8.140995
2469.000000	8.234180
2470.000000	8.332863
2471.000000	8.405038
2472.000000	8.379542
2473.000000	8.450762
2474.000000	8.549415
2475.000000	8.773568
2476.000000	8.924622
2477.000000	8.921325
2478.000000	8.993087
2479.000000	9.121298
2480.000000	9.194980
2481.000000	9.322917
2482.000000	9.523022
2483.000000	9.698190
2484.000000	9.825867
2485.000000	9.903522
2486.000000	10.055727
2487.000000	10.315115
2488.000000	10.472247
2489.000000	10.571642
2490.000000	10.801433
2491.000000	11.030875
2492.000000	11.309088
2493.000000	11.390265
2494.000000	11.590805
2495.000000	11.800610
2496.000000	11.957503
2497.000000	12.239133
2498.000000	12.523602
2499.000000	12.688137
2500.000000	12.798288
2501.000000	16.301380
2502.000000	19.831223
2503.000000	23.811367
2504.000000	27.668480
2505.000000	31.466985
2506.000000	35.567588
2507.000000	39.964205
2508.000000	44.159950
2509.000000	48.904440
2510.000000	53.500000
2511.000000	54.700000
2512.000000	55.700000
2513.000000	56.400000
2514.000000	57.300000
2515.000000	58.500000
2516.000000	59.800000
2517.000000	60.500000
2518.000000	61.600000
2519.000000	62.300000
2520.000000	63.400000
2521.000000	64.500000
2522.000000	65.500000
2523.000000	66.600000
2524.000000	67.700000
2525.000000	68.500000
2526.000000	69.200000
2527.000000	70.300000
2528.000000	71.300000
2529.000000	72.200000
2530.000000	72.300000
2531.000000	73.000000
2532.000000	74.300000
2533.000000	74.600000
2534.000000	75.100000
2535.000000	76.200000
2536.000000	76.800000
2537.000000	77.200000
2538.000000	77.200000
2539.000000	78.000000
2540.000000	79.200000
2541.000000	79.900000
2542.000000	80.200000
2543.000000	81.400000
2544.000000	82.000000
2545.000000	82.500000
2546.000000	83.300000
2547.000000	83.700000
2548.000000	84.600000
2549.000000	84.600000
2550.000000	84.200000
2551.000000	84.500000
2552.000000	84.700000
2553.000000	84.900000
2554.000000	85.400000
2555.000000	85.800000
2556.000000	85.800000
2557.000000	86.100000
2558.000000	86.400000
2559.000000	87.100000
2560.000000	88.600000
2561.000000	89.600000
2562.000000	90.100000
2563.000000	91.200000
2564.000000	92.000000
2565.000000	92.200000
2566.000000	93.200000
2567.000000	93.900000
2568.000000	94.700000
2569.000000	95.300000
2570.000000	95.400000
2571.000000	95.100000
2572.000000	95.500000
2573.000000	95.300000
2574.000000	95.600000
2575.000000	95.700000
2576.000000	94.900000
2577.000000	94.600000
2578.000000	94.700000
2579.000000	95.300000
2580.000000	95.200000
2581.000000	94.800000
2582.000000	94.300000
2583.000000	94.200000
2584.000000	94.200000
2585.000000	94.900000
2586.000000	96.200000
2587.000000	97.100000
2588.000000	97.300000
2589.000000	97.000000
2590.000000	97.600000
2591.000000	98.700000
2592.000000	100.600000
2593.000000	101.700000
2594.000000	101.400000
2595.000000	101.100000
2596.000000	100.500000
2597.000000	100.000000
2598.000000	99.200000
2599.000000	98.900000
2600.000000	98.900000
2601.000000	97.900000
2602.000000	96.300000
2603.000000	95.500000
2604.000000	95.800000
2605.000000	96.700000
2606.000000	98.000000
2607.000000	98.900000
2608.000000	99.700000
2609.000000	99.200000
2610.000000	99.000000
2611.000000	100.200000
2612.000000	100.900000
2613.000000	100.900000
2614.000000	100.900000
2615.000000	99.900000
2616.000000	98.300000
2617.000000	97.200000
2618.000000	96.400000
2619.000000	97.300000
2620.000000	97.900000
2621.000000	97.400000
2622.000000	97.300000
2623.000000	97.600000
2624.000000	97.900000
2625.000000	98.200000
2626.000000	98.300000
2627.000000	99.000000
2628.000000	100.300000
2629.000000	100.500000
2630.000000	100.000000
2631.000000	100.500000
2632.000000	100.900000
2633.000000	100.600000
2634.000000	100.400000
2635.000000	100.400000
2636.000000	101.000000
2637.000000	101.600000
2638.000000	101.000000
2639.000000	100.400000
2640.000000	100.000000
2641.000000	99.000000
2642.000000	98.200000
2643.000000	97.600000
2644.000000	97.300000
2645.000000	96.800000
2646.000000	96.300000
2647.000000	96.000000
2648.000000	96.400000
2649.000000	96.500000
2650.000000	97.100000
2651.000000	97.700000
2652.000000	97.600000
2653.000000	98.300000
2654.000000	98.300000
2655.000000	98.700000
2656.000000	98.600000
2657.000000	98.300000
2658.000000	97.600000
2659.000000	97.400000
2660.000000	96.800000
2661.000000	97.200000
2662.000000	97.500000
2663.000000	97.600000
2664.000000	98.000000
2665.000000	97.200000
2666.000000	97.600000
2667.000000	97.200000
2668.000000	96.600000
2669.000000	96.700000
2670.000000	97.200000
2671.000000	97.600000
2672.000000	97.700000
2673.000000	97.800000
2674.000000	97.900000
2675.000000	98.700000
2676.000000	97.800000
2677.000000	97.500000
2678.000000	97.500000
2679.000000	97.900000
2680.000000	98.300000
2681.000000	97.900000
2682.000000	98.000000
2683.000000	98.200000
2684.000000	98.400000
2685.000000	98.900000
2686.000000	100.200000
2687.000000	101.900000
2688.000000	103.200000
2689.000000	103.200000
2690.000000	102.100000
2691.000000	101.500000
2692.000000	102.100000
2693.000000	102.400000
2694.000000	101.900000
2695.000000	101.300000
2696.000000	100.300000
2697.000000	99.000000
2698.000000	98.600000
2699.000000	98.500000
2700.000000	99.500000
2701.000000	99.700000
2702.000000	98.600000
2703.000000	97.800000
2704.000000	98.200000
2705.000000	98.100000
2706.000000	98.300000
2707.000000	98.200000
2708.000000	98.700000
2709.000000	99.300000
2710.000000	99.600000
2711.000000	99.600000
2712.000000	100.100000
2713.000000	99.800000
2714.000000	99.800000
2715.000000	99.900000
2716.000000	100.600000
2717.000000	101.600000
2718.000000	100.500000
2719.000000	99.800000
2720.000000	99.300000
2721.000000	99.600000
2722.000000	99.800000
2723.000000	101.100000
2724.000000	100.400000
2725.000000	101.300000
2726.000000	101.600000
2727.000000	101.100000
2728.000000	101.400000
2729.000000	102.000000
2730.000000	102.000000
2731.000000	101.400000
2732.000000	100.300000
2733.000000	100.000000
2734.000000	100.600000
2735.000000	100.200000
2736.000000	99.000000
2737.000000	98.700000
2738.000000	99.400000
2739.000000	98.600000
2740.000000	99.100000
2741.000000	99.200000
2742.000000	100.100000
2743.000000	99.100000
2744.000000	98.600000
2745.000000	98.000000
2746.000000	98.800000
2747.000000	98.800000
2748.000000	98.000000
2749.000000	98.100000
2750.000000	98.100000
2751.000000	97.400000
2752.000000	97.000000
2753.000000	97.400000
2754.000000	98.300000
2755.000000	99.300000
2756.000000	98.900000
2757.000000	98.700000
2758.000000	99.100000
2759.000000	99.100000
2760.000000	98.100000
2761.000000	99.300000
2762.000000	98.900000
2763.000000	99.100000
2764.000000	98.800000
2765.000000	97.800000
2766.000000	97.800000
2767.000000	97.600000
2768.000000	97.500000
2769.000000	97.400000
2770.000000	98.000000
2771.000000	97.600000
2772.000000	98.200000
2773.000000	97.400000
2774.000000	96.600000
2775.000000	97.400000
2776.000000	98.200000
2777.000000	98.600000
2778.000000	98.300000
2779.000000	99.400000
2780.000000	99.000000
2781.000000	98.500000
2782.000000	98.400000
2783.000000	99.400000
2784.000000	99.900000
2785.000000	98.900000
2786.000000	98.000000
2787.000000	98.200000
2788.000000	98.100000
2789.000000	96.800000
2790.000000	97.500000
2791.000000	98.100000
2792.000000	98.800000
2793.000000	98.800000
2794.000000	98.600000
2795.000000	99.300000
2796.000000	100.100000
2797.000000	99.800000
2798.000000	100.000000
2799.000000	100.600000
2800.000000	100.200000
2801.000000	100.100000
2802.000000	99.700000
2803.000000	99.000000
2804.000000	98.900000
2805.000000	97.900000
2806.000000	97.200000
2807.000000	96.800000
2808.000000	96.900000
2809.000000	96.000000
2810.000000	95.200000
2811.000000	95.300000
2812.000000	95.700000
2813.000000	95.700000
2814.000000	95.900000
2815.000000	97.100000
2816.000000	96.800000
2817.000000	97.700000
2818.000000	98.400000
2819.000000	99.200000
2820.000000	99.300000
2821.000000	98.700000
2822.000000	97.700000
2823.000000	98.000000
2824.000000	97.400000
2825.000000	96.500000
2826.000000	96.800000
2827.000000	96.300000
2828.000000	95.600000
2829.000000	95.800000
2830.000000	96.700000
2831.000000	97.200000
2832.000000	97.500000
2833.000000	97.300000
2834.000000	97.200000
2835.000000	96.700000
2836.000000	96.300000
2837.000000	96.500000
2838.000000	96.900000
2839.000000	96.300000
2840.000000	95.800000
2841.000000	95.800000
2842.000000	96.100000
2843.000000	96.900000
2844.000000	97.800000
2845.000000	98.600000
2846.000000	99.100000
2847.000000	98.500000
2848.000000	97.600000
2849.000000	97.600000
2850.000000	97.800000
2851.000000	98.700000
2852.000000	100.300000
2853.000000	101.300000
2854.000000	102.000000
2855.000000	102.500000
2856.000000	102.800000
2857.000000	103.100000
2858.000000	103.700000
2859.000000	103.600000
2860.000000	103.300000
2861.000000	102.000000
2862.000000	99.200000
2863.000000	96.300000
2864.000000	94.900000
2865.000000	94.400000
2866.000000	94.000000
2867.000000	94.500000
2868.000000	94.800000
2869.000000	94.800000
2870.000000	94.100000
2871.000000	93.700000
2872.000000	95.100000
2873.000000	97.400000
2874.000000	98.300000
2875.000000	98.400000
2876.000000	98.300000
2877.000000	98.000000
2878.000000	97.200000
2879.000000	96.900000
2880.000000	97.600000
2881.000000	98.200000
2882.000000	97.800000
2883.000000	97.000000
2884.000000	96.800000
2885.000000	97.200000
2886.000000	98.100000
2887.000000	98.200000
2888.000000	98.600000
2889.000000	99.300000
2890.000000	99.200000
2891.000000	99.100000
2892.000000	98.600000
2893.000000	98.100000
2894.000000	97.700000
2895.000000	97.300000
2896.000000	96.200000
2897.000000	95.600000
2898.000000	95.500000
2899.000000	94.800000
2900.000000	94.600000
2901.000000	94.100000
2902.000000	94.200000
2903.000000	94.200000
2904.000000	94.300000
2905.000000	94.100000
2906.000000	93.900000
2907.000000	93.800000
2908.000000	93.900000
2909.000000	94.400000
2910.000000	94.600000
2911.000000	94.700000
2912.000000	94.600000
2913.000000	94.500000
2914.000000	93.800000
2915.000000	93.200000
2916.000000	93.200000
2917.000000	93.600000
2918.000000	93.600000
2919.000000	93.300000
2920.000000	93.600000
2921.000000	93.400000
2922.000000	93.000000
2923.000000	93.000000
2924.000000	93.500000
2925.000000	94.300000
2926.000000	94.100000
2927.000000	94.200000
2928.000000	94.100000
2929.000000	93.700000
2930.000000	93.400000
2931.000000	93.600000
2932.000000	93.400000
2933.000000	94.400000
2934.000000	95.000000
2935.000000	94.900000
2936.000000	95.100000
2937.000000	94.600000
2938.000000	94.100000
2939.000000	93.700000
2940.000000	93.400000
2941.000000	94.300000
2942.000000	95.300000
2943.000000	94.600000
2944.000000	93.900000
2945.000000	93.000000
2946.000000	93.100000
2947.000000	92.900000
2948.000000	93.400000
2949.000000	94.800000
2950.000000	95.300000
2951.000000	94.700000
2952.000000	94.900000
2953.000000	94.500000
2954.000000	94.800000
2955.000000	95.100000
2956.000000	94.800000
2957.000000	95.400000
2958.000000	95.300000
2959.000000	94.700000
2960.000000	94.200000
2961.000000	94.800000
2962.000000	94.400000
2963.000000	95.100000
2964.000000	94.400000
2965.000000	93.800000
2966.000000	94.300000
2967.000000	93.700000
2968.000000	94.600000
2969.000000	94.400000
2970.000000	94.300000
2971.000000	93.200000
2972.000000	93.800000
2973.000000	93.800000
2974.000000	94.600000
2975.000000	95.000000
2976.000000	94.600000
2977.000000	94.400000
2978.000000	94.300000
2979.000000	94.600000
2980.000000	94.500000
2981.000000	96.300000
2982.000000	95.200000
2983.000000	94.600000
2984.000000	94.200000
2985.000000	94.100000
2986.000000	94.200000
2987.000000	94.300000
2988.000000	93.200000
2989.000000	92.800000
2990.000000	93.600000
2991.000000	93.700000
2992.000000	94.300000
2993.000000	94.400000
2994.000000	94.600000
2995.000000	95.100000
2996.000000	95.200000
2997.000000	95.700000
2998.000000	95.800000
2999.000000	96.300000
3000.000000	95.200000
