PE UV       SUBTECH     SPECTRUM    ASCII       PEDS        4.00        
   -1
INBUCR0133-4.Sample.ASC
24/02/07
13:02:46.00
24/02/07
13:02:46.00
Vinicio Soto Monge
Pelidnota fromeri. Color café con ambos élitros (Det: A. Solís) COSTA RICA Prov. Guanacaste. Cañas. P.N. Volcán Tenorio. Río Martirio. La Rejolla. 1000-1100m 14-15 JUN 2007.  Tp. Luz Mercurio. L_N_292650_422850 #91628 INB0004090449
250,000000
1
Lambda 1050
1050L1511233
PerkinElmer UV WinLab 6.3.2.0749 / 2.02.05 Lambda 900 UV/VIS/NIR, Aug  7 2015 09:38:08

0
0
3350/servo 860,8/2
0
0
UV/VIS
1
1
1
DoubleDePol,CommonBeamDepol,RBeamAtt,SBeamAtt,60mm sphere, WB InGaAs Detector
0
0
0
0
Program
Program
3350/servo 860,8/2
3350/0,2 860,8/0,2
3350/0,2 860,8/0,2
0
15.00
 
 
 
0
 
860,8
319,2
860,8
Front
100
on
S:100 R:100
0
0
0
0
 
0
 
 
 
0
 
 
0
0
0
0
0
 
 
 
 
0
0


0
0
#HDR
-1
-1
#GR
nm
%R
1.0
0.0
2500,000000
-1,000000
2251
8
16,276000
1,207600
#DATA

250.000000	nan
251.000000	nan
252.000000	nan
253.000000	nan
254.000000	nan
255.000000	nan
256.000000	nan
257.000000	nan
258.000000	nan
259.000000	3.536883
260.000000	3.525644
261.000000	3.514278
262.000000	3.502808
263.000000	3.490931
264.000000	3.478460
265.000000	3.465303
266.000000	3.449956
267.000000	3.438304
268.000000	3.425822
269.000000	3.411464
270.000000	3.399123
271.000000	3.385647
272.000000	3.373247
273.000000	3.362724
274.000000	3.351188
275.000000	3.343075
276.000000	3.335618
277.000000	3.326696
278.000000	3.319264
279.000000	3.311741
280.000000	3.304710
281.000000	3.298140
282.000000	3.290802
283.000000	3.283285
284.000000	3.277338
285.000000	3.271094
286.000000	3.267273
287.000000	3.262066
288.000000	3.258439
289.000000	3.255963
290.000000	3.254164
291.000000	3.253683
292.000000	3.252325
293.000000	3.251419
294.000000	3.251319
295.000000	3.249254
296.000000	3.246904
297.000000	3.245783
298.000000	3.245758
299.000000	3.243815
300.000000	3.238370
301.000000	3.234810
302.000000	3.233583
303.000000	3.231392
304.000000	3.226903
305.000000	3.224411
306.000000	3.222452
307.000000	3.220218
308.000000	3.216341
309.000000	3.217397
310.000000	3.220662
311.000000	3.223472
312.000000	3.226150
313.000000	3.230803
314.000000	3.237443
315.000000	3.244661
316.000000	3.252484
317.000000	3.270623
318.000000	3.280543
319.000000	3.297932
320.000000	3.306252
321.000000	3.325877
322.000000	3.340007
323.000000	3.352015
324.000000	3.368722
325.000000	3.377952
326.000000	3.385374
327.000000	3.385714
328.000000	3.393179
329.000000	3.390766
330.000000	3.400151
331.000000	3.399306
332.000000	3.397183
333.000000	3.397504
334.000000	3.396915
335.000000	3.402425
336.000000	3.405974
337.000000	3.407867
338.000000	3.409303
339.000000	3.409507
340.000000	3.411320
341.000000	3.408743
342.000000	3.409868
343.000000	3.411403
344.000000	3.407399
345.000000	3.403211
346.000000	3.402487
347.000000	3.402424
348.000000	3.402730
349.000000	3.403150
350.000000	3.398681
351.000000	3.396668
352.000000	3.397685
353.000000	3.395129
354.000000	3.394625
355.000000	3.394921
356.000000	3.393598
357.000000	3.391466
358.000000	3.388095
359.000000	3.386262
360.000000	3.384926
361.000000	3.384642
362.000000	3.384941
363.000000	3.386036
364.000000	3.384149
365.000000	3.383427
366.000000	3.384799
367.000000	3.382438
368.000000	3.382622
369.000000	3.379487
370.000000	3.377592
371.000000	3.376601
372.000000	3.372338
373.000000	3.365548
374.000000	3.365463
375.000000	3.361139
376.000000	3.355192
377.000000	3.348343
378.000000	3.341101
379.000000	3.335907
380.000000	3.329723
381.000000	3.321334
382.000000	3.314998
383.000000	3.312010
384.000000	3.304295
385.000000	3.298556
386.000000	3.293318
387.000000	3.292240
388.000000	3.290431
389.000000	3.289099
390.000000	3.287875
391.000000	3.287058
392.000000	3.286093
393.000000	3.284713
394.000000	3.284053
395.000000	3.283655
396.000000	3.282853
397.000000	3.281900
398.000000	3.281336
399.000000	3.280835
400.000000	3.280443
401.000000	3.279852
402.000000	3.279647
403.000000	3.280168
404.000000	3.280456
405.000000	3.280734
406.000000	3.281569
407.000000	3.282725
408.000000	3.284537
409.000000	3.286116
410.000000	3.287591
411.000000	3.290026
412.000000	3.292583
413.000000	3.295227
414.000000	3.298328
415.000000	3.301808
416.000000	3.305890
417.000000	3.310261
418.000000	3.315110
419.000000	3.320398
420.000000	3.326237
421.000000	3.332363
422.000000	3.339021
423.000000	3.346074
424.000000	3.353471
425.000000	3.361262
426.000000	3.369434
427.000000	3.378361
428.000000	3.387439
429.000000	3.397024
430.000000	3.407311
431.000000	3.417577
432.000000	3.428595
433.000000	3.440157
434.000000	3.452186
435.000000	3.464996
436.000000	3.478256
437.000000	3.491760
438.000000	3.505396
439.000000	3.519599
440.000000	3.534320
441.000000	3.549768
442.000000	3.565392
443.000000	3.581243
444.000000	3.597488
445.000000	3.613936
446.000000	3.631031
447.000000	3.648633
448.000000	3.666693
449.000000	3.684983
450.000000	3.703571
451.000000	3.722614
452.000000	3.741909
453.000000	3.761504
454.000000	3.781615
455.000000	3.802255
456.000000	3.822620
457.000000	3.843274
458.000000	3.864703
459.000000	3.886244
460.000000	3.907889
461.000000	3.929448
462.000000	3.951869
463.000000	3.974582
464.000000	3.997276
465.000000	4.020059
466.000000	4.043300
467.000000	4.066948
468.000000	4.090780
469.000000	4.115205
470.000000	4.140112
471.000000	4.165679
472.000000	4.190963
473.000000	4.216861
474.000000	4.243557
475.000000	4.270950
476.000000	4.298814
477.000000	4.326995
478.000000	4.355423
479.000000	4.384319
480.000000	4.413667
481.000000	4.443371
482.000000	4.473706
483.000000	4.504845
484.000000	4.536708
485.000000	4.569287
486.000000	4.603318
487.000000	4.638569
488.000000	4.675032
489.000000	4.712461
490.000000	4.751099
491.000000	4.790850
492.000000	4.832268
493.000000	4.874972
494.000000	4.918649
495.000000	4.962627
496.000000	5.007084
497.000000	5.052354
498.000000	5.098408
499.000000	5.145477
500.000000	5.193347
501.000000	5.242217
502.000000	5.291290
503.000000	5.341124
504.000000	5.391438
505.000000	5.443435
506.000000	5.496261
507.000000	5.549207
508.000000	5.602747
509.000000	5.656698
510.000000	5.711592
511.000000	5.766866
512.000000	5.822840
513.000000	5.878870
514.000000	5.935491
515.000000	5.991964
516.000000	6.048798
517.000000	6.106489
518.000000	6.164518
519.000000	6.223226
520.000000	6.282421
521.000000	6.342204
522.000000	6.402543
523.000000	6.463625
524.000000	6.525119
525.000000	6.587592
526.000000	6.651002
527.000000	6.715172
528.000000	6.780284
529.000000	6.846236
530.000000	6.912524
531.000000	6.979836
532.000000	7.047781
533.000000	7.116646
534.000000	7.186480
535.000000	7.256914
536.000000	7.327886
537.000000	7.399751
538.000000	7.472252
539.000000	7.545315
540.000000	7.618976
541.000000	7.692984
542.000000	7.767289
543.000000	7.841638
544.000000	7.917285
545.000000	7.992993
546.000000	8.069124
547.000000	8.145102
548.000000	8.221371
549.000000	8.297743
550.000000	8.374017
551.000000	8.450781
552.000000	8.528195
553.000000	8.606116
554.000000	8.682888
555.000000	8.760131
556.000000	8.837218
557.000000	8.913891
558.000000	8.991041
559.000000	9.068140
560.000000	9.143071
561.000000	9.217199
562.000000	9.291214
563.000000	9.365190
564.000000	9.439533
565.000000	9.513222
566.000000	9.587206
567.000000	9.661716
568.000000	9.735417
569.000000	9.810094
570.000000	9.887240
571.000000	9.964511
572.000000	10.041767
573.000000	10.119576
574.000000	10.197546
575.000000	10.276265
576.000000	10.354872
577.000000	10.433312
578.000000	10.512138
579.000000	10.590207
580.000000	10.669606
581.000000	10.749915
582.000000	10.830264
583.000000	10.910224
584.000000	10.990964
585.000000	11.071575
586.000000	11.152795
587.000000	11.234732
588.000000	11.317217
589.000000	11.400189
590.000000	11.482215
591.000000	11.564666
592.000000	11.647351
593.000000	11.730262
594.000000	11.814160
595.000000	11.897571
596.000000	11.981818
597.000000	12.066486
598.000000	12.151012
599.000000	12.235090
600.000000	12.320147
601.000000	12.405513
602.000000	12.491719
603.000000	12.578289
604.000000	12.663455
605.000000	12.750353
606.000000	12.836025
607.000000	12.922237
608.000000	13.008872
609.000000	13.095562
610.000000	13.182026
611.000000	13.268346
612.000000	13.354466
613.000000	13.441024
614.000000	13.527334
615.000000	13.612907
616.000000	13.699262
617.000000	13.785128
618.000000	13.870871
619.000000	13.957022
620.000000	14.042430
621.000000	14.128173
622.000000	14.213937
623.000000	14.299417
624.000000	14.385758
625.000000	14.471643
626.000000	14.557734
627.000000	14.643102
628.000000	14.728761
629.000000	14.815263
630.000000	14.902111
631.000000	14.988420
632.000000	15.074286
633.000000	15.161235
634.000000	15.248493
635.000000	15.336316
636.000000	15.424637
637.000000	15.513239
638.000000	15.601553
639.000000	15.690727
640.000000	15.780307
641.000000	15.870350
642.000000	15.961643
643.000000	16.052059
644.000000	16.141857
645.000000	16.232458
646.000000	16.324179
647.000000	16.416751
648.000000	16.510095
649.000000	16.602447
650.000000	16.695638
651.000000	16.790268
652.000000	16.884526
653.000000	16.979406
654.000000	17.075141
655.000000	17.170577
656.000000	17.264624
657.000000	17.358501
658.000000	17.452110
659.000000	17.546592
660.000000	17.642190
661.000000	17.736215
662.000000	17.830487
663.000000	17.924590
664.000000	18.018884
665.000000	18.113223
666.000000	18.206863
667.000000	18.301054
668.000000	18.395492
669.000000	18.489790
670.000000	18.583064
671.000000	18.676483
672.000000	18.769261
673.000000	18.861327
674.000000	18.953378
675.000000	19.046424
676.000000	19.139802
677.000000	19.231518
678.000000	19.322844
679.000000	19.413464
680.000000	19.504023
681.000000	19.594141
682.000000	19.682971
683.000000	19.772410
684.000000	19.861749
685.000000	19.949206
686.000000	20.036278
687.000000	20.124155
688.000000	20.212964
689.000000	20.301247
690.000000	20.387460
691.000000	20.473418
692.000000	20.561130
693.000000	20.648810
694.000000	20.734542
695.000000	20.820945
696.000000	20.907835
697.000000	20.994871
698.000000	21.080652
699.000000	21.166095
700.000000	21.253754
701.000000	21.340647
702.000000	21.426583
703.000000	21.511614
704.000000	21.597345
705.000000	21.683289
706.000000	21.769303
707.000000	21.854005
708.000000	21.937047
709.000000	22.020040
710.000000	22.102723
711.000000	22.185599
712.000000	22.268800
713.000000	22.351695
714.000000	22.434027
715.000000	22.515836
716.000000	22.597753
717.000000	22.680637
718.000000	22.764401
719.000000	22.848840
720.000000	22.932595
721.000000	23.016365
722.000000	23.098485
723.000000	23.180335
724.000000	23.263408
725.000000	23.346541
726.000000	23.429368
727.000000	23.511962
728.000000	23.594834
729.000000	23.677902
730.000000	23.759458
731.000000	23.840559
732.000000	23.923880
733.000000	24.007460
734.000000	24.089336
735.000000	24.170303
736.000000	24.250925
737.000000	24.330965
738.000000	24.412307
739.000000	24.493860
740.000000	24.576081
741.000000	24.659601
742.000000	24.741003
743.000000	24.821185
744.000000	24.902331
745.000000	24.985055
746.000000	25.067447
747.000000	25.151010
748.000000	25.233333
749.000000	25.315073
750.000000	25.398365
751.000000	25.480937
752.000000	25.563515
753.000000	25.648588
754.000000	25.732479
755.000000	25.813819
756.000000	25.895853
757.000000	25.978530
758.000000	26.061515
759.000000	26.143561
760.000000	26.225149
761.000000	26.308156
762.000000	26.391284
763.000000	26.473049
764.000000	26.556603
765.000000	26.643413
766.000000	26.727988
767.000000	26.809720
768.000000	26.889924
769.000000	26.972487
770.000000	27.055837
771.000000	27.136552
772.000000	27.217732
773.000000	27.299185
774.000000	27.382858
775.000000	27.466080
776.000000	27.546707
777.000000	27.629198
778.000000	27.713667
779.000000	27.799032
780.000000	27.882886
781.000000	27.968017
782.000000	28.052913
783.000000	28.138965
784.000000	28.222782
785.000000	28.306199
786.000000	28.391955
787.000000	28.477427
788.000000	28.563496
789.000000	28.644838
790.000000	28.726578
791.000000	28.808786
792.000000	28.895143
793.000000	28.979194
794.000000	29.062943
795.000000	29.145105
796.000000	29.229611
797.000000	29.310853
798.000000	29.393492
799.000000	29.479917
800.000000	29.565543
801.000000	29.650699
802.000000	29.734117
803.000000	29.816719
804.000000	29.897795
805.000000	29.979080
806.000000	30.059749
807.000000	30.146795
808.000000	30.231689
809.000000	30.312586
810.000000	30.395986
811.000000	30.482123
812.000000	30.562218
813.000000	30.643927
814.000000	30.728182
815.000000	30.812966
816.000000	30.895404
817.000000	30.973265
818.000000	31.051876
819.000000	31.128906
820.000000	31.203195
821.000000	31.275760
822.000000	31.352063
823.000000	31.427260
824.000000	31.497035
825.000000	31.571374
826.000000	31.647079
827.000000	31.717313
828.000000	31.784421
829.000000	31.850252
830.000000	31.922605
831.000000	31.991346
832.000000	32.058096
833.000000	32.120864
834.000000	32.186478
835.000000	32.240758
836.000000	32.294439
837.000000	32.355530
838.000000	32.415138
839.000000	32.478115
840.000000	32.534930
841.000000	32.599953
842.000000	32.654782
843.000000	32.714924
844.000000	32.772261
845.000000	32.831433
846.000000	32.899531
847.000000	32.957283
848.000000	33.024226
849.000000	33.073974
850.000000	33.115557
851.000000	33.166219
852.000000	33.207600
853.000000	33.254492
854.000000	33.296321
855.000000	33.346288
856.000000	33.369840
857.000000	33.400992
858.000000	33.551033
859.000000	33.652746
860.000000	33.750628
861.000000	33.836623
862.000000	33.917983
863.000000	33.989768
864.000000	34.068060
865.000000	34.130338
866.000000	34.212365
867.000000	34.307183
868.000000	34.259847
869.000000	34.267308
870.000000	34.283645
871.000000	34.296300
872.000000	34.333825
873.000000	34.379672
874.000000	34.414147
875.000000	34.447630
876.000000	34.485058
877.000000	34.491955
878.000000	34.508180
879.000000	34.543695
880.000000	34.573583
881.000000	34.594813
882.000000	34.622082
883.000000	34.624310
884.000000	34.642740
885.000000	34.675425
886.000000	34.681038
887.000000	34.717055
888.000000	34.739120
889.000000	34.754387
890.000000	34.775483
891.000000	34.791992
892.000000	34.797145
893.000000	34.816032
894.000000	34.838232
895.000000	34.845923
896.000000	34.872460
897.000000	34.878660
898.000000	34.903070
899.000000	34.924753
900.000000	34.934540
901.000000	34.955143
902.000000	34.983818
903.000000	35.005660
904.000000	35.021955
905.000000	35.041760
906.000000	35.061155
907.000000	35.083515
908.000000	35.104188
909.000000	35.120542
910.000000	35.144407
911.000000	35.167178
912.000000	35.183953
913.000000	35.212830
914.000000	35.236605
915.000000	35.269225
916.000000	35.299805
917.000000	35.326728
918.000000	35.355088
919.000000	35.388100
920.000000	35.422848
921.000000	35.458813
922.000000	35.493882
923.000000	35.526515
924.000000	35.558290
925.000000	35.584020
926.000000	35.607925
927.000000	35.638285
928.000000	35.665467
929.000000	35.692580
930.000000	35.723470
931.000000	35.746398
932.000000	35.770857
933.000000	35.795113
934.000000	35.821875
935.000000	35.852177
936.000000	35.883375
937.000000	35.912420
938.000000	35.940705
939.000000	35.967455
940.000000	35.988737
941.000000	36.014740
942.000000	36.037222
943.000000	36.059602
944.000000	36.084983
945.000000	36.106700
946.000000	36.129297
947.000000	36.151477
948.000000	36.176965
949.000000	36.198082
950.000000	36.222522
951.000000	36.248445
952.000000	36.276590
953.000000	36.302688
954.000000	36.324270
955.000000	36.348770
956.000000	36.372962
957.000000	36.398882
958.000000	36.424065
959.000000	36.450425
960.000000	36.474335
961.000000	36.499110
962.000000	36.523565
963.000000	36.549095
964.000000	36.574872
965.000000	36.597135
966.000000	36.619203
967.000000	36.642562
968.000000	36.664475
969.000000	36.687530
970.000000	36.711180
971.000000	36.733723
972.000000	36.753390
973.000000	36.772608
974.000000	36.791200
975.000000	36.811078
976.000000	36.832268
977.000000	36.852300
978.000000	36.873020
979.000000	36.893093
980.000000	36.912767
981.000000	36.932350
982.000000	36.955355
983.000000	36.976548
984.000000	36.997895
985.000000	37.022027
986.000000	37.044985
987.000000	37.067325
988.000000	37.088315
989.000000	37.108745
990.000000	37.129180
991.000000	37.148582
992.000000	37.167195
993.000000	37.187712
994.000000	37.208688
995.000000	37.227500
996.000000	37.246458
997.000000	37.263912
998.000000	37.282835
999.000000	37.303758
1000.000000	37.324627
1001.000000	37.345755
1002.000000	37.367252
1003.000000	37.388035
1004.000000	37.408430
1005.000000	37.429507
1006.000000	37.449802
1007.000000	37.470287
1008.000000	37.490662
1009.000000	37.509665
1010.000000	37.528847
1011.000000	37.548245
1012.000000	37.567708
1013.000000	37.587375
1014.000000	37.606772
1015.000000	37.626777
1016.000000	37.647528
1017.000000	37.668518
1018.000000	37.690553
1019.000000	37.713968
1020.000000	37.737565
1021.000000	37.762370
1022.000000	37.787082
1023.000000	37.811452
1024.000000	37.836108
1025.000000	37.860773
1026.000000	37.885575
1027.000000	37.911660
1028.000000	37.937820
1029.000000	37.962612
1030.000000	37.987560
1031.000000	38.011313
1032.000000	38.034690
1033.000000	38.059823
1034.000000	38.084297
1035.000000	38.108128
1036.000000	38.133615
1037.000000	38.159633
1038.000000	38.183658
1039.000000	38.208208
1040.000000	38.232917
1041.000000	38.257245
1042.000000	38.281695
1043.000000	38.304235
1044.000000	38.327735
1045.000000	38.352322
1046.000000	38.376305
1047.000000	38.399640
1048.000000	38.423710
1049.000000	38.447745
1050.000000	38.472485
1051.000000	38.496947
1052.000000	38.521332
1053.000000	38.546135
1054.000000	38.570935
1055.000000	38.596073
1056.000000	38.620645
1057.000000	38.644260
1058.000000	38.668233
1059.000000	38.692867
1060.000000	38.717000
1061.000000	38.741752
1062.000000	38.767227
1063.000000	38.794090
1064.000000	38.819995
1065.000000	38.844867
1066.000000	38.869315
1067.000000	38.894377
1068.000000	38.919038
1069.000000	38.943162
1070.000000	38.967650
1071.000000	38.991750
1072.000000	39.014938
1073.000000	39.037253
1074.000000	39.058845
1075.000000	39.080795
1076.000000	39.103620
1077.000000	39.125193
1078.000000	39.147483
1079.000000	39.169285
1080.000000	39.189688
1081.000000	39.210137
1082.000000	39.230475
1083.000000	39.251325
1084.000000	39.272858
1085.000000	39.294080
1086.000000	39.314048
1087.000000	39.334257
1088.000000	39.353850
1089.000000	39.372695
1090.000000	39.391900
1091.000000	39.410415
1092.000000	39.429402
1093.000000	39.447660
1094.000000	39.464337
1095.000000	39.480515
1096.000000	39.496237
1097.000000	39.512225
1098.000000	39.528528
1099.000000	39.546392
1100.000000	39.561583
1101.000000	39.577827
1102.000000	39.593778
1103.000000	39.607928
1104.000000	39.623053
1105.000000	39.636395
1106.000000	39.650087
1107.000000	39.663562
1108.000000	39.674348
1109.000000	39.683633
1110.000000	39.694972
1111.000000	39.704655
1112.000000	39.711935
1113.000000	39.720305
1114.000000	39.727785
1115.000000	39.735280
1116.000000	39.741505
1117.000000	39.746243
1118.000000	39.750767
1119.000000	39.755237
1120.000000	39.758682
1121.000000	39.761662
1122.000000	39.765300
1123.000000	39.766917
1124.000000	39.766593
1125.000000	39.764565
1126.000000	39.759320
1127.000000	39.752785
1128.000000	39.745582
1129.000000	39.736238
1130.000000	39.722183
1131.000000	39.702895
1132.000000	39.679625
1133.000000	39.657080
1134.000000	39.635557
1135.000000	39.613665
1136.000000	39.588162
1137.000000	39.560850
1138.000000	39.531295
1139.000000	39.499277
1140.000000	39.468890
1141.000000	39.439338
1142.000000	39.410933
1143.000000	39.380408
1144.000000	39.347485
1145.000000	39.314495
1146.000000	39.285348
1147.000000	39.256482
1148.000000	39.227915
1149.000000	39.201168
1150.000000	39.173825
1151.000000	39.146113
1152.000000	39.118750
1153.000000	39.089303
1154.000000	39.058168
1155.000000	39.022773
1156.000000	38.984625
1157.000000	38.945093
1158.000000	38.903903
1159.000000	38.858022
1160.000000	38.808960
1161.000000	38.757790
1162.000000	38.703130
1163.000000	38.645533
1164.000000	38.586315
1165.000000	38.528365
1166.000000	38.469622
1167.000000	38.409920
1168.000000	38.349775
1169.000000	38.291275
1170.000000	38.235278
1171.000000	38.181435
1172.000000	38.129368
1173.000000	38.080935
1174.000000	38.036383
1175.000000	37.993045
1176.000000	37.954110
1177.000000	37.918260
1178.000000	37.884507
1179.000000	37.853215
1180.000000	37.822457
1181.000000	37.795450
1182.000000	37.771565
1183.000000	37.749698
1184.000000	37.730247
1185.000000	37.714827
1186.000000	37.701377
1187.000000	37.690308
1188.000000	37.683010
1189.000000	37.680785
1190.000000	37.684072
1191.000000	37.690900
1192.000000	37.702115
1193.000000	37.717805
1194.000000	37.736698
1195.000000	37.758350
1196.000000	37.783542
1197.000000	37.810920
1198.000000	37.840463
1199.000000	37.870688
1200.000000	37.902503
1201.000000	37.934418
1202.000000	37.965485
1203.000000	37.996022
1204.000000	38.026080
1205.000000	38.055392
1206.000000	38.083630
1207.000000	38.112450
1208.000000	38.141005
1209.000000	38.168993
1210.000000	38.196470
1211.000000	38.223715
1212.000000	38.250665
1213.000000	38.276593
1214.000000	38.301925
1215.000000	38.327030
1216.000000	38.352070
1217.000000	38.376492
1218.000000	38.400830
1219.000000	38.424440
1220.000000	38.447823
1221.000000	38.471410
1222.000000	38.494210
1223.000000	38.518127
1224.000000	38.541955
1225.000000	38.565483
1226.000000	38.587815
1227.000000	38.610135
1228.000000	38.631970
1229.000000	38.653703
1230.000000	38.675533
1231.000000	38.695833
1232.000000	38.716070
1233.000000	38.735178
1234.000000	38.753440
1235.000000	38.770853
1236.000000	38.788035
1237.000000	38.803467
1238.000000	38.818430
1239.000000	38.833220
1240.000000	38.847012
1241.000000	38.861947
1242.000000	38.877040
1243.000000	38.892742
1244.000000	38.909528
1245.000000	38.926862
1246.000000	38.944592
1247.000000	38.963685
1248.000000	38.984115
1249.000000	39.005835
1250.000000	39.026852
1251.000000	39.046197
1252.000000	39.066112
1253.000000	39.086195
1254.000000	39.105250
1255.000000	39.123265
1256.000000	39.141508
1257.000000	39.158200
1258.000000	39.171900
1259.000000	39.183370
1260.000000	39.194033
1261.000000	39.204668
1262.000000	39.214472
1263.000000	39.223035
1264.000000	39.230305
1265.000000	39.236612
1266.000000	39.241490
1267.000000	39.246815
1268.000000	39.252632
1269.000000	39.257130
1270.000000	39.261965
1271.000000	39.266888
1272.000000	39.270160
1273.000000	39.272922
1274.000000	39.276092
1275.000000	39.279935
1276.000000	39.284650
1277.000000	39.289532
1278.000000	39.295075
1279.000000	39.301763
1280.000000	39.308405
1281.000000	39.315510
1282.000000	39.324117
1283.000000	39.333272
1284.000000	39.343182
1285.000000	39.353345
1286.000000	39.363815
1287.000000	39.374455
1288.000000	39.384837
1289.000000	39.394928
1290.000000	39.405258
1291.000000	39.416560
1292.000000	39.428080
1293.000000	39.439115
1294.000000	39.448955
1295.000000	39.458500
1296.000000	39.467285
1297.000000	39.476043
1298.000000	39.484470
1299.000000	39.492130
1300.000000	39.498465
1301.000000	39.501978
1302.000000	39.503935
1303.000000	39.505113
1304.000000	39.505465
1305.000000	39.504385
1306.000000	39.501818
1307.000000	39.496890
1308.000000	39.491310
1309.000000	39.485053
1310.000000	39.478250
1311.000000	39.470527
1312.000000	39.461665
1313.000000	39.451655
1314.000000	39.440370
1315.000000	39.428128
1316.000000	39.413825
1317.000000	39.398460
1318.000000	39.381570
1319.000000	39.363658
1320.000000	39.344885
1321.000000	39.324780
1322.000000	39.303162
1323.000000	39.280355
1324.000000	39.256225
1325.000000	39.230497
1326.000000	39.204503
1327.000000	39.176890
1328.000000	39.147202
1329.000000	39.114965
1330.000000	39.080420
1331.000000	39.045092
1332.000000	39.008165
1333.000000	38.967903
1334.000000	38.924442
1335.000000	38.879317
1336.000000	38.832343
1337.000000	38.783925
1338.000000	38.733317
1339.000000	38.681673
1340.000000	38.626640
1341.000000	38.567437
1342.000000	38.505637
1343.000000	38.443243
1344.000000	38.379125
1345.000000	38.310495
1346.000000	38.239642
1347.000000	38.168118
1348.000000	38.093990
1349.000000	38.016280
1350.000000	37.937022
1351.000000	37.856880
1352.000000	37.774865
1353.000000	37.692765
1354.000000	37.615583
1355.000000	37.542822
1356.000000	37.469890
1357.000000	37.395165
1358.000000	37.320820
1359.000000	37.248188
1360.000000	37.183240
1361.000000	37.129628
1362.000000	37.077692
1363.000000	37.021955
1364.000000	36.965357
1365.000000	36.905343
1366.000000	36.841995
1367.000000	36.781063
1368.000000	36.719322
1369.000000	36.650695
1370.000000	36.571690
1371.000000	36.478060
1372.000000	36.371910
1373.000000	36.254013
1374.000000	36.118457
1375.000000	35.970310
1376.000000	35.809038
1377.000000	35.631763
1378.000000	35.441403
1379.000000	35.247190
1380.000000	35.051597
1381.000000	34.861245
1382.000000	34.682695
1383.000000	34.519073
1384.000000	34.364300
1385.000000	34.219525
1386.000000	34.091045
1387.000000	33.982143
1388.000000	33.889610
1389.000000	33.803905
1390.000000	33.720980
1391.000000	33.641882
1392.000000	33.564913
1393.000000	33.484697
1394.000000	33.412975
1395.000000	33.353845
1396.000000	33.293680
1397.000000	33.216745
1398.000000	33.130927
1399.000000	33.052837
1400.000000	32.986560
1401.000000	32.905383
1402.000000	32.808782
1403.000000	32.706805
1404.000000	32.599158
1405.000000	32.475415
1406.000000	32.344565
1407.000000	32.216865
1408.000000	32.089887
1409.000000	31.951945
1410.000000	31.794898
1411.000000	31.635803
1412.000000	31.481838
1413.000000	31.332635
1414.000000	31.181210
1415.000000	31.027542
1416.000000	30.870887
1417.000000	30.717220
1418.000000	30.567630
1419.000000	30.421820
1420.000000	30.277577
1421.000000	30.138632
1422.000000	30.005668
1423.000000	29.874627
1424.000000	29.744820
1425.000000	29.617540
1426.000000	29.498973
1427.000000	29.383752
1428.000000	29.269695
1429.000000	29.155145
1430.000000	29.048857
1431.000000	28.950450
1432.000000	28.854257
1433.000000	28.758840
1434.000000	28.665855
1435.000000	28.580195
1436.000000	28.495605
1437.000000	28.415795
1438.000000	28.337370
1439.000000	28.263232
1440.000000	28.190862
1441.000000	28.118635
1442.000000	28.048500
1443.000000	27.979143
1444.000000	27.913378
1445.000000	27.852900
1446.000000	27.794463
1447.000000	27.731243
1448.000000	27.668285
1449.000000	27.608272
1450.000000	27.550210
1451.000000	27.494220
1452.000000	27.436877
1453.000000	27.380223
1454.000000	27.323585
1455.000000	27.263520
1456.000000	27.205072
1457.000000	27.149055
1458.000000	27.094020
1459.000000	27.038325
1460.000000	26.981045
1461.000000	26.922675
1462.000000	26.865477
1463.000000	26.809432
1464.000000	26.752640
1465.000000	26.695830
1466.000000	26.638988
1467.000000	26.582628
1468.000000	26.526222
1469.000000	26.471443
1470.000000	26.417785
1471.000000	26.365237
1472.000000	26.314098
1473.000000	26.262872
1474.000000	26.212425
1475.000000	26.162748
1476.000000	26.114600
1477.000000	26.068338
1478.000000	26.025180
1479.000000	25.981580
1480.000000	25.940967
1481.000000	25.902085
1482.000000	25.864592
1483.000000	25.829865
1484.000000	25.797925
1485.000000	25.768692
1486.000000	25.740910
1487.000000	25.716390
1488.000000	25.693662
1489.000000	25.672920
1490.000000	25.651837
1491.000000	25.632703
1492.000000	25.615855
1493.000000	25.601180
1494.000000	25.588825
1495.000000	25.577710
1496.000000	25.569608
1497.000000	25.563485
1498.000000	25.559843
1499.000000	25.559382
1500.000000	25.562918
1501.000000	25.569978
1502.000000	25.581425
1503.000000	25.597788
1504.000000	25.617948
1505.000000	25.642235
1506.000000	25.668798
1507.000000	25.698765
1508.000000	25.732212
1509.000000	25.768570
1510.000000	25.806875
1511.000000	25.847240
1512.000000	25.888755
1513.000000	25.931018
1514.000000	25.973458
1515.000000	26.017055
1516.000000	26.061520
1517.000000	26.106167
1518.000000	26.151440
1519.000000	26.196137
1520.000000	26.241225
1521.000000	26.286133
1522.000000	26.329597
1523.000000	26.372160
1524.000000	26.414082
1525.000000	26.455610
1526.000000	26.497368
1527.000000	26.539313
1528.000000	26.579185
1529.000000	26.619322
1530.000000	26.658590
1531.000000	26.697065
1532.000000	26.735565
1533.000000	26.773080
1534.000000	26.810228
1535.000000	26.845923
1536.000000	26.880633
1537.000000	26.914105
1538.000000	26.946810
1539.000000	26.977413
1540.000000	27.006920
1541.000000	27.035987
1542.000000	27.064550
1543.000000	27.093215
1544.000000	27.121587
1545.000000	27.149750
1546.000000	27.179255
1547.000000	27.209335
1548.000000	27.239645
1549.000000	27.271558
1550.000000	27.305483
1551.000000	27.339240
1552.000000	27.373715
1553.000000	27.408722
1554.000000	27.443125
1555.000000	27.476795
1556.000000	27.507703
1557.000000	27.536380
1558.000000	27.564190
1559.000000	27.589685
1560.000000	27.610643
1561.000000	27.628413
1562.000000	27.643302
1563.000000	27.655072
1564.000000	27.664257
1565.000000	27.670910
1566.000000	27.674455
1567.000000	27.675495
1568.000000	27.674000
1569.000000	27.670618
1570.000000	27.667385
1571.000000	27.663890
1572.000000	27.659165
1573.000000	27.653823
1574.000000	27.648665
1575.000000	27.645443
1576.000000	27.644525
1577.000000	27.644490
1578.000000	27.645850
1579.000000	27.648260
1580.000000	27.651853
1581.000000	27.658070
1582.000000	27.667368
1583.000000	27.678553
1584.000000	27.691410
1585.000000	27.705842
1586.000000	27.722080
1587.000000	27.740170
1588.000000	27.760215
1589.000000	27.782790
1590.000000	27.806225
1591.000000	27.830307
1592.000000	27.855255
1593.000000	27.881210
1594.000000	27.908505
1595.000000	27.936845
1596.000000	27.966363
1597.000000	27.997140
1598.000000	28.029280
1599.000000	28.062493
1600.000000	28.097648
1601.000000	28.133540
1602.000000	28.169752
1603.000000	28.207017
1604.000000	28.245345
1605.000000	28.283683
1606.000000	28.321845
1607.000000	28.360292
1608.000000	28.398010
1609.000000	28.434228
1610.000000	28.470108
1611.000000	28.504843
1612.000000	28.538038
1613.000000	28.569270
1614.000000	28.599255
1615.000000	28.627480
1616.000000	28.654157
1617.000000	28.679875
1618.000000	28.704085
1619.000000	28.727865
1620.000000	28.749073
1621.000000	28.769695
1622.000000	28.790680
1623.000000	28.811397
1624.000000	28.830890
1625.000000	28.850772
1626.000000	28.869650
1627.000000	28.888205
1628.000000	28.907728
1629.000000	28.926920
1630.000000	28.945650
1631.000000	28.966202
1632.000000	28.985812
1633.000000	29.005532
1634.000000	29.024295
1635.000000	29.042305
1636.000000	29.060375
1637.000000	29.076780
1638.000000	29.090630
1639.000000	29.101740
1640.000000	29.113518
1641.000000	29.122257
1642.000000	29.129865
1643.000000	29.136170
1644.000000	29.141633
1645.000000	29.144570
1646.000000	29.146092
1647.000000	29.145680
1648.000000	29.145717
1649.000000	29.144035
1650.000000	29.140225
1651.000000	29.131455
1652.000000	29.119758
1653.000000	29.106390
1654.000000	29.089537
1655.000000	29.069543
1656.000000	29.044513
1657.000000	29.013350
1658.000000	28.976187
1659.000000	28.935545
1660.000000	28.889980
1661.000000	28.840780
1662.000000	28.786240
1663.000000	28.727135
1664.000000	28.661650
1665.000000	28.591683
1666.000000	28.519805
1667.000000	28.446505
1668.000000	28.364947
1669.000000	28.279122
1670.000000	28.187215
1671.000000	28.092715
1672.000000	27.994518
1673.000000	27.891390
1674.000000	27.787430
1675.000000	27.681610
1676.000000	27.571530
1677.000000	27.458815
1678.000000	27.346835
1679.000000	27.233583
1680.000000	27.120855
1681.000000	27.005050
1682.000000	26.887867
1683.000000	26.772422
1684.000000	26.658902
1685.000000	26.545328
1686.000000	26.437667
1687.000000	26.335270
1688.000000	26.245053
1689.000000	26.166708
1690.000000	26.100038
1691.000000	26.047413
1692.000000	26.012075
1693.000000	25.987170
1694.000000	25.972760
1695.000000	25.969055
1696.000000	25.971345
1697.000000	25.979778
1698.000000	25.988675
1699.000000	25.995380
1700.000000	26.000280
1701.000000	26.003357
1702.000000	25.998372
1703.000000	25.989497
1704.000000	25.976657
1705.000000	25.957287
1706.000000	25.932435
1707.000000	25.900630
1708.000000	25.860717
1709.000000	25.815245
1710.000000	25.764060
1711.000000	25.703292
1712.000000	25.636235
1713.000000	25.561195
1714.000000	25.477083
1715.000000	25.386378
1716.000000	25.287900
1717.000000	25.185430
1718.000000	25.080588
1719.000000	24.972857
1720.000000	24.862680
1721.000000	24.758282
1722.000000	24.659652
1723.000000	24.566842
1724.000000	24.485285
1725.000000	24.415602
1726.000000	24.360195
1727.000000	24.319108
1728.000000	24.292050
1729.000000	24.277167
1730.000000	24.275057
1731.000000	24.282595
1732.000000	24.298095
1733.000000	24.323315
1734.000000	24.355175
1735.000000	24.392880
1736.000000	24.435308
1737.000000	24.480438
1738.000000	24.527915
1739.000000	24.580537
1740.000000	24.635195
1741.000000	24.691510
1742.000000	24.751010
1743.000000	24.811725
1744.000000	24.871675
1745.000000	24.932762
1746.000000	24.992160
1747.000000	25.049220
1748.000000	25.104810
1749.000000	25.157598
1750.000000	25.206837
1751.000000	25.251727
1752.000000	25.291505
1753.000000	25.326342
1754.000000	25.356525
1755.000000	25.381603
1756.000000	25.403725
1757.000000	25.423135
1758.000000	25.439988
1759.000000	25.454270
1760.000000	25.467312
1761.000000	25.479533
1762.000000	25.491865
1763.000000	25.504663
1764.000000	25.520760
1765.000000	25.538680
1766.000000	25.557277
1767.000000	25.578627
1768.000000	25.601772
1769.000000	25.626337
1770.000000	25.653728
1771.000000	25.682882
1772.000000	25.713680
1773.000000	25.746353
1774.000000	25.778345
1775.000000	25.810782
1776.000000	25.844835
1777.000000	25.878217
1778.000000	25.911250
1779.000000	25.943060
1780.000000	25.973500
1781.000000	26.002672
1782.000000	26.029300
1783.000000	26.053690
1784.000000	26.076250
1785.000000	26.096747
1786.000000	26.114235
1787.000000	26.128827
1788.000000	26.140215
1789.000000	26.150490
1790.000000	26.161548
1791.000000	26.172067
1792.000000	26.182110
1793.000000	26.192435
1794.000000	26.203273
1795.000000	26.214607
1796.000000	26.226228
1797.000000	26.238243
1798.000000	26.250667
1799.000000	26.264563
1800.000000	26.278185
1801.000000	26.293372
1802.000000	26.310053
1803.000000	26.323957
1804.000000	26.336143
1805.000000	26.349858
1806.000000	26.365535
1807.000000	26.381705
1808.000000	26.396680
1809.000000	26.409977
1810.000000	26.424827
1811.000000	26.440973
1812.000000	26.455892
1813.000000	26.472363
1814.000000	26.490015
1815.000000	26.506288
1816.000000	26.517508
1817.000000	26.522585
1818.000000	26.527010
1819.000000	26.536707
1820.000000	26.552045
1821.000000	26.569268
1822.000000	26.582775
1823.000000	26.589128
1824.000000	26.590010
1825.000000	26.589267
1826.000000	26.594523
1827.000000	26.607952
1828.000000	26.625520
1829.000000	26.640963
1830.000000	26.651580
1831.000000	26.656115
1832.000000	26.661065
1833.000000	26.670828
1834.000000	26.684565
1835.000000	26.703148
1836.000000	26.725297
1837.000000	26.748422
1838.000000	26.770888
1839.000000	26.792390
1840.000000	26.814992
1841.000000	26.845163
1842.000000	26.878960
1843.000000	26.907120
1844.000000	26.924335
1845.000000	26.932600
1846.000000	26.940828
1847.000000	26.958867
1848.000000	26.983682
1849.000000	27.001895
1850.000000	27.004620
1851.000000	26.993890
1852.000000	26.982348
1853.000000	26.978460
1854.000000	26.986063
1855.000000	26.996600
1856.000000	26.994948
1857.000000	26.976492
1858.000000	26.951705
1859.000000	26.931260
1860.000000	26.918995
1861.000000	26.908990
1862.000000	26.891363
1863.000000	26.865145
1864.000000	26.826767
1865.000000	26.778425
1866.000000	26.724680
1867.000000	26.665530
1868.000000	26.594550
1869.000000	26.520502
1870.000000	26.443333
1871.000000	26.361543
1872.000000	26.279955
1873.000000	26.195353
1874.000000	26.107297
1875.000000	26.018068
1876.000000	25.922262
1877.000000	25.814222
1878.000000	25.696303
1879.000000	25.559897
1880.000000	25.406668
1881.000000	25.239510
1882.000000	25.057173
1883.000000	24.865465
1884.000000	24.666845
1885.000000	24.455848
1886.000000	24.232868
1887.000000	24.001252
1888.000000	23.759050
1889.000000	23.511895
1890.000000	23.256508
1891.000000	22.997295
1892.000000	22.730950
1893.000000	22.452160
1894.000000	22.161748
1895.000000	21.861310
1896.000000	21.553317
1897.000000	21.242740
1898.000000	20.934895
1899.000000	20.624465
1900.000000	20.309830
1901.000000	19.989397
1902.000000	19.668187
1903.000000	19.351980
1904.000000	19.045130
1905.000000	18.751695
1906.000000	18.466125
1907.000000	18.190148
1908.000000	17.916307
1909.000000	17.643540
1910.000000	17.382758
1911.000000	17.132967
1912.000000	16.901667
1913.000000	16.680930
1914.000000	16.469507
1915.000000	16.261133
1916.000000	16.065725
1917.000000	15.877517
1918.000000	15.699195
1919.000000	15.540303
1920.000000	15.393775
1921.000000	15.259870
1922.000000	15.131303
1923.000000	15.006225
1924.000000	14.885670
1925.000000	14.777347
1926.000000	14.678367
1927.000000	14.586523
1928.000000	14.505968
1929.000000	14.428925
1930.000000	14.359555
1931.000000	14.296097
1932.000000	14.236223
1933.000000	14.187085
1934.000000	14.147332
1935.000000	14.111973
1936.000000	14.081213
1937.000000	14.061253
1938.000000	14.046228
1939.000000	14.040945
1940.000000	14.037693
1941.000000	14.038468
1942.000000	14.042908
1943.000000	14.053955
1944.000000	14.068210
1945.000000	14.091890
1946.000000	14.118222
1947.000000	14.144255
1948.000000	14.174385
1949.000000	14.202295
1950.000000	14.235160
1951.000000	14.273135
1952.000000	14.315640
1953.000000	14.363510
1954.000000	14.412925
1955.000000	14.460988
1956.000000	14.510595
1957.000000	14.560962
1958.000000	14.613320
1959.000000	14.671230
1960.000000	14.730533
1961.000000	14.788393
1962.000000	14.845830
1963.000000	14.898372
1964.000000	14.954010
1965.000000	15.009527
1966.000000	15.065675
1967.000000	15.125248
1968.000000	15.184428
1969.000000	15.239338
1970.000000	15.290798
1971.000000	15.345382
1972.000000	15.398830
1973.000000	15.456335
1974.000000	15.512513
1975.000000	15.565920
1976.000000	15.622610
1977.000000	15.676835
1978.000000	15.730652
1979.000000	15.788535
1980.000000	15.847342
1981.000000	15.902417
1982.000000	15.960652
1983.000000	16.018453
1984.000000	16.075030
1985.000000	16.135708
1986.000000	16.193995
1987.000000	16.252933
1988.000000	16.310313
1989.000000	16.365700
1990.000000	16.421585
1991.000000	16.476255
1992.000000	16.529945
1993.000000	16.578020
1994.000000	16.628985
1995.000000	16.679172
1996.000000	16.726717
1997.000000	16.774358
1998.000000	16.820955
1999.000000	16.865468
2000.000000	16.906073
2001.000000	16.946877
2002.000000	16.983458
2003.000000	17.022055
2004.000000	17.055228
2005.000000	17.084838
2006.000000	17.114160
2007.000000	17.139760
2008.000000	17.161770
2009.000000	17.181497
2010.000000	17.197060
2011.000000	17.208510
2012.000000	17.216915
2013.000000	17.224008
2014.000000	17.228147
2015.000000	17.225410
2016.000000	17.216810
2017.000000	17.202750
2018.000000	17.184425
2019.000000	17.162845
2020.000000	17.141780
2021.000000	17.116545
2022.000000	17.088210
2023.000000	17.052670
2024.000000	17.012437
2025.000000	16.967432
2026.000000	16.920000
2027.000000	16.872478
2028.000000	16.821702
2029.000000	16.765528
2030.000000	16.703218
2031.000000	16.635908
2032.000000	16.566267
2033.000000	16.493493
2034.000000	16.417358
2035.000000	16.339652
2036.000000	16.262750
2037.000000	16.180010
2038.000000	16.092935
2039.000000	16.000530
2040.000000	15.907585
2041.000000	15.815340
2042.000000	15.719268
2043.000000	15.617915
2044.000000	15.516428
2045.000000	15.418967
2046.000000	15.320045
2047.000000	15.222440
2048.000000	15.131435
2049.000000	15.044973
2050.000000	14.960905
2051.000000	14.885380
2052.000000	14.820403
2053.000000	14.768453
2054.000000	14.723605
2055.000000	14.686830
2056.000000	14.661702
2057.000000	14.650227
2058.000000	14.650380
2059.000000	14.662538
2060.000000	14.686705
2061.000000	14.714105
2062.000000	14.750158
2063.000000	14.793290
2064.000000	14.842865
2065.000000	14.898550
2066.000000	14.957080
2067.000000	15.018017
2068.000000	15.081130
2069.000000	15.146625
2070.000000	15.212003
2071.000000	15.281812
2072.000000	15.349122
2073.000000	15.413037
2074.000000	15.482115
2075.000000	15.552582
2076.000000	15.621080
2077.000000	15.687475
2078.000000	15.746118
2079.000000	15.799550
2080.000000	15.851307
2081.000000	15.896848
2082.000000	15.937617
2083.000000	15.977005
2084.000000	16.010865
2085.000000	16.034973
2086.000000	16.052763
2087.000000	16.062975
2088.000000	16.068985
2089.000000	16.077928
2090.000000	16.085570
2091.000000	16.090545
2092.000000	16.093435
2093.000000	16.091378
2094.000000	16.086605
2095.000000	16.084418
2096.000000	16.086435
2097.000000	16.090562
2098.000000	16.096988
2099.000000	16.101440
2100.000000	16.101945
2101.000000	16.103955
2102.000000	16.103260
2103.000000	16.104298
2104.000000	16.104020
2105.000000	16.100658
2106.000000	16.093017
2107.000000	16.086485
2108.000000	16.083122
2109.000000	16.077295
2110.000000	16.076973
2111.000000	16.075997
2112.000000	16.078337
2113.000000	16.081508
2114.000000	16.083018
2115.000000	16.079348
2116.000000	16.078005
2117.000000	16.075125
2118.000000	16.062343
2119.000000	16.056045
2120.000000	16.045468
2121.000000	16.028445
2122.000000	16.011228
2123.000000	15.989910
2124.000000	15.972443
2125.000000	15.947655
2126.000000	15.915685
2127.000000	15.881350
2128.000000	15.853865
2129.000000	15.821232
2130.000000	15.784785
2131.000000	15.748962
2132.000000	15.711308
2133.000000	15.674537
2134.000000	15.624102
2135.000000	15.578743
2136.000000	15.542948
2137.000000	15.495352
2138.000000	15.442390
2139.000000	15.376715
2140.000000	15.309025
2141.000000	15.248500
2142.000000	15.184652
2143.000000	15.113575
2144.000000	15.054038
2145.000000	14.980160
2146.000000	14.900045
2147.000000	14.827495
2148.000000	14.756445
2149.000000	14.679922
2150.000000	14.604747
2151.000000	14.527400
2152.000000	14.444820
2153.000000	14.356482
2154.000000	14.264873
2155.000000	14.199082
2156.000000	14.138155
2157.000000	14.076308
2158.000000	14.003903
2159.000000	13.948665
2160.000000	13.894085
2161.000000	13.825382
2162.000000	13.767397
2163.000000	13.729512
2164.000000	13.687135
2165.000000	13.637408
2166.000000	13.591362
2167.000000	13.548215
2168.000000	13.509347
2169.000000	13.467820
2170.000000	13.420575
2171.000000	13.391542
2172.000000	13.355620
2173.000000	13.320078
2174.000000	13.291293
2175.000000	13.254505
2176.000000	13.225050
2177.000000	13.193785
2178.000000	13.171527
2179.000000	13.148135
2180.000000	13.142225
2181.000000	13.126262
2182.000000	13.110032
2183.000000	13.084903
2184.000000	13.063290
2185.000000	13.058165
2186.000000	13.029583
2187.000000	13.007573
2188.000000	12.981888
2189.000000	12.964668
2190.000000	12.930335
2191.000000	12.889348
2192.000000	12.864997
2193.000000	12.834980
2194.000000	12.798775
2195.000000	12.755850
2196.000000	12.717427
2197.000000	12.664015
2198.000000	12.616270
2199.000000	12.555758
2200.000000	12.497452
2201.000000	12.451963
2202.000000	12.398297
2203.000000	12.344247
2204.000000	12.287727
2205.000000	12.235945
2206.000000	12.182658
2207.000000	12.155922
2208.000000	12.128858
2209.000000	12.108555
2210.000000	12.101100
2211.000000	12.098747
2212.000000	12.106503
2213.000000	12.127445
2214.000000	12.148788
2215.000000	12.171730
2216.000000	12.205227
2217.000000	12.238048
2218.000000	12.280935
2219.000000	12.330965
2220.000000	12.381583
2221.000000	12.427072
2222.000000	12.469280
2223.000000	12.514762
2224.000000	12.566790
2225.000000	12.629253
2226.000000	12.682505
2227.000000	12.729342
2228.000000	12.768062
2229.000000	12.811165
2230.000000	12.849205
2231.000000	12.887445
2232.000000	12.916630
2233.000000	12.950085
2234.000000	12.979380
2235.000000	12.993430
2236.000000	13.011740
2237.000000	13.020802
2238.000000	13.033195
2239.000000	13.023140
2240.000000	13.011220
2241.000000	12.994967
2242.000000	12.972993
2243.000000	12.928088
2244.000000	12.889320
2245.000000	12.842490
2246.000000	12.793102
2247.000000	12.739437
2248.000000	12.677800
2249.000000	12.625480
2250.000000	12.568217
2251.000000	12.511170
2252.000000	12.451885
2253.000000	12.397190
2254.000000	12.333153
2255.000000	12.269642
2256.000000	12.197040
2257.000000	12.117648
2258.000000	12.048298
2259.000000	11.981150
2260.000000	11.915765
2261.000000	11.855847
2262.000000	11.795775
2263.000000	11.740213
2264.000000	11.688208
2265.000000	11.642505
2266.000000	11.605805
2267.000000	11.586050
2268.000000	11.556935
2269.000000	11.535692
2270.000000	11.513460
2271.000000	11.489752
2272.000000	11.474048
2273.000000	11.462410
2274.000000	11.455687
2275.000000	11.458110
2276.000000	11.462582
2277.000000	11.464305
2278.000000	11.470115
2279.000000	11.470125
2280.000000	11.475660
2281.000000	11.483140
2282.000000	11.486870
2283.000000	11.490737
2284.000000	11.487082
2285.000000	11.479627
2286.000000	11.483445
2287.000000	11.483828
2288.000000	11.481215
2289.000000	11.469670
2290.000000	11.462792
2291.000000	11.454610
2292.000000	11.455895
2293.000000	11.448177
2294.000000	11.439335
2295.000000	11.435895
2296.000000	11.433632
2297.000000	11.430715
2298.000000	11.430668
2299.000000	11.432923
2300.000000	11.438872
2301.000000	11.454115
2302.000000	11.463292
2303.000000	11.484622
2304.000000	11.519253
2305.000000	11.545265
2306.000000	11.557295
2307.000000	11.578500
2308.000000	11.606920
2309.000000	11.646665
2310.000000	11.677923
2311.000000	11.699053
2312.000000	11.723905
2313.000000	11.753665
2314.000000	11.775493
2315.000000	11.798747
2316.000000	11.832115
2317.000000	11.861630
2318.000000	11.897922
2319.000000	11.931465
2320.000000	11.962990
2321.000000	11.995102
2322.000000	12.016725
2323.000000	12.023808
2324.000000	12.028937
2325.000000	12.043610
2326.000000	12.055967
2327.000000	12.062265
2328.000000	12.044970
2329.000000	12.028800
2330.000000	12.026578
2331.000000	12.022135
2332.000000	12.028425
2333.000000	12.046378
2334.000000	12.066653
2335.000000	12.073010
2336.000000	12.067672
2337.000000	12.068410
2338.000000	12.088883
2339.000000	12.113983
2340.000000	12.126947
2341.000000	12.150778
2342.000000	12.171050
2343.000000	12.176765
2344.000000	12.194890
2345.000000	12.218410
2346.000000	12.254198
2347.000000	12.303940
2348.000000	12.341503
2349.000000	12.366440
2350.000000	12.395692
2351.000000	12.413997
2352.000000	12.434453
2353.000000	12.469240
2354.000000	12.502840
2355.000000	12.539703
2356.000000	12.572430
2357.000000	12.588460
2358.000000	12.605208
2359.000000	12.619627
2360.000000	12.626207
2361.000000	12.639267
2362.000000	12.660230
2363.000000	12.683178
2364.000000	12.692918
2365.000000	12.694332
2366.000000	12.708160
2367.000000	12.737550
2368.000000	12.766827
2369.000000	12.811485
2370.000000	12.843845
2371.000000	12.864427
2372.000000	12.884877
2373.000000	12.897400
2374.000000	12.917997
2375.000000	12.931532
2376.000000	12.947335
2377.000000	12.960952
2378.000000	12.968658
2379.000000	12.966252
2380.000000	12.983327
2381.000000	13.015283
2382.000000	13.034017
2383.000000	13.046617
2384.000000	13.058137
2385.000000	13.091350
2386.000000	13.102290
2387.000000	13.095652
2388.000000	13.103557
2389.000000	13.099870
2390.000000	13.086400
2391.000000	13.083992
2392.000000	13.096258
2393.000000	13.105412
2394.000000	13.118575
2395.000000	13.117860
2396.000000	13.102550
2397.000000	13.095217
2398.000000	13.095322
2399.000000	13.113217
2400.000000	13.131272
2401.000000	13.119440
2402.000000	13.092718
2403.000000	13.089535
2404.000000	13.077882
2405.000000	13.050828
2406.000000	13.036545
2407.000000	13.053327
2408.000000	13.056220
2409.000000	13.055113
2410.000000	13.054150
2411.000000	13.039455
2412.000000	13.028075
2413.000000	13.013462
2414.000000	12.996287
2415.000000	13.010805
2416.000000	13.034033
2417.000000	13.021360
2418.000000	12.994230
2419.000000	12.958065
2420.000000	12.924928
2421.000000	12.927395
2422.000000	12.926382
2423.000000	12.895605
2424.000000	12.884900
2425.000000	12.847350
2426.000000	12.807247
2427.000000	12.763903
2428.000000	12.744837
2429.000000	12.727875
2430.000000	12.714530
2431.000000	12.680338
2432.000000	12.638412
2433.000000	12.623738
2434.000000	12.596290
2435.000000	12.562373
2436.000000	12.513400
2437.000000	12.470320
2438.000000	12.425398
2439.000000	12.381908
2440.000000	12.304690
2441.000000	12.243050
2442.000000	12.189668
2443.000000	12.091310
2444.000000	12.017822
2445.000000	11.982600
2446.000000	11.910860
2447.000000	11.872488
2448.000000	11.859295
2449.000000	11.845448
2450.000000	11.858223
2451.000000	11.907833
2452.000000	11.941965
2453.000000	12.005958
2454.000000	12.008030
2455.000000	11.968273
2456.000000	11.998732
2457.000000	12.021135
2458.000000	11.990172
2459.000000	11.982500
2460.000000	11.969162
2461.000000	11.873525
2462.000000	11.855810
2463.000000	11.857767
2464.000000	11.858322
2465.000000	11.935370
2466.000000	11.986352
2467.000000	12.020520
2468.000000	12.076755
2469.000000	12.109510
2470.000000	12.167722
2471.000000	12.280143
2472.000000	12.331768
2473.000000	12.432885
2474.000000	12.599735
2475.000000	12.649350
2476.000000	12.677140
2477.000000	12.783500
2478.000000	12.872210
2479.000000	12.992043
2480.000000	13.127433
2481.000000	13.204615
2482.000000	13.323778
2483.000000	13.368987
2484.000000	13.499955
2485.000000	13.666932
2486.000000	13.871382
2487.000000	13.977300
2488.000000	14.046132
2489.000000	14.137845
2490.000000	14.213692
2491.000000	14.423777
2492.000000	14.559535
2493.000000	14.744480
2494.000000	14.827108
2495.000000	14.971172
2496.000000	15.086660
2497.000000	15.300820
2498.000000	15.524775
2499.000000	15.755408
2500.000000	15.934477
2501.000000	19.333688
2502.000000	22.897417
2503.000000	26.730140
2504.000000	30.652858
2505.000000	34.527268
2506.000000	38.637725
2507.000000	42.861268
2508.000000	47.400228
2509.000000	51.599405
2510.000000	56.000530
2511.000000	57.278660
2512.000000	58.396360
2513.000000	59.573120
2514.000000	60.995690
2515.000000	62.334320
2516.000000	63.793010
2517.000000	65.086830
2518.000000	65.574440
2519.000000	66.635770
2520.000000	67.678150
2521.000000	68.816280
2522.000000	69.930440
2523.000000	70.346640
2524.000000	71.225700
2525.000000	71.833360
2526.000000	72.364250
2527.000000	72.860840
2528.000000	73.945020
2529.000000	74.679730
2530.000000	75.673620
2531.000000	76.065200
2532.000000	76.382410
2533.000000	77.417310
2534.000000	77.997760
2535.000000	78.412100
2536.000000	78.366790
2537.000000	79.260400
2538.000000	79.787500
2539.000000	80.618370
2540.000000	81.176350
2541.000000	82.301670
2542.000000	83.440860
2543.000000	84.373060
2544.000000	84.494220
2545.000000	85.346770
2546.000000	86.735960
2547.000000	87.200810
2548.000000	88.165830
2549.000000	88.904290
2550.000000	89.798130
2551.000000	90.062390
2552.000000	89.697490
2553.000000	89.396020
2554.000000	89.696910
2555.000000	90.023200
2556.000000	90.265070
2557.000000	90.516660
2558.000000	90.647060
2559.000000	90.387090
2560.000000	89.789960
2561.000000	89.881460
2562.000000	90.535780
2563.000000	90.718530
2564.000000	90.744210
2565.000000	91.208610
2566.000000	91.794280
2567.000000	92.646040
2568.000000	92.762630
2569.000000	93.120350
2570.000000	93.704970
2571.000000	94.009450
2572.000000	94.452080
2573.000000	95.126640
2574.000000	95.687780
2575.000000	95.759770
2576.000000	95.955020
2577.000000	95.926270
2578.000000	96.377790
2579.000000	97.231970
2580.000000	97.928310
2581.000000	97.995690
2582.000000	98.075570
2583.000000	98.394010
2584.000000	98.363650
2585.000000	97.825920
2586.000000	97.063140
2587.000000	96.906680
2588.000000	97.205210
2589.000000	97.022990
2590.000000	96.795580
2591.000000	97.268490
2592.000000	97.987870
2593.000000	98.722970
2594.000000	99.680150
2595.000000	100.959810
2596.000000	101.585020
2597.000000	101.127510
2598.000000	100.625440
2599.000000	100.417040
2600.000000	99.969090
2601.000000	99.252870
2602.000000	99.229880
2603.000000	99.324780
2604.000000	99.526070
2605.000000	99.657600
2606.000000	99.827990
2607.000000	101.115760
2608.000000	101.521770
2609.000000	101.023650
2610.000000	101.268050
2611.000000	101.542020
2612.000000	100.701580
2613.000000	99.489530
2614.000000	98.363140
2615.000000	97.824080
2616.000000	97.574860
2617.000000	96.614880
2618.000000	96.251800
2619.000000	97.155520
2620.000000	97.713370
2621.000000	98.242360
2622.000000	98.604150
2623.000000	98.516400
2624.000000	98.606930
2625.000000	98.225190
2626.000000	98.084670
2627.000000	98.856420
2628.000000	99.632110
2629.000000	99.320560
2630.000000	99.851560
2631.000000	100.517470
2632.000000	100.852930
2633.000000	101.065980
2634.000000	101.236300
2635.000000	101.351770
2636.000000	101.671630
2637.000000	101.393420
2638.000000	101.059820
2639.000000	101.392350
2640.000000	100.810300
2641.000000	99.994040
2642.000000	99.627290
2643.000000	99.872250
2644.000000	100.183220
2645.000000	100.014320
2646.000000	99.538720
2647.000000	99.027230
2648.000000	98.974080
2649.000000	98.453760
2650.000000	98.189610
2651.000000	97.974180
2652.000000	98.183370
2653.000000	98.328720
2654.000000	98.516290
2655.000000	99.722010
2656.000000	100.529090
2657.000000	100.870320
2658.000000	101.303530
2659.000000	101.384830
2660.000000	101.301320
2661.000000	101.432320
2662.000000	101.760300
2663.000000	101.548380
2664.000000	101.607050
2665.000000	100.653230
2666.000000	100.067920
2667.000000	100.238220
2668.000000	99.550340
2669.000000	99.587340
2670.000000	99.971510
2671.000000	100.498200
2672.000000	100.531150
2673.000000	101.320720
2674.000000	101.372230
2675.000000	101.705260
2676.000000	102.174000
2677.000000	101.392080
2678.000000	101.931700
2679.000000	101.911710
2680.000000	101.498660
2681.000000	100.787490
2682.000000	100.272790
2683.000000	99.073000
2684.000000	98.671690
2685.000000	99.131550
2686.000000	98.543350
2687.000000	98.694730
2688.000000	97.980370
2689.000000	97.898550
2690.000000	97.943280
2691.000000	98.196470
2692.000000	98.930950
2693.000000	100.090700
2694.000000	100.197670
2695.000000	99.804370
2696.000000	100.193780
2697.000000	100.754920
2698.000000	100.596680
2699.000000	100.666600
2700.000000	99.969020
2701.000000	99.630040
2702.000000	98.912460
2703.000000	97.474390
2704.000000	97.967150
2705.000000	97.675740
2706.000000	98.485090
2707.000000	98.467880
2708.000000	99.065920
2709.000000	98.858050
2710.000000	99.557160
2711.000000	100.008460
2712.000000	99.144050
2713.000000	100.001360
2714.000000	99.829590
2715.000000	100.044290
2716.000000	99.642940
2717.000000	99.767930
2718.000000	100.599160
2719.000000	101.456400
2720.000000	102.395010
2721.000000	101.179170
2722.000000	102.641790
2723.000000	102.331810
2724.000000	101.752140
2725.000000	101.568080
2726.000000	100.207810
2727.000000	100.133930
2728.000000	99.557510
2729.000000	99.250620
2730.000000	97.798600
2731.000000	99.042610
2732.000000	99.132240
2733.000000	99.102710
2734.000000	100.196130
2735.000000	99.786680
2736.000000	100.567870
2737.000000	100.436130
2738.000000	99.875610
2739.000000	99.465970
2740.000000	100.585120
2741.000000	100.892960
2742.000000	101.378130
2743.000000	101.413840
2744.000000	100.488350
2745.000000	101.366700
2746.000000	100.565710
2747.000000	100.329430
2748.000000	101.501360
2749.000000	102.060380
2750.000000	101.025290
2751.000000	101.800860
2752.000000	100.644960
2753.000000	101.085530
2754.000000	101.774980
2755.000000	101.060950
2756.000000	102.984940
2757.000000	102.838690
2758.000000	101.894980
2759.000000	102.476340
2760.000000	102.924470
2761.000000	101.463810
2762.000000	101.770050
2763.000000	102.032820
2764.000000	101.960440
2765.000000	101.888980
2766.000000	101.071030
2767.000000	101.627570
2768.000000	101.996440
2769.000000	101.519010
2770.000000	101.606990
2771.000000	101.460560
2772.000000	102.280300
2773.000000	102.056340
2774.000000	101.349850
2775.000000	101.892540
2776.000000	101.573430
2777.000000	102.170480
2778.000000	101.446670
2779.000000	101.430340
2780.000000	101.270840
2781.000000	102.007350
2782.000000	102.255920
2783.000000	102.993870
2784.000000	103.315930
2785.000000	102.372360
2786.000000	102.385200
2787.000000	101.817260
2788.000000	102.001720
2789.000000	101.564060
2790.000000	102.690060
2791.000000	101.795050
2792.000000	100.241610
2793.000000	99.147450
2794.000000	99.228150
2795.000000	99.930580
2796.000000	100.195800
2797.000000	99.845530
2798.000000	100.081510
2799.000000	100.689630
2800.000000	100.101740
2801.000000	101.141250
2802.000000	100.978180
2803.000000	101.804940
2804.000000	102.292840
2805.000000	102.509770
2806.000000	102.588520
2807.000000	102.678430
2808.000000	102.229030
2809.000000	101.838280
2810.000000	101.684420
2811.000000	101.761710
2812.000000	102.464890
2813.000000	102.041630
2814.000000	101.488330
2815.000000	100.871350
2816.000000	100.252270
2817.000000	99.646800
2818.000000	99.619710
2819.000000	99.180870
2820.000000	98.990430
2821.000000	98.620880
2822.000000	98.589140
2823.000000	98.877010
2824.000000	98.903040
2825.000000	99.733710
2826.000000	100.469720
2827.000000	100.560960
2828.000000	100.178990
2829.000000	100.797490
2830.000000	101.106980
2831.000000	100.876860
2832.000000	100.341910
2833.000000	100.121140
2834.000000	100.005730
2835.000000	99.475620
2836.000000	99.008980
2837.000000	99.448200
2838.000000	100.771020
2839.000000	100.460810
2840.000000	100.020380
2841.000000	100.652760
2842.000000	100.870870
2843.000000	100.393180
2844.000000	100.690240
2845.000000	101.441160
2846.000000	102.086710
2847.000000	102.610750
2848.000000	101.874910
2849.000000	101.591940
2850.000000	102.192420
2851.000000	102.375280
2852.000000	103.094780
2853.000000	103.521240
2854.000000	103.429590
2855.000000	103.648530
2856.000000	103.637980
2857.000000	103.677490
2858.000000	104.151020
2859.000000	104.841870
2860.000000	104.980760
2861.000000	104.553490
2862.000000	104.150170
2863.000000	104.642710
2864.000000	104.880570
2865.000000	104.127640
2866.000000	103.782620
2867.000000	103.925120
2868.000000	104.299460
2869.000000	103.752000
2870.000000	102.732180
2871.000000	102.300980
2872.000000	102.319720
2873.000000	101.793190
2874.000000	101.402900
2875.000000	101.860370
2876.000000	102.201790
2877.000000	101.865530
2878.000000	100.898640
2879.000000	101.082510
2880.000000	101.613650
2881.000000	101.469600
2882.000000	101.230790
2883.000000	101.263680
2884.000000	101.642180
2885.000000	101.634220
2886.000000	100.970280
2887.000000	100.676930
2888.000000	101.238050
2889.000000	101.248300
2890.000000	100.948130
2891.000000	100.539840
2892.000000	100.006170
2893.000000	99.650580
2894.000000	98.892330
2895.000000	98.510680
2896.000000	99.066930
2897.000000	99.046400
2898.000000	98.232810
2899.000000	97.596550
2900.000000	97.410500
2901.000000	97.886950
2902.000000	99.051810
2903.000000	99.555040
2904.000000	99.264630
2905.000000	99.033730
2906.000000	98.912110
2907.000000	98.949290
2908.000000	99.445020
2909.000000	100.486610
2910.000000	101.012380
2911.000000	101.156060
2912.000000	100.564790
2913.000000	100.071810
2914.000000	100.846290
2915.000000	101.692690
2916.000000	101.781460
2917.000000	101.920710
2918.000000	102.117170
2919.000000	101.493290
2920.000000	101.351160
2921.000000	101.438000
2922.000000	102.104550
2923.000000	102.678930
2924.000000	102.537360
2925.000000	102.122360
2926.000000	102.287220
2927.000000	102.515570
2928.000000	102.340890
2929.000000	102.333140
2930.000000	102.078060
2931.000000	101.732430
2932.000000	101.185530
2933.000000	100.883010
2934.000000	100.626440
2935.000000	100.224510
2936.000000	99.364500
2937.000000	98.674760
2938.000000	98.404130
2939.000000	98.818700
2940.000000	99.061470
2941.000000	99.430410
2942.000000	99.561180
2943.000000	99.445460
2944.000000	100.403690
2945.000000	100.042890
2946.000000	100.200140
2947.000000	100.414290
2948.000000	100.179980
2949.000000	100.258300
2950.000000	100.730150
2951.000000	100.610600
2952.000000	99.919590
2953.000000	99.871700
2954.000000	99.388680
2955.000000	99.997460
2956.000000	99.611110
2957.000000	99.885980
2958.000000	99.876210
2959.000000	99.294810
2960.000000	98.813170
2961.000000	98.843680
2962.000000	99.399080
2963.000000	99.141480
2964.000000	99.626740
2965.000000	99.217030
2966.000000	99.270430
2967.000000	98.787500
2968.000000	98.589270
2969.000000	98.731470
2970.000000	99.559010
2971.000000	100.116760
2972.000000	100.775780
2973.000000	101.626230
2974.000000	100.933510
2975.000000	101.412780
2976.000000	101.269940
2977.000000	101.540700
2978.000000	101.384990
2979.000000	100.339580
2980.000000	99.062350
2981.000000	97.553040
2982.000000	97.095380
2983.000000	96.162340
2984.000000	96.370880
2985.000000	96.386170
2986.000000	96.939990
2987.000000	97.262180
2988.000000	98.568230
2989.000000	100.486500
2990.000000	100.335530
2991.000000	101.774400
2992.000000	101.349390
2993.000000	101.648050
2994.000000	101.655960
2995.000000	100.990120
2996.000000	100.685220
2997.000000	100.924740
2998.000000	100.475640
2999.000000	99.698330
3000.000000	100.207560
