PE UV       SUBTECH     SPECTRUM    ASCII       PEDS        4.00        
   -1
BIOUCR0008-3.Sample.ASC
24/02/19
14:10:31.00
24/02/19
14:10:31.00
Vinicio Soto Monge
P. chalcotea
250,000000
1
Lambda 1050
1050L1511233
PerkinElmer UV WinLab 6.3.2.0749 / 2.02.05 Lambda 900 UV/VIS/NIR, Aug  7 2015 09:38:08

0
0
3350/servo 860,8/2
0
0
UV/VIS
1
1
1
DoubleDePol,CommonBeamDepol,RBeamAtt,SBeamAtt,60mm sphere, WB InGaAs Detector
0
0
0
0
Program
Program
3350/servo 860,8/2
3350/0,2 860,8/0,2
3350/0,2 860,8/0,2
0
15.00
 
 
 
0
 
860,8
319,2
860,8
Front
100
on
S:100 R:100
0
0
0
0
 
0
 
 
 
0
 
 
0
0
0
0
0
 
 
 
 
0
0


0
0
#HDR
-1
-1
#GR
nm
%R
1.0
0.0
2500,000000
-1,000000
2251
8
18,268700
1,514200
#DATA

250.000000	0.087847
251.000000	0.107397
252.000000	0.098145
253.000000	0.096655
254.000000	0.113622
255.000000	0.094631
256.000000	0.096266
257.000000	0.106277
258.000000	0.094422
259.000000	0.099424
260.000000	0.076955
261.000000	0.104291
262.000000	0.094711
263.000000	0.084486
264.000000	0.086237
265.000000	0.097359
266.000000	0.093581
267.000000	0.096119
268.000000	0.079428
269.000000	0.098788
270.000000	0.092706
271.000000	0.080986
272.000000	0.067824
273.000000	0.073910
274.000000	0.082516
275.000000	0.110886
276.000000	0.079056
277.000000	0.081462
278.000000	0.086150
279.000000	0.087519
280.000000	0.085905
281.000000	0.055831
282.000000	0.077746
283.000000	0.085314
284.000000	0.082980
285.000000	0.082089
286.000000	0.063782
287.000000	0.075623
288.000000	0.071247
289.000000	0.080742
290.000000	0.066833
291.000000	0.081451
292.000000	0.074777
293.000000	0.086384
294.000000	0.081268
295.000000	0.074959
296.000000	0.053621
297.000000	0.074623
298.000000	0.064576
299.000000	0.082929
300.000000	0.078949
301.000000	0.093316
302.000000	0.064319
303.000000	0.058112
304.000000	0.060349
305.000000	0.057983
306.000000	0.065863
307.000000	0.075825
308.000000	0.067099
309.000000	0.095014
310.000000	0.065847
311.000000	0.073445
312.000000	0.075773
313.000000	0.091275
314.000000	0.076870
315.000000	0.036798
316.000000	0.083275
317.000000	0.182318
318.000000	0.182973
319.000000	0.139141
320.000000	0.061147
321.000000	0.112972
322.000000	0.059132
323.000000	0.053597
324.000000	0.101479
325.000000	0.119470
326.000000	0.146329
327.000000	0.098814
328.000000	0.162929
329.000000	0.176578
330.000000	0.064090
331.000000	0.089447
332.000000	0.092980
333.000000	0.081066
334.000000	0.068820
335.000000	0.072231
336.000000	0.056105
337.000000	0.063159
338.000000	0.039380
339.000000	0.056700
340.000000	0.049018
341.000000	0.071013
342.000000	0.088928
343.000000	0.074889
344.000000	0.064830
345.000000	0.080601
346.000000	0.083150
347.000000	0.093041
348.000000	0.065984
349.000000	0.078917
350.000000	0.090409
351.000000	0.101448
352.000000	0.095819
353.000000	0.110111
354.000000	0.088474
355.000000	0.102712
356.000000	0.114844
357.000000	0.101275
358.000000	0.095436
359.000000	0.064811
360.000000	0.050940
361.000000	0.082206
362.000000	0.073634
363.000000	0.082897
364.000000	0.096178
365.000000	0.115625
366.000000	0.099523
367.000000	0.086608
368.000000	0.068892
369.000000	0.077135
370.000000	0.073496
371.000000	0.100733
372.000000	0.122091
373.000000	0.075921
374.000000	0.033308
375.000000	0.068751
376.000000	0.103126
377.000000	0.084549
378.000000	0.085612
379.000000	0.090347
380.000000	0.092024
381.000000	0.087765
382.000000	0.086294
383.000000	0.085965
384.000000	0.091537
385.000000	0.100470
386.000000	0.095503
387.000000	0.086218
388.000000	0.087653
389.000000	0.092209
390.000000	0.097588
391.000000	0.092474
392.000000	0.093122
393.000000	0.092442
394.000000	0.094183
395.000000	0.098019
396.000000	0.101521
397.000000	0.097831
398.000000	0.096536
399.000000	0.095215
400.000000	0.095449
401.000000	0.101910
402.000000	0.101254
403.000000	0.104552
404.000000	0.105332
405.000000	0.105615
406.000000	0.102926
407.000000	0.107998
408.000000	0.110217
409.000000	0.104379
410.000000	0.103522
411.000000	0.108258
412.000000	0.109124
413.000000	0.109430
414.000000	0.109615
415.000000	0.108714
416.000000	0.112336
417.000000	0.111115
418.000000	0.111459
419.000000	0.113804
420.000000	0.115338
421.000000	0.113795
422.000000	0.110265
423.000000	0.111711
424.000000	0.115592
425.000000	0.113552
426.000000	0.112029
427.000000	0.116945
428.000000	0.125560
429.000000	0.129231
430.000000	0.124808
431.000000	0.122648
432.000000	0.122413
433.000000	0.124191
434.000000	0.124390
435.000000	0.123457
436.000000	0.125480
437.000000	0.126271
438.000000	0.127320
439.000000	0.128619
440.000000	0.130672
441.000000	0.133536
442.000000	0.134564
443.000000	0.135746
444.000000	0.136556
445.000000	0.136092
446.000000	0.138934
447.000000	0.139622
448.000000	0.140232
449.000000	0.146898
450.000000	0.150854
451.000000	0.149217
452.000000	0.151743
453.000000	0.155530
454.000000	0.157272
455.000000	0.157834
456.000000	0.159088
457.000000	0.161455
458.000000	0.161389
459.000000	0.165521
460.000000	0.168411
461.000000	0.169434
462.000000	0.169669
463.000000	0.173615
464.000000	0.175177
465.000000	0.174731
466.000000	0.176009
467.000000	0.176811
468.000000	0.176140
469.000000	0.181021
470.000000	0.182410
471.000000	0.180183
472.000000	0.178731
473.000000	0.176830
474.000000	0.175289
475.000000	0.170522
476.000000	0.169344
477.000000	0.164821
478.000000	0.156451
479.000000	0.153376
480.000000	0.151379
481.000000	0.151928
482.000000	0.152058
483.000000	0.158983
484.000000	0.168645
485.000000	0.179739
486.000000	0.191273
487.000000	0.198385
488.000000	0.207834
489.000000	0.222318
490.000000	0.222525
491.000000	0.221130
492.000000	0.222584
493.000000	0.219036
494.000000	0.218541
495.000000	0.222044
496.000000	0.215360
497.000000	0.207970
498.000000	0.202331
499.000000	0.203326
500.000000	0.200368
501.000000	0.197415
502.000000	0.199215
503.000000	0.198772
504.000000	0.194162
505.000000	0.184227
506.000000	0.181964
507.000000	0.185768
508.000000	0.180159
509.000000	0.176271
510.000000	0.172407
511.000000	0.157515
512.000000	0.152457
513.000000	0.146737
514.000000	0.137095
515.000000	0.133129
516.000000	0.119625
517.000000	0.106037
518.000000	0.089083
519.000000	0.081272
520.000000	0.080559
521.000000	0.081306
522.000000	0.078932
523.000000	0.088022
524.000000	0.096368
525.000000	0.111461
526.000000	0.120883
527.000000	0.123248
528.000000	0.134766
529.000000	0.138637
530.000000	0.142665
531.000000	0.146077
532.000000	0.146914
533.000000	0.138084
534.000000	0.131293
535.000000	0.115961
536.000000	0.110233
537.000000	0.107254
538.000000	0.109476
539.000000	0.114867
540.000000	0.136292
541.000000	0.156404
542.000000	0.176876
543.000000	0.200565
544.000000	0.224810
545.000000	0.243585
546.000000	0.257118
547.000000	0.270588
548.000000	0.273647
549.000000	0.269334
550.000000	0.268917
551.000000	0.270649
552.000000	0.261657
553.000000	0.260884
554.000000	0.244966
555.000000	0.242649
556.000000	0.233935
557.000000	0.233885
558.000000	0.230355
559.000000	0.224122
560.000000	0.224180
561.000000	0.236698
562.000000	0.241973
563.000000	0.255472
564.000000	0.275950
565.000000	0.288718
566.000000	0.296655
567.000000	0.308882
568.000000	0.322418
569.000000	0.321565
570.000000	0.325432
571.000000	0.323608
572.000000	0.316842
573.000000	0.309849
574.000000	0.308770
575.000000	0.299651
576.000000	0.285994
577.000000	0.282929
578.000000	0.276106
579.000000	0.281100
580.000000	0.271607
581.000000	0.273520
582.000000	0.277940
583.000000	0.292099
584.000000	0.291712
585.000000	0.303456
586.000000	0.315969
587.000000	0.329272
588.000000	0.342691
589.000000	0.345540
590.000000	0.351132
591.000000	0.356082
592.000000	0.354698
593.000000	0.364660
594.000000	0.358028
595.000000	0.356700
596.000000	0.350885
597.000000	0.343096
598.000000	0.333754
599.000000	0.324820
600.000000	0.328642
601.000000	0.315699
602.000000	0.318815
603.000000	0.321002
604.000000	0.322876
605.000000	0.330972
606.000000	0.333582
607.000000	0.342995
608.000000	0.348679
609.000000	0.359675
610.000000	0.361940
611.000000	0.365488
612.000000	0.371933
613.000000	0.382522
614.000000	0.384557
615.000000	0.387293
616.000000	0.386138
617.000000	0.384725
618.000000	0.379662
619.000000	0.377454
620.000000	0.372803
621.000000	0.369448
622.000000	0.360933
623.000000	0.359950
624.000000	0.351804
625.000000	0.350948
626.000000	0.347357
627.000000	0.346663
628.000000	0.344113
629.000000	0.345430
630.000000	0.350037
631.000000	0.359108
632.000000	0.361472
633.000000	0.363690
634.000000	0.372535
635.000000	0.375791
636.000000	0.380730
637.000000	0.387833
638.000000	0.386475
639.000000	0.394815
640.000000	0.394884
641.000000	0.388806
642.000000	0.382867
643.000000	0.380823
644.000000	0.375605
645.000000	0.364779
646.000000	0.363139
647.000000	0.365708
648.000000	0.354125
649.000000	0.347755
650.000000	0.338965
651.000000	0.344836
652.000000	0.344886
653.000000	0.342457
654.000000	0.342674
655.000000	0.334703
656.000000	0.338065
657.000000	0.340769
658.000000	0.341824
659.000000	0.357769
660.000000	0.364480
661.000000	0.360254
662.000000	0.353387
663.000000	0.362769
664.000000	0.362293
665.000000	0.360642
666.000000	0.360504
667.000000	0.354552
668.000000	0.350853
669.000000	0.361773
670.000000	0.357718
671.000000	0.349760
672.000000	0.344540
673.000000	0.342307
674.000000	0.339217
675.000000	0.336647
676.000000	0.323648
677.000000	0.321869
678.000000	0.325593
679.000000	0.323343
680.000000	0.314763
681.000000	0.308346
682.000000	0.305154
683.000000	0.309628
684.000000	0.301946
685.000000	0.302711
686.000000	0.302214
687.000000	0.302062
688.000000	0.304592
689.000000	0.307240
690.000000	0.300931
691.000000	0.302871
692.000000	0.309471
693.000000	0.309171
694.000000	0.311841
695.000000	0.306097
696.000000	0.310554
697.000000	0.303124
698.000000	0.295672
699.000000	0.293553
700.000000	0.290441
701.000000	0.289487
702.000000	0.287686
703.000000	0.278207
704.000000	0.280676
705.000000	0.274984
706.000000	0.275817
707.000000	0.268498
708.000000	0.263218
709.000000	0.258384
710.000000	0.251988
711.000000	0.248657
712.000000	0.249355
713.000000	0.245494
714.000000	0.243978
715.000000	0.244269
716.000000	0.246899
717.000000	0.236223
718.000000	0.236103
719.000000	0.242155
720.000000	0.237649
721.000000	0.239561
722.000000	0.231430
723.000000	0.245691
724.000000	0.249729
725.000000	0.238629
726.000000	0.230136
727.000000	0.229079
728.000000	0.228943
729.000000	0.229086
730.000000	0.225316
731.000000	0.223233
732.000000	0.218378
733.000000	0.216720
734.000000	0.210688
735.000000	0.199019
736.000000	0.203614
737.000000	0.201612
738.000000	0.184613
739.000000	0.168930
740.000000	0.169971
741.000000	0.181234
742.000000	0.181472
743.000000	0.166138
744.000000	0.163807
745.000000	0.170174
746.000000	0.169120
747.000000	0.168366
748.000000	0.171007
749.000000	0.164305
750.000000	0.163912
751.000000	0.175396
752.000000	0.174191
753.000000	0.168964
754.000000	0.157201
755.000000	0.157158
756.000000	0.155510
757.000000	0.146569
758.000000	0.151022
759.000000	0.142676
760.000000	0.128924
761.000000	0.128601
762.000000	0.127072
763.000000	0.114791
764.000000	0.116418
765.000000	0.105845
766.000000	0.077674
767.000000	0.081226
768.000000	0.081894
769.000000	0.081184
770.000000	0.085809
771.000000	0.081248
772.000000	0.061558
773.000000	0.071395
774.000000	0.082705
775.000000	0.078230
776.000000	0.051238
777.000000	0.046661
778.000000	0.071045
779.000000	0.090819
780.000000	0.093611
781.000000	0.102058
782.000000	0.117212
783.000000	0.112879
784.000000	0.126450
785.000000	0.144403
786.000000	0.155736
787.000000	0.153072
788.000000	0.158451
789.000000	0.162492
790.000000	0.171910
791.000000	0.176463
792.000000	0.180364
793.000000	0.180362
794.000000	0.218444
795.000000	0.235509
796.000000	0.234986
797.000000	0.255652
798.000000	0.250182
799.000000	0.256827
800.000000	0.267545
801.000000	0.296272
802.000000	0.282082
803.000000	0.312781
804.000000	0.343812
805.000000	0.366085
806.000000	0.363159
807.000000	0.361555
808.000000	0.370347
809.000000	0.401432
810.000000	0.370921
811.000000	0.398977
812.000000	0.431584
813.000000	0.441281
814.000000	0.465039
815.000000	0.441843
816.000000	0.469704
817.000000	0.499309
818.000000	0.480082
819.000000	0.454553
820.000000	0.472700
821.000000	0.493641
822.000000	0.484011
823.000000	0.477359
824.000000	0.464798
825.000000	0.504411
826.000000	0.557299
827.000000	0.515283
828.000000	0.525918
829.000000	0.496996
830.000000	0.541338
831.000000	0.523089
832.000000	0.570306
833.000000	0.545246
834.000000	0.591274
835.000000	0.594333
836.000000	0.549816
837.000000	0.577010
838.000000	0.565684
839.000000	0.584682
840.000000	0.597153
841.000000	0.592580
842.000000	0.612042
843.000000	0.572723
844.000000	0.655855
845.000000	0.649025
846.000000	0.646576
847.000000	0.670588
848.000000	0.570626
849.000000	0.618908
850.000000	0.640645
851.000000	0.661012
852.000000	0.634198
853.000000	0.683408
854.000000	0.615851
855.000000	0.612988
856.000000	0.614923
857.000000	0.522647
858.000000	0.261420
859.000000	0.513263
860.000000	0.530623
861.000000	0.540601
862.000000	0.547764
863.000000	0.554536
864.000000	0.562950
865.000000	0.567980
866.000000	0.571892
867.000000	0.591403
868.000000	0.612114
869.000000	0.616867
870.000000	0.630592
871.000000	0.644790
872.000000	0.670576
873.000000	0.683808
874.000000	0.695079
875.000000	0.707903
876.000000	0.727169
877.000000	0.721741
878.000000	0.747272
879.000000	0.774277
880.000000	0.769160
881.000000	0.776075
882.000000	0.769213
883.000000	0.784353
884.000000	0.808928
885.000000	0.808734
886.000000	0.799657
887.000000	0.815802
888.000000	0.846640
889.000000	0.842386
890.000000	0.848028
891.000000	0.861968
892.000000	0.873633
893.000000	0.870255
894.000000	0.895164
895.000000	0.900047
896.000000	0.894858
897.000000	0.888159
898.000000	0.914506
899.000000	0.882079
900.000000	0.925978
901.000000	0.915201
902.000000	0.914437
903.000000	0.924034
904.000000	0.931594
905.000000	0.936388
906.000000	0.950795
907.000000	0.938570
908.000000	0.954816
909.000000	0.959106
910.000000	0.941713
911.000000	0.955467
912.000000	0.971034
913.000000	0.982336
914.000000	0.974009
915.000000	0.981621
916.000000	0.984714
917.000000	1.000009
918.000000	1.013824
919.000000	1.015757
920.000000	0.988232
921.000000	1.008671
922.000000	0.996890
923.000000	1.020899
924.000000	1.017444
925.000000	1.025841
926.000000	1.011394
927.000000	1.022400
928.000000	1.028276
929.000000	1.023383
930.000000	1.030193
931.000000	1.035690
932.000000	1.044853
933.000000	1.035299
934.000000	1.033771
935.000000	1.045639
936.000000	1.045868
937.000000	1.034029
938.000000	1.030395
939.000000	1.045076
940.000000	1.025659
941.000000	1.035551
942.000000	1.036502
943.000000	1.041757
944.000000	1.039426
945.000000	1.026947
946.000000	1.045120
947.000000	1.052024
948.000000	1.048028
949.000000	1.057195
950.000000	1.055646
951.000000	1.057976
952.000000	1.060473
953.000000	1.046159
954.000000	1.040343
955.000000	1.058266
956.000000	1.070774
957.000000	1.049368
958.000000	1.067786
959.000000	1.062273
960.000000	1.062517
961.000000	1.075920
962.000000	1.066707
963.000000	1.077850
964.000000	1.065964
965.000000	1.076649
966.000000	1.091198
967.000000	1.086224
968.000000	1.100528
969.000000	1.095554
970.000000	1.089724
971.000000	1.097832
972.000000	1.108039
973.000000	1.098377
974.000000	1.099085
975.000000	1.104975
976.000000	1.112852
977.000000	1.123985
978.000000	1.119690
979.000000	1.126536
980.000000	1.133581
981.000000	1.126693
982.000000	1.117721
983.000000	1.132989
984.000000	1.135231
985.000000	1.131369
986.000000	1.135836
987.000000	1.150263
988.000000	1.140973
989.000000	1.154650
990.000000	1.159007
991.000000	1.154425
992.000000	1.169363
993.000000	1.180954
994.000000	1.175479
995.000000	1.167176
996.000000	1.179894
997.000000	1.185149
998.000000	1.187426
999.000000	1.180725
1000.000000	1.173493
1001.000000	1.183385
1002.000000	1.194993
1003.000000	1.194058
1004.000000	1.191653
1005.000000	1.189135
1006.000000	1.197919
1007.000000	1.200217
1008.000000	1.205339
1009.000000	1.210622
1010.000000	1.220377
1011.000000	1.222576
1012.000000	1.224568
1013.000000	1.227293
1014.000000	1.236598
1015.000000	1.238683
1016.000000	1.233904
1017.000000	1.239106
1018.000000	1.245970
1019.000000	1.244603
1020.000000	1.239051
1021.000000	1.234954
1022.000000	1.238263
1023.000000	1.250512
1024.000000	1.259072
1025.000000	1.262134
1026.000000	1.259998
1027.000000	1.261999
1028.000000	1.270774
1029.000000	1.270720
1030.000000	1.280259
1031.000000	1.285900
1032.000000	1.290328
1033.000000	1.292941
1034.000000	1.292908
1035.000000	1.294845
1036.000000	1.294412
1037.000000	1.296450
1038.000000	1.289647
1039.000000	1.299415
1040.000000	1.317389
1041.000000	1.319357
1042.000000	1.316334
1043.000000	1.317261
1044.000000	1.326217
1045.000000	1.324566
1046.000000	1.318633
1047.000000	1.307260
1048.000000	1.299168
1049.000000	1.301060
1050.000000	1.305770
1051.000000	1.301907
1052.000000	1.308627
1053.000000	1.313185
1054.000000	1.318184
1055.000000	1.323597
1056.000000	1.334303
1057.000000	1.336131
1058.000000	1.345084
1059.000000	1.349269
1060.000000	1.350967
1061.000000	1.343171
1062.000000	1.335961
1063.000000	1.332298
1064.000000	1.334966
1065.000000	1.337269
1066.000000	1.342820
1067.000000	1.344149
1068.000000	1.346886
1069.000000	1.354819
1070.000000	1.360106
1071.000000	1.349675
1072.000000	1.349685
1073.000000	1.346578
1074.000000	1.334822
1075.000000	1.345751
1076.000000	1.353581
1077.000000	1.362749
1078.000000	1.362644
1079.000000	1.359355
1080.000000	1.353131
1081.000000	1.367374
1082.000000	1.379255
1083.000000	1.373824
1084.000000	1.375458
1085.000000	1.385621
1086.000000	1.383690
1087.000000	1.390477
1088.000000	1.381815
1089.000000	1.365868
1090.000000	1.382269
1091.000000	1.392479
1092.000000	1.391367
1093.000000	1.381517
1094.000000	1.376581
1095.000000	1.376659
1096.000000	1.384091
1097.000000	1.382114
1098.000000	1.387772
1099.000000	1.392266
1100.000000	1.381842
1101.000000	1.378521
1102.000000	1.386152
1103.000000	1.376403
1104.000000	1.388384
1105.000000	1.384243
1106.000000	1.389753
1107.000000	1.386880
1108.000000	1.374503
1109.000000	1.390251
1110.000000	1.395435
1111.000000	1.402111
1112.000000	1.398678
1113.000000	1.400351
1114.000000	1.384580
1115.000000	1.404925
1116.000000	1.403757
1117.000000	1.406807
1118.000000	1.400253
1119.000000	1.399934
1120.000000	1.411349
1121.000000	1.400830
1122.000000	1.396208
1123.000000	1.393885
1124.000000	1.405102
1125.000000	1.402405
1126.000000	1.406096
1127.000000	1.382664
1128.000000	1.390678
1129.000000	1.399769
1130.000000	1.405507
1131.000000	1.407031
1132.000000	1.387210
1133.000000	1.382716
1134.000000	1.379660
1135.000000	1.379662
1136.000000	1.369784
1137.000000	1.379931
1138.000000	1.368242
1139.000000	1.368288
1140.000000	1.386258
1141.000000	1.381338
1142.000000	1.371674
1143.000000	1.384766
1144.000000	1.382587
1145.000000	1.363806
1146.000000	1.359919
1147.000000	1.372020
1148.000000	1.371659
1149.000000	1.368040
1150.000000	1.361646
1151.000000	1.381117
1152.000000	1.360255
1153.000000	1.363553
1154.000000	1.359064
1155.000000	1.360533
1156.000000	1.350107
1157.000000	1.351839
1158.000000	1.353645
1159.000000	1.353613
1160.000000	1.326495
1161.000000	1.343715
1162.000000	1.320440
1163.000000	1.326542
1164.000000	1.325315
1165.000000	1.338060
1166.000000	1.321242
1167.000000	1.315427
1168.000000	1.312842
1169.000000	1.308074
1170.000000	1.310774
1171.000000	1.316781
1172.000000	1.320914
1173.000000	1.298105
1174.000000	1.317997
1175.000000	1.318717
1176.000000	1.312565
1177.000000	1.321729
1178.000000	1.309251
1179.000000	1.306809
1180.000000	1.301614
1181.000000	1.309303
1182.000000	1.303572
1183.000000	1.304344
1184.000000	1.296063
1185.000000	1.316676
1186.000000	1.298413
1187.000000	1.302046
1188.000000	1.297152
1189.000000	1.294065
1190.000000	1.314297
1191.000000	1.311492
1192.000000	1.299756
1193.000000	1.299540
1194.000000	1.305641
1195.000000	1.316599
1196.000000	1.309002
1197.000000	1.298662
1198.000000	1.312761
1199.000000	1.319727
1200.000000	1.322020
1201.000000	1.322476
1202.000000	1.330641
1203.000000	1.319843
1204.000000	1.328541
1205.000000	1.320944
1206.000000	1.318344
1207.000000	1.320741
1208.000000	1.315396
1209.000000	1.311763
1210.000000	1.304336
1211.000000	1.306235
1212.000000	1.326583
1213.000000	1.320973
1214.000000	1.316728
1215.000000	1.317181
1216.000000	1.326728
1217.000000	1.336600
1218.000000	1.325262
1219.000000	1.324233
1220.000000	1.324035
1221.000000	1.313714
1222.000000	1.311332
1223.000000	1.311602
1224.000000	1.321897
1225.000000	1.329746
1226.000000	1.333661
1227.000000	1.324504
1228.000000	1.324323
1229.000000	1.318026
1230.000000	1.326344
1231.000000	1.325197
1232.000000	1.322575
1233.000000	1.322725
1234.000000	1.321098
1235.000000	1.328888
1236.000000	1.324817
1237.000000	1.322483
1238.000000	1.343539
1239.000000	1.334647
1240.000000	1.325334
1241.000000	1.326905
1242.000000	1.320443
1243.000000	1.309534
1244.000000	1.309978
1245.000000	1.312811
1246.000000	1.323828
1247.000000	1.321883
1248.000000	1.340342
1249.000000	1.336138
1250.000000	1.334915
1251.000000	1.333574
1252.000000	1.324252
1253.000000	1.326746
1254.000000	1.328752
1255.000000	1.333268
1256.000000	1.332714
1257.000000	1.337147
1258.000000	1.326271
1259.000000	1.312974
1260.000000	1.321083
1261.000000	1.317800
1262.000000	1.312850
1263.000000	1.320845
1264.000000	1.315218
1265.000000	1.310960
1266.000000	1.314718
1267.000000	1.318806
1268.000000	1.319701
1269.000000	1.323379
1270.000000	1.318930
1271.000000	1.309545
1272.000000	1.321663
1273.000000	1.320952
1274.000000	1.311450
1275.000000	1.320204
1276.000000	1.327308
1277.000000	1.313260
1278.000000	1.308880
1279.000000	1.323507
1280.000000	1.320573
1281.000000	1.309050
1282.000000	1.315068
1283.000000	1.310232
1284.000000	1.301766
1285.000000	1.310934
1286.000000	1.322005
1287.000000	1.323223
1288.000000	1.322423
1289.000000	1.319998
1290.000000	1.314386
1291.000000	1.308245
1292.000000	1.311854
1293.000000	1.306790
1294.000000	1.304927
1295.000000	1.312322
1296.000000	1.305394
1297.000000	1.297661
1298.000000	1.308665
1299.000000	1.316461
1300.000000	1.316036
1301.000000	1.313990
1302.000000	1.315795
1303.000000	1.317474
1304.000000	1.308477
1305.000000	1.308606
1306.000000	1.306246
1307.000000	1.308123
1308.000000	1.312214
1309.000000	1.315756
1310.000000	1.313311
1311.000000	1.308372
1312.000000	1.311425
1313.000000	1.303002
1314.000000	1.293819
1315.000000	1.289483
1316.000000	1.292870
1317.000000	1.296122
1318.000000	1.283226
1319.000000	1.278937
1320.000000	1.280010
1321.000000	1.280388
1322.000000	1.280426
1323.000000	1.285072
1324.000000	1.282677
1325.000000	1.284267
1326.000000	1.281081
1327.000000	1.269740
1328.000000	1.258986
1329.000000	1.257358
1330.000000	1.272910
1331.000000	1.275797
1332.000000	1.257318
1333.000000	1.240429
1334.000000	1.236673
1335.000000	1.229617
1336.000000	1.232616
1337.000000	1.233001
1338.000000	1.225060
1339.000000	1.210917
1340.000000	1.209718
1341.000000	1.212150
1342.000000	1.210206
1343.000000	1.206896
1344.000000	1.206941
1345.000000	1.196667
1346.000000	1.199856
1347.000000	1.200675
1348.000000	1.185258
1349.000000	1.181766
1350.000000	1.173539
1351.000000	1.169533
1352.000000	1.158128
1353.000000	1.157278
1354.000000	1.167601
1355.000000	1.158557
1356.000000	1.152222
1357.000000	1.141536
1358.000000	1.142696
1359.000000	1.127066
1360.000000	1.121924
1361.000000	1.152041
1362.000000	1.120773
1363.000000	1.086236
1364.000000	1.105542
1365.000000	1.102487
1366.000000	1.084610
1367.000000	1.092065
1368.000000	1.105610
1369.000000	1.078208
1370.000000	1.064946
1371.000000	1.069916
1372.000000	1.055013
1373.000000	1.056793
1374.000000	1.030488
1375.000000	1.030027
1376.000000	1.023895
1377.000000	1.006230
1378.000000	0.976730
1379.000000	0.980055
1380.000000	0.959120
1381.000000	0.955533
1382.000000	0.955556
1383.000000	0.944649
1384.000000	0.937436
1385.000000	0.917663
1386.000000	0.931207
1387.000000	0.949488
1388.000000	0.949862
1389.000000	0.924639
1390.000000	0.905883
1391.000000	0.933429
1392.000000	0.933098
1393.000000	0.902151
1394.000000	0.903932
1395.000000	0.924303
1396.000000	0.898201
1397.000000	0.855572
1398.000000	0.850079
1399.000000	0.893099
1400.000000	0.911000
1401.000000	0.869001
1402.000000	0.821499
1403.000000	0.835510
1404.000000	0.860436
1405.000000	0.849958
1406.000000	0.826507
1407.000000	0.812640
1408.000000	0.806570
1409.000000	0.802433
1410.000000	0.783352
1411.000000	0.773810
1412.000000	0.777623
1413.000000	0.758209
1414.000000	0.762300
1415.000000	0.747024
1416.000000	0.714542
1417.000000	0.723463
1418.000000	0.739225
1419.000000	0.730573
1420.000000	0.712185
1421.000000	0.686929
1422.000000	0.698886
1423.000000	0.672943
1424.000000	0.698996
1425.000000	0.684631
1426.000000	0.658319
1427.000000	0.661145
1428.000000	0.655122
1429.000000	0.656258
1430.000000	0.643962
1431.000000	0.642342
1432.000000	0.660260
1433.000000	0.629017
1434.000000	0.622372
1435.000000	0.620962
1436.000000	0.637329
1437.000000	0.611984
1438.000000	0.605335
1439.000000	0.610080
1440.000000	0.601446
1441.000000	0.596558
1442.000000	0.611414
1443.000000	0.616746
1444.000000	0.605326
1445.000000	0.609999
1446.000000	0.599578
1447.000000	0.586004
1448.000000	0.589063
1449.000000	0.590434
1450.000000	0.599482
1451.000000	0.578276
1452.000000	0.572387
1453.000000	0.584680
1454.000000	0.570395
1455.000000	0.555046
1456.000000	0.569279
1457.000000	0.562140
1458.000000	0.558162
1459.000000	0.561323
1460.000000	0.559530
1461.000000	0.549923
1462.000000	0.542107
1463.000000	0.537626
1464.000000	0.547787
1465.000000	0.547153
1466.000000	0.529026
1467.000000	0.523601
1468.000000	0.528692
1469.000000	0.526604
1470.000000	0.535130
1471.000000	0.535964
1472.000000	0.533399
1473.000000	0.516477
1474.000000	0.504024
1475.000000	0.515267
1476.000000	0.500460
1477.000000	0.504010
1478.000000	0.498350
1479.000000	0.498976
1480.000000	0.496643
1481.000000	0.491913
1482.000000	0.505940
1483.000000	0.503692
1484.000000	0.501281
1485.000000	0.494595
1486.000000	0.482867
1487.000000	0.486992
1488.000000	0.490600
1489.000000	0.486945
1490.000000	0.484286
1491.000000	0.492066
1492.000000	0.480950
1493.000000	0.472301
1494.000000	0.473836
1495.000000	0.475060
1496.000000	0.490991
1497.000000	0.486873
1498.000000	0.476799
1499.000000	0.486132
1500.000000	0.479637
1501.000000	0.489393
1502.000000	0.482209
1503.000000	0.489852
1504.000000	0.487218
1505.000000	0.482924
1506.000000	0.491794
1507.000000	0.494270
1508.000000	0.485540
1509.000000	0.480178
1510.000000	0.481494
1511.000000	0.478128
1512.000000	0.480546
1513.000000	0.504821
1514.000000	0.508730
1515.000000	0.503343
1516.000000	0.506128
1517.000000	0.503204
1518.000000	0.511928
1519.000000	0.520784
1520.000000	0.517359
1521.000000	0.511371
1522.000000	0.505962
1523.000000	0.507986
1524.000000	0.505390
1525.000000	0.501041
1526.000000	0.503642
1527.000000	0.506252
1528.000000	0.514859
1529.000000	0.516833
1530.000000	0.518966
1531.000000	0.521688
1532.000000	0.516728
1533.000000	0.521709
1534.000000	0.522853
1535.000000	0.518766
1536.000000	0.519463
1537.000000	0.529393
1538.000000	0.527014
1539.000000	0.524036
1540.000000	0.521381
1541.000000	0.517168
1542.000000	0.508932
1543.000000	0.508589
1544.000000	0.509093
1545.000000	0.517234
1546.000000	0.518403
1547.000000	0.516152
1548.000000	0.517840
1549.000000	0.520097
1550.000000	0.522684
1551.000000	0.532300
1552.000000	0.533250
1553.000000	0.534287
1554.000000	0.538816
1555.000000	0.535182
1556.000000	0.531334
1557.000000	0.543482
1558.000000	0.548097
1559.000000	0.543742
1560.000000	0.540912
1561.000000	0.535108
1562.000000	0.533048
1563.000000	0.535999
1564.000000	0.535029
1565.000000	0.529044
1566.000000	0.527802
1567.000000	0.533082
1568.000000	0.535766
1569.000000	0.533005
1570.000000	0.534772
1571.000000	0.525216
1572.000000	0.520087
1573.000000	0.528251
1574.000000	0.526868
1575.000000	0.524618
1576.000000	0.521855
1577.000000	0.522434
1578.000000	0.521860
1579.000000	0.519629
1580.000000	0.524740
1581.000000	0.532986
1582.000000	0.523779
1583.000000	0.524722
1584.000000	0.532062
1585.000000	0.536202
1586.000000	0.539695
1587.000000	0.536805
1588.000000	0.536926
1589.000000	0.538722
1590.000000	0.536012
1591.000000	0.529472
1592.000000	0.524166
1593.000000	0.524410
1594.000000	0.528314
1595.000000	0.535087
1596.000000	0.540631
1597.000000	0.540659
1598.000000	0.543930
1599.000000	0.542140
1600.000000	0.535845
1601.000000	0.530790
1602.000000	0.536143
1603.000000	0.531873
1604.000000	0.538160
1605.000000	0.540251
1606.000000	0.540568
1607.000000	0.534331
1608.000000	0.535061
1609.000000	0.548447
1610.000000	0.540916
1611.000000	0.541694
1612.000000	0.546825
1613.000000	0.560248
1614.000000	0.564920
1615.000000	0.550638
1616.000000	0.549959
1617.000000	0.557814
1618.000000	0.554339
1619.000000	0.550503
1620.000000	0.543131
1621.000000	0.545532
1622.000000	0.555174
1623.000000	0.552994
1624.000000	0.560287
1625.000000	0.552970
1626.000000	0.548869
1627.000000	0.555324
1628.000000	0.549553
1629.000000	0.545859
1630.000000	0.554148
1631.000000	0.531831
1632.000000	0.535104
1633.000000	0.535345
1634.000000	0.543269
1635.000000	0.555312
1636.000000	0.553536
1637.000000	0.543652
1638.000000	0.556300
1639.000000	0.553239
1640.000000	0.560847
1641.000000	0.580302
1642.000000	0.574588
1643.000000	0.570606
1644.000000	0.567545
1645.000000	0.542402
1646.000000	0.547995
1647.000000	0.543020
1648.000000	0.549420
1649.000000	0.548010
1650.000000	0.553786
1651.000000	0.546976
1652.000000	0.545186
1653.000000	0.543178
1654.000000	0.540094
1655.000000	0.531663
1656.000000	0.524153
1657.000000	0.524960
1658.000000	0.532342
1659.000000	0.521822
1660.000000	0.522078
1661.000000	0.526400
1662.000000	0.506200
1663.000000	0.519280
1664.000000	0.508781
1665.000000	0.501773
1666.000000	0.501941
1667.000000	0.498133
1668.000000	0.498420
1669.000000	0.476119
1670.000000	0.485352
1671.000000	0.462837
1672.000000	0.449841
1673.000000	0.457634
1674.000000	0.451952
1675.000000	0.456065
1676.000000	0.449697
1677.000000	0.445112
1678.000000	0.442599
1679.000000	0.429291
1680.000000	0.425231
1681.000000	0.419008
1682.000000	0.407345
1683.000000	0.390767
1684.000000	0.377202
1685.000000	0.392579
1686.000000	0.390438
1687.000000	0.406779
1688.000000	0.399978
1689.000000	0.395542
1690.000000	0.396237
1691.000000	0.392435
1692.000000	0.411122
1693.000000	0.408280
1694.000000	0.389259
1695.000000	0.397947
1696.000000	0.389651
1697.000000	0.384498
1698.000000	0.380972
1699.000000	0.395091
1700.000000	0.390857
1701.000000	0.395102
1702.000000	0.387208
1703.000000	0.380780
1704.000000	0.377339
1705.000000	0.376929
1706.000000	0.390055
1707.000000	0.388165
1708.000000	0.386399
1709.000000	0.356332
1710.000000	0.363991
1711.000000	0.355782
1712.000000	0.353347
1713.000000	0.344912
1714.000000	0.325253
1715.000000	0.329854
1716.000000	0.336110
1717.000000	0.327481
1718.000000	0.326207
1719.000000	0.318658
1720.000000	0.323323
1721.000000	0.323730
1722.000000	0.317893
1723.000000	0.307576
1724.000000	0.299500
1725.000000	0.300673
1726.000000	0.301552
1727.000000	0.308146
1728.000000	0.301662
1729.000000	0.307459
1730.000000	0.306566
1731.000000	0.300743
1732.000000	0.309193
1733.000000	0.295707
1734.000000	0.302572
1735.000000	0.313619
1736.000000	0.330964
1737.000000	0.326812
1738.000000	0.332992
1739.000000	0.324374
1740.000000	0.321276
1741.000000	0.326830
1742.000000	0.324460
1743.000000	0.326453
1744.000000	0.332572
1745.000000	0.325564
1746.000000	0.332217
1747.000000	0.322716
1748.000000	0.327565
1749.000000	0.329535
1750.000000	0.335662
1751.000000	0.341131
1752.000000	0.339954
1753.000000	0.343501
1754.000000	0.337374
1755.000000	0.322536
1756.000000	0.327478
1757.000000	0.328003
1758.000000	0.341626
1759.000000	0.323427
1760.000000	0.323198
1761.000000	0.321857
1762.000000	0.321539
1763.000000	0.316561
1764.000000	0.319490
1765.000000	0.319828
1766.000000	0.324196
1767.000000	0.321523
1768.000000	0.321594
1769.000000	0.314900
1770.000000	0.321253
1771.000000	0.335151
1772.000000	0.340975
1773.000000	0.332516
1774.000000	0.332973
1775.000000	0.331700
1776.000000	0.319722
1777.000000	0.322823
1778.000000	0.330036
1779.000000	0.332358
1780.000000	0.329245
1781.000000	0.329527
1782.000000	0.334320
1783.000000	0.338086
1784.000000	0.337414
1785.000000	0.319941
1786.000000	0.325662
1787.000000	0.326180
1788.000000	0.329477
1789.000000	0.324829
1790.000000	0.316698
1791.000000	0.324734
1792.000000	0.323850
1793.000000	0.308691
1794.000000	0.315075
1795.000000	0.319591
1796.000000	0.310041
1797.000000	0.308264
1798.000000	0.316178
1799.000000	0.322439
1800.000000	0.326692
1801.000000	0.326476
1802.000000	0.320601
1803.000000	0.308384
1804.000000	0.307532
1805.000000	0.310598
1806.000000	0.320779
1807.000000	0.313882
1808.000000	0.303749
1809.000000	0.312854
1810.000000	0.313186
1811.000000	0.309288
1812.000000	0.307890
1813.000000	0.309114
1814.000000	0.307926
1815.000000	0.310239
1816.000000	0.315032
1817.000000	0.312839
1818.000000	0.292890
1819.000000	0.302021
1820.000000	0.333098
1821.000000	0.330199
1822.000000	0.288897
1823.000000	0.272373
1824.000000	0.291618
1825.000000	0.306872
1826.000000	0.309667
1827.000000	0.304629
1828.000000	0.300865
1829.000000	0.299174
1830.000000	0.302210
1831.000000	0.299917
1832.000000	0.290655
1833.000000	0.298072
1834.000000	0.311393
1835.000000	0.323313
1836.000000	0.323250
1837.000000	0.314209
1838.000000	0.310790
1839.000000	0.307517
1840.000000	0.304762
1841.000000	0.314584
1842.000000	0.292732
1843.000000	0.273356
1844.000000	0.277992
1845.000000	0.302748
1846.000000	0.340202
1847.000000	0.352371
1848.000000	0.326794
1849.000000	0.289403
1850.000000	0.258421
1851.000000	0.272585
1852.000000	0.300763
1853.000000	0.311022
1854.000000	0.301321
1855.000000	0.287864
1856.000000	0.281113
1857.000000	0.290465
1858.000000	0.312808
1859.000000	0.310751
1860.000000	0.288344
1861.000000	0.276872
1862.000000	0.264931
1863.000000	0.259423
1864.000000	0.269716
1865.000000	0.284228
1866.000000	0.285158
1867.000000	0.295993
1868.000000	0.292168
1869.000000	0.290844
1870.000000	0.286707
1871.000000	0.264137
1872.000000	0.234385
1873.000000	0.227711
1874.000000	0.221261
1875.000000	0.223157
1876.000000	0.215257
1877.000000	0.208374
1878.000000	0.208008
1879.000000	0.213805
1880.000000	0.223506
1881.000000	0.214916
1882.000000	0.216543
1883.000000	0.233662
1884.000000	0.211921
1885.000000	0.195874
1886.000000	0.186808
1887.000000	0.201349
1888.000000	0.208968
1889.000000	0.223720
1890.000000	0.238136
1891.000000	0.234071
1892.000000	0.228020
1893.000000	0.236955
1894.000000	0.256276
1895.000000	0.263789
1896.000000	0.274126
1897.000000	0.292115
1898.000000	0.296526
1899.000000	0.310272
1900.000000	0.321770
1901.000000	0.313530
1902.000000	0.324751
1903.000000	0.344752
1904.000000	0.369546
1905.000000	0.373900
1906.000000	0.361320
1907.000000	0.392890
1908.000000	0.415000
1909.000000	0.426592
1910.000000	0.439500
1911.000000	0.429121
1912.000000	0.424596
1913.000000	0.432627
1914.000000	0.456696
1915.000000	0.470558
1916.000000	0.479276
1917.000000	0.484762
1918.000000	0.505227
1919.000000	0.493168
1920.000000	0.505782
1921.000000	0.490641
1922.000000	0.476892
1923.000000	0.495396
1924.000000	0.515251
1925.000000	0.515526
1926.000000	0.530766
1927.000000	0.518879
1928.000000	0.529288
1929.000000	0.540064
1930.000000	0.536684
1931.000000	0.546018
1932.000000	0.563586
1933.000000	0.552065
1934.000000	0.543392
1935.000000	0.562539
1936.000000	0.561133
1937.000000	0.546665
1938.000000	0.547678
1939.000000	0.554203
1940.000000	0.548966
1941.000000	0.551842
1942.000000	0.558664
1943.000000	0.551220
1944.000000	0.541930
1945.000000	0.547524
1946.000000	0.542103
1947.000000	0.547582
1948.000000	0.534195
1949.000000	0.546652
1950.000000	0.549433
1951.000000	0.545196
1952.000000	0.539324
1953.000000	0.536192
1954.000000	0.529888
1955.000000	0.528758
1956.000000	0.525991
1957.000000	0.537122
1958.000000	0.518228
1959.000000	0.529785
1960.000000	0.526350
1961.000000	0.518180
1962.000000	0.499928
1963.000000	0.514139
1964.000000	0.498573
1965.000000	0.502198
1966.000000	0.500870
1967.000000	0.495843
1968.000000	0.504933
1969.000000	0.503232
1970.000000	0.492906
1971.000000	0.508162
1972.000000	0.504410
1973.000000	0.489942
1974.000000	0.480469
1975.000000	0.481841
1976.000000	0.473306
1977.000000	0.489338
1978.000000	0.468947
1979.000000	0.466575
1980.000000	0.458644
1981.000000	0.468128
1982.000000	0.460376
1983.000000	0.456314
1984.000000	0.456544
1985.000000	0.443050
1986.000000	0.439303
1987.000000	0.429066
1988.000000	0.430290
1989.000000	0.441004
1990.000000	0.438150
1991.000000	0.438388
1992.000000	0.430012
1993.000000	0.429898
1994.000000	0.422295
1995.000000	0.402349
1996.000000	0.405921
1997.000000	0.411103
1998.000000	0.421460
1999.000000	0.401647
2000.000000	0.419479
2001.000000	0.411605
2002.000000	0.402533
2003.000000	0.406767
2004.000000	0.406584
2005.000000	0.412845
2006.000000	0.407560
2007.000000	0.411724
2008.000000	0.405662
2009.000000	0.408032
2010.000000	0.412524
2011.000000	0.391982
2012.000000	0.388015
2013.000000	0.387107
2014.000000	0.385366
2015.000000	0.389929
2016.000000	0.382668
2017.000000	0.395422
2018.000000	0.403074
2019.000000	0.407894
2020.000000	0.396394
2021.000000	0.407056
2022.000000	0.399701
2023.000000	0.400445
2024.000000	0.406243
2025.000000	0.400485
2026.000000	0.408503
2027.000000	0.423286
2028.000000	0.429650
2029.000000	0.434903
2030.000000	0.416459
2031.000000	0.411529
2032.000000	0.430842
2033.000000	0.434514
2034.000000	0.440561
2035.000000	0.457009
2036.000000	0.437436
2037.000000	0.442365
2038.000000	0.432733
2039.000000	0.454087
2040.000000	0.463553
2041.000000	0.466304
2042.000000	0.466939
2043.000000	0.474629
2044.000000	0.477437
2045.000000	0.469104
2046.000000	0.490131
2047.000000	0.487905
2048.000000	0.481631
2049.000000	0.488672
2050.000000	0.497637
2051.000000	0.483656
2052.000000	0.484759
2053.000000	0.493139
2054.000000	0.499765
2055.000000	0.506299
2056.000000	0.508878
2057.000000	0.496961
2058.000000	0.498897
2059.000000	0.494953
2060.000000	0.499212
2061.000000	0.496729
2062.000000	0.492682
2063.000000	0.481480
2064.000000	0.473329
2065.000000	0.467670
2066.000000	0.468071
2067.000000	0.467100
2068.000000	0.469669
2069.000000	0.458156
2070.000000	0.452587
2071.000000	0.447264
2072.000000	0.448783
2073.000000	0.451959
2074.000000	0.442044
2075.000000	0.436184
2076.000000	0.436777
2077.000000	0.431741
2078.000000	0.432322
2079.000000	0.425747
2080.000000	0.423640
2081.000000	0.418988
2082.000000	0.412388
2083.000000	0.412673
2084.000000	0.429713
2085.000000	0.432686
2086.000000	0.414822
2087.000000	0.398081
2088.000000	0.414083
2089.000000	0.431191
2090.000000	0.435325
2091.000000	0.439004
2092.000000	0.429321
2093.000000	0.421080
2094.000000	0.418887
2095.000000	0.417903
2096.000000	0.432005
2097.000000	0.430240
2098.000000	0.406542
2099.000000	0.398608
2100.000000	0.405954
2101.000000	0.412623
2102.000000	0.415510
2103.000000	0.418928
2104.000000	0.418479
2105.000000	0.411014
2106.000000	0.407212
2107.000000	0.415948
2108.000000	0.415790
2109.000000	0.404235
2110.000000	0.404125
2111.000000	0.404430
2112.000000	0.409258
2113.000000	0.413568
2114.000000	0.399451
2115.000000	0.391694
2116.000000	0.401365
2117.000000	0.402511
2118.000000	0.408754
2119.000000	0.404544
2120.000000	0.400269
2121.000000	0.402099
2122.000000	0.409390
2123.000000	0.406408
2124.000000	0.403343
2125.000000	0.388361
2126.000000	0.387789
2127.000000	0.412300
2128.000000	0.401024
2129.000000	0.403130
2130.000000	0.402431
2131.000000	0.401537
2132.000000	0.403916
2133.000000	0.399365
2134.000000	0.406887
2135.000000	0.405180
2136.000000	0.405146
2137.000000	0.402628
2138.000000	0.398889
2139.000000	0.404363
2140.000000	0.411136
2141.000000	0.418734
2142.000000	0.425050
2143.000000	0.425109
2144.000000	0.427606
2145.000000	0.432396
2146.000000	0.438913
2147.000000	0.444282
2148.000000	0.450275
2149.000000	0.443037
2150.000000	0.423468
2151.000000	0.431141
2152.000000	0.427929
2153.000000	0.424595
2154.000000	0.454443
2155.000000	0.461490
2156.000000	0.463493
2157.000000	0.462192
2158.000000	0.458030
2159.000000	0.455704
2160.000000	0.467891
2161.000000	0.472407
2162.000000	0.473719
2163.000000	0.461957
2164.000000	0.459800
2165.000000	0.471421
2166.000000	0.478167
2167.000000	0.474382
2168.000000	0.478302
2169.000000	0.480886
2170.000000	0.480578
2171.000000	0.473742
2172.000000	0.483716
2173.000000	0.488138
2174.000000	0.486755
2175.000000	0.498214
2176.000000	0.480114
2177.000000	0.477899
2178.000000	0.460151
2179.000000	0.475443
2180.000000	0.489574
2181.000000	0.481309
2182.000000	0.473108
2183.000000	0.475467
2184.000000	0.479612
2185.000000	0.482292
2186.000000	0.471145
2187.000000	0.458356
2188.000000	0.467357
2189.000000	0.468018
2190.000000	0.455199
2191.000000	0.462531
2192.000000	0.465151
2193.000000	0.449848
2194.000000	0.438802
2195.000000	0.426523
2196.000000	0.426786
2197.000000	0.414498
2198.000000	0.390528
2199.000000	0.389379
2200.000000	0.403316
2201.000000	0.404174
2202.000000	0.380855
2203.000000	0.383427
2204.000000	0.362409
2205.000000	0.357069
2206.000000	0.341273
2207.000000	0.350185
2208.000000	0.340269
2209.000000	0.345643
2210.000000	0.341286
2211.000000	0.324529
2212.000000	0.335932
2213.000000	0.343346
2214.000000	0.356139
2215.000000	0.347644
2216.000000	0.352609
2217.000000	0.339031
2218.000000	0.335668
2219.000000	0.333974
2220.000000	0.339361
2221.000000	0.335338
2222.000000	0.329061
2223.000000	0.352101
2224.000000	0.331408
2225.000000	0.324546
2226.000000	0.333485
2227.000000	0.338703
2228.000000	0.352161
2229.000000	0.346975
2230.000000	0.343177
2231.000000	0.333804
2232.000000	0.344521
2233.000000	0.340136
2234.000000	0.346465
2235.000000	0.341119
2236.000000	0.336325
2237.000000	0.338404
2238.000000	0.346823
2239.000000	0.356257
2240.000000	0.333815
2241.000000	0.354548
2242.000000	0.341526
2243.000000	0.340689
2244.000000	0.345042
2245.000000	0.349761
2246.000000	0.355544
2247.000000	0.348695
2248.000000	0.360241
2249.000000	0.366653
2250.000000	0.368080
2251.000000	0.363737
2252.000000	0.369203
2253.000000	0.389981
2254.000000	0.389733
2255.000000	0.396487
2256.000000	0.385579
2257.000000	0.406551
2258.000000	0.410558
2259.000000	0.400607
2260.000000	0.405937
2261.000000	0.402994
2262.000000	0.407965
2263.000000	0.413379
2264.000000	0.410180
2265.000000	0.404924
2266.000000	0.429757
2267.000000	0.421466
2268.000000	0.416644
2269.000000	0.417359
2270.000000	0.425668
2271.000000	0.432504
2272.000000	0.436485
2273.000000	0.433100
2274.000000	0.410844
2275.000000	0.424728
2276.000000	0.413544
2277.000000	0.437256
2278.000000	0.416485
2279.000000	0.449059
2280.000000	0.438361
2281.000000	0.436499
2282.000000	0.425302
2283.000000	0.444223
2284.000000	0.449631
2285.000000	0.455663
2286.000000	0.444856
2287.000000	0.448080
2288.000000	0.455292
2289.000000	0.453309
2290.000000	0.442145
2291.000000	0.444233
2292.000000	0.443259
2293.000000	0.448061
2294.000000	0.458671
2295.000000	0.461968
2296.000000	0.457770
2297.000000	0.448513
2298.000000	0.447321
2299.000000	0.441058
2300.000000	0.439435
2301.000000	0.443150
2302.000000	0.442081
2303.000000	0.433052
2304.000000	0.443423
2305.000000	0.450565
2306.000000	0.448164
2307.000000	0.443026
2308.000000	0.453161
2309.000000	0.437390
2310.000000	0.442667
2311.000000	0.442068
2312.000000	0.431442
2313.000000	0.426814
2314.000000	0.433100
2315.000000	0.421939
2316.000000	0.416959
2317.000000	0.422443
2318.000000	0.425960
2319.000000	0.434464
2320.000000	0.453356
2321.000000	0.438589
2322.000000	0.415427
2323.000000	0.420636
2324.000000	0.420001
2325.000000	0.432943
2326.000000	0.432213
2327.000000	0.417804
2328.000000	0.416979
2329.000000	0.427923
2330.000000	0.426017
2331.000000	0.406120
2332.000000	0.412387
2333.000000	0.420759
2334.000000	0.434544
2335.000000	0.431548
2336.000000	0.417916
2337.000000	0.405246
2338.000000	0.404678
2339.000000	0.413559
2340.000000	0.406922
2341.000000	0.401165
2342.000000	0.405407
2343.000000	0.409604
2344.000000	0.417601
2345.000000	0.415594
2346.000000	0.415887
2347.000000	0.418913
2348.000000	0.400817
2349.000000	0.396719
2350.000000	0.411163
2351.000000	0.399213
2352.000000	0.398603
2353.000000	0.397467
2354.000000	0.395769
2355.000000	0.389842
2356.000000	0.382131
2357.000000	0.389781
2358.000000	0.387734
2359.000000	0.387274
2360.000000	0.397617
2361.000000	0.401750
2362.000000	0.390075
2363.000000	0.384352
2364.000000	0.382548
2365.000000	0.384696
2366.000000	0.375467
2367.000000	0.376460
2368.000000	0.387809
2369.000000	0.377160
2370.000000	0.375274
2371.000000	0.373386
2372.000000	0.375843
2373.000000	0.375126
2374.000000	0.373690
2375.000000	0.376241
2376.000000	0.367128
2377.000000	0.361712
2378.000000	0.360700
2379.000000	0.371352
2380.000000	0.370936
2381.000000	0.372878
2382.000000	0.371495
2383.000000	0.356465
2384.000000	0.363147
2385.000000	0.367207
2386.000000	0.364971
2387.000000	0.352392
2388.000000	0.354199
2389.000000	0.365525
2390.000000	0.358852
2391.000000	0.359543
2392.000000	0.356714
2393.000000	0.344756
2394.000000	0.346566
2395.000000	0.360120
2396.000000	0.351077
2397.000000	0.354759
2398.000000	0.356454
2399.000000	0.349753
2400.000000	0.347125
2401.000000	0.338829
2402.000000	0.350411
2403.000000	0.346932
2404.000000	0.337243
2405.000000	0.337072
2406.000000	0.329000
2407.000000	0.338617
2408.000000	0.335902
2409.000000	0.317638
2410.000000	0.338501
2411.000000	0.353798
2412.000000	0.328868
2413.000000	0.318129
2414.000000	0.306339
2415.000000	0.320177
2416.000000	0.326515
2417.000000	0.315554
2418.000000	0.311088
2419.000000	0.318228
2420.000000	0.326546
2421.000000	0.305442
2422.000000	0.301782
2423.000000	0.306241
2424.000000	0.312857
2425.000000	0.315990
2426.000000	0.306922
2427.000000	0.295080
2428.000000	0.301583
2429.000000	0.313717
2430.000000	0.324035
2431.000000	0.315861
2432.000000	0.310148
2433.000000	0.314126
2434.000000	0.310318
2435.000000	0.314541
2436.000000	0.325022
2437.000000	0.316514
2438.000000	0.313930
2439.000000	0.326518
2440.000000	0.333166
2441.000000	0.321359
2442.000000	0.327909
2443.000000	0.319568
2444.000000	0.313686
2445.000000	0.318822
2446.000000	0.327601
2447.000000	0.331123
2448.000000	0.322575
2449.000000	0.319953
2450.000000	0.330632
2451.000000	0.333588
2452.000000	0.336211
2453.000000	0.345895
2454.000000	0.331423
2455.000000	0.334033
2456.000000	0.332832
2457.000000	0.340963
2458.000000	0.337008
2459.000000	0.343161
2460.000000	0.347228
2461.000000	0.354782
2462.000000	0.337257
2463.000000	0.330349
2464.000000	0.343137
2465.000000	0.351738
2466.000000	0.349360
2467.000000	0.352047
2468.000000	0.360050
2469.000000	0.333873
2470.000000	0.320902
2471.000000	0.334406
2472.000000	0.353351
2473.000000	0.306721
2474.000000	0.341888
2475.000000	0.322926
2476.000000	0.385222
2477.000000	0.366955
2478.000000	0.328314
2479.000000	0.344294
2480.000000	0.336210
2481.000000	0.350297
2482.000000	0.357264
2483.000000	0.307410
2484.000000	0.354710
2485.000000	0.354663
2486.000000	0.302265
2487.000000	0.396249
2488.000000	0.312275
2489.000000	0.312948
2490.000000	0.299289
2491.000000	0.305163
2492.000000	0.355349
2493.000000	0.342361
2494.000000	0.310765
2495.000000	0.288891
2496.000000	0.315963
2497.000000	0.304913
2498.000000	0.299809
2499.000000	0.312272
2500.000000	0.361946
