PE UV       SUBTECH     SPECTRUM    ASCII       PEDS        4.00        
   -1
BIOUCR0017-3.Sample.ASC
24/02/19
16:35:13.00
24/02/19
16:35:13.00
Vinicio Soto Monge
P. resplendens (sin datos)
250,000000
1
Lambda 1050
1050L1511233
PerkinElmer UV WinLab 6.3.2.0749 / 2.02.05 Lambda 900 UV/VIS/NIR, Aug  7 2015 09:38:08

0
0
3350/servo 860,8/2
0
0
UV/VIS
1
1
1
DoubleDePol,CommonBeamDepol,RBeamAtt,SBeamAtt,60mm sphere, WB InGaAs Detector
0
0
0
0
Program
Program
3350/servo 860,8/2
3350/0,2 860,8/0,2
3350/0,2 860,8/0,2
0
15.00
 
 
 
0
 
860,8
319,2
860,8
Front
100
on
S:100 R:100
0
0
0
0
 
0
 
 
 
0
 
 
0
0
0
0
0
 
 
 
 
0
0


0
0
#HDR
-1
-1
#GR
nm
%R
1.0
0.0
2500,000000
-1,000000
2251
8
22,577600
1,430900
#DATA

250.000000	0.160701
251.000000	0.168709
252.000000	0.189276
253.000000	0.149606
254.000000	0.137168
255.000000	0.138482
256.000000	0.130129
257.000000	0.132654
258.000000	0.147796
259.000000	0.172363
260.000000	0.161356
261.000000	0.149646
262.000000	0.154946
263.000000	0.131216
264.000000	0.129717
265.000000	0.147123
266.000000	0.133767
267.000000	0.120971
268.000000	0.157206
269.000000	0.142455
270.000000	0.158268
271.000000	0.152324
272.000000	0.141892
273.000000	0.154155
274.000000	0.158179
275.000000	0.123661
276.000000	0.120346
277.000000	0.110158
278.000000	0.148463
279.000000	0.144785
280.000000	0.126691
281.000000	0.119287
282.000000	0.117559
283.000000	0.117332
284.000000	0.133482
285.000000	0.153542
286.000000	0.138267
287.000000	0.159748
288.000000	0.123354
289.000000	0.092354
290.000000	0.108098
291.000000	0.111602
292.000000	0.116706
293.000000	0.128576
294.000000	0.168768
295.000000	0.128128
296.000000	0.150272
297.000000	0.110797
298.000000	0.159636
299.000000	0.145990
300.000000	0.151291
301.000000	0.157660
302.000000	0.114877
303.000000	0.134623
304.000000	0.182550
305.000000	0.133947
306.000000	0.142537
307.000000	0.160384
308.000000	0.128948
309.000000	0.150811
310.000000	0.160263
311.000000	0.136613
312.000000	0.119332
313.000000	0.138168
314.000000	0.130223
315.000000	0.156077
316.000000	0.152274
317.000000	0.474005
318.000000	0.242185
319.000000	0.486717
320.000000	0.324499
321.000000	0.206851
322.000000	0.313564
323.000000	0.227111
324.000000	0.373752
325.000000	0.172573
326.000000	0.222300
327.000000	0.307585
328.000000	0.316124
329.000000	0.313894
330.000000	0.323246
331.000000	0.385435
332.000000	0.124794
333.000000	0.137615
334.000000	0.111325
335.000000	0.178571
336.000000	0.284873
337.000000	0.259898
338.000000	0.155140
339.000000	0.203145
340.000000	0.211376
341.000000	0.213053
342.000000	0.229457
343.000000	0.294927
344.000000	0.322323
345.000000	0.221564
346.000000	0.203423
347.000000	0.338226
348.000000	0.330464
349.000000	0.252964
350.000000	0.196784
351.000000	0.234498
352.000000	0.237076
353.000000	0.219379
354.000000	0.245188
355.000000	0.212768
356.000000	0.218912
357.000000	0.244077
358.000000	0.220230
359.000000	0.259112
360.000000	0.265426
361.000000	0.252063
362.000000	0.269269
363.000000	0.243476
364.000000	0.270117
365.000000	0.286449
366.000000	0.254083
367.000000	0.230662
368.000000	0.227032
369.000000	0.257240
370.000000	0.257553
371.000000	0.256218
372.000000	0.252584
373.000000	0.262397
374.000000	0.245670
375.000000	0.259019
376.000000	0.293792
377.000000	0.252379
378.000000	0.260076
379.000000	0.264748
380.000000	0.273219
381.000000	0.273168
382.000000	0.278357
383.000000	0.286331
384.000000	0.286287
385.000000	0.290257
386.000000	0.289334
387.000000	0.296199
388.000000	0.294520
389.000000	0.295632
390.000000	0.303615
391.000000	0.305538
392.000000	0.305645
393.000000	0.306286
394.000000	0.311492
395.000000	0.315863
396.000000	0.316954
397.000000	0.321724
398.000000	0.321157
399.000000	0.322092
400.000000	0.328666
401.000000	0.330253
402.000000	0.332655
403.000000	0.335496
404.000000	0.337968
405.000000	0.342377
406.000000	0.345619
407.000000	0.344715
408.000000	0.347985
409.000000	0.344854
410.000000	0.347044
411.000000	0.350054
412.000000	0.353317
413.000000	0.358616
414.000000	0.356171
415.000000	0.357130
416.000000	0.359355
417.000000	0.365660
418.000000	0.379356
419.000000	0.377825
420.000000	0.373634
421.000000	0.371448
422.000000	0.377586
423.000000	0.386412
424.000000	0.390784
425.000000	0.391184
426.000000	0.390591
427.000000	0.395508
428.000000	0.393994
429.000000	0.392317
430.000000	0.394970
431.000000	0.400865
432.000000	0.405444
433.000000	0.407816
434.000000	0.417838
435.000000	0.417857
436.000000	0.412930
437.000000	0.418755
438.000000	0.423026
439.000000	0.424763
440.000000	0.426396
441.000000	0.430286
442.000000	0.433770
443.000000	0.438842
444.000000	0.441983
445.000000	0.440187
446.000000	0.435841
447.000000	0.433896
448.000000	0.435209
449.000000	0.433523
450.000000	0.431165
451.000000	0.429200
452.000000	0.427050
453.000000	0.424852
454.000000	0.416484
455.000000	0.404706
456.000000	0.396313
457.000000	0.392679
458.000000	0.384018
459.000000	0.374078
460.000000	0.372601
461.000000	0.366432
462.000000	0.360577
463.000000	0.354617
464.000000	0.353494
465.000000	0.352223
466.000000	0.347217
467.000000	0.345537
468.000000	0.344522
469.000000	0.344908
470.000000	0.344862
471.000000	0.339992
472.000000	0.341112
473.000000	0.339417
474.000000	0.336875
475.000000	0.336566
476.000000	0.336964
477.000000	0.340760
478.000000	0.346529
479.000000	0.345353
480.000000	0.347723
481.000000	0.352375
482.000000	0.354718
483.000000	0.358824
484.000000	0.353568
485.000000	0.353596
486.000000	0.350194
487.000000	0.345207
488.000000	0.338635
489.000000	0.334995
490.000000	0.324646
491.000000	0.321699
492.000000	0.320332
493.000000	0.323556
494.000000	0.323569
495.000000	0.336321
496.000000	0.349877
497.000000	0.367121
498.000000	0.387663
499.000000	0.418132
500.000000	0.445347
501.000000	0.461174
502.000000	0.481520
503.000000	0.500699
504.000000	0.519761
505.000000	0.538338
506.000000	0.545579
507.000000	0.554606
508.000000	0.569631
509.000000	0.578975
510.000000	0.585934
511.000000	0.591698
512.000000	0.602019
513.000000	0.606346
514.000000	0.611317
515.000000	0.624047
516.000000	0.634022
517.000000	0.642714
518.000000	0.658258
519.000000	0.667509
520.000000	0.684705
521.000000	0.705284
522.000000	0.733972
523.000000	0.746051
524.000000	0.761927
525.000000	0.790945
526.000000	0.812461
527.000000	0.829462
528.000000	0.844325
529.000000	0.865077
530.000000	0.882360
531.000000	0.896131
532.000000	0.907182
533.000000	0.922872
534.000000	0.933993
535.000000	0.949290
536.000000	0.958965
537.000000	0.972637
538.000000	0.986064
539.000000	1.008774
540.000000	1.031969
541.000000	1.047993
542.000000	1.058481
543.000000	1.074722
544.000000	1.100199
545.000000	1.107059
546.000000	1.123319
547.000000	1.134334
548.000000	1.132600
549.000000	1.126417
550.000000	1.135072
551.000000	1.132302
552.000000	1.123679
553.000000	1.117419
554.000000	1.122794
555.000000	1.109136
556.000000	1.105796
557.000000	1.107566
558.000000	1.114667
559.000000	1.109933
560.000000	1.078397
561.000000	1.070217
562.000000	1.067271
563.000000	1.063923
564.000000	1.061765
565.000000	1.051088
566.000000	1.048622
567.000000	1.027188
568.000000	1.010486
569.000000	1.008305
570.000000	0.990298
571.000000	0.953075
572.000000	0.926736
573.000000	0.904869
574.000000	0.876394
575.000000	0.854195
576.000000	0.828955
577.000000	0.812227
578.000000	0.796594
579.000000	0.773000
580.000000	0.750439
581.000000	0.749846
582.000000	0.748885
583.000000	0.746546
584.000000	0.719353
585.000000	0.715346
586.000000	0.720624
587.000000	0.715725
588.000000	0.720984
589.000000	0.710591
590.000000	0.681505
591.000000	0.644536
592.000000	0.642395
593.000000	0.623251
594.000000	0.605010
595.000000	0.584585
596.000000	0.568814
597.000000	0.565140
598.000000	0.544337
599.000000	0.561268
600.000000	0.550635
601.000000	0.553282
602.000000	0.539397
603.000000	0.545270
604.000000	0.554053
605.000000	0.554546
606.000000	0.523531
607.000000	0.535414
608.000000	0.534179
609.000000	0.513400
610.000000	0.501079
611.000000	0.485701
612.000000	0.488750
613.000000	0.481828
614.000000	0.478468
615.000000	0.477900
616.000000	0.486492
617.000000	0.506695
618.000000	0.527263
619.000000	0.541449
620.000000	0.562570
621.000000	0.593841
622.000000	0.605648
623.000000	0.611975
624.000000	0.625307
625.000000	0.624338
626.000000	0.605448
627.000000	0.604413
628.000000	0.584702
629.000000	0.571139
630.000000	0.559802
631.000000	0.538151
632.000000	0.526723
633.000000	0.555389
634.000000	0.546721
635.000000	0.547242
636.000000	0.572721
637.000000	0.584046
638.000000	0.600603
639.000000	0.630464
640.000000	0.653367
641.000000	0.663583
642.000000	0.695589
643.000000	0.713084
644.000000	0.731475
645.000000	0.760308
646.000000	0.766398
647.000000	0.776467
648.000000	0.788336
649.000000	0.783149
650.000000	0.792810
651.000000	0.801188
652.000000	0.807009
653.000000	0.825735
654.000000	0.858425
655.000000	0.871929
656.000000	0.873921
657.000000	0.889848
658.000000	0.918937
659.000000	0.950054
660.000000	0.973651
661.000000	0.962095
662.000000	0.949590
663.000000	0.923360
664.000000	0.925576
665.000000	0.892985
666.000000	0.875714
667.000000	0.863202
668.000000	0.852077
669.000000	0.817296
670.000000	0.789296
671.000000	0.783001
672.000000	0.784996
673.000000	0.770374
674.000000	0.767898
675.000000	0.769331
676.000000	0.767774
677.000000	0.781169
678.000000	0.792571
679.000000	0.801321
680.000000	0.816470
681.000000	0.842403
682.000000	0.848489
683.000000	0.865775
684.000000	0.891310
685.000000	0.903344
686.000000	0.912049
687.000000	0.939012
688.000000	0.959779
689.000000	0.975789
690.000000	0.991260
691.000000	0.992413
692.000000	0.994903
693.000000	1.021684
694.000000	1.041235
695.000000	1.046913
696.000000	1.063591
697.000000	1.074435
698.000000	1.088173
699.000000	1.101184
700.000000	1.096594
701.000000	1.092241
702.000000	1.108086
703.000000	1.131695
704.000000	1.129204
705.000000	1.119833
706.000000	1.120226
707.000000	1.117483
708.000000	1.111340
709.000000	1.106204
710.000000	1.091074
711.000000	1.122125
712.000000	1.149167
713.000000	1.157921
714.000000	1.153965
715.000000	1.167509
716.000000	1.189252
717.000000	1.187772
718.000000	1.223480
719.000000	1.275278
720.000000	1.291041
721.000000	1.290770
722.000000	1.294819
723.000000	1.333871
724.000000	1.377521
725.000000	1.386262
726.000000	1.401281
727.000000	1.447168
728.000000	1.462381
729.000000	1.495945
730.000000	1.509238
731.000000	1.531333
732.000000	1.552013
733.000000	1.561120
734.000000	1.568473
735.000000	1.594843
736.000000	1.632864
737.000000	1.656363
738.000000	1.667031
739.000000	1.679693
740.000000	1.688347
741.000000	1.686525
742.000000	1.710416
743.000000	1.742444
744.000000	1.738515
745.000000	1.731607
746.000000	1.745886
747.000000	1.749405
748.000000	1.765446
749.000000	1.766445
750.000000	1.718052
751.000000	1.700041
752.000000	1.699169
753.000000	1.700983
754.000000	1.703845
755.000000	1.706716
756.000000	1.700207
757.000000	1.728593
758.000000	1.734279
759.000000	1.709136
760.000000	1.722397
761.000000	1.733548
762.000000	1.737613
763.000000	1.735152
764.000000	1.727084
765.000000	1.733561
766.000000	1.740120
767.000000	1.723606
768.000000	1.688146
769.000000	1.680400
770.000000	1.712564
771.000000	1.713956
772.000000	1.725751
773.000000	1.733392
774.000000	1.703558
775.000000	1.673490
776.000000	1.663528
777.000000	1.667417
778.000000	1.707606
779.000000	1.723617
780.000000	1.695094
781.000000	1.660067
782.000000	1.676950
783.000000	1.660019
784.000000	1.660496
785.000000	1.644010
786.000000	1.645670
787.000000	1.671431
788.000000	1.684134
789.000000	1.683479
790.000000	1.653084
791.000000	1.688431
792.000000	1.669749
793.000000	1.641722
794.000000	1.661701
795.000000	1.679571
796.000000	1.679195
797.000000	1.704583
798.000000	1.710419
799.000000	1.732995
800.000000	1.733759
801.000000	1.713853
802.000000	1.717333
803.000000	1.742279
804.000000	1.738947
805.000000	1.743350
806.000000	1.743395
807.000000	1.739236
808.000000	1.699739
809.000000	1.677478
810.000000	1.662255
811.000000	1.685644
812.000000	1.659287
813.000000	1.646903
814.000000	1.690144
815.000000	1.658376
816.000000	1.653567
817.000000	1.642806
818.000000	1.605548
819.000000	1.582117
820.000000	1.601465
821.000000	1.616209
822.000000	1.612809
823.000000	1.630868
824.000000	1.633678
825.000000	1.563954
826.000000	1.564476
827.000000	1.488770
828.000000	1.471773
829.000000	1.546733
830.000000	1.546873
831.000000	1.534118
832.000000	1.497688
833.000000	1.481497
834.000000	1.550818
835.000000	1.503176
836.000000	1.448236
837.000000	1.366513
838.000000	1.453798
839.000000	1.481809
840.000000	1.521976
841.000000	1.515158
842.000000	1.609445
843.000000	1.468002
844.000000	1.527836
845.000000	1.524913
846.000000	1.470918
847.000000	1.474593
848.000000	1.547375
849.000000	1.468669
850.000000	1.471539
851.000000	1.485384
852.000000	1.519037
853.000000	1.461222
854.000000	1.290629
855.000000	1.403108
856.000000	1.496708
857.000000	1.286949
858.000000	1.008189
859.000000	1.294969
860.000000	1.312921
861.000000	1.319839
862.000000	1.325708
863.000000	1.336642
864.000000	1.358748
865.000000	1.376980
866.000000	1.382128
867.000000	1.373283
868.000000	1.386264
869.000000	1.391308
870.000000	1.396496
871.000000	1.406962
872.000000	1.388130
873.000000	1.412343
874.000000	1.386515
875.000000	1.414049
876.000000	1.414733
877.000000	1.427582
878.000000	1.413480
879.000000	1.429306
880.000000	1.439434
881.000000	1.463362
882.000000	1.463577
883.000000	1.482863
884.000000	1.484568
885.000000	1.488446
886.000000	1.507380
887.000000	1.534969
888.000000	1.540740
889.000000	1.553367
890.000000	1.569918
891.000000	1.572924
892.000000	1.602033
893.000000	1.598012
894.000000	1.608832
895.000000	1.640101
896.000000	1.632361
897.000000	1.656244
898.000000	1.672112
899.000000	1.669597
900.000000	1.675064
901.000000	1.670866
902.000000	1.689471
903.000000	1.709614
904.000000	1.714574
905.000000	1.755102
906.000000	1.744567
907.000000	1.741295
908.000000	1.763619
909.000000	1.756259
910.000000	1.765179
911.000000	1.773867
912.000000	1.780536
913.000000	1.793489
914.000000	1.799859
915.000000	1.802957
916.000000	1.823952
917.000000	1.849743
918.000000	1.858450
919.000000	1.856622
920.000000	1.879198
921.000000	1.882764
922.000000	1.894826
923.000000	1.922524
924.000000	1.911782
925.000000	1.909017
926.000000	1.933120
927.000000	1.933290
928.000000	1.931146
929.000000	1.932312
930.000000	1.945201
931.000000	1.972207
932.000000	1.960582
933.000000	1.954762
934.000000	1.955491
935.000000	1.944557
936.000000	1.933556
937.000000	1.932296
938.000000	1.925383
939.000000	1.925348
940.000000	1.917189
941.000000	1.913309
942.000000	1.916697
943.000000	1.927623
944.000000	1.913130
945.000000	1.895505
946.000000	1.906460
947.000000	1.912219
948.000000	1.934527
949.000000	1.908075
950.000000	1.895776
951.000000	1.911576
952.000000	1.921199
953.000000	1.904187
954.000000	1.904956
955.000000	1.930327
956.000000	1.931944
957.000000	1.921034
958.000000	1.930454
959.000000	1.931246
960.000000	1.931669
961.000000	1.931156
962.000000	1.934650
963.000000	1.930690
964.000000	1.929876
965.000000	1.934104
966.000000	1.931975
967.000000	1.932006
968.000000	1.946430
969.000000	1.946660
970.000000	1.941833
971.000000	1.940404
972.000000	1.944354
973.000000	1.955556
974.000000	1.961020
975.000000	1.962162
976.000000	1.956706
977.000000	1.947536
978.000000	1.955964
979.000000	1.971741
980.000000	1.981055
981.000000	1.972760
982.000000	1.975690
983.000000	1.983548
984.000000	1.986375
985.000000	1.974492
986.000000	1.980831
987.000000	1.985554
988.000000	1.990236
989.000000	1.994209
990.000000	1.997533
991.000000	1.990053
992.000000	1.990914
993.000000	1.997667
994.000000	2.008067
995.000000	2.010393
996.000000	2.012091
997.000000	2.009822
998.000000	2.017419
999.000000	2.015952
1000.000000	2.015156
1001.000000	2.027905
1002.000000	2.034484
1003.000000	2.040854
1004.000000	2.036119
1005.000000	2.025824
1006.000000	2.024299
1007.000000	2.019251
1008.000000	2.016240
1009.000000	2.016936
1010.000000	2.011970
1011.000000	2.017422
1012.000000	2.021453
1013.000000	2.034856
1014.000000	2.048914
1015.000000	2.058718
1016.000000	2.066128
1017.000000	2.055557
1018.000000	2.063567
1019.000000	2.072174
1020.000000	2.060768
1021.000000	2.068926
1022.000000	2.089509
1023.000000	2.091103
1024.000000	2.085120
1025.000000	2.090118
1026.000000	2.089056
1027.000000	2.101954
1028.000000	2.117809
1029.000000	2.109478
1030.000000	2.108601
1031.000000	2.110800
1032.000000	2.118085
1033.000000	2.133107
1034.000000	2.138554
1035.000000	2.139360
1036.000000	2.144674
1037.000000	2.143547
1038.000000	2.158083
1039.000000	2.170030
1040.000000	2.169643
1041.000000	2.183486
1042.000000	2.191472
1043.000000	2.192131
1044.000000	2.190221
1045.000000	2.194400
1046.000000	2.197566
1047.000000	2.193474
1048.000000	2.203968
1049.000000	2.225244
1050.000000	2.224568
1051.000000	2.212965
1052.000000	2.222457
1053.000000	2.225693
1054.000000	2.227012
1055.000000	2.242364
1056.000000	2.243258
1057.000000	2.246067
1058.000000	2.258160
1059.000000	2.262293
1060.000000	2.264176
1061.000000	2.275243
1062.000000	2.273969
1063.000000	2.266880
1064.000000	2.268217
1065.000000	2.271612
1066.000000	2.280645
1067.000000	2.281614
1068.000000	2.281246
1069.000000	2.283206
1070.000000	2.290117
1071.000000	2.292283
1072.000000	2.300469
1073.000000	2.301525
1074.000000	2.303213
1075.000000	2.304133
1076.000000	2.296802
1077.000000	2.316788
1078.000000	2.324424
1079.000000	2.325890
1080.000000	2.328078
1081.000000	2.330368
1082.000000	2.334463
1083.000000	2.341717
1084.000000	2.340815
1085.000000	2.353954
1086.000000	2.374921
1087.000000	2.383363
1088.000000	2.376301
1089.000000	2.383472
1090.000000	2.380001
1091.000000	2.397373
1092.000000	2.409707
1093.000000	2.404696
1094.000000	2.416404
1095.000000	2.420689
1096.000000	2.414580
1097.000000	2.412181
1098.000000	2.416506
1099.000000	2.417899
1100.000000	2.421482
1101.000000	2.430040
1102.000000	2.441625
1103.000000	2.423264
1104.000000	2.415107
1105.000000	2.411405
1106.000000	2.412843
1107.000000	2.424945
1108.000000	2.412731
1109.000000	2.409118
1110.000000	2.408402
1111.000000	2.397720
1112.000000	2.393069
1113.000000	2.401722
1114.000000	2.397747
1115.000000	2.403446
1116.000000	2.394759
1117.000000	2.398801
1118.000000	2.385372
1119.000000	2.377315
1120.000000	2.378888
1121.000000	2.377082
1122.000000	2.384010
1123.000000	2.373819
1124.000000	2.368673
1125.000000	2.373369
1126.000000	2.369825
1127.000000	2.354610
1128.000000	2.348238
1129.000000	2.375857
1130.000000	2.351626
1131.000000	2.347711
1132.000000	2.343801
1133.000000	2.348198
1134.000000	2.349567
1135.000000	2.334731
1136.000000	2.316163
1137.000000	2.302920
1138.000000	2.309426
1139.000000	2.325952
1140.000000	2.314988
1141.000000	2.318297
1142.000000	2.304568
1143.000000	2.295910
1144.000000	2.288204
1145.000000	2.281928
1146.000000	2.293395
1147.000000	2.291219
1148.000000	2.298231
1149.000000	2.298096
1150.000000	2.281114
1151.000000	2.277951
1152.000000	2.272997
1153.000000	2.268076
1154.000000	2.286429
1155.000000	2.279654
1156.000000	2.254455
1157.000000	2.230913
1158.000000	2.219145
1159.000000	2.218852
1160.000000	2.192897
1161.000000	2.190174
1162.000000	2.178763
1163.000000	2.173965
1164.000000	2.143593
1165.000000	2.156492
1166.000000	2.136480
1167.000000	2.137315
1168.000000	2.090425
1169.000000	2.101943
1170.000000	2.101805
1171.000000	2.077270
1172.000000	2.080256
1173.000000	2.052875
1174.000000	2.047857
1175.000000	2.052078
1176.000000	2.056351
1177.000000	2.053958
1178.000000	2.058774
1179.000000	2.050039
1180.000000	2.056868
1181.000000	2.064797
1182.000000	2.053425
1183.000000	2.062893
1184.000000	2.086984
1185.000000	2.095239
1186.000000	2.098542
1187.000000	2.095819
1188.000000	2.102510
1189.000000	2.123811
1190.000000	2.152044
1191.000000	2.154421
1192.000000	2.179409
1193.000000	2.189966
1194.000000	2.221738
1195.000000	2.229842
1196.000000	2.243580
1197.000000	2.264643
1198.000000	2.251083
1199.000000	2.263830
1200.000000	2.298375
1201.000000	2.305593
1202.000000	2.326834
1203.000000	2.341643
1204.000000	2.349594
1205.000000	2.349264
1206.000000	2.362704
1207.000000	2.366040
1208.000000	2.372708
1209.000000	2.388164
1210.000000	2.407935
1211.000000	2.406877
1212.000000	2.416076
1213.000000	2.423525
1214.000000	2.429751
1215.000000	2.416560
1216.000000	2.409478
1217.000000	2.409325
1218.000000	2.412871
1219.000000	2.389477
1220.000000	2.386293
1221.000000	2.374132
1222.000000	2.353198
1223.000000	2.328648
1224.000000	2.301686
1225.000000	2.295570
1226.000000	2.284594
1227.000000	2.281138
1228.000000	2.278912
1229.000000	2.262424
1230.000000	2.249951
1231.000000	2.236484
1232.000000	2.241454
1233.000000	2.242950
1234.000000	2.226646
1235.000000	2.223990
1236.000000	2.229202
1237.000000	2.240065
1238.000000	2.229340
1239.000000	2.220862
1240.000000	2.215374
1241.000000	2.222735
1242.000000	2.234433
1243.000000	2.240745
1244.000000	2.227077
1245.000000	2.228389
1246.000000	2.237875
1247.000000	2.249953
1248.000000	2.244358
1249.000000	2.248954
1250.000000	2.258018
1251.000000	2.260986
1252.000000	2.256411
1253.000000	2.265919
1254.000000	2.255732
1255.000000	2.263896
1256.000000	2.280572
1257.000000	2.275976
1258.000000	2.265167
1259.000000	2.269831
1260.000000	2.271801
1261.000000	2.269947
1262.000000	2.274929
1263.000000	2.284047
1264.000000	2.287428
1265.000000	2.281919
1266.000000	2.271604
1267.000000	2.266589
1268.000000	2.265863
1269.000000	2.267134
1270.000000	2.264446
1271.000000	2.262185
1272.000000	2.261250
1273.000000	2.273941
1274.000000	2.265452
1275.000000	2.255718
1276.000000	2.255157
1277.000000	2.253182
1278.000000	2.258923
1279.000000	2.261315
1280.000000	2.255639
1281.000000	2.245020
1282.000000	2.243384
1283.000000	2.251996
1284.000000	2.250057
1285.000000	2.239328
1286.000000	2.242384
1287.000000	2.252319
1288.000000	2.251296
1289.000000	2.243807
1290.000000	2.240334
1291.000000	2.242354
1292.000000	2.242804
1293.000000	2.246827
1294.000000	2.236069
1295.000000	2.236698
1296.000000	2.253715
1297.000000	2.254591
1298.000000	2.254295
1299.000000	2.255967
1300.000000	2.264493
1301.000000	2.264357
1302.000000	2.256945
1303.000000	2.251045
1304.000000	2.241943
1305.000000	2.239071
1306.000000	2.247215
1307.000000	2.245877
1308.000000	2.248753
1309.000000	2.245719
1310.000000	2.236519
1311.000000	2.245855
1312.000000	2.252183
1313.000000	2.250540
1314.000000	2.241395
1315.000000	2.229833
1316.000000	2.224217
1317.000000	2.229839
1318.000000	2.216267
1319.000000	2.200227
1320.000000	2.207445
1321.000000	2.204175
1322.000000	2.197302
1323.000000	2.191145
1324.000000	2.173521
1325.000000	2.161842
1326.000000	2.160369
1327.000000	2.161449
1328.000000	2.148628
1329.000000	2.142354
1330.000000	2.131557
1331.000000	2.127047
1332.000000	2.128506
1333.000000	2.117448
1334.000000	2.092217
1335.000000	2.082494
1336.000000	2.096714
1337.000000	2.087025
1338.000000	2.071609
1339.000000	2.050916
1340.000000	2.035715
1341.000000	2.026907
1342.000000	2.010412
1343.000000	1.979924
1344.000000	1.967603
1345.000000	1.939512
1346.000000	1.907967
1347.000000	1.884462
1348.000000	1.860527
1349.000000	1.839371
1350.000000	1.821673
1351.000000	1.800795
1352.000000	1.779745
1353.000000	1.770342
1354.000000	1.770227
1355.000000	1.731099
1356.000000	1.712696
1357.000000	1.706055
1358.000000	1.688747
1359.000000	1.659741
1360.000000	1.654023
1361.000000	1.667527
1362.000000	1.675771
1363.000000	1.639897
1364.000000	1.635487
1365.000000	1.640398
1366.000000	1.615551
1367.000000	1.621157
1368.000000	1.619062
1369.000000	1.583380
1370.000000	1.566552
1371.000000	1.577491
1372.000000	1.561430
1373.000000	1.524406
1374.000000	1.493960
1375.000000	1.484206
1376.000000	1.470283
1377.000000	1.451555
1378.000000	1.441599
1379.000000	1.422699
1380.000000	1.398526
1381.000000	1.378333
1382.000000	1.387768
1383.000000	1.371984
1384.000000	1.363998
1385.000000	1.344646
1386.000000	1.344012
1387.000000	1.344227
1388.000000	1.343028
1389.000000	1.330527
1390.000000	1.298143
1391.000000	1.297945
1392.000000	1.284610
1393.000000	1.260635
1394.000000	1.231785
1395.000000	1.245680
1396.000000	1.203058
1397.000000	1.132541
1398.000000	1.092434
1399.000000	1.104978
1400.000000	1.094176
1401.000000	1.067252
1402.000000	0.994839
1403.000000	0.984000
1404.000000	0.967779
1405.000000	0.926170
1406.000000	0.902922
1407.000000	0.879753
1408.000000	0.860211
1409.000000	0.825264
1410.000000	0.807725
1411.000000	0.766156
1412.000000	0.747011
1413.000000	0.734345
1414.000000	0.699686
1415.000000	0.689812
1416.000000	0.646089
1417.000000	0.632336
1418.000000	0.601196
1419.000000	0.573183
1420.000000	0.552296
1421.000000	0.529801
1422.000000	0.518823
1423.000000	0.481965
1424.000000	0.461428
1425.000000	0.461938
1426.000000	0.448913
1427.000000	0.418287
1428.000000	0.404200
1429.000000	0.382235
1430.000000	0.353763
1431.000000	0.346337
1432.000000	0.358953
1433.000000	0.341198
1434.000000	0.314873
1435.000000	0.303978
1436.000000	0.301119
1437.000000	0.284584
1438.000000	0.277266
1439.000000	0.265593
1440.000000	0.254988
1441.000000	0.253570
1442.000000	0.239460
1443.000000	0.229603
1444.000000	0.195268
1445.000000	0.197629
1446.000000	0.194089
1447.000000	0.185772
1448.000000	0.171000
1449.000000	0.162607
1450.000000	0.177450
1451.000000	0.173945
1452.000000	0.169702
1453.000000	0.152353
1454.000000	0.150560
1455.000000	0.150923
1456.000000	0.155252
1457.000000	0.155268
1458.000000	0.159055
1459.000000	0.157075
1460.000000	0.144139
1461.000000	0.156002
1462.000000	0.151767
1463.000000	0.162067
1464.000000	0.182938
1465.000000	0.186570
1466.000000	0.194357
1467.000000	0.186146
1468.000000	0.196536
1469.000000	0.201395
1470.000000	0.189632
1471.000000	0.201214
1472.000000	0.203624
1473.000000	0.211313
1474.000000	0.201374
1475.000000	0.207670
1476.000000	0.194642
1477.000000	0.203771
1478.000000	0.208394
1479.000000	0.204696
1480.000000	0.202095
1481.000000	0.211354
1482.000000	0.197877
1483.000000	0.209096
1484.000000	0.209747
1485.000000	0.207668
1486.000000	0.210684
1487.000000	0.207395
1488.000000	0.216960
1489.000000	0.216804
1490.000000	0.219867
1491.000000	0.215465
1492.000000	0.210230
1493.000000	0.218157
1494.000000	0.216941
1495.000000	0.213988
1496.000000	0.213804
1497.000000	0.214250
1498.000000	0.223635
1499.000000	0.222802
1500.000000	0.208112
1501.000000	0.212275
1502.000000	0.210176
1503.000000	0.204847
1504.000000	0.197132
1505.000000	0.204402
1506.000000	0.205671
1507.000000	0.214990
1508.000000	0.211538
1509.000000	0.209380
1510.000000	0.220812
1511.000000	0.220217
1512.000000	0.226895
1513.000000	0.235452
1514.000000	0.238754
1515.000000	0.239560
1516.000000	0.240663
1517.000000	0.214164
1518.000000	0.225280
1519.000000	0.238327
1520.000000	0.251639
1521.000000	0.241618
1522.000000	0.239472
1523.000000	0.230392
1524.000000	0.239989
1525.000000	0.243720
1526.000000	0.254574
1527.000000	0.256322
1528.000000	0.253454
1529.000000	0.252572
1530.000000	0.243641
1531.000000	0.254249
1532.000000	0.256765
1533.000000	0.259880
1534.000000	0.264116
1535.000000	0.260281
1536.000000	0.258613
1537.000000	0.250978
1538.000000	0.255236
1539.000000	0.253967
1540.000000	0.248594
1541.000000	0.254699
1542.000000	0.260436
1543.000000	0.248819
1544.000000	0.250655
1545.000000	0.257752
1546.000000	0.244904
1547.000000	0.236459
1548.000000	0.247469
1549.000000	0.241737
1550.000000	0.235428
1551.000000	0.240920
1552.000000	0.251120
1553.000000	0.262778
1554.000000	0.257366
1555.000000	0.258036
1556.000000	0.266116
1557.000000	0.276159
1558.000000	0.287979
1559.000000	0.291399
1560.000000	0.287501
1561.000000	0.287608
1562.000000	0.297423
1563.000000	0.302481
1564.000000	0.298568
1565.000000	0.296568
1566.000000	0.308336
1567.000000	0.325589
1568.000000	0.330899
1569.000000	0.328684
1570.000000	0.322954
1571.000000	0.316684
1572.000000	0.315615
1573.000000	0.323766
1574.000000	0.326174
1575.000000	0.319670
1576.000000	0.322957
1577.000000	0.334745
1578.000000	0.339742
1579.000000	0.341212
1580.000000	0.339854
1581.000000	0.344679
1582.000000	0.353448
1583.000000	0.356642
1584.000000	0.365439
1585.000000	0.382217
1586.000000	0.394344
1587.000000	0.387668
1588.000000	0.376730
1589.000000	0.389582
1590.000000	0.399694
1591.000000	0.391487
1592.000000	0.392726
1593.000000	0.404103
1594.000000	0.420589
1595.000000	0.423506
1596.000000	0.423032
1597.000000	0.429132
1598.000000	0.430204
1599.000000	0.439186
1600.000000	0.452770
1601.000000	0.457992
1602.000000	0.466573
1603.000000	0.474403
1604.000000	0.483730
1605.000000	0.477306
1606.000000	0.477963
1607.000000	0.479041
1608.000000	0.475270
1609.000000	0.478114
1610.000000	0.488922
1611.000000	0.497193
1612.000000	0.502050
1613.000000	0.503547
1614.000000	0.502259
1615.000000	0.502925
1616.000000	0.499144
1617.000000	0.487054
1618.000000	0.491842
1619.000000	0.483950
1620.000000	0.492071
1621.000000	0.489975
1622.000000	0.489448
1623.000000	0.494690
1624.000000	0.481182
1625.000000	0.482964
1626.000000	0.478864
1627.000000	0.490394
1628.000000	0.473377
1629.000000	0.466056
1630.000000	0.461598
1631.000000	0.476012
1632.000000	0.479920
1633.000000	0.489809
1634.000000	0.487745
1635.000000	0.476230
1636.000000	0.484939
1637.000000	0.480675
1638.000000	0.465263
1639.000000	0.453320
1640.000000	0.462049
1641.000000	0.461032
1642.000000	0.458846
1643.000000	0.461184
1644.000000	0.460021
1645.000000	0.473407
1646.000000	0.459494
1647.000000	0.460610
1648.000000	0.461025
1649.000000	0.456035
1650.000000	0.456308
1651.000000	0.443077
1652.000000	0.441549
1653.000000	0.435670
1654.000000	0.438223
1655.000000	0.433183
1656.000000	0.407660
1657.000000	0.396418
1658.000000	0.387812
1659.000000	0.393943
1660.000000	0.388764
1661.000000	0.373708
1662.000000	0.356426
1663.000000	0.340125
1664.000000	0.340085
1665.000000	0.313437
1666.000000	0.303549
1667.000000	0.306795
1668.000000	0.295153
1669.000000	0.275404
1670.000000	0.258552
1671.000000	0.252828
1672.000000	0.245108
1673.000000	0.239154
1674.000000	0.249797
1675.000000	0.235458
1676.000000	0.234338
1677.000000	0.229213
1678.000000	0.221189
1679.000000	0.218407
1680.000000	0.215654
1681.000000	0.216280
1682.000000	0.201113
1683.000000	0.186486
1684.000000	0.212254
1685.000000	0.186774
1686.000000	0.209463
1687.000000	0.201245
1688.000000	0.217769
1689.000000	0.224892
1690.000000	0.254495
1691.000000	0.277837
1692.000000	0.292262
1693.000000	0.310413
1694.000000	0.341213
1695.000000	0.367743
1696.000000	0.384024
1697.000000	0.393303
1698.000000	0.427722
1699.000000	0.445279
1700.000000	0.463502
1701.000000	0.509707
1702.000000	0.501661
1703.000000	0.530711
1704.000000	0.570957
1705.000000	0.567305
1706.000000	0.577937
1707.000000	0.587432
1708.000000	0.609362
1709.000000	0.613770
1710.000000	0.623852
1711.000000	0.631128
1712.000000	0.598191
1713.000000	0.591919
1714.000000	0.588588
1715.000000	0.591289
1716.000000	0.586390
1717.000000	0.570593
1718.000000	0.556765
1719.000000	0.562707
1720.000000	0.544543
1721.000000	0.540861
1722.000000	0.562691
1723.000000	0.553647
1724.000000	0.572746
1725.000000	0.595342
1726.000000	0.603963
1727.000000	0.614941
1728.000000	0.645043
1729.000000	0.652434
1730.000000	0.668210
1731.000000	0.667931
1732.000000	0.665878
1733.000000	0.658501
1734.000000	0.627970
1735.000000	0.616732
1736.000000	0.588002
1737.000000	0.576427
1738.000000	0.544799
1739.000000	0.538429
1740.000000	0.522449
1741.000000	0.507435
1742.000000	0.497610
1743.000000	0.504531
1744.000000	0.506876
1745.000000	0.500264
1746.000000	0.490214
1747.000000	0.493613
1748.000000	0.504674
1749.000000	0.502583
1750.000000	0.513001
1751.000000	0.522141
1752.000000	0.526529
1753.000000	0.531291
1754.000000	0.536437
1755.000000	0.542608
1756.000000	0.538944
1757.000000	0.550204
1758.000000	0.543096
1759.000000	0.546025
1760.000000	0.554353
1761.000000	0.559465
1762.000000	0.557651
1763.000000	0.551599
1764.000000	0.558762
1765.000000	0.551584
1766.000000	0.539292
1767.000000	0.534999
1768.000000	0.509498
1769.000000	0.473928
1770.000000	0.465624
1771.000000	0.453193
1772.000000	0.440016
1773.000000	0.432528
1774.000000	0.434259
1775.000000	0.419489
1776.000000	0.410290
1777.000000	0.404759
1778.000000	0.409816
1779.000000	0.399654
1780.000000	0.402924
1781.000000	0.389563
1782.000000	0.390556
1783.000000	0.386183
1784.000000	0.373872
1785.000000	0.374860
1786.000000	0.383120
1787.000000	0.373892
1788.000000	0.370651
1789.000000	0.369472
1790.000000	0.365756
1791.000000	0.372023
1792.000000	0.377409
1793.000000	0.375611
1794.000000	0.377004
1795.000000	0.378981
1796.000000	0.389779
1797.000000	0.398280
1798.000000	0.399332
1799.000000	0.414914
1800.000000	0.416927
1801.000000	0.406146
1802.000000	0.401214
1803.000000	0.407933
1804.000000	0.412154
1805.000000	0.422298
1806.000000	0.432009
1807.000000	0.422538
1808.000000	0.412653
1809.000000	0.408838
1810.000000	0.427351
1811.000000	0.436590
1812.000000	0.434353
1813.000000	0.435191
1814.000000	0.448179
1815.000000	0.437242
1816.000000	0.431901
1817.000000	0.438982
1818.000000	0.431992
1819.000000	0.440742
1820.000000	0.450854
1821.000000	0.452292
1822.000000	0.443002
1823.000000	0.423570
1824.000000	0.424485
1825.000000	0.433704
1826.000000	0.433013
1827.000000	0.434247
1828.000000	0.444389
1829.000000	0.439843
1830.000000	0.438190
1831.000000	0.441216
1832.000000	0.425469
1833.000000	0.431714
1834.000000	0.444917
1835.000000	0.443258
1836.000000	0.452675
1837.000000	0.458939
1838.000000	0.443317
1839.000000	0.444513
1840.000000	0.462644
1841.000000	0.469095
1842.000000	0.466129
1843.000000	0.448973
1844.000000	0.430819
1845.000000	0.427545
1846.000000	0.445988
1847.000000	0.456039
1848.000000	0.448884
1849.000000	0.434913
1850.000000	0.422031
1851.000000	0.423642
1852.000000	0.428294
1853.000000	0.421033
1854.000000	0.418395
1855.000000	0.412161
1856.000000	0.401208
1857.000000	0.389922
1858.000000	0.385430
1859.000000	0.388643
1860.000000	0.372439
1861.000000	0.358062
1862.000000	0.350544
1863.000000	0.330125
1864.000000	0.319940
1865.000000	0.311484
1866.000000	0.311709
1867.000000	0.312832
1868.000000	0.283846
1869.000000	0.271736
1870.000000	0.264923
1871.000000	0.242421
1872.000000	0.229693
1873.000000	0.208540
1874.000000	0.189915
1875.000000	0.177713
1876.000000	0.167928
1877.000000	0.143025
1878.000000	0.123104
1879.000000	0.132115
1880.000000	0.128107
1881.000000	0.132676
1882.000000	0.140865
1883.000000	0.136387
1884.000000	0.153797
1885.000000	0.170060
1886.000000	0.195932
1887.000000	0.218784
1888.000000	0.240478
1889.000000	0.266309
1890.000000	0.296472
1891.000000	0.338827
1892.000000	0.383511
1893.000000	0.395709
1894.000000	0.439964
1895.000000	0.475514
1896.000000	0.525832
1897.000000	0.558028
1898.000000	0.570636
1899.000000	0.588058
1900.000000	0.628365
1901.000000	0.644937
1902.000000	0.668093
1903.000000	0.700802
1904.000000	0.710894
1905.000000	0.729042
1906.000000	0.746750
1907.000000	0.765634
1908.000000	0.781522
1909.000000	0.804761
1910.000000	0.792425
1911.000000	0.811948
1912.000000	0.820234
1913.000000	0.817721
1914.000000	0.814146
1915.000000	0.813146
1916.000000	0.842278
1917.000000	0.858990
1918.000000	0.859106
1919.000000	0.852196
1920.000000	0.825047
1921.000000	0.840674
1922.000000	0.836793
1923.000000	0.846346
1924.000000	0.857519
1925.000000	0.845115
1926.000000	0.845619
1927.000000	0.846851
1928.000000	0.850457
1929.000000	0.842242
1930.000000	0.845277
1931.000000	0.853644
1932.000000	0.842571
1933.000000	0.833687
1934.000000	0.861168
1935.000000	0.837041
1936.000000	0.847514
1937.000000	0.839497
1938.000000	0.827686
1939.000000	0.836018
1940.000000	0.831331
1941.000000	0.822166
1942.000000	0.824355
1943.000000	0.831065
1944.000000	0.814684
1945.000000	0.804958
1946.000000	0.805757
1947.000000	0.808687
1948.000000	0.805566
1949.000000	0.796181
1950.000000	0.800992
1951.000000	0.782997
1952.000000	0.772082
1953.000000	0.779250
1954.000000	0.776568
1955.000000	0.772090
1956.000000	0.766894
1957.000000	0.761684
1958.000000	0.746678
1959.000000	0.751726
1960.000000	0.746847
1961.000000	0.745240
1962.000000	0.745006
1963.000000	0.745280
1964.000000	0.744504
1965.000000	0.753176
1966.000000	0.733083
1967.000000	0.724958
1968.000000	0.725938
1969.000000	0.723079
1970.000000	0.730513
1971.000000	0.684922
1972.000000	0.714132
1973.000000	0.712271
1974.000000	0.705530
1975.000000	0.699640
1976.000000	0.708755
1977.000000	0.690747
1978.000000	0.678192
1979.000000	0.678614
1980.000000	0.686396
1981.000000	0.676302
1982.000000	0.677525
1983.000000	0.671216
1984.000000	0.655255
1985.000000	0.657736
1986.000000	0.652647
1987.000000	0.625439
1988.000000	0.641880
1989.000000	0.633014
1990.000000	0.618847
1991.000000	0.616149
1992.000000	0.611347
1993.000000	0.613717
1994.000000	0.591989
1995.000000	0.590564
1996.000000	0.592865
1997.000000	0.589133
1998.000000	0.591289
1999.000000	0.575363
2000.000000	0.554414
2001.000000	0.551796
2002.000000	0.541897
2003.000000	0.550090
2004.000000	0.543105
2005.000000	0.512597
2006.000000	0.514929
2007.000000	0.525195
2008.000000	0.499735
2009.000000	0.486905
2010.000000	0.485420
2011.000000	0.477288
2012.000000	0.484712
2013.000000	0.476327
2014.000000	0.468258
2015.000000	0.470954
2016.000000	0.472706
2017.000000	0.483578
2018.000000	0.470755
2019.000000	0.469502
2020.000000	0.479528
2021.000000	0.481804
2022.000000	0.485349
2023.000000	0.487098
2024.000000	0.492699
2025.000000	0.480691
2026.000000	0.487750
2027.000000	0.497275
2028.000000	0.486396
2029.000000	0.482913
2030.000000	0.473856
2031.000000	0.465726
2032.000000	0.479066
2033.000000	0.464654
2034.000000	0.468364
2035.000000	0.468277
2036.000000	0.454486
2037.000000	0.444306
2038.000000	0.432085
2039.000000	0.447492
2040.000000	0.449095
2041.000000	0.440539
2042.000000	0.427254
2043.000000	0.412396
2044.000000	0.406926
2045.000000	0.406068
2046.000000	0.405042
2047.000000	0.406172
2048.000000	0.409602
2049.000000	0.415325
2050.000000	0.421243
2051.000000	0.426228
2052.000000	0.441623
2053.000000	0.452408
2054.000000	0.461518
2055.000000	0.471053
2056.000000	0.485809
2057.000000	0.490259
2058.000000	0.498282
2059.000000	0.509969
2060.000000	0.532934
2061.000000	0.541187
2062.000000	0.535016
2063.000000	0.545702
2064.000000	0.548550
2065.000000	0.549286
2066.000000	0.560006
2067.000000	0.553013
2068.000000	0.552174
2069.000000	0.558857
2070.000000	0.555481
2071.000000	0.560557
2072.000000	0.566939
2073.000000	0.570205
2074.000000	0.559973
2075.000000	0.555659
2076.000000	0.560619
2077.000000	0.563155
2078.000000	0.566714
2079.000000	0.557639
2080.000000	0.553032
2081.000000	0.563878
2082.000000	0.564653
2083.000000	0.555933
2084.000000	0.544182
2085.000000	0.544293
2086.000000	0.543947
2087.000000	0.543482
2088.000000	0.543317
2089.000000	0.533626
2090.000000	0.528939
2091.000000	0.531976
2092.000000	0.526818
2093.000000	0.507606
2094.000000	0.514238
2095.000000	0.518339
2096.000000	0.515099
2097.000000	0.521760
2098.000000	0.510844
2099.000000	0.510221
2100.000000	0.499598
2101.000000	0.483990
2102.000000	0.496304
2103.000000	0.499792
2104.000000	0.489823
2105.000000	0.480256
2106.000000	0.479408
2107.000000	0.482638
2108.000000	0.469616
2109.000000	0.458381
2110.000000	0.464904
2111.000000	0.461475
2112.000000	0.453315
2113.000000	0.453550
2114.000000	0.444547
2115.000000	0.442287
2116.000000	0.439111
2117.000000	0.437143
2118.000000	0.435569
2119.000000	0.431256
2120.000000	0.423042
2121.000000	0.410900
2122.000000	0.413571
2123.000000	0.424151
2124.000000	0.433962
2125.000000	0.418231
2126.000000	0.409685
2127.000000	0.410595
2128.000000	0.404294
2129.000000	0.412815
2130.000000	0.412043
2131.000000	0.407141
2132.000000	0.406483
2133.000000	0.405920
2134.000000	0.406347
2135.000000	0.402195
2136.000000	0.396507
2137.000000	0.397740
2138.000000	0.396386
2139.000000	0.388451
2140.000000	0.389404
2141.000000	0.396594
2142.000000	0.392732
2143.000000	0.397751
2144.000000	0.394491
2145.000000	0.398615
2146.000000	0.408282
2147.000000	0.413126
2148.000000	0.406583
2149.000000	0.400401
2150.000000	0.401792
2151.000000	0.391738
2152.000000	0.401871
2153.000000	0.409799
2154.000000	0.403266
2155.000000	0.398517
2156.000000	0.405639
2157.000000	0.404969
2158.000000	0.390463
2159.000000	0.389155
2160.000000	0.389863
2161.000000	0.378477
2162.000000	0.377154
2163.000000	0.382163
2164.000000	0.380990
2165.000000	0.372987
2166.000000	0.369535
2167.000000	0.369288
2168.000000	0.357211
2169.000000	0.353838
2170.000000	0.355100
2171.000000	0.358889
2172.000000	0.356320
2173.000000	0.357335
2174.000000	0.349145
2175.000000	0.343501
2176.000000	0.344906
2177.000000	0.352518
2178.000000	0.338047
2179.000000	0.337369
2180.000000	0.345659
2181.000000	0.339924
2182.000000	0.347368
2183.000000	0.331639
2184.000000	0.332337
2185.000000	0.334177
2186.000000	0.344577
2187.000000	0.327146
2188.000000	0.333995
2189.000000	0.336102
2190.000000	0.334649
2191.000000	0.329514
2192.000000	0.320030
2193.000000	0.323016
2194.000000	0.323972
2195.000000	0.311735
2196.000000	0.320520
2197.000000	0.315917
2198.000000	0.300227
2199.000000	0.313728
2200.000000	0.300815
2201.000000	0.300442
2202.000000	0.279596
2203.000000	0.269863
2204.000000	0.266193
2205.000000	0.257067
2206.000000	0.264676
2207.000000	0.246120
2208.000000	0.250335
2209.000000	0.266377
2210.000000	0.241525
2211.000000	0.228206
2212.000000	0.240555
2213.000000	0.233187
2214.000000	0.224350
2215.000000	0.237701
2216.000000	0.214603
2217.000000	0.242367
2218.000000	0.235063
2219.000000	0.232455
2220.000000	0.227092
2221.000000	0.235816
2222.000000	0.241315
2223.000000	0.229160
2224.000000	0.229899
2225.000000	0.234889
2226.000000	0.240288
2227.000000	0.250086
2228.000000	0.240995
2229.000000	0.244199
2230.000000	0.237213
2231.000000	0.234220
2232.000000	0.247504
2233.000000	0.248145
2234.000000	0.246058
2235.000000	0.241544
2236.000000	0.229336
2237.000000	0.246530
2238.000000	0.252789
2239.000000	0.231984
2240.000000	0.241558
2241.000000	0.241609
2242.000000	0.243926
2243.000000	0.244049
2244.000000	0.257353
2245.000000	0.239411
2246.000000	0.243170
2247.000000	0.246131
2248.000000	0.256942
2249.000000	0.253328
2250.000000	0.258785
2251.000000	0.252502
2252.000000	0.251819
2253.000000	0.254451
2254.000000	0.252419
2255.000000	0.242080
2256.000000	0.242245
2257.000000	0.252176
2258.000000	0.233908
2259.000000	0.246564
2260.000000	0.234031
2261.000000	0.236084
2262.000000	0.238297
2263.000000	0.217186
2264.000000	0.232609
2265.000000	0.225932
2266.000000	0.215874
2267.000000	0.211140
2268.000000	0.195402
2269.000000	0.186965
2270.000000	0.190388
2271.000000	0.178377
2272.000000	0.166468
2273.000000	0.167520
2274.000000	0.159917
2275.000000	0.153682
2276.000000	0.145643
2277.000000	0.135008
2278.000000	0.137254
2279.000000	0.143326
2280.000000	0.121659
2281.000000	0.110700
2282.000000	0.110085
2283.000000	0.090333
2284.000000	0.100518
2285.000000	0.084857
2286.000000	0.066197
2287.000000	0.074111
2288.000000	0.074280
2289.000000	0.058703
2290.000000	0.071690
2291.000000	0.053547
2292.000000	0.057560
2293.000000	0.060475
2294.000000	0.055758
2295.000000	0.042250
2296.000000	0.034244
2297.000000	0.033970
2298.000000	0.020679
2299.000000	0.032160
2300.000000	0.035113
2301.000000	0.035778
2302.000000	0.017524
2303.000000	0.021786
2304.000000	0.033187
2305.000000	0.039305
2306.000000	0.032910
2307.000000	0.042624
2308.000000	0.038407
2309.000000	0.027323
2310.000000	0.026314
2311.000000	0.033732
2312.000000	0.043017
2313.000000	0.016023
2314.000000	0.015177
2315.000000	0.015971
2316.000000	0.009585
2317.000000	0.015478
2318.000000	0.013591
2319.000000	0.014886
2320.000000	0.017407
2321.000000	0.017865
2322.000000	0.030294
2323.000000	0.033371
2324.000000	0.031872
2325.000000	0.039417
2326.000000	0.032591
2327.000000	0.043271
2328.000000	0.033854
2329.000000	0.026856
2330.000000	0.029562
2331.000000	0.028693
2332.000000	0.037201
2333.000000	0.016614
2334.000000	0.009550
2335.000000	0.002940
2336.000000	0.003161
2337.000000	0.009103
2338.000000	0.016759
2339.000000	0.020400
2340.000000	0.023065
2341.000000	0.036315
2342.000000	0.047942
2343.000000	0.048460
2344.000000	0.061231
2345.000000	0.076453
2346.000000	0.065494
2347.000000	0.070613
2348.000000	0.081225
2349.000000	0.079835
2350.000000	0.087110
2351.000000	0.082301
2352.000000	0.076028
2353.000000	0.081660
2354.000000	0.078362
2355.000000	0.082974
2356.000000	0.076293
2357.000000	0.077884
2358.000000	0.087602
2359.000000	0.078271
2360.000000	0.071521
2361.000000	0.086455
2362.000000	0.094530
2363.000000	0.086492
2364.000000	0.088395
2365.000000	0.087015
2366.000000	0.088336
2367.000000	0.092018
2368.000000	0.079387
2369.000000	0.075621
2370.000000	0.081439
2371.000000	0.094232
2372.000000	0.098301
2373.000000	0.093777
2374.000000	0.094028
2375.000000	0.098994
2376.000000	0.106984
2377.000000	0.107555
2378.000000	0.103051
2379.000000	0.102627
2380.000000	0.104347
2381.000000	0.113366
2382.000000	0.123246
2383.000000	0.119757
2384.000000	0.109440
2385.000000	0.105573
2386.000000	0.110261
2387.000000	0.113657
2388.000000	0.109889
2389.000000	0.108094
2390.000000	0.115281
2391.000000	0.111998
2392.000000	0.110644
2393.000000	0.112234
2394.000000	0.124423
2395.000000	0.129925
2396.000000	0.127887
2397.000000	0.124918
2398.000000	0.118521
2399.000000	0.120166
2400.000000	0.119918
2401.000000	0.110387
2402.000000	0.107865
2403.000000	0.114211
2404.000000	0.111599
2405.000000	0.108951
2406.000000	0.115511
2407.000000	0.114156
2408.000000	0.116754
2409.000000	0.115944
2410.000000	0.108832
2411.000000	0.103450
2412.000000	0.106743
2413.000000	0.112301
2414.000000	0.121854
2415.000000	0.117142
2416.000000	0.099401
2417.000000	0.104737
2418.000000	0.100603
2419.000000	0.096214
2420.000000	0.106541
2421.000000	0.110867
2422.000000	0.101578
2423.000000	0.107016
2424.000000	0.110301
2425.000000	0.081890
2426.000000	0.075612
2427.000000	0.089524
2428.000000	0.084528
2429.000000	0.085709
2430.000000	0.086937
2431.000000	0.086709
2432.000000	0.077625
2433.000000	0.064654
2434.000000	0.059118
2435.000000	0.071130
2436.000000	0.055976
2437.000000	0.052123
2438.000000	0.054427
2439.000000	0.039944
2440.000000	0.048554
2441.000000	0.048589
2442.000000	0.069467
2443.000000	0.044954
2444.000000	0.051579
2445.000000	0.034039
2446.000000	0.034642
2447.000000	0.031569
2448.000000	0.039879
2449.000000	0.048527
2450.000000	0.041222
2451.000000	0.021453
2452.000000	0.013347
2453.000000	0.019769
2454.000000	0.002651
2455.000000	0.003538
2456.000000	0.012677
2457.000000	0.003225
2458.000000	0.020556
2459.000000	0.022162
2460.000000	0.019796
2461.000000	0.025691
2462.000000	0.010661
2463.000000	0.015067
2464.000000	0.013979
2465.000000	0.025039
2466.000000	0.027553
2467.000000	0.033159
2468.000000	0.038446
2469.000000	0.025257
2470.000000	0.006311
2471.000000	0.013844
2472.000000	0.026912
2473.000000	0.024032
2474.000000	0.010280
2475.000000	0.011207
2476.000000	0.028960
2477.000000	0.038899
2478.000000	0.031514
2479.000000	0.018513
2480.000000	0.028706
2481.000000	0.030750
2482.000000	0.038658
2483.000000	0.050937
2484.000000	0.035595
2485.000000	0.026608
2486.000000	0.067379
2487.000000	0.036145
2488.000000	0.027312
2489.000000	0.035508
2490.000000	0.029096
2491.000000	0.038462
2492.000000	0.062400
2493.000000	0.044800
2494.000000	0.090143
2495.000000	0.037007
2496.000000	0.017816
2497.000000	0.036504
2498.000000	0.069481
2499.000000	0.103649
2500.000000	0.040644
