PE UV       SUBTECH     SPECTRUM    ASCII       PEDS        4.00        
   -1
BIOUCR0013-3.Sample.ASC
24/02/19
15:29:33.00
24/02/19
15:29:33.00
Vinicio Soto Monge
P. chalcotea
250,000000
1
Lambda 1050
1050L1511233
PerkinElmer UV WinLab 6.3.2.0749 / 2.02.05 Lambda 900 UV/VIS/NIR, Aug  7 2015 09:38:08

0
0
3350/servo 860,8/2
0
0
UV/VIS
1
1
1
DoubleDePol,CommonBeamDepol,RBeamAtt,SBeamAtt,60mm sphere, WB InGaAs Detector
0
0
0
0
Program
Program
3350/servo 860,8/2
3350/0,2 860,8/0,2
3350/0,2 860,8/0,2
0
15.00
 
 
 
0
 
860,8
319,2
860,8
Front
100
on
S:100 R:100
0
0
0
0
 
0
 
 
 
0
 
 
0
0
0
0
0
 
 
 
 
0
0


0
0
#HDR
-1
-1
#GR
nm
%R
1.0
0.0
2500,000000
-1,000000
2251
8
20,774800
1,454800
#DATA

250.000000	0.293655
251.000000	0.308912
252.000000	0.297313
253.000000	0.274174
254.000000	0.282944
255.000000	0.303051
256.000000	0.275833
257.000000	0.288301
258.000000	0.288036
259.000000	0.290252
260.000000	0.291417
261.000000	0.304427
262.000000	0.286303
263.000000	0.261860
264.000000	0.261171
265.000000	0.277100
266.000000	0.286361
267.000000	0.275249
268.000000	0.252316
269.000000	0.263797
270.000000	0.274993
271.000000	0.259324
272.000000	0.266496
273.000000	0.237315
274.000000	0.265194
275.000000	0.253556
276.000000	0.261078
277.000000	0.263586
278.000000	0.254166
279.000000	0.248353
280.000000	0.232423
281.000000	0.255421
282.000000	0.265903
283.000000	0.252496
284.000000	0.262737
285.000000	0.271693
286.000000	0.254171
287.000000	0.243943
288.000000	0.227656
289.000000	0.261212
290.000000	0.237493
291.000000	0.249042
292.000000	0.246347
293.000000	0.231199
294.000000	0.244437
295.000000	0.254079
296.000000	0.210454
297.000000	0.229979
298.000000	0.225489
299.000000	0.223534
300.000000	0.255106
301.000000	0.210997
302.000000	0.233121
303.000000	0.234596
304.000000	0.234554
305.000000	0.219235
306.000000	0.240145
307.000000	0.233300
308.000000	0.224558
309.000000	0.217855
310.000000	0.210408
311.000000	0.234818
312.000000	0.238140
313.000000	0.207239
314.000000	0.220795
315.000000	0.202355
316.000000	0.216062
317.000000	0.278793
318.000000	0.373360
319.000000	0.374248
320.000000	0.359063
321.000000	0.412507
322.000000	0.227022
323.000000	0.317329
324.000000	0.237012
325.000000	0.223576
326.000000	0.243070
327.000000	0.306539
328.000000	0.238660
329.000000	0.260945
330.000000	0.236399
331.000000	0.204591
332.000000	0.243307
333.000000	0.191278
334.000000	0.243974
335.000000	0.232337
336.000000	0.216274
337.000000	0.206531
338.000000	0.197046
339.000000	0.255797
340.000000	0.263056
341.000000	0.215838
342.000000	0.211910
343.000000	0.210514
344.000000	0.251092
345.000000	0.276909
346.000000	0.224357
347.000000	0.202679
348.000000	0.222137
349.000000	0.260646
350.000000	0.231993
351.000000	0.213784
352.000000	0.225616
353.000000	0.220948
354.000000	0.220503
355.000000	0.211824
356.000000	0.218850
357.000000	0.199282
358.000000	0.221560
359.000000	0.236336
360.000000	0.193431
361.000000	0.196155
362.000000	0.224946
363.000000	0.202004
364.000000	0.187742
365.000000	0.197369
366.000000	0.194749
367.000000	0.174103
368.000000	0.173853
369.000000	0.170229
370.000000	0.182518
371.000000	0.192126
372.000000	0.186354
373.000000	0.178566
374.000000	0.191172
375.000000	0.193228
376.000000	0.171927
377.000000	0.174595
378.000000	0.178577
379.000000	0.180902
380.000000	0.176611
381.000000	0.180407
382.000000	0.175554
383.000000	0.177894
384.000000	0.182050
385.000000	0.180940
386.000000	0.176943
387.000000	0.174216
388.000000	0.178015
389.000000	0.183777
390.000000	0.177469
391.000000	0.174566
392.000000	0.174830
393.000000	0.177758
394.000000	0.180290
395.000000	0.174060
396.000000	0.175926
397.000000	0.177849
398.000000	0.175700
399.000000	0.175549
400.000000	0.180508
401.000000	0.178264
402.000000	0.178689
403.000000	0.174428
404.000000	0.174793
405.000000	0.180644
406.000000	0.182394
407.000000	0.175539
408.000000	0.172183
409.000000	0.177132
410.000000	0.177288
411.000000	0.172464
412.000000	0.169976
413.000000	0.173598
414.000000	0.173039
415.000000	0.173075
416.000000	0.172738
417.000000	0.170949
418.000000	0.173755
419.000000	0.174776
420.000000	0.172627
421.000000	0.171820
422.000000	0.172488
423.000000	0.171507
424.000000	0.170139
425.000000	0.169603
426.000000	0.170452
427.000000	0.170007
428.000000	0.167588
429.000000	0.166008
430.000000	0.168167
431.000000	0.169979
432.000000	0.170924
433.000000	0.168969
434.000000	0.167861
435.000000	0.169863
436.000000	0.168891
437.000000	0.168945
438.000000	0.169338
439.000000	0.167325
440.000000	0.169751
441.000000	0.169671
442.000000	0.165824
443.000000	0.165432
444.000000	0.168035
445.000000	0.169236
446.000000	0.166737
447.000000	0.166233
448.000000	0.169684
449.000000	0.168558
450.000000	0.165417
451.000000	0.164986
452.000000	0.166788
453.000000	0.168014
454.000000	0.166188
455.000000	0.168356
456.000000	0.167927
457.000000	0.166112
458.000000	0.165816
459.000000	0.165038
460.000000	0.166885
461.000000	0.168681
462.000000	0.168155
463.000000	0.167868
464.000000	0.168408
465.000000	0.169727
466.000000	0.171863
467.000000	0.168464
468.000000	0.168291
469.000000	0.172951
470.000000	0.176063
471.000000	0.174426
472.000000	0.173302
473.000000	0.177689
474.000000	0.180626
475.000000	0.179601
476.000000	0.179595
477.000000	0.181959
478.000000	0.184226
479.000000	0.186548
480.000000	0.192001
481.000000	0.197170
482.000000	0.201548
483.000000	0.209563
484.000000	0.213883
485.000000	0.220787
486.000000	0.230687
487.000000	0.244498
488.000000	0.253330
489.000000	0.262557
490.000000	0.280397
491.000000	0.296266
492.000000	0.306840
493.000000	0.318164
494.000000	0.332645
495.000000	0.347459
496.000000	0.362743
497.000000	0.377075
498.000000	0.394205
499.000000	0.418901
500.000000	0.442106
501.000000	0.462158
502.000000	0.493063
503.000000	0.529924
504.000000	0.566983
505.000000	0.603174
506.000000	0.640461
507.000000	0.685266
508.000000	0.728622
509.000000	0.777741
510.000000	0.825631
511.000000	0.872594
512.000000	0.927688
513.000000	0.975411
514.000000	1.019451
515.000000	1.051346
516.000000	1.083953
517.000000	1.111054
518.000000	1.126896
519.000000	1.142112
520.000000	1.151440
521.000000	1.157222
522.000000	1.158408
523.000000	1.156673
524.000000	1.154766
525.000000	1.152458
526.000000	1.150561
527.000000	1.144837
528.000000	1.138084
529.000000	1.133003
530.000000	1.135336
531.000000	1.130882
532.000000	1.130698
533.000000	1.136707
534.000000	1.136949
535.000000	1.142777
536.000000	1.139375
537.000000	1.146453
538.000000	1.151132
539.000000	1.154357
540.000000	1.155359
541.000000	1.168842
542.000000	1.172903
543.000000	1.184297
544.000000	1.186282
545.000000	1.196692
546.000000	1.207444
547.000000	1.220197
548.000000	1.231027
549.000000	1.236447
550.000000	1.237727
551.000000	1.222478
552.000000	1.208239
553.000000	1.172880
554.000000	1.118212
555.000000	1.035768
556.000000	0.938189
557.000000	0.819762
558.000000	0.694795
559.000000	0.563108
560.000000	0.402583
561.000000	0.290471
562.000000	0.217907
563.000000	0.201573
564.000000	0.207161
565.000000	0.229189
566.000000	0.258777
567.000000	0.299264
568.000000	0.345706
569.000000	0.389086
570.000000	0.425168
571.000000	0.445236
572.000000	0.441367
573.000000	0.423755
574.000000	0.389372
575.000000	0.336876
576.000000	0.285709
577.000000	0.271732
578.000000	0.279109
579.000000	0.315282
580.000000	0.358145
581.000000	0.407131
582.000000	0.447022
583.000000	0.476503
584.000000	0.504609
585.000000	0.532049
586.000000	0.557284
587.000000	0.580609
588.000000	0.603898
589.000000	0.624876
590.000000	0.637646
591.000000	0.637918
592.000000	0.619374
593.000000	0.592963
594.000000	0.548318
595.000000	0.496995
596.000000	0.441833
597.000000	0.399688
598.000000	0.353805
599.000000	0.335399
600.000000	0.340414
601.000000	0.351695
602.000000	0.371797
603.000000	0.399037
604.000000	0.426670
605.000000	0.441009
606.000000	0.453636
607.000000	0.468173
608.000000	0.486034
609.000000	0.501310
610.000000	0.520642
611.000000	0.530120
612.000000	0.545554
613.000000	0.538243
614.000000	0.535894
615.000000	0.525109
616.000000	0.497439
617.000000	0.466283
618.000000	0.431682
619.000000	0.401349
620.000000	0.376486
621.000000	0.353895
622.000000	0.336636
623.000000	0.334019
624.000000	0.335261
625.000000	0.334445
626.000000	0.338708
627.000000	0.348673
628.000000	0.354613
629.000000	0.356878
630.000000	0.362253
631.000000	0.371482
632.000000	0.388374
633.000000	0.399755
634.000000	0.400275
635.000000	0.408297
636.000000	0.419269
637.000000	0.413574
638.000000	0.406482
639.000000	0.394717
640.000000	0.383414
641.000000	0.369349
642.000000	0.352482
643.000000	0.336076
644.000000	0.324140
645.000000	0.320112
646.000000	0.317615
647.000000	0.315736
648.000000	0.319038
649.000000	0.318562
650.000000	0.329352
651.000000	0.325057
652.000000	0.325133
653.000000	0.327385
654.000000	0.329482
655.000000	0.339813
656.000000	0.334764
657.000000	0.346615
658.000000	0.353300
659.000000	0.358296
660.000000	0.361196
661.000000	0.366438
662.000000	0.367973
663.000000	0.361847
664.000000	0.353497
665.000000	0.355034
666.000000	0.356210
667.000000	0.344282
668.000000	0.332304
669.000000	0.326272
670.000000	0.319774
671.000000	0.320312
672.000000	0.306615
673.000000	0.300486
674.000000	0.288645
675.000000	0.289072
676.000000	0.288977
677.000000	0.281464
678.000000	0.283201
679.000000	0.284713
680.000000	0.287772
681.000000	0.293149
682.000000	0.286511
683.000000	0.294571
684.000000	0.302384
685.000000	0.308837
686.000000	0.307761
687.000000	0.313241
688.000000	0.324499
689.000000	0.334345
690.000000	0.333458
691.000000	0.333008
692.000000	0.344275
693.000000	0.344217
694.000000	0.351964
695.000000	0.356728
696.000000	0.359933
697.000000	0.372224
698.000000	0.381721
699.000000	0.389978
700.000000	0.393349
701.000000	0.393177
702.000000	0.386404
703.000000	0.382383
704.000000	0.382647
705.000000	0.385830
706.000000	0.379998
707.000000	0.385438
708.000000	0.391063
709.000000	0.384948
710.000000	0.383373
711.000000	0.384786
712.000000	0.384503
713.000000	0.379410
714.000000	0.395298
715.000000	0.395316
716.000000	0.390479
717.000000	0.387351
718.000000	0.385224
719.000000	0.386879
720.000000	0.381289
721.000000	0.376810
722.000000	0.375065
723.000000	0.375668
724.000000	0.369504
725.000000	0.367470
726.000000	0.364421
727.000000	0.358349
728.000000	0.357183
729.000000	0.349139
730.000000	0.343933
731.000000	0.342124
732.000000	0.343435
733.000000	0.341278
734.000000	0.340676
735.000000	0.343253
736.000000	0.337633
737.000000	0.348747
738.000000	0.361636
739.000000	0.369959
740.000000	0.380498
741.000000	0.389594
742.000000	0.405182
743.000000	0.425879
744.000000	0.458199
745.000000	0.476751
746.000000	0.493845
747.000000	0.524931
748.000000	0.551883
749.000000	0.588862
750.000000	0.612077
751.000000	0.636434
752.000000	0.671049
753.000000	0.703539
754.000000	0.730848
755.000000	0.754921
756.000000	0.777202
757.000000	0.813157
758.000000	0.841391
759.000000	0.858988
760.000000	0.864440
761.000000	0.885417
762.000000	0.928758
763.000000	0.950801
764.000000	0.954508
765.000000	0.979383
766.000000	1.005840
767.000000	1.017303
768.000000	1.030446
769.000000	1.048295
770.000000	1.048121
771.000000	1.065450
772.000000	1.076718
773.000000	1.079139
774.000000	1.095022
775.000000	1.107892
776.000000	1.107918
777.000000	1.115103
778.000000	1.118776
779.000000	1.116983
780.000000	1.099392
781.000000	1.107967
782.000000	1.107001
783.000000	1.091096
784.000000	1.102853
785.000000	1.100499
786.000000	1.106091
787.000000	1.120377
788.000000	1.114800
789.000000	1.071893
790.000000	1.058550
791.000000	1.071268
792.000000	1.057391
793.000000	1.028551
794.000000	1.023249
795.000000	1.000517
796.000000	0.980762
797.000000	1.011041
798.000000	1.027558
799.000000	0.999466
800.000000	0.952044
801.000000	0.948756
802.000000	0.957307
803.000000	0.967204
804.000000	0.971110
805.000000	0.941324
806.000000	0.914774
807.000000	0.914900
808.000000	0.923551
809.000000	0.921690
810.000000	0.906452
811.000000	0.878295
812.000000	0.912312
813.000000	0.898893
814.000000	0.890652
815.000000	0.867507
816.000000	0.904378
817.000000	0.894111
818.000000	0.878503
819.000000	0.869351
820.000000	0.858359
821.000000	0.895517
822.000000	0.887101
823.000000	0.863538
824.000000	0.879476
825.000000	0.883519
826.000000	0.867885
827.000000	0.863533
828.000000	0.881663
829.000000	0.825446
830.000000	0.809524
831.000000	0.777850
832.000000	0.819749
833.000000	0.826673
834.000000	0.851887
835.000000	0.872070
836.000000	0.841837
837.000000	0.811824
838.000000	0.846443
839.000000	0.842015
840.000000	0.821863
841.000000	0.771349
842.000000	0.811360
843.000000	0.831676
844.000000	0.807339
845.000000	0.768074
846.000000	0.796156
847.000000	0.732544
848.000000	0.758280
849.000000	0.757903
850.000000	0.678285
851.000000	0.704835
852.000000	0.669124
853.000000	0.728240
854.000000	0.645742
855.000000	0.697659
856.000000	0.688046
857.000000	0.820707
858.000000	1.317566
859.000000	0.868694
860.000000	0.842975
861.000000	0.824111
862.000000	0.790756
863.000000	0.767023
864.000000	0.761391
865.000000	0.732412
866.000000	0.703534
867.000000	0.681770
868.000000	0.645705
869.000000	0.633247
870.000000	0.586675
871.000000	0.570603
872.000000	0.555855
873.000000	0.513219
874.000000	0.496201
875.000000	0.473230
876.000000	0.424678
877.000000	0.406613
878.000000	0.394712
879.000000	0.368187
880.000000	0.348306
881.000000	0.332703
882.000000	0.302654
883.000000	0.294704
884.000000	0.264325
885.000000	0.243058
886.000000	0.235646
887.000000	0.225835
888.000000	0.222619
889.000000	0.239107
890.000000	0.211074
891.000000	0.214726
892.000000	0.197842
893.000000	0.217475
894.000000	0.217223
895.000000	0.224829
896.000000	0.241613
897.000000	0.261285
898.000000	0.257545
899.000000	0.296357
900.000000	0.308628
901.000000	0.325815
902.000000	0.353237
903.000000	0.369820
904.000000	0.380668
905.000000	0.395716
906.000000	0.424924
907.000000	0.429474
908.000000	0.464057
909.000000	0.480913
910.000000	0.503883
911.000000	0.528602
912.000000	0.568564
913.000000	0.573521
914.000000	0.582976
915.000000	0.619091
916.000000	0.640967
917.000000	0.666309
918.000000	0.667253
919.000000	0.695227
920.000000	0.713690
921.000000	0.736085
922.000000	0.756723
923.000000	0.777653
924.000000	0.812247
925.000000	0.834008
926.000000	0.867613
927.000000	0.875651
928.000000	0.894674
929.000000	0.901330
930.000000	0.915326
931.000000	0.963156
932.000000	0.954704
933.000000	0.985787
934.000000	0.997618
935.000000	1.029561
936.000000	1.038130
937.000000	1.043053
938.000000	1.067369
939.000000	1.079149
940.000000	1.095442
941.000000	1.114569
942.000000	1.116054
943.000000	1.143492
944.000000	1.151259
945.000000	1.172404
946.000000	1.169398
947.000000	1.178074
948.000000	1.196808
949.000000	1.231275
950.000000	1.243618
951.000000	1.234600
952.000000	1.240148
953.000000	1.258033
954.000000	1.271488
955.000000	1.283789
956.000000	1.280780
957.000000	1.292467
958.000000	1.311525
959.000000	1.332434
960.000000	1.341588
961.000000	1.337921
962.000000	1.336052
963.000000	1.363603
964.000000	1.366468
965.000000	1.381235
966.000000	1.380054
967.000000	1.392526
968.000000	1.398303
969.000000	1.399126
970.000000	1.402152
971.000000	1.414126
972.000000	1.417445
973.000000	1.426543
974.000000	1.432124
975.000000	1.441860
976.000000	1.440760
977.000000	1.438625
978.000000	1.445157
979.000000	1.455715
980.000000	1.462061
981.000000	1.464493
982.000000	1.466549
983.000000	1.474367
984.000000	1.483106
985.000000	1.487353
986.000000	1.482598
987.000000	1.503873
988.000000	1.500805
989.000000	1.507102
990.000000	1.515974
991.000000	1.527160
992.000000	1.524504
993.000000	1.503228
994.000000	1.504340
995.000000	1.516255
996.000000	1.524695
997.000000	1.518344
998.000000	1.524394
999.000000	1.527034
1000.000000	1.529164
1001.000000	1.535261
1002.000000	1.535016
1003.000000	1.530998
1004.000000	1.527927
1005.000000	1.532461
1006.000000	1.552230
1007.000000	1.553992
1008.000000	1.546134
1009.000000	1.537668
1010.000000	1.537977
1011.000000	1.537740
1012.000000	1.543312
1013.000000	1.545444
1014.000000	1.535475
1015.000000	1.545084
1016.000000	1.554718
1017.000000	1.553648
1018.000000	1.556923
1019.000000	1.561200
1020.000000	1.559399
1021.000000	1.549721
1022.000000	1.554327
1023.000000	1.561672
1024.000000	1.561191
1025.000000	1.561167
1026.000000	1.572908
1027.000000	1.585875
1028.000000	1.587414
1029.000000	1.582906
1030.000000	1.586638
1031.000000	1.588161
1032.000000	1.581635
1033.000000	1.584591
1034.000000	1.593000
1035.000000	1.589725
1036.000000	1.592874
1037.000000	1.605353
1038.000000	1.606856
1039.000000	1.613870
1040.000000	1.615919
1041.000000	1.605131
1042.000000	1.602187
1043.000000	1.600934
1044.000000	1.612343
1045.000000	1.625123
1046.000000	1.631271
1047.000000	1.635638
1048.000000	1.630975
1049.000000	1.622422
1050.000000	1.623252
1051.000000	1.617107
1052.000000	1.625629
1053.000000	1.642615
1054.000000	1.636604
1055.000000	1.646725
1056.000000	1.642358
1057.000000	1.643041
1058.000000	1.650009
1059.000000	1.651596
1060.000000	1.658349
1061.000000	1.669099
1062.000000	1.670465
1063.000000	1.668561
1064.000000	1.657789
1065.000000	1.667708
1066.000000	1.675309
1067.000000	1.664828
1068.000000	1.673509
1069.000000	1.676495
1070.000000	1.676912
1071.000000	1.685494
1072.000000	1.682781
1073.000000	1.680746
1074.000000	1.684633
1075.000000	1.675603
1076.000000	1.690497
1077.000000	1.695077
1078.000000	1.694738
1079.000000	1.694848
1080.000000	1.700260
1081.000000	1.714710
1082.000000	1.727204
1083.000000	1.717972
1084.000000	1.715101
1085.000000	1.722915
1086.000000	1.726114
1087.000000	1.723740
1088.000000	1.731876
1089.000000	1.739129
1090.000000	1.732654
1091.000000	1.718483
1092.000000	1.717288
1093.000000	1.728585
1094.000000	1.746090
1095.000000	1.737430
1096.000000	1.731374
1097.000000	1.728396
1098.000000	1.733521
1099.000000	1.730578
1100.000000	1.743504
1101.000000	1.731301
1102.000000	1.730021
1103.000000	1.726992
1104.000000	1.723078
1105.000000	1.732380
1106.000000	1.738565
1107.000000	1.729013
1108.000000	1.722112
1109.000000	1.730384
1110.000000	1.733554
1111.000000	1.728752
1112.000000	1.727524
1113.000000	1.728397
1114.000000	1.733981
1115.000000	1.721559
1116.000000	1.716245
1117.000000	1.717748
1118.000000	1.725828
1119.000000	1.719390
1120.000000	1.716811
1121.000000	1.728141
1122.000000	1.719964
1123.000000	1.709909
1124.000000	1.703602
1125.000000	1.700071
1126.000000	1.687318
1127.000000	1.681419
1128.000000	1.667972
1129.000000	1.665876
1130.000000	1.654595
1131.000000	1.641016
1132.000000	1.639685
1133.000000	1.636151
1134.000000	1.633369
1135.000000	1.613964
1136.000000	1.606089
1137.000000	1.582887
1138.000000	1.562271
1139.000000	1.547545
1140.000000	1.549904
1141.000000	1.527983
1142.000000	1.512855
1143.000000	1.513022
1144.000000	1.515866
1145.000000	1.494614
1146.000000	1.502379
1147.000000	1.482918
1148.000000	1.476553
1149.000000	1.467129
1150.000000	1.454128
1151.000000	1.459896
1152.000000	1.450636
1153.000000	1.446452
1154.000000	1.432637
1155.000000	1.410752
1156.000000	1.396557
1157.000000	1.383931
1158.000000	1.377761
1159.000000	1.382406
1160.000000	1.356470
1161.000000	1.349482
1162.000000	1.324841
1163.000000	1.331452
1164.000000	1.314246
1165.000000	1.278952
1166.000000	1.268481
1167.000000	1.262956
1168.000000	1.252928
1169.000000	1.224050
1170.000000	1.221358
1171.000000	1.207375
1172.000000	1.194365
1173.000000	1.183137
1174.000000	1.162652
1175.000000	1.161624
1176.000000	1.153842
1177.000000	1.135659
1178.000000	1.121828
1179.000000	1.123313
1180.000000	1.105130
1181.000000	1.101089
1182.000000	1.100585
1183.000000	1.121426
1184.000000	1.097048
1185.000000	1.088104
1186.000000	1.074274
1187.000000	1.084575
1188.000000	1.072019
1189.000000	1.074173
1190.000000	1.085269
1191.000000	1.095550
1192.000000	1.097025
1193.000000	1.106095
1194.000000	1.094381
1195.000000	1.107907
1196.000000	1.121209
1197.000000	1.128494
1198.000000	1.136398
1199.000000	1.149178
1200.000000	1.151218
1201.000000	1.153094
1202.000000	1.152775
1203.000000	1.159739
1204.000000	1.164976
1205.000000	1.170961
1206.000000	1.170907
1207.000000	1.178741
1208.000000	1.173120
1209.000000	1.196658
1210.000000	1.201110
1211.000000	1.195321
1212.000000	1.213513
1213.000000	1.202219
1214.000000	1.205532
1215.000000	1.217378
1216.000000	1.225189
1217.000000	1.230665
1218.000000	1.229511
1219.000000	1.237072
1220.000000	1.240832
1221.000000	1.245254
1222.000000	1.243121
1223.000000	1.250811
1224.000000	1.250929
1225.000000	1.261479
1226.000000	1.263040
1227.000000	1.265213
1228.000000	1.269165
1229.000000	1.269781
1230.000000	1.266429
1231.000000	1.279590
1232.000000	1.286889
1233.000000	1.287604
1234.000000	1.278364
1235.000000	1.269303
1236.000000	1.267418
1237.000000	1.273481
1238.000000	1.267194
1239.000000	1.288543
1240.000000	1.292763
1241.000000	1.300091
1242.000000	1.299437
1243.000000	1.300866
1244.000000	1.294623
1245.000000	1.294962
1246.000000	1.296907
1247.000000	1.309687
1248.000000	1.324429
1249.000000	1.324282
1250.000000	1.332740
1251.000000	1.325579
1252.000000	1.325733
1253.000000	1.332397
1254.000000	1.342070
1255.000000	1.350339
1256.000000	1.342343
1257.000000	1.345222
1258.000000	1.341520
1259.000000	1.339370
1260.000000	1.344208
1261.000000	1.344853
1262.000000	1.341959
1263.000000	1.320377
1264.000000	1.306311
1265.000000	1.318433
1266.000000	1.326335
1267.000000	1.323504
1268.000000	1.321577
1269.000000	1.316439
1270.000000	1.311185
1271.000000	1.314033
1272.000000	1.311338
1273.000000	1.306480
1274.000000	1.307051
1275.000000	1.317333
1276.000000	1.312658
1277.000000	1.310352
1278.000000	1.315816
1279.000000	1.323197
1280.000000	1.326656
1281.000000	1.324063
1282.000000	1.322814
1283.000000	1.325066
1284.000000	1.325707
1285.000000	1.320907
1286.000000	1.315151
1287.000000	1.319372
1288.000000	1.321675
1289.000000	1.326153
1290.000000	1.335233
1291.000000	1.330210
1292.000000	1.326056
1293.000000	1.329603
1294.000000	1.333800
1295.000000	1.337322
1296.000000	1.332742
1297.000000	1.332553
1298.000000	1.339375
1299.000000	1.343759
1300.000000	1.344724
1301.000000	1.346381
1302.000000	1.351978
1303.000000	1.350847
1304.000000	1.344232
1305.000000	1.334385
1306.000000	1.327061
1307.000000	1.320424
1308.000000	1.321766
1309.000000	1.329246
1310.000000	1.326778
1311.000000	1.319433
1312.000000	1.315070
1313.000000	1.305092
1314.000000	1.298202
1315.000000	1.296713
1316.000000	1.296754
1317.000000	1.293338
1318.000000	1.291578
1319.000000	1.295436
1320.000000	1.285991
1321.000000	1.269511
1322.000000	1.268036
1323.000000	1.275611
1324.000000	1.270071
1325.000000	1.267866
1326.000000	1.249904
1327.000000	1.239606
1328.000000	1.233000
1329.000000	1.237190
1330.000000	1.235150
1331.000000	1.221170
1332.000000	1.209359
1333.000000	1.202339
1334.000000	1.202064
1335.000000	1.183760
1336.000000	1.164595
1337.000000	1.159671
1338.000000	1.146413
1339.000000	1.145810
1340.000000	1.145628
1341.000000	1.115267
1342.000000	1.108213
1343.000000	1.101187
1344.000000	1.079370
1345.000000	1.056327
1346.000000	1.041186
1347.000000	1.044496
1348.000000	1.025668
1349.000000	0.999414
1350.000000	0.981168
1351.000000	0.963527
1352.000000	0.937374
1353.000000	0.920404
1354.000000	0.910197
1355.000000	0.907895
1356.000000	0.897168
1357.000000	0.868979
1358.000000	0.865798
1359.000000	0.862024
1360.000000	0.865947
1361.000000	0.861155
1362.000000	0.854056
1363.000000	0.836178
1364.000000	0.825714
1365.000000	0.821733
1366.000000	0.813272
1367.000000	0.807238
1368.000000	0.812804
1369.000000	0.786224
1370.000000	0.759853
1371.000000	0.746726
1372.000000	0.745600
1373.000000	0.734745
1374.000000	0.707772
1375.000000	0.686937
1376.000000	0.672053
1377.000000	0.651141
1378.000000	0.644666
1379.000000	0.632645
1380.000000	0.613198
1381.000000	0.599215
1382.000000	0.592618
1383.000000	0.583453
1384.000000	0.565640
1385.000000	0.548219
1386.000000	0.530932
1387.000000	0.527278
1388.000000	0.507696
1389.000000	0.481543
1390.000000	0.462526
1391.000000	0.467897
1392.000000	0.454189
1393.000000	0.436038
1394.000000	0.421353
1395.000000	0.399658
1396.000000	0.382900
1397.000000	0.351372
1398.000000	0.327111
1399.000000	0.323527
1400.000000	0.309437
1401.000000	0.262286
1402.000000	0.252202
1403.000000	0.239354
1404.000000	0.222400
1405.000000	0.191485
1406.000000	0.177001
1407.000000	0.148610
1408.000000	0.125160
1409.000000	0.089764
1410.000000	0.084532
1411.000000	0.060593
1412.000000	0.053834
1413.000000	0.030502
1414.000000	0.017370
1415.000000	0.005784
1416.000000	0.029992
1417.000000	0.036583
1418.000000	0.042530
1419.000000	0.057923
1420.000000	0.074554
1421.000000	0.080962
1422.000000	0.078048
1423.000000	0.091319
1424.000000	0.101705
1425.000000	0.110681
1426.000000	0.138934
1427.000000	0.142493
1428.000000	0.151220
1429.000000	0.145661
1430.000000	0.153179
1431.000000	0.181861
1432.000000	0.169915
1433.000000	0.182297
1434.000000	0.195163
1435.000000	0.184919
1436.000000	0.187324
1437.000000	0.201123
1438.000000	0.208216
1439.000000	0.226014
1440.000000	0.201636
1441.000000	0.216334
1442.000000	0.214339
1443.000000	0.211324
1444.000000	0.222959
1445.000000	0.219902
1446.000000	0.230804
1447.000000	0.247624
1448.000000	0.241362
1449.000000	0.237314
1450.000000	0.241753
1451.000000	0.244810
1452.000000	0.257214
1453.000000	0.259940
1454.000000	0.261500
1455.000000	0.266169
1456.000000	0.262954
1457.000000	0.261009
1458.000000	0.265126
1459.000000	0.282214
1460.000000	0.280675
1461.000000	0.279473
1462.000000	0.281558
1463.000000	0.296535
1464.000000	0.295007
1465.000000	0.306477
1466.000000	0.315609
1467.000000	0.313799
1468.000000	0.317139
1469.000000	0.323289
1470.000000	0.340198
1471.000000	0.321353
1472.000000	0.328027
1473.000000	0.338987
1474.000000	0.342265
1475.000000	0.353374
1476.000000	0.360085
1477.000000	0.345992
1478.000000	0.348229
1479.000000	0.353839
1480.000000	0.360324
1481.000000	0.371840
1482.000000	0.359927
1483.000000	0.359583
1484.000000	0.368986
1485.000000	0.369810
1486.000000	0.374465
1487.000000	0.376054
1488.000000	0.373476
1489.000000	0.383214
1490.000000	0.373816
1491.000000	0.369685
1492.000000	0.370278
1493.000000	0.379152
1494.000000	0.388809
1495.000000	0.372546
1496.000000	0.371107
1497.000000	0.373197
1498.000000	0.368036
1499.000000	0.364035
1500.000000	0.379268
1501.000000	0.374784
1502.000000	0.362767
1503.000000	0.371958
1504.000000	0.370417
1505.000000	0.377169
1506.000000	0.363161
1507.000000	0.351097
1508.000000	0.347167
1509.000000	0.337000
1510.000000	0.333579
1511.000000	0.333704
1512.000000	0.326471
1513.000000	0.322995
1514.000000	0.320708
1515.000000	0.301611
1516.000000	0.308567
1517.000000	0.304153
1518.000000	0.310081
1519.000000	0.304000
1520.000000	0.291170
1521.000000	0.288799
1522.000000	0.290942
1523.000000	0.289015
1524.000000	0.279941
1525.000000	0.268673
1526.000000	0.271705
1527.000000	0.272098
1528.000000	0.269028
1529.000000	0.263688
1530.000000	0.254766
1531.000000	0.263528
1532.000000	0.252932
1533.000000	0.258767
1534.000000	0.262216
1535.000000	0.256678
1536.000000	0.245676
1537.000000	0.236380
1538.000000	0.234741
1539.000000	0.228037
1540.000000	0.229058
1541.000000	0.228840
1542.000000	0.225073
1543.000000	0.212010
1544.000000	0.212303
1545.000000	0.215556
1546.000000	0.206805
1547.000000	0.203755
1548.000000	0.195243
1549.000000	0.191645
1550.000000	0.195920
1551.000000	0.198463
1552.000000	0.195503
1553.000000	0.183752
1554.000000	0.172212
1555.000000	0.164188
1556.000000	0.161159
1557.000000	0.152364
1558.000000	0.154306
1559.000000	0.166574
1560.000000	0.163931
1561.000000	0.156125
1562.000000	0.155846
1563.000000	0.158056
1564.000000	0.164188
1565.000000	0.163358
1566.000000	0.149812
1567.000000	0.137167
1568.000000	0.146117
1569.000000	0.155788
1570.000000	0.153182
1571.000000	0.163402
1572.000000	0.171856
1573.000000	0.167048
1574.000000	0.165968
1575.000000	0.163623
1576.000000	0.161296
1577.000000	0.156689
1578.000000	0.154332
1579.000000	0.147216
1580.000000	0.138787
1581.000000	0.137914
1582.000000	0.137607
1583.000000	0.136458
1584.000000	0.139993
1585.000000	0.138437
1586.000000	0.140196
1587.000000	0.143177
1588.000000	0.137779
1589.000000	0.125890
1590.000000	0.125311
1591.000000	0.128294
1592.000000	0.124313
1593.000000	0.115052
1594.000000	0.106734
1595.000000	0.106029
1596.000000	0.103843
1597.000000	0.103818
1598.000000	0.094292
1599.000000	0.083812
1600.000000	0.088647
1601.000000	0.086027
1602.000000	0.093648
1603.000000	0.091657
1604.000000	0.075725
1605.000000	0.073205
1606.000000	0.065120
1607.000000	0.058543
1608.000000	0.053384
1609.000000	0.049191
1610.000000	0.052374
1611.000000	0.055322
1612.000000	0.048433
1613.000000	0.037948
1614.000000	0.033173
1615.000000	0.030569
1616.000000	0.036230
1617.000000	0.022560
1618.000000	0.018034
1619.000000	0.028073
1620.000000	0.023291
1621.000000	0.011358
1622.000000	0.012829
1623.000000	0.013008
1624.000000	0.016215
1625.000000	0.009792
1626.000000	0.020391
1627.000000	0.030867
1628.000000	0.017403
1629.000000	0.019538
1630.000000	0.016739
1631.000000	0.026609
1632.000000	0.022534
1633.000000	0.006658
1634.000000	0.011179
1635.000000	0.019314
1636.000000	0.028736
1637.000000	0.025122
1638.000000	0.025027
1639.000000	0.031550
1640.000000	0.027367
1641.000000	0.030710
1642.000000	0.033207
1643.000000	0.028502
1644.000000	0.034943
1645.000000	0.022886
1646.000000	0.018127
1647.000000	0.023729
1648.000000	0.025001
1649.000000	0.016786
1650.000000	0.027051
1651.000000	0.037735
1652.000000	0.039306
1653.000000	0.020207
1654.000000	0.026779
1655.000000	0.019281
1656.000000	0.017246
1657.000000	0.011841
1658.000000	0.022258
1659.000000	0.035807
1660.000000	0.044123
1661.000000	0.044620
1662.000000	0.065774
1663.000000	0.074914
1664.000000	0.075879
1665.000000	0.084797
1666.000000	0.082713
1667.000000	0.099973
1668.000000	0.118418
1669.000000	0.138449
1670.000000	0.156428
1671.000000	0.182050
1672.000000	0.183291
1673.000000	0.184975
1674.000000	0.181096
1675.000000	0.207408
1676.000000	0.217486
1677.000000	0.212821
1678.000000	0.230731
1679.000000	0.222550
1680.000000	0.232197
1681.000000	0.261465
1682.000000	0.282494
1683.000000	0.289215
1684.000000	0.291004
1685.000000	0.303694
1686.000000	0.309682
1687.000000	0.323701
1688.000000	0.315591
1689.000000	0.323371
1690.000000	0.313020
1691.000000	0.316445
1692.000000	0.309996
1693.000000	0.295530
1694.000000	0.302507
1695.000000	0.282277
1696.000000	0.279938
1697.000000	0.269872
1698.000000	0.272353
1699.000000	0.263849
1700.000000	0.276354
1701.000000	0.288666
1702.000000	0.280482
1703.000000	0.271843
1704.000000	0.278179
1705.000000	0.280970
1706.000000	0.277266
1707.000000	0.272742
1708.000000	0.291745
1709.000000	0.290453
1710.000000	0.289793
1711.000000	0.295673
1712.000000	0.308319
1713.000000	0.312049
1714.000000	0.314898
1715.000000	0.347327
1716.000000	0.356953
1717.000000	0.373267
1718.000000	0.388672
1719.000000	0.382314
1720.000000	0.390475
1721.000000	0.394926
1722.000000	0.417470
1723.000000	0.412779
1724.000000	0.411245
1725.000000	0.402579
1726.000000	0.399912
1727.000000	0.412832
1728.000000	0.419981
1729.000000	0.413884
1730.000000	0.411868
1731.000000	0.405488
1732.000000	0.399983
1733.000000	0.375976
1734.000000	0.396249
1735.000000	0.359609
1736.000000	0.371329
1737.000000	0.381396
1738.000000	0.376655
1739.000000	0.364067
1740.000000	0.353913
1741.000000	0.331643
1742.000000	0.347809
1743.000000	0.318672
1744.000000	0.322084
1745.000000	0.329779
1746.000000	0.317089
1747.000000	0.299246
1748.000000	0.310107
1749.000000	0.304530
1750.000000	0.292726
1751.000000	0.288740
1752.000000	0.287644
1753.000000	0.285736
1754.000000	0.290674
1755.000000	0.282492
1756.000000	0.276311
1757.000000	0.278771
1758.000000	0.291480
1759.000000	0.289451
1760.000000	0.283752
1761.000000	0.274729
1762.000000	0.273153
1763.000000	0.274879
1764.000000	0.274082
1765.000000	0.263138
1766.000000	0.259276
1767.000000	0.259974
1768.000000	0.240241
1769.000000	0.251940
1770.000000	0.248735
1771.000000	0.247948
1772.000000	0.237329
1773.000000	0.225021
1774.000000	0.219871
1775.000000	0.229321
1776.000000	0.235622
1777.000000	0.228373
1778.000000	0.214001
1779.000000	0.212691
1780.000000	0.211599
1781.000000	0.218590
1782.000000	0.219733
1783.000000	0.220271
1784.000000	0.208713
1785.000000	0.205159
1786.000000	0.208955
1787.000000	0.204817
1788.000000	0.195400
1789.000000	0.201802
1790.000000	0.209029
1791.000000	0.207361
1792.000000	0.199729
1793.000000	0.204855
1794.000000	0.195538
1795.000000	0.177470
1796.000000	0.188929
1797.000000	0.195402
1798.000000	0.193716
1799.000000	0.190507
1800.000000	0.180901
1801.000000	0.183697
1802.000000	0.185593
1803.000000	0.180383
1804.000000	0.181841
1805.000000	0.173793
1806.000000	0.165333
1807.000000	0.170828
1808.000000	0.169092
1809.000000	0.164110
1810.000000	0.167728
1811.000000	0.173845
1812.000000	0.184248
1813.000000	0.179291
1814.000000	0.161768
1815.000000	0.157574
1816.000000	0.163325
1817.000000	0.158646
1818.000000	0.153764
1819.000000	0.158319
1820.000000	0.158736
1821.000000	0.157799
1822.000000	0.165677
1823.000000	0.163623
1824.000000	0.156730
1825.000000	0.142578
1826.000000	0.138179
1827.000000	0.154060
1828.000000	0.144991
1829.000000	0.134107
1830.000000	0.131447
1831.000000	0.136022
1832.000000	0.134613
1833.000000	0.132032
1834.000000	0.130393
1835.000000	0.123899
1836.000000	0.122725
1837.000000	0.113716
1838.000000	0.112206
1839.000000	0.120761
1840.000000	0.119614
1841.000000	0.115273
1842.000000	0.114688
1843.000000	0.121695
1844.000000	0.120029
1845.000000	0.107767
1846.000000	0.091409
1847.000000	0.081775
1848.000000	0.094873
1849.000000	0.112628
1850.000000	0.115247
1851.000000	0.103319
1852.000000	0.095501
1853.000000	0.095912
1854.000000	0.095245
1855.000000	0.108504
1856.000000	0.110415
1857.000000	0.106998
1858.000000	0.105268
1859.000000	0.101620
1860.000000	0.106904
1861.000000	0.118591
1862.000000	0.124984
1863.000000	0.126337
1864.000000	0.132729
1865.000000	0.134248
1866.000000	0.137060
1867.000000	0.142601
1868.000000	0.146227
1869.000000	0.150649
1870.000000	0.161142
1871.000000	0.179897
1872.000000	0.178201
1873.000000	0.187415
1874.000000	0.194586
1875.000000	0.215193
1876.000000	0.229141
1877.000000	0.249044
1878.000000	0.266765
1879.000000	0.274781
1880.000000	0.279870
1881.000000	0.292481
1882.000000	0.312490
1883.000000	0.329056
1884.000000	0.352301
1885.000000	0.379156
1886.000000	0.394193
1887.000000	0.404808
1888.000000	0.427149
1889.000000	0.461094
1890.000000	0.473326
1891.000000	0.478552
1892.000000	0.504291
1893.000000	0.541330
1894.000000	0.554654
1895.000000	0.567638
1896.000000	0.585572
1897.000000	0.589972
1898.000000	0.618402
1899.000000	0.635081
1900.000000	0.646851
1901.000000	0.668666
1902.000000	0.678154
1903.000000	0.681444
1904.000000	0.690789
1905.000000	0.700646
1906.000000	0.714042
1907.000000	0.731935
1908.000000	0.730479
1909.000000	0.730927
1910.000000	0.738862
1911.000000	0.744338
1912.000000	0.742259
1913.000000	0.748264
1914.000000	0.754296
1915.000000	0.760676
1916.000000	0.760355
1917.000000	0.750276
1918.000000	0.751676
1919.000000	0.744299
1920.000000	0.744937
1921.000000	0.747610
1922.000000	0.738838
1923.000000	0.741539
1924.000000	0.750563
1925.000000	0.739437
1926.000000	0.749952
1927.000000	0.739026
1928.000000	0.731613
1929.000000	0.752576
1930.000000	0.751672
1931.000000	0.739332
1932.000000	0.745243
1933.000000	0.759050
1934.000000	0.746534
1935.000000	0.737399
1936.000000	0.744127
1937.000000	0.731916
1938.000000	0.730200
1939.000000	0.736846
1940.000000	0.739624
1941.000000	0.738316
1942.000000	0.733324
1943.000000	0.748651
1944.000000	0.725296
1945.000000	0.745389
1946.000000	0.749239
1947.000000	0.727741
1948.000000	0.730033
1949.000000	0.725278
1950.000000	0.718191
1951.000000	0.722442
1952.000000	0.721825
1953.000000	0.728139
1954.000000	0.708205
1955.000000	0.718093
1956.000000	0.707116
1957.000000	0.710549
1958.000000	0.718146
1959.000000	0.716984
1960.000000	0.709683
1961.000000	0.701784
1962.000000	0.701340
1963.000000	0.710983
1964.000000	0.704764
1965.000000	0.705106
1966.000000	0.701584
1967.000000	0.702057
1968.000000	0.686636
1969.000000	0.688018
1970.000000	0.692104
1971.000000	0.685269
1972.000000	0.696288
1973.000000	0.674535
1974.000000	0.688791
1975.000000	0.689230
1976.000000	0.673247
1977.000000	0.673331
1978.000000	0.694221
1979.000000	0.697410
1980.000000	0.665791
1981.000000	0.658505
1982.000000	0.664874
1983.000000	0.657232
1984.000000	0.656082
1985.000000	0.664388
1986.000000	0.653106
1987.000000	0.643164
1988.000000	0.655159
1989.000000	0.640045
1990.000000	0.643760
1991.000000	0.631186
1992.000000	0.629301
1993.000000	0.639770
1994.000000	0.632636
1995.000000	0.657320
1996.000000	0.646977
1997.000000	0.645203
1998.000000	0.626140
1999.000000	0.626427
2000.000000	0.630254
2001.000000	0.642051
2002.000000	0.621584
2003.000000	0.621763
2004.000000	0.638191
2005.000000	0.631426
2006.000000	0.635389
2007.000000	0.632738
2008.000000	0.622570
2009.000000	0.636496
2010.000000	0.631250
2011.000000	0.641483
2012.000000	0.634681
2013.000000	0.639972
2014.000000	0.636962
2015.000000	0.650644
2016.000000	0.635714
2017.000000	0.638740
2018.000000	0.639374
2019.000000	0.647923
2020.000000	0.657151
2021.000000	0.643478
2022.000000	0.659249
2023.000000	0.664161
2024.000000	0.675922
2025.000000	0.664334
2026.000000	0.651238
2027.000000	0.663968
2028.000000	0.668946
2029.000000	0.657973
2030.000000	0.673577
2031.000000	0.666204
2032.000000	0.668537
2033.000000	0.677068
2034.000000	0.683761
2035.000000	0.684721
2036.000000	0.690050
2037.000000	0.691347
2038.000000	0.684316
2039.000000	0.694744
2040.000000	0.690407
2041.000000	0.696594
2042.000000	0.707070
2043.000000	0.717411
2044.000000	0.719542
2045.000000	0.705920
2046.000000	0.709932
2047.000000	0.717942
2048.000000	0.721429
2049.000000	0.713765
2050.000000	0.707755
2051.000000	0.713855
2052.000000	0.717035
2053.000000	0.709820
2054.000000	0.703521
2055.000000	0.715287
2056.000000	0.712208
2057.000000	0.703819
2058.000000	0.700443
2059.000000	0.701770
2060.000000	0.702274
2061.000000	0.698754
2062.000000	0.684384
2063.000000	0.689229
2064.000000	0.693376
2065.000000	0.679032
2066.000000	0.668898
2067.000000	0.676808
2068.000000	0.677929
2069.000000	0.674873
2070.000000	0.673899
2071.000000	0.670316
2072.000000	0.672457
2073.000000	0.672963
2074.000000	0.659668
2075.000000	0.652200
2076.000000	0.653499
2077.000000	0.646842
2078.000000	0.646263
2079.000000	0.649018
2080.000000	0.652644
2081.000000	0.643617
2082.000000	0.650174
2083.000000	0.656545
2084.000000	0.650650
2085.000000	0.641946
2086.000000	0.638261
2087.000000	0.635692
2088.000000	0.641886
2089.000000	0.650456
2090.000000	0.646671
2091.000000	0.648783
2092.000000	0.644766
2093.000000	0.645433
2094.000000	0.651843
2095.000000	0.642190
2096.000000	0.635644
2097.000000	0.644159
2098.000000	0.647368
2099.000000	0.640708
2100.000000	0.645459
2101.000000	0.643923
2102.000000	0.642158
2103.000000	0.652759
2104.000000	0.641470
2105.000000	0.643731
2106.000000	0.641348
2107.000000	0.630300
2108.000000	0.647151
2109.000000	0.650911
2110.000000	0.645348
2111.000000	0.640886
2112.000000	0.630626
2113.000000	0.631979
2114.000000	0.638900
2115.000000	0.642833
2116.000000	0.653604
2117.000000	0.639439
2118.000000	0.632794
2119.000000	0.643425
2120.000000	0.652087
2121.000000	0.654562
2122.000000	0.660936
2123.000000	0.659722
2124.000000	0.653874
2125.000000	0.646779
2126.000000	0.659473
2127.000000	0.673484
2128.000000	0.660970
2129.000000	0.660092
2130.000000	0.660994
2131.000000	0.648776
2132.000000	0.645792
2133.000000	0.648632
2134.000000	0.666159
2135.000000	0.676641
2136.000000	0.667785
2137.000000	0.664210
2138.000000	0.657016
2139.000000	0.664264
2140.000000	0.673095
2141.000000	0.658343
2142.000000	0.659740
2143.000000	0.667626
2144.000000	0.677438
2145.000000	0.682626
2146.000000	0.680066
2147.000000	0.681987
2148.000000	0.668645
2149.000000	0.668494
2150.000000	0.662648
2151.000000	0.655476
2152.000000	0.661139
2153.000000	0.672871
2154.000000	0.674486
2155.000000	0.687838
2156.000000	0.678949
2157.000000	0.680793
2158.000000	0.682724
2159.000000	0.677595
2160.000000	0.675214
2161.000000	0.687379
2162.000000	0.678896
2163.000000	0.667922
2164.000000	0.671398
2165.000000	0.677908
2166.000000	0.685803
2167.000000	0.669629
2168.000000	0.665672
2169.000000	0.663965
2170.000000	0.679740
2171.000000	0.648337
2172.000000	0.644659
2173.000000	0.653795
2174.000000	0.672863
2175.000000	0.668812
2176.000000	0.656610
2177.000000	0.659772
2178.000000	0.653300
2179.000000	0.654968
2180.000000	0.643564
2181.000000	0.645748
2182.000000	0.644120
2183.000000	0.620671
2184.000000	0.628718
2185.000000	0.621160
2186.000000	0.618397
2187.000000	0.623848
2188.000000	0.606295
2189.000000	0.599163
2190.000000	0.594851
2191.000000	0.586740
2192.000000	0.573226
2193.000000	0.569899
2194.000000	0.572417
2195.000000	0.554664
2196.000000	0.555270
2197.000000	0.534592
2198.000000	0.514229
2199.000000	0.525692
2200.000000	0.512449
2201.000000	0.507013
2202.000000	0.510455
2203.000000	0.495665
2204.000000	0.477021
2205.000000	0.458765
2206.000000	0.457941
2207.000000	0.452887
2208.000000	0.470941
2209.000000	0.458412
2210.000000	0.459421
2211.000000	0.450631
2212.000000	0.451354
2213.000000	0.457157
2214.000000	0.457789
2215.000000	0.448191
2216.000000	0.448660
2217.000000	0.453600
2218.000000	0.466715
2219.000000	0.444347
2220.000000	0.454028
2221.000000	0.450190
2222.000000	0.463268
2223.000000	0.461738
2224.000000	0.460205
2225.000000	0.471140
2226.000000	0.467869
2227.000000	0.470717
2228.000000	0.475793
2229.000000	0.484664
2230.000000	0.468854
2231.000000	0.462111
2232.000000	0.461971
2233.000000	0.496133
2234.000000	0.474975
2235.000000	0.485268
2236.000000	0.474317
2237.000000	0.481721
2238.000000	0.489463
2239.000000	0.483220
2240.000000	0.491618
2241.000000	0.480134
2242.000000	0.488728
2243.000000	0.490688
2244.000000	0.504428
2245.000000	0.506320
2246.000000	0.485811
2247.000000	0.500652
2248.000000	0.500707
2249.000000	0.499842
2250.000000	0.524496
2251.000000	0.497046
2252.000000	0.506190
2253.000000	0.524242
2254.000000	0.518853
2255.000000	0.517773
2256.000000	0.504711
2257.000000	0.519419
2258.000000	0.518202
2259.000000	0.530306
2260.000000	0.530505
2261.000000	0.527226
2262.000000	0.547446
2263.000000	0.547012
2264.000000	0.539405
2265.000000	0.537892
2266.000000	0.552177
2267.000000	0.556454
2268.000000	0.547835
2269.000000	0.543893
2270.000000	0.533823
2271.000000	0.551097
2272.000000	0.552395
2273.000000	0.545012
2274.000000	0.551152
2275.000000	0.558251
2276.000000	0.560546
2277.000000	0.549252
2278.000000	0.559051
2279.000000	0.569909
2280.000000	0.566506
2281.000000	0.561420
2282.000000	0.571337
2283.000000	0.581885
2284.000000	0.571264
2285.000000	0.567728
2286.000000	0.574599
2287.000000	0.574661
2288.000000	0.570975
2289.000000	0.563388
2290.000000	0.577438
2291.000000	0.580402
2292.000000	0.594773
2293.000000	0.588273
2294.000000	0.583279
2295.000000	0.589337
2296.000000	0.576464
2297.000000	0.580466
2298.000000	0.580675
2299.000000	0.573246
2300.000000	0.583945
2301.000000	0.592231
2302.000000	0.591625
2303.000000	0.592199
2304.000000	0.580458
2305.000000	0.593632
2306.000000	0.593518
2307.000000	0.588037
2308.000000	0.586819
2309.000000	0.589473
2310.000000	0.598583
2311.000000	0.596161
2312.000000	0.596684
2313.000000	0.594872
2314.000000	0.596785
2315.000000	0.591039
2316.000000	0.598326
2317.000000	0.612046
2318.000000	0.603309
2319.000000	0.585045
2320.000000	0.590015
2321.000000	0.599187
2322.000000	0.605686
2323.000000	0.604042
2324.000000	0.596443
2325.000000	0.604010
2326.000000	0.597529
2327.000000	0.596134
2328.000000	0.596674
2329.000000	0.591789
2330.000000	0.592204
2331.000000	0.592569
2332.000000	0.586773
2333.000000	0.585890
2334.000000	0.591960
2335.000000	0.596071
2336.000000	0.591180
2337.000000	0.586453
2338.000000	0.588506
2339.000000	0.595178
2340.000000	0.590301
2341.000000	0.588401
2342.000000	0.587690
2343.000000	0.590531
2344.000000	0.583293
2345.000000	0.582193
2346.000000	0.583440
2347.000000	0.590116
2348.000000	0.588693
2349.000000	0.577630
2350.000000	0.573543
2351.000000	0.567155
2352.000000	0.571968
2353.000000	0.581840
2354.000000	0.579888
2355.000000	0.579779
2356.000000	0.576008
2357.000000	0.571454
2358.000000	0.574969
2359.000000	0.572144
2360.000000	0.577937
2361.000000	0.574185
2362.000000	0.560279
2363.000000	0.572995
2364.000000	0.578320
2365.000000	0.564116
2366.000000	0.562454
2367.000000	0.567947
2368.000000	0.578108
2369.000000	0.568595
2370.000000	0.561512
2371.000000	0.567969
2372.000000	0.552475
2373.000000	0.549539
2374.000000	0.563090
2375.000000	0.565437
2376.000000	0.565899
2377.000000	0.559283
2378.000000	0.558717
2379.000000	0.556623
2380.000000	0.554445
2381.000000	0.563523
2382.000000	0.570011
2383.000000	0.560273
2384.000000	0.557296
2385.000000	0.563887
2386.000000	0.562593
2387.000000	0.561945
2388.000000	0.557853
2389.000000	0.561940
2390.000000	0.553492
2391.000000	0.554164
2392.000000	0.559444
2393.000000	0.551123
2394.000000	0.553174
2395.000000	0.546560
2396.000000	0.542382
2397.000000	0.536383
2398.000000	0.529669
2399.000000	0.531677
2400.000000	0.537894
2401.000000	0.539288
2402.000000	0.539198
2403.000000	0.535955
2404.000000	0.528220
2405.000000	0.527752
2406.000000	0.524879
2407.000000	0.523179
2408.000000	0.522542
2409.000000	0.528782
2410.000000	0.534756
2411.000000	0.520354
2412.000000	0.509346
2413.000000	0.509356
2414.000000	0.517038
2415.000000	0.519172
2416.000000	0.509002
2417.000000	0.510901
2418.000000	0.505152
2419.000000	0.499217
2420.000000	0.498537
2421.000000	0.506577
2422.000000	0.507709
2423.000000	0.508416
2424.000000	0.494915
2425.000000	0.510629
2426.000000	0.498483
2427.000000	0.488088
2428.000000	0.497122
2429.000000	0.492421
2430.000000	0.494240
2431.000000	0.485478
2432.000000	0.483939
2433.000000	0.488828
2434.000000	0.487055
2435.000000	0.483272
2436.000000	0.489895
2437.000000	0.484803
2438.000000	0.481346
2439.000000	0.482265
2440.000000	0.491147
2441.000000	0.488376
2442.000000	0.481707
2443.000000	0.473396
2444.000000	0.471555
2445.000000	0.465054
2446.000000	0.472853
2447.000000	0.480640
2448.000000	0.472893
2449.000000	0.457365
2450.000000	0.459308
2451.000000	0.476285
2452.000000	0.485081
2453.000000	0.482240
2454.000000	0.456357
2455.000000	0.449948
2456.000000	0.449212
2457.000000	0.459096
2458.000000	0.459741
2459.000000	0.453702
2460.000000	0.454311
2461.000000	0.457772
2462.000000	0.447302
2463.000000	0.441476
2464.000000	0.440375
2465.000000	0.431773
2466.000000	0.456153
2467.000000	0.420681
2468.000000	0.472135
2469.000000	0.446946
2470.000000	0.449457
2471.000000	0.439247
2472.000000	0.420514
2473.000000	0.425063
2474.000000	0.454311
2475.000000	0.417982
2476.000000	0.467395
2477.000000	0.436841
2478.000000	0.407512
2479.000000	0.425228
2480.000000	0.432479
2481.000000	0.411795
2482.000000	0.379557
2483.000000	0.453228
2484.000000	0.413812
2485.000000	0.425854
2486.000000	0.458265
2487.000000	0.399849
2488.000000	0.423114
2489.000000	0.380140
2490.000000	0.442709
2491.000000	0.416574
2492.000000	0.430877
2493.000000	0.403449
2494.000000	0.393892
2495.000000	0.426905
2496.000000	0.336899
2497.000000	0.431411
2498.000000	0.457870
2499.000000	0.457897
2500.000000	0.369967
