PE UV       SUBTECH     SPECTRUM    ASCII       PEDS        4.00        
   -1
BIOUCR0018-3.Sample.ASC
24/02/19
16:47:26.00
24/02/19
16:47:26.00
Vinicio Soto Monge
P. resplendens (sin datos)
250,000000
1
Lambda 1050
1050L1511233
PerkinElmer UV WinLab 6.3.2.0749 / 2.02.05 Lambda 900 UV/VIS/NIR, Aug  7 2015 09:38:08

0
0
3350/servo 860,8/2
0
0
UV/VIS
1
1
1
DoubleDePol,CommonBeamDepol,RBeamAtt,SBeamAtt,60mm sphere, WB InGaAs Detector
0
0
0
0
Program
Program
3350/servo 860,8/2
3350/0,2 860,8/0,2
3350/0,2 860,8/0,2
0
15.00
 
 
 
0
 
860,8
319,2
860,8
Front
100
on
S:100 R:100
0
0
0
0
 
0
 
 
 
0
 
 
0
0
0
0
0
 
 
 
 
0
0


0
0
#HDR
-1
-1
#GR
nm
%R
1.0
0.0
2500,000000
-1,000000
2251
8
19,551000
1,501700
#DATA

250.000000	0.265690
251.000000	0.276362
252.000000	0.277484
253.000000	0.271455
254.000000	0.252274
255.000000	0.254611
256.000000	0.255582
257.000000	0.252053
258.000000	0.260125
259.000000	0.260103
260.000000	0.271680
261.000000	0.262929
262.000000	0.280180
263.000000	0.239676
264.000000	0.244293
265.000000	0.251488
266.000000	0.258214
267.000000	0.230595
268.000000	0.228653
269.000000	0.234769
270.000000	0.224587
271.000000	0.248980
272.000000	0.234151
273.000000	0.254918
274.000000	0.223974
275.000000	0.214846
276.000000	0.225843
277.000000	0.231240
278.000000	0.205144
279.000000	0.207036
280.000000	0.220448
281.000000	0.234379
282.000000	0.223469
283.000000	0.215033
284.000000	0.233386
285.000000	0.226808
286.000000	0.229447
287.000000	0.205271
288.000000	0.229987
289.000000	0.223086
290.000000	0.236357
291.000000	0.213356
292.000000	0.193405
293.000000	0.182338
294.000000	0.232880
295.000000	0.215553
296.000000	0.239371
297.000000	0.194645
298.000000	0.232975
299.000000	0.199934
300.000000	0.207499
301.000000	0.203267
302.000000	0.192707
303.000000	0.209469
304.000000	0.212290
305.000000	0.220486
306.000000	0.200949
307.000000	0.205097
308.000000	0.220571
309.000000	0.166190
310.000000	0.199136
311.000000	0.185438
312.000000	0.208411
313.000000	0.217276
314.000000	0.233252
315.000000	0.189700
316.000000	0.177751
317.000000	0.168850
318.000000	0.165945
319.000000	0.164950
320.000000	0.216557
321.000000	0.451853
322.000000	0.445742
323.000000	0.307033
324.000000	0.323253
325.000000	0.256946
326.000000	0.181432
327.000000	0.117659
328.000000	0.228014
329.000000	0.118936
330.000000	0.262580
331.000000	0.319767
332.000000	0.294843
333.000000	0.228065
334.000000	0.125656
335.000000	0.172243
336.000000	0.188874
337.000000	0.265129
338.000000	0.286243
339.000000	0.253183
340.000000	0.284920
341.000000	0.242298
342.000000	0.222156
343.000000	0.201918
344.000000	0.244982
345.000000	0.217132
346.000000	0.194915
347.000000	0.293097
348.000000	0.207666
349.000000	0.240532
350.000000	0.194771
351.000000	0.181659
352.000000	0.191548
353.000000	0.166608
354.000000	0.180096
355.000000	0.136371
356.000000	0.187061
357.000000	0.211679
358.000000	0.269076
359.000000	0.267014
360.000000	0.243386
361.000000	0.208019
362.000000	0.188149
363.000000	0.246860
364.000000	0.174194
365.000000	0.142256
366.000000	0.138685
367.000000	0.108803
368.000000	0.148104
369.000000	0.213984
370.000000	0.234322
371.000000	0.214242
372.000000	0.233332
373.000000	0.194441
374.000000	0.146111
375.000000	0.153975
376.000000	0.179610
377.000000	0.227450
378.000000	0.224284
379.000000	0.213978
380.000000	0.220053
381.000000	0.226396
382.000000	0.228151
383.000000	0.230728
384.000000	0.237237
385.000000	0.233679
386.000000	0.229584
387.000000	0.232358
388.000000	0.238954
389.000000	0.245289
390.000000	0.245402
391.000000	0.248206
392.000000	0.251799
393.000000	0.260771
394.000000	0.262424
395.000000	0.262787
396.000000	0.263663
397.000000	0.266670
398.000000	0.274359
399.000000	0.281864
400.000000	0.281912
401.000000	0.287317
402.000000	0.301964
403.000000	0.308608
404.000000	0.311554
405.000000	0.320297
406.000000	0.330517
407.000000	0.341096
408.000000	0.350224
409.000000	0.359191
410.000000	0.373643
411.000000	0.380335
412.000000	0.385126
413.000000	0.393152
414.000000	0.404396
415.000000	0.414432
416.000000	0.417284
417.000000	0.421569
418.000000	0.434153
419.000000	0.444450
420.000000	0.445916
421.000000	0.447654
422.000000	0.453911
423.000000	0.458509
424.000000	0.455853
425.000000	0.460609
426.000000	0.465278
427.000000	0.468239
428.000000	0.469645
429.000000	0.474553
430.000000	0.479525
431.000000	0.478928
432.000000	0.478653
433.000000	0.476204
434.000000	0.476696
435.000000	0.479094
436.000000	0.481295
437.000000	0.482744
438.000000	0.482707
439.000000	0.476013
440.000000	0.479830
441.000000	0.485319
442.000000	0.482300
443.000000	0.477409
444.000000	0.472271
445.000000	0.478035
446.000000	0.478009
447.000000	0.474832
448.000000	0.472775
449.000000	0.467717
450.000000	0.466239
451.000000	0.464393
452.000000	0.465649
453.000000	0.466987
454.000000	0.465605
455.000000	0.460877
456.000000	0.459520
457.000000	0.460081
458.000000	0.461541
459.000000	0.466860
460.000000	0.468383
461.000000	0.471328
462.000000	0.475375
463.000000	0.472705
464.000000	0.474910
465.000000	0.481635
466.000000	0.479897
467.000000	0.476505
468.000000	0.475591
469.000000	0.471936
470.000000	0.480193
471.000000	0.481509
472.000000	0.473662
473.000000	0.468710
474.000000	0.471529
475.000000	0.474828
476.000000	0.473094
477.000000	0.469144
478.000000	0.469283
479.000000	0.471632
480.000000	0.470181
481.000000	0.466873
482.000000	0.470780
483.000000	0.478262
484.000000	0.484652
485.000000	0.482401
486.000000	0.496119
487.000000	0.506261
488.000000	0.512977
489.000000	0.519554
490.000000	0.525886
491.000000	0.531383
492.000000	0.542876
493.000000	0.553381
494.000000	0.561519
495.000000	0.582737
496.000000	0.598392
497.000000	0.609662
498.000000	0.619078
499.000000	0.642489
500.000000	0.662956
501.000000	0.680504
502.000000	0.697439
503.000000	0.709072
504.000000	0.720776
505.000000	0.732705
506.000000	0.745398
507.000000	0.749785
508.000000	0.754520
509.000000	0.762969
510.000000	0.774088
511.000000	0.772020
512.000000	0.780791
513.000000	0.790800
514.000000	0.795175
515.000000	0.799929
516.000000	0.799049
517.000000	0.808339
518.000000	0.817117
519.000000	0.809130
520.000000	0.808666
521.000000	0.805740
522.000000	0.796093
523.000000	0.786350
524.000000	0.763872
525.000000	0.744559
526.000000	0.724772
527.000000	0.710158
528.000000	0.691678
529.000000	0.665869
530.000000	0.652854
531.000000	0.631007
532.000000	0.620609
533.000000	0.612269
534.000000	0.612869
535.000000	0.605829
536.000000	0.602841
537.000000	0.589544
538.000000	0.598458
539.000000	0.609630
540.000000	0.612944
541.000000	0.620432
542.000000	0.625901
543.000000	0.629765
544.000000	0.632195
545.000000	0.647169
546.000000	0.644004
547.000000	0.639644
548.000000	0.648895
549.000000	0.665861
550.000000	0.670621
551.000000	0.672648
552.000000	0.691129
553.000000	0.702981
554.000000	0.712332
555.000000	0.731129
556.000000	0.739924
557.000000	0.750084
558.000000	0.769349
559.000000	0.780464
560.000000	0.734306
561.000000	0.753988
562.000000	0.783206
563.000000	0.791252
564.000000	0.803771
565.000000	0.815268
566.000000	0.826051
567.000000	0.848764
568.000000	0.870605
569.000000	0.884326
570.000000	0.895628
571.000000	0.903399
572.000000	0.904101
573.000000	0.916648
574.000000	0.919635
575.000000	0.935582
576.000000	0.926580
577.000000	0.916583
578.000000	0.925990
579.000000	0.920522
580.000000	0.926879
581.000000	0.925543
582.000000	0.929923
583.000000	0.952059
584.000000	0.954058
585.000000	0.949415
586.000000	0.958752
587.000000	0.976584
588.000000	1.000562
589.000000	1.028586
590.000000	1.050657
591.000000	1.041704
592.000000	1.040805
593.000000	1.056574
594.000000	1.090997
595.000000	1.107043
596.000000	1.132772
597.000000	1.123656
598.000000	1.138853
599.000000	1.132149
600.000000	1.132403
601.000000	1.143560
602.000000	1.128913
603.000000	1.116291
604.000000	1.104385
605.000000	1.095737
606.000000	1.067187
607.000000	1.040118
608.000000	1.023146
609.000000	0.982814
610.000000	0.972736
611.000000	0.951087
612.000000	0.941734
613.000000	0.905235
614.000000	0.902243
615.000000	0.896596
616.000000	0.892866
617.000000	0.885233
618.000000	0.888567
619.000000	0.890043
620.000000	0.900360
621.000000	0.892460
622.000000	0.885702
623.000000	0.867489
624.000000	0.853176
625.000000	0.840778
626.000000	0.814998
627.000000	0.796424
628.000000	0.760810
629.000000	0.730493
630.000000	0.683422
631.000000	0.639476
632.000000	0.620793
633.000000	0.581703
634.000000	0.545822
635.000000	0.511934
636.000000	0.492303
637.000000	0.479240
638.000000	0.464164
639.000000	0.447979
640.000000	0.452628
641.000000	0.441879
642.000000	0.452473
643.000000	0.475888
644.000000	0.489747
645.000000	0.511837
646.000000	0.538417
647.000000	0.567527
648.000000	0.597011
649.000000	0.621220
650.000000	0.669480
651.000000	0.689405
652.000000	0.725513
653.000000	0.752241
654.000000	0.772304
655.000000	0.797300
656.000000	0.822323
657.000000	0.829519
658.000000	0.844921
659.000000	0.848944
660.000000	0.838784
661.000000	0.825555
662.000000	0.804876
663.000000	0.777546
664.000000	0.732421
665.000000	0.694278
666.000000	0.643856
667.000000	0.589416
668.000000	0.520371
669.000000	0.457725
670.000000	0.401711
671.000000	0.324041
672.000000	0.266733
673.000000	0.217578
674.000000	0.194369
675.000000	0.207996
676.000000	0.259629
677.000000	0.336691
678.000000	0.386241
679.000000	0.463856
680.000000	0.527871
681.000000	0.575789
682.000000	0.616966
683.000000	0.657020
684.000000	0.692492
685.000000	0.738117
686.000000	0.734948
687.000000	0.723100
688.000000	0.727933
689.000000	0.726940
690.000000	0.735759
691.000000	0.714120
692.000000	0.670047
693.000000	0.623501
694.000000	0.593576
695.000000	0.548171
696.000000	0.498836
697.000000	0.436588
698.000000	0.376985
699.000000	0.328470
700.000000	0.257091
701.000000	0.190959
702.000000	0.147981
703.000000	0.101760
704.000000	0.066955
705.000000	0.096414
706.000000	0.127422
707.000000	0.156721
708.000000	0.195399
709.000000	0.208343
710.000000	0.192071
711.000000	0.182696
712.000000	0.171475
713.000000	0.170431
714.000000	0.151225
715.000000	0.108450
716.000000	0.076609
717.000000	0.065229
718.000000	0.058736
719.000000	0.085900
720.000000	0.129997
721.000000	0.156244
722.000000	0.188635
723.000000	0.250958
724.000000	0.319722
725.000000	0.362712
726.000000	0.384146
727.000000	0.425699
728.000000	0.470914
729.000000	0.534566
730.000000	0.619191
731.000000	0.681753
732.000000	0.726519
733.000000	0.776673
734.000000	0.832599
735.000000	0.890022
736.000000	0.928808
737.000000	0.956048
738.000000	0.995247
739.000000	1.046214
740.000000	1.073739
741.000000	1.091040
742.000000	1.146125
743.000000	1.166686
744.000000	1.163132
745.000000	1.184937
746.000000	1.213966
747.000000	1.214350
748.000000	1.219150
749.000000	1.244207
750.000000	1.239378
751.000000	1.243753
752.000000	1.251705
753.000000	1.257265
754.000000	1.284168
755.000000	1.306100
756.000000	1.311075
757.000000	1.311912
758.000000	1.325058
759.000000	1.340200
760.000000	1.341001
761.000000	1.327885
762.000000	1.344009
763.000000	1.385620
764.000000	1.374848
765.000000	1.368969
766.000000	1.378586
767.000000	1.371674
768.000000	1.369966
769.000000	1.399692
770.000000	1.420670
771.000000	1.399100
772.000000	1.373656
773.000000	1.366161
774.000000	1.384946
775.000000	1.386840
776.000000	1.376841
777.000000	1.360889
778.000000	1.371913
779.000000	1.358048
780.000000	1.350658
781.000000	1.363043
782.000000	1.362898
783.000000	1.370015
784.000000	1.415466
785.000000	1.393628
786.000000	1.378341
787.000000	1.393211
788.000000	1.406215
789.000000	1.384403
790.000000	1.387901
791.000000	1.436166
792.000000	1.446745
793.000000	1.433322
794.000000	1.464445
795.000000	1.481783
796.000000	1.484751
797.000000	1.509471
798.000000	1.583801
799.000000	1.593046
800.000000	1.615221
801.000000	1.628972
802.000000	1.670837
803.000000	1.694220
804.000000	1.735817
805.000000	1.807945
806.000000	1.787329
807.000000	1.831229
808.000000	1.892622
809.000000	1.858717
810.000000	1.910545
811.000000	1.954105
812.000000	2.019550
813.000000	2.048086
814.000000	2.027786
815.000000	2.065280
816.000000	2.127179
817.000000	2.155458
818.000000	2.145328
819.000000	2.149002
820.000000	2.175971
821.000000	2.197232
822.000000	2.242203
823.000000	2.205234
824.000000	2.217864
825.000000	2.260882
826.000000	2.225102
827.000000	2.278782
828.000000	2.255939
829.000000	2.229628
830.000000	2.253984
831.000000	2.249525
832.000000	2.201066
833.000000	2.184869
834.000000	2.207034
835.000000	2.118739
836.000000	2.109760
837.000000	2.139931
838.000000	2.126583
839.000000	2.114360
840.000000	2.078732
841.000000	2.070135
842.000000	2.018198
843.000000	1.993823
844.000000	1.960316
845.000000	1.890559
846.000000	1.861835
847.000000	1.821011
848.000000	1.831540
849.000000	1.826548
850.000000	1.695710
851.000000	1.654605
852.000000	1.710206
853.000000	1.718360
854.000000	1.702115
855.000000	1.593217
856.000000	1.613328
857.000000	1.274798
858.000000	1.008923
859.000000	1.303273
860.000000	1.276713
861.000000	1.281594
862.000000	1.288706
863.000000	1.282582
864.000000	1.297572
865.000000	1.301825
866.000000	1.297025
867.000000	1.314480
868.000000	1.316346
869.000000	1.315814
870.000000	1.309345
871.000000	1.324605
872.000000	1.315410
873.000000	1.335069
874.000000	1.353090
875.000000	1.358480
876.000000	1.380892
877.000000	1.394507
878.000000	1.398558
879.000000	1.405036
880.000000	1.425327
881.000000	1.431428
882.000000	1.443279
883.000000	1.455621
884.000000	1.479110
885.000000	1.511372
886.000000	1.508498
887.000000	1.504051
888.000000	1.530076
889.000000	1.546947
890.000000	1.556782
891.000000	1.566072
892.000000	1.581636
893.000000	1.581269
894.000000	1.598858
895.000000	1.628526
896.000000	1.638622
897.000000	1.642764
898.000000	1.630462
899.000000	1.657328
900.000000	1.660736
901.000000	1.667642
902.000000	1.690725
903.000000	1.675585
904.000000	1.680983
905.000000	1.704067
906.000000	1.706418
907.000000	1.704079
908.000000	1.705719
909.000000	1.711710
910.000000	1.730758
911.000000	1.710249
912.000000	1.740541
913.000000	1.734444
914.000000	1.721475
915.000000	1.740414
916.000000	1.762551
917.000000	1.734511
918.000000	1.758448
919.000000	1.737619
920.000000	1.720087
921.000000	1.734477
922.000000	1.743242
923.000000	1.742510
924.000000	1.750546
925.000000	1.743763
926.000000	1.751687
927.000000	1.759578
928.000000	1.755416
929.000000	1.739991
930.000000	1.760752
931.000000	1.762088
932.000000	1.753480
933.000000	1.756208
934.000000	1.769390
935.000000	1.783590
936.000000	1.761471
937.000000	1.775015
938.000000	1.766791
939.000000	1.777591
940.000000	1.782745
941.000000	1.774225
942.000000	1.768443
943.000000	1.788314
944.000000	1.777339
945.000000	1.776782
946.000000	1.768418
947.000000	1.779082
948.000000	1.790913
949.000000	1.782653
950.000000	1.778638
951.000000	1.794161
952.000000	1.795741
953.000000	1.795492
954.000000	1.787814
955.000000	1.786639
956.000000	1.782803
957.000000	1.786953
958.000000	1.779579
959.000000	1.794435
960.000000	1.792394
961.000000	1.797330
962.000000	1.800117
963.000000	1.801201
964.000000	1.782958
965.000000	1.762966
966.000000	1.767419
967.000000	1.764439
968.000000	1.770906
969.000000	1.778191
970.000000	1.780472
971.000000	1.761292
972.000000	1.769042
973.000000	1.759051
974.000000	1.761073
975.000000	1.755807
976.000000	1.761790
977.000000	1.772025
978.000000	1.776704
979.000000	1.764136
980.000000	1.760116
981.000000	1.764145
982.000000	1.779439
983.000000	1.765706
984.000000	1.754097
985.000000	1.746759
986.000000	1.745715
987.000000	1.744938
988.000000	1.754066
989.000000	1.738050
990.000000	1.743894
991.000000	1.755896
992.000000	1.746325
993.000000	1.737565
994.000000	1.734814
995.000000	1.733309
996.000000	1.724924
997.000000	1.727392
998.000000	1.712941
999.000000	1.713273
1000.000000	1.730218
1001.000000	1.731736
1002.000000	1.732884
1003.000000	1.732111
1004.000000	1.732092
1005.000000	1.738800
1006.000000	1.725497
1007.000000	1.713538
1008.000000	1.710517
1009.000000	1.706065
1010.000000	1.702409
1011.000000	1.703855
1012.000000	1.699992
1013.000000	1.699139
1014.000000	1.689913
1015.000000	1.700184
1016.000000	1.712617
1017.000000	1.706009
1018.000000	1.701093
1019.000000	1.698562
1020.000000	1.695957
1021.000000	1.701903
1022.000000	1.701723
1023.000000	1.694536
1024.000000	1.693621
1025.000000	1.689898
1026.000000	1.691818
1027.000000	1.695346
1028.000000	1.691473
1029.000000	1.697391
1030.000000	1.704935
1031.000000	1.699036
1032.000000	1.697256
1033.000000	1.697845
1034.000000	1.693605
1035.000000	1.692153
1036.000000	1.691897
1037.000000	1.701175
1038.000000	1.710792
1039.000000	1.706395
1040.000000	1.703064
1041.000000	1.706626
1042.000000	1.713353
1043.000000	1.703936
1044.000000	1.698690
1045.000000	1.704184
1046.000000	1.706068
1047.000000	1.709356
1048.000000	1.708579
1049.000000	1.706819
1050.000000	1.703635
1051.000000	1.695796
1052.000000	1.701537
1053.000000	1.707114
1054.000000	1.705710
1055.000000	1.702652
1056.000000	1.705499
1057.000000	1.707431
1058.000000	1.709711
1059.000000	1.705825
1060.000000	1.705267
1061.000000	1.705545
1062.000000	1.711929
1063.000000	1.714310
1064.000000	1.708368
1065.000000	1.708832
1066.000000	1.717268
1067.000000	1.704877
1068.000000	1.705919
1069.000000	1.706086
1070.000000	1.707254
1071.000000	1.704811
1072.000000	1.705237
1073.000000	1.700598
1074.000000	1.686602
1075.000000	1.693760
1076.000000	1.700403
1077.000000	1.707384
1078.000000	1.717910
1079.000000	1.721322
1080.000000	1.720777
1081.000000	1.723368
1082.000000	1.733626
1083.000000	1.729618
1084.000000	1.731271
1085.000000	1.726522
1086.000000	1.716120
1087.000000	1.712175
1088.000000	1.722812
1089.000000	1.727218
1090.000000	1.729724
1091.000000	1.717432
1092.000000	1.721755
1093.000000	1.717246
1094.000000	1.710996
1095.000000	1.714853
1096.000000	1.715534
1097.000000	1.707887
1098.000000	1.711157
1099.000000	1.708269
1100.000000	1.703383
1101.000000	1.707370
1102.000000	1.717615
1103.000000	1.708754
1104.000000	1.695601
1105.000000	1.685153
1106.000000	1.689794
1107.000000	1.702285
1108.000000	1.699700
1109.000000	1.687568
1110.000000	1.676876
1111.000000	1.672079
1112.000000	1.695777
1113.000000	1.697235
1114.000000	1.691971
1115.000000	1.676370
1116.000000	1.675015
1117.000000	1.678546
1118.000000	1.678491
1119.000000	1.668172
1120.000000	1.684426
1121.000000	1.665257
1122.000000	1.645480
1123.000000	1.657152
1124.000000	1.652575
1125.000000	1.663022
1126.000000	1.647996
1127.000000	1.645750
1128.000000	1.635424
1129.000000	1.652678
1130.000000	1.656093
1131.000000	1.642428
1132.000000	1.609669
1133.000000	1.616316
1134.000000	1.622565
1135.000000	1.609823
1136.000000	1.610134
1137.000000	1.599095
1138.000000	1.598321
1139.000000	1.592570
1140.000000	1.576256
1141.000000	1.565516
1142.000000	1.576872
1143.000000	1.578910
1144.000000	1.565838
1145.000000	1.556853
1146.000000	1.550861
1147.000000	1.565906
1148.000000	1.556857
1149.000000	1.556740
1150.000000	1.552349
1151.000000	1.541879
1152.000000	1.544844
1153.000000	1.536904
1154.000000	1.548226
1155.000000	1.522440
1156.000000	1.521339
1157.000000	1.519000
1158.000000	1.493238
1159.000000	1.476113
1160.000000	1.494127
1161.000000	1.461529
1162.000000	1.456912
1163.000000	1.444713
1164.000000	1.445889
1165.000000	1.431480
1166.000000	1.430072
1167.000000	1.414313
1168.000000	1.399676
1169.000000	1.395527
1170.000000	1.407918
1171.000000	1.386729
1172.000000	1.382688
1173.000000	1.379490
1174.000000	1.380135
1175.000000	1.362861
1176.000000	1.364815
1177.000000	1.354746
1178.000000	1.372130
1179.000000	1.368913
1180.000000	1.352944
1181.000000	1.349841
1182.000000	1.353918
1183.000000	1.376075
1184.000000	1.379362
1185.000000	1.376982
1186.000000	1.364255
1187.000000	1.355190
1188.000000	1.382235
1189.000000	1.377227
1190.000000	1.376629
1191.000000	1.382205
1192.000000	1.383198
1193.000000	1.397583
1194.000000	1.393566
1195.000000	1.416742
1196.000000	1.412955
1197.000000	1.416661
1198.000000	1.422263
1199.000000	1.439831
1200.000000	1.454512
1201.000000	1.471353
1202.000000	1.466879
1203.000000	1.464880
1204.000000	1.474282
1205.000000	1.484017
1206.000000	1.493106
1207.000000	1.503479
1208.000000	1.504194
1209.000000	1.495281
1210.000000	1.502183
1211.000000	1.511348
1212.000000	1.508742
1213.000000	1.516972
1214.000000	1.491565
1215.000000	1.480028
1216.000000	1.500507
1217.000000	1.501726
1218.000000	1.499131
1219.000000	1.502414
1220.000000	1.497249
1221.000000	1.488546
1222.000000	1.482530
1223.000000	1.473106
1224.000000	1.465592
1225.000000	1.453154
1226.000000	1.441644
1227.000000	1.443195
1228.000000	1.442469
1229.000000	1.441441
1230.000000	1.436970
1231.000000	1.442915
1232.000000	1.443141
1233.000000	1.438867
1234.000000	1.434943
1235.000000	1.424401
1236.000000	1.434434
1237.000000	1.440735
1238.000000	1.437211
1239.000000	1.444096
1240.000000	1.440444
1241.000000	1.444935
1242.000000	1.459003
1243.000000	1.459892
1244.000000	1.452650
1245.000000	1.458171
1246.000000	1.449084
1247.000000	1.460296
1248.000000	1.461017
1249.000000	1.471403
1250.000000	1.476909
1251.000000	1.469803
1252.000000	1.476565
1253.000000	1.477676
1254.000000	1.489159
1255.000000	1.491770
1256.000000	1.497768
1257.000000	1.498062
1258.000000	1.492381
1259.000000	1.487559
1260.000000	1.485598
1261.000000	1.494715
1262.000000	1.490294
1263.000000	1.492492
1264.000000	1.497265
1265.000000	1.488054
1266.000000	1.482642
1267.000000	1.487781
1268.000000	1.476290
1269.000000	1.479001
1270.000000	1.474522
1271.000000	1.471747
1272.000000	1.484534
1273.000000	1.478132
1274.000000	1.469058
1275.000000	1.473045
1276.000000	1.472843
1277.000000	1.471296
1278.000000	1.474788
1279.000000	1.476950
1280.000000	1.478866
1281.000000	1.479922
1282.000000	1.469116
1283.000000	1.468906
1284.000000	1.469621
1285.000000	1.467654
1286.000000	1.475202
1287.000000	1.476539
1288.000000	1.484855
1289.000000	1.486010
1290.000000	1.477983
1291.000000	1.471645
1292.000000	1.468463
1293.000000	1.466742
1294.000000	1.470036
1295.000000	1.477412
1296.000000	1.471463
1297.000000	1.468529
1298.000000	1.466915
1299.000000	1.474751
1300.000000	1.487127
1301.000000	1.482655
1302.000000	1.475962
1303.000000	1.478849
1304.000000	1.474098
1305.000000	1.457110
1306.000000	1.445088
1307.000000	1.457743
1308.000000	1.458904
1309.000000	1.449577
1310.000000	1.447268
1311.000000	1.445664
1312.000000	1.448755
1313.000000	1.445410
1314.000000	1.439122
1315.000000	1.439468
1316.000000	1.422979
1317.000000	1.424167
1318.000000	1.434923
1319.000000	1.429993
1320.000000	1.425919
1321.000000	1.426822
1322.000000	1.418352
1323.000000	1.406129
1324.000000	1.401127
1325.000000	1.403309
1326.000000	1.406143
1327.000000	1.390646
1328.000000	1.387484
1329.000000	1.381010
1330.000000	1.375540
1331.000000	1.372878
1332.000000	1.368743
1333.000000	1.363261
1334.000000	1.360791
1335.000000	1.362687
1336.000000	1.350109
1337.000000	1.336054
1338.000000	1.326109
1339.000000	1.321324
1340.000000	1.306650
1341.000000	1.308532
1342.000000	1.295187
1343.000000	1.272370
1344.000000	1.253683
1345.000000	1.238385
1346.000000	1.213638
1347.000000	1.200647
1348.000000	1.200588
1349.000000	1.191511
1350.000000	1.165132
1351.000000	1.135551
1352.000000	1.116118
1353.000000	1.099499
1354.000000	1.086128
1355.000000	1.081991
1356.000000	1.095522
1357.000000	1.082183
1358.000000	1.063564
1359.000000	1.051806
1360.000000	1.040933
1361.000000	1.047820
1362.000000	1.071961
1363.000000	1.065895
1364.000000	1.034125
1365.000000	1.026804
1366.000000	1.008335
1367.000000	0.993174
1368.000000	0.987119
1369.000000	0.989401
1370.000000	0.976456
1371.000000	0.972338
1372.000000	0.972805
1373.000000	0.967856
1374.000000	0.945005
1375.000000	0.931291
1376.000000	0.916125
1377.000000	0.876089
1378.000000	0.853887
1379.000000	0.822852
1380.000000	0.807609
1381.000000	0.789020
1382.000000	0.808117
1383.000000	0.815373
1384.000000	0.832922
1385.000000	0.820099
1386.000000	0.789944
1387.000000	0.772502
1388.000000	0.776031
1389.000000	0.776817
1390.000000	0.744267
1391.000000	0.703804
1392.000000	0.707217
1393.000000	0.678017
1394.000000	0.650247
1395.000000	0.635790
1396.000000	0.659686
1397.000000	0.652388
1398.000000	0.605530
1399.000000	0.553264
1400.000000	0.553799
1401.000000	0.582732
1402.000000	0.577966
1403.000000	0.508467
1404.000000	0.476326
1405.000000	0.477747
1406.000000	0.457941
1407.000000	0.449773
1408.000000	0.415601
1409.000000	0.410832
1410.000000	0.409660
1411.000000	0.386222
1412.000000	0.354216
1413.000000	0.319852
1414.000000	0.313347
1415.000000	0.316500
1416.000000	0.310768
1417.000000	0.280789
1418.000000	0.270249
1419.000000	0.263421
1420.000000	0.282104
1421.000000	0.278391
1422.000000	0.240047
1423.000000	0.245348
1424.000000	0.255984
1425.000000	0.258623
1426.000000	0.261154
1427.000000	0.258623
1428.000000	0.233037
1429.000000	0.242143
1430.000000	0.260013
1431.000000	0.239491
1432.000000	0.255550
1433.000000	0.264528
1434.000000	0.275576
1435.000000	0.292654
1436.000000	0.262139
1437.000000	0.275748
1438.000000	0.278992
1439.000000	0.276196
1440.000000	0.275275
1441.000000	0.288368
1442.000000	0.301730
1443.000000	0.289496
1444.000000	0.307141
1445.000000	0.294893
1446.000000	0.319214
1447.000000	0.314831
1448.000000	0.314757
1449.000000	0.325995
1450.000000	0.311683
1451.000000	0.329784
1452.000000	0.328141
1453.000000	0.345696
1454.000000	0.336705
1455.000000	0.340572
1456.000000	0.356254
1457.000000	0.360903
1458.000000	0.359169
1459.000000	0.365194
1460.000000	0.365428
1461.000000	0.373519
1462.000000	0.376939
1463.000000	0.371946
1464.000000	0.376176
1465.000000	0.390262
1466.000000	0.384821
1467.000000	0.374227
1468.000000	0.390500
1469.000000	0.385932
1470.000000	0.382044
1471.000000	0.394108
1472.000000	0.405534
1473.000000	0.405261
1474.000000	0.404719
1475.000000	0.380252
1476.000000	0.402387
1477.000000	0.397961
1478.000000	0.390968
1479.000000	0.394683
1480.000000	0.385163
1481.000000	0.396179
1482.000000	0.380372
1483.000000	0.395241
1484.000000	0.393429
1485.000000	0.403180
1486.000000	0.401221
1487.000000	0.383389
1488.000000	0.404905
1489.000000	0.401175
1490.000000	0.389221
1491.000000	0.390907
1492.000000	0.377559
1493.000000	0.379705
1494.000000	0.383648
1495.000000	0.384003
1496.000000	0.364604
1497.000000	0.380062
1498.000000	0.369445
1499.000000	0.355970
1500.000000	0.348554
1501.000000	0.345819
1502.000000	0.342599
1503.000000	0.335749
1504.000000	0.338693
1505.000000	0.323458
1506.000000	0.323059
1507.000000	0.319164
1508.000000	0.300074
1509.000000	0.298832
1510.000000	0.294491
1511.000000	0.287522
1512.000000	0.289912
1513.000000	0.285469
1514.000000	0.273367
1515.000000	0.280971
1516.000000	0.273862
1517.000000	0.268421
1518.000000	0.262473
1519.000000	0.258219
1520.000000	0.257526
1521.000000	0.261257
1522.000000	0.256862
1523.000000	0.255918
1524.000000	0.245545
1525.000000	0.251536
1526.000000	0.254821
1527.000000	0.249635
1528.000000	0.252062
1529.000000	0.250429
1530.000000	0.237416
1531.000000	0.236620
1532.000000	0.232966
1533.000000	0.242203
1534.000000	0.254966
1535.000000	0.250002
1536.000000	0.241053
1537.000000	0.251918
1538.000000	0.251331
1539.000000	0.248857
1540.000000	0.247892
1541.000000	0.255763
1542.000000	0.267023
1543.000000	0.264927
1544.000000	0.264388
1545.000000	0.265504
1546.000000	0.273468
1547.000000	0.279979
1548.000000	0.273771
1549.000000	0.275882
1550.000000	0.284976
1551.000000	0.287405
1552.000000	0.285314
1553.000000	0.284972
1554.000000	0.283598
1555.000000	0.283242
1556.000000	0.274008
1557.000000	0.267935
1558.000000	0.276439
1559.000000	0.284696
1560.000000	0.278700
1561.000000	0.277385
1562.000000	0.278724
1563.000000	0.262355
1564.000000	0.256647
1565.000000	0.270105
1566.000000	0.267593
1567.000000	0.256279
1568.000000	0.262880
1569.000000	0.260517
1570.000000	0.250886
1571.000000	0.240220
1572.000000	0.240079
1573.000000	0.249675
1574.000000	0.253070
1575.000000	0.247246
1576.000000	0.242335
1577.000000	0.240777
1578.000000	0.246716
1579.000000	0.251360
1580.000000	0.241896
1581.000000	0.235243
1582.000000	0.236792
1583.000000	0.241690
1584.000000	0.241661
1585.000000	0.232247
1586.000000	0.226417
1587.000000	0.229434
1588.000000	0.227791
1589.000000	0.224837
1590.000000	0.220367
1591.000000	0.214797
1592.000000	0.209829
1593.000000	0.220422
1594.000000	0.217452
1595.000000	0.210549
1596.000000	0.222499
1597.000000	0.224402
1598.000000	0.221906
1599.000000	0.228344
1600.000000	0.224258
1601.000000	0.217338
1602.000000	0.222443
1603.000000	0.220679
1604.000000	0.224903
1605.000000	0.231464
1606.000000	0.228233
1607.000000	0.220026
1608.000000	0.228918
1609.000000	0.234792
1610.000000	0.241211
1611.000000	0.244996
1612.000000	0.252642
1613.000000	0.261634
1614.000000	0.252166
1615.000000	0.248826
1616.000000	0.247843
1617.000000	0.257721
1618.000000	0.254661
1619.000000	0.261655
1620.000000	0.267442
1621.000000	0.259804
1622.000000	0.265971
1623.000000	0.269361
1624.000000	0.270882
1625.000000	0.276894
1626.000000	0.275990
1627.000000	0.277503
1628.000000	0.281003
1629.000000	0.291884
1630.000000	0.295084
1631.000000	0.308840
1632.000000	0.305905
1633.000000	0.297695
1634.000000	0.290806
1635.000000	0.296360
1636.000000	0.297588
1637.000000	0.306603
1638.000000	0.305094
1639.000000	0.310300
1640.000000	0.306431
1641.000000	0.306780
1642.000000	0.309893
1643.000000	0.322645
1644.000000	0.299916
1645.000000	0.303990
1646.000000	0.317651
1647.000000	0.306451
1648.000000	0.309494
1649.000000	0.311621
1650.000000	0.315940
1651.000000	0.308011
1652.000000	0.299343
1653.000000	0.299999
1654.000000	0.289983
1655.000000	0.290252
1656.000000	0.291608
1657.000000	0.278348
1658.000000	0.279253
1659.000000	0.264128
1660.000000	0.269547
1661.000000	0.263152
1662.000000	0.265940
1663.000000	0.260594
1664.000000	0.258589
1665.000000	0.278211
1666.000000	0.265621
1667.000000	0.256051
1668.000000	0.260297
1669.000000	0.268068
1670.000000	0.252311
1671.000000	0.255503
1672.000000	0.240554
1673.000000	0.251888
1674.000000	0.250861
1675.000000	0.247849
1676.000000	0.272802
1677.000000	0.246204
1678.000000	0.256871
1679.000000	0.261497
1680.000000	0.263874
1681.000000	0.268590
1682.000000	0.243609
1683.000000	0.259822
1684.000000	0.275110
1685.000000	0.262957
1686.000000	0.258896
1687.000000	0.258514
1688.000000	0.258706
1689.000000	0.233281
1690.000000	0.208307
1691.000000	0.198000
1692.000000	0.190986
1693.000000	0.182302
1694.000000	0.157840
1695.000000	0.139852
1696.000000	0.131870
1697.000000	0.118005
1698.000000	0.106608
1699.000000	0.095902
1700.000000	0.061965
1701.000000	0.056508
1702.000000	0.059536
1703.000000	0.048757
1704.000000	0.049534
1705.000000	0.065022
1706.000000	0.046213
1707.000000	0.056907
1708.000000	0.061816
1709.000000	0.069336
1710.000000	0.065213
1711.000000	0.070044
1712.000000	0.080783
1713.000000	0.070160
1714.000000	0.088903
1715.000000	0.090471
1716.000000	0.102114
1717.000000	0.109549
1718.000000	0.107743
1719.000000	0.132154
1720.000000	0.123962
1721.000000	0.131274
1722.000000	0.158446
1723.000000	0.160326
1724.000000	0.154540
1725.000000	0.172693
1726.000000	0.182057
1727.000000	0.190355
1728.000000	0.200677
1729.000000	0.197017
1730.000000	0.211601
1731.000000	0.207690
1732.000000	0.206435
1733.000000	0.196418
1734.000000	0.175200
1735.000000	0.160804
1736.000000	0.150482
1737.000000	0.138143
1738.000000	0.108701
1739.000000	0.116430
1740.000000	0.098319
1741.000000	0.083314
1742.000000	0.063706
1743.000000	0.047989
1744.000000	0.059920
1745.000000	0.048911
1746.000000	0.067415
1747.000000	0.063724
1748.000000	0.061417
1749.000000	0.069809
1750.000000	0.070061
1751.000000	0.081148
1752.000000	0.089214
1753.000000	0.075128
1754.000000	0.085034
1755.000000	0.086801
1756.000000	0.095027
1757.000000	0.090869
1758.000000	0.108725
1759.000000	0.104924
1760.000000	0.100326
1761.000000	0.098376
1762.000000	0.094371
1763.000000	0.110406
1764.000000	0.104579
1765.000000	0.094116
1766.000000	0.083250
1767.000000	0.081005
1768.000000	0.078079
1769.000000	0.055429
1770.000000	0.050591
1771.000000	0.040176
1772.000000	0.035026
1773.000000	0.022479
1774.000000	0.029118
1775.000000	0.039600
1776.000000	0.039566
1777.000000	0.049814
1778.000000	0.059908
1779.000000	0.060712
1780.000000	0.064220
1781.000000	0.070930
1782.000000	0.083675
1783.000000	0.082428
1784.000000	0.084091
1785.000000	0.090784
1786.000000	0.084898
1787.000000	0.096266
1788.000000	0.103174
1789.000000	0.103034
1790.000000	0.100037
1791.000000	0.092582
1792.000000	0.098714
1793.000000	0.091794
1794.000000	0.089664
1795.000000	0.095699
1796.000000	0.093996
1797.000000	0.096516
1798.000000	0.089912
1799.000000	0.086897
1800.000000	0.084789
1801.000000	0.094822
1802.000000	0.092476
1803.000000	0.090055
1804.000000	0.102811
1805.000000	0.110330
1806.000000	0.109943
1807.000000	0.100997
1808.000000	0.095686
1809.000000	0.089070
1810.000000	0.086903
1811.000000	0.085344
1812.000000	0.091265
1813.000000	0.100389
1814.000000	0.097570
1815.000000	0.099987
1816.000000	0.104919
1817.000000	0.101353
1818.000000	0.093346
1819.000000	0.078925
1820.000000	0.077312
1821.000000	0.085654
1822.000000	0.108264
1823.000000	0.122119
1824.000000	0.105187
1825.000000	0.088917
1826.000000	0.081652
1827.000000	0.091338
1828.000000	0.096478
1829.000000	0.083171
1830.000000	0.077205
1831.000000	0.090190
1832.000000	0.105420
1833.000000	0.103802
1834.000000	0.087187
1835.000000	0.074524
1836.000000	0.067990
1837.000000	0.061016
1838.000000	0.072380
1839.000000	0.078116
1840.000000	0.061173
1841.000000	0.061614
1842.000000	0.098025
1843.000000	0.116643
1844.000000	0.107517
1845.000000	0.083559
1846.000000	0.067610
1847.000000	0.052611
1848.000000	0.066473
1849.000000	0.104637
1850.000000	0.124641
1851.000000	0.117227
1852.000000	0.081548
1853.000000	0.067725
1854.000000	0.078248
1855.000000	0.079942
1856.000000	0.080564
1857.000000	0.091258
1858.000000	0.081753
1859.000000	0.081513
1860.000000	0.088857
1861.000000	0.083590
1862.000000	0.093145
1863.000000	0.099328
1864.000000	0.101424
1865.000000	0.101820
1866.000000	0.106916
1867.000000	0.110784
1868.000000	0.112916
1869.000000	0.112564
1870.000000	0.114230
1871.000000	0.114458
1872.000000	0.114738
1873.000000	0.120644
1874.000000	0.135738
1875.000000	0.132132
1876.000000	0.154675
1877.000000	0.179750
1878.000000	0.191145
1879.000000	0.201691
1880.000000	0.212049
1881.000000	0.230745
1882.000000	0.259562
1883.000000	0.272264
1884.000000	0.291732
1885.000000	0.301058
1886.000000	0.302065
1887.000000	0.319275
1888.000000	0.355307
1889.000000	0.388982
1890.000000	0.398497
1891.000000	0.407663
1892.000000	0.431465
1893.000000	0.458868
1894.000000	0.481093
1895.000000	0.504643
1896.000000	0.528969
1897.000000	0.553633
1898.000000	0.563694
1899.000000	0.555348
1900.000000	0.561466
1901.000000	0.588292
1902.000000	0.594811
1903.000000	0.597474
1904.000000	0.606925
1905.000000	0.611014
1906.000000	0.605812
1907.000000	0.612084
1908.000000	0.611721
1909.000000	0.628186
1910.000000	0.632636
1911.000000	0.642620
1912.000000	0.631861
1913.000000	0.641409
1914.000000	0.624620
1915.000000	0.615535
1916.000000	0.631245
1917.000000	0.623220
1918.000000	0.634111
1919.000000	0.631670
1920.000000	0.627086
1921.000000	0.620669
1922.000000	0.616887
1923.000000	0.615966
1924.000000	0.641362
1925.000000	0.611189
1926.000000	0.604414
1927.000000	0.598613
1928.000000	0.609270
1929.000000	0.604427
1930.000000	0.608080
1931.000000	0.602351
1932.000000	0.612063
1933.000000	0.615742
1934.000000	0.622377
1935.000000	0.614233
1936.000000	0.614101
1937.000000	0.623498
1938.000000	0.627969
1939.000000	0.605427
1940.000000	0.625692
1941.000000	0.610664
1942.000000	0.612529
1943.000000	0.608815
1944.000000	0.611212
1945.000000	0.624418
1946.000000	0.606220
1947.000000	0.616843
1948.000000	0.623874
1949.000000	0.622477
1950.000000	0.637289
1951.000000	0.637336
1952.000000	0.628115
1953.000000	0.639614
1954.000000	0.632095
1955.000000	0.627821
1956.000000	0.627355
1957.000000	0.623285
1958.000000	0.641602
1959.000000	0.643775
1960.000000	0.631136
1961.000000	0.632739
1962.000000	0.637966
1963.000000	0.631177
1964.000000	0.646403
1965.000000	0.635458
1966.000000	0.626194
1967.000000	0.645413
1968.000000	0.639313
1969.000000	0.641114
1970.000000	0.636800
1971.000000	0.641498
1972.000000	0.622954
1973.000000	0.625894
1974.000000	0.631048
1975.000000	0.636281
1976.000000	0.628489
1977.000000	0.626640
1978.000000	0.603060
1979.000000	0.618848
1980.000000	0.633158
1981.000000	0.611647
1982.000000	0.618059
1983.000000	0.617783
1984.000000	0.609840
1985.000000	0.603610
1986.000000	0.607663
1987.000000	0.598649
1988.000000	0.594259
1989.000000	0.575518
1990.000000	0.581603
1991.000000	0.581902
1992.000000	0.598961
1993.000000	0.556895
1994.000000	0.578665
1995.000000	0.564155
1996.000000	0.565288
1997.000000	0.542709
1998.000000	0.547729
1999.000000	0.543933
2000.000000	0.531767
2001.000000	0.539604
2002.000000	0.532746
2003.000000	0.529265
2004.000000	0.506974
2005.000000	0.514019
2006.000000	0.514033
2007.000000	0.511721
2008.000000	0.511523
2009.000000	0.494285
2010.000000	0.491340
2011.000000	0.484668
2012.000000	0.488670
2013.000000	0.486025
2014.000000	0.477961
2015.000000	0.453542
2016.000000	0.479444
2017.000000	0.495422
2018.000000	0.487641
2019.000000	0.484204
2020.000000	0.473263
2021.000000	0.483787
2022.000000	0.490566
2023.000000	0.488953
2024.000000	0.479378
2025.000000	0.476882
2026.000000	0.469183
2027.000000	0.478281
2028.000000	0.481420
2029.000000	0.468972
2030.000000	0.473245
2031.000000	0.470382
2032.000000	0.460121
2033.000000	0.462201
2034.000000	0.448810
2035.000000	0.450476
2036.000000	0.457911
2037.000000	0.460163
2038.000000	0.450753
2039.000000	0.423803
2040.000000	0.423732
2041.000000	0.426111
2042.000000	0.412421
2043.000000	0.413024
2044.000000	0.412052
2045.000000	0.413301
2046.000000	0.403148
2047.000000	0.409388
2048.000000	0.424399
2049.000000	0.418139
2050.000000	0.421020
2051.000000	0.430054
2052.000000	0.426531
2053.000000	0.420653
2054.000000	0.419829
2055.000000	0.411742
2056.000000	0.423003
2057.000000	0.424870
2058.000000	0.416871
2059.000000	0.424429
2060.000000	0.425258
2061.000000	0.434776
2062.000000	0.435044
2063.000000	0.434520
2064.000000	0.426877
2065.000000	0.437021
2066.000000	0.430689
2067.000000	0.420549
2068.000000	0.419623
2069.000000	0.417069
2070.000000	0.426998
2071.000000	0.425673
2072.000000	0.422415
2073.000000	0.424148
2074.000000	0.416122
2075.000000	0.417415
2076.000000	0.411027
2077.000000	0.411328
2078.000000	0.413726
2079.000000	0.409404
2080.000000	0.416372
2081.000000	0.428371
2082.000000	0.420165
2083.000000	0.414859
2084.000000	0.419566
2085.000000	0.419187
2086.000000	0.410936
2087.000000	0.413018
2088.000000	0.412661
2089.000000	0.402204
2090.000000	0.407302
2091.000000	0.407854
2092.000000	0.402982
2093.000000	0.399449
2094.000000	0.392995
2095.000000	0.391881
2096.000000	0.395644
2097.000000	0.393850
2098.000000	0.391649
2099.000000	0.391701
2100.000000	0.390291
2101.000000	0.389490
2102.000000	0.395655
2103.000000	0.395545
2104.000000	0.385681
2105.000000	0.375229
2106.000000	0.366971
2107.000000	0.361197
2108.000000	0.361444
2109.000000	0.372436
2110.000000	0.373222
2111.000000	0.362634
2112.000000	0.365402
2113.000000	0.358970
2114.000000	0.353808
2115.000000	0.355511
2116.000000	0.361000
2117.000000	0.367900
2118.000000	0.362268
2119.000000	0.359187
2120.000000	0.352703
2121.000000	0.354640
2122.000000	0.364461
2123.000000	0.362240
2124.000000	0.352584
2125.000000	0.352745
2126.000000	0.346631
2127.000000	0.343890
2128.000000	0.353697
2129.000000	0.349323
2130.000000	0.339253
2131.000000	0.346178
2132.000000	0.341863
2133.000000	0.346867
2134.000000	0.349467
2135.000000	0.348551
2136.000000	0.352604
2137.000000	0.345995
2138.000000	0.340095
2139.000000	0.346786
2140.000000	0.337380
2141.000000	0.337096
2142.000000	0.342817
2143.000000	0.337915
2144.000000	0.341075
2145.000000	0.340443
2146.000000	0.343527
2147.000000	0.343597
2148.000000	0.342449
2149.000000	0.347946
2150.000000	0.353907
2151.000000	0.359095
2152.000000	0.362962
2153.000000	0.363390
2154.000000	0.358855
2155.000000	0.358173
2156.000000	0.355725
2157.000000	0.350995
2158.000000	0.350434
2159.000000	0.341761
2160.000000	0.338162
2161.000000	0.346763
2162.000000	0.336933
2163.000000	0.342524
2164.000000	0.346337
2165.000000	0.337002
2166.000000	0.345836
2167.000000	0.354402
2168.000000	0.347376
2169.000000	0.326717
2170.000000	0.333843
2171.000000	0.339705
2172.000000	0.344681
2173.000000	0.348911
2174.000000	0.338454
2175.000000	0.329954
2176.000000	0.332251
2177.000000	0.352723
2178.000000	0.345050
2179.000000	0.338857
2180.000000	0.346053
2181.000000	0.338358
2182.000000	0.331950
2183.000000	0.340467
2184.000000	0.332154
2185.000000	0.324114
2186.000000	0.333113
2187.000000	0.327175
2188.000000	0.332500
2189.000000	0.326250
2190.000000	0.336180
2191.000000	0.328686
2192.000000	0.317211
2193.000000	0.314293
2194.000000	0.305755
2195.000000	0.317882
2196.000000	0.317779
2197.000000	0.306948
2198.000000	0.291298
2199.000000	0.295908
2200.000000	0.292628
2201.000000	0.277500
2202.000000	0.276911
2203.000000	0.265985
2204.000000	0.270887
2205.000000	0.266275
2206.000000	0.240571
2207.000000	0.247370
2208.000000	0.266239
2209.000000	0.241620
2210.000000	0.242984
2211.000000	0.237695
2212.000000	0.245205
2213.000000	0.239902
2214.000000	0.245075
2215.000000	0.236003
2216.000000	0.223871
2217.000000	0.228370
2218.000000	0.225345
2219.000000	0.233312
2220.000000	0.242993
2221.000000	0.224726
2222.000000	0.227350
2223.000000	0.250298
2224.000000	0.230337
2225.000000	0.227380
2226.000000	0.225633
2227.000000	0.232129
2228.000000	0.231135
2229.000000	0.228139
2230.000000	0.236953
2231.000000	0.237426
2232.000000	0.224642
2233.000000	0.221955
2234.000000	0.224303
2235.000000	0.218421
2236.000000	0.236972
2237.000000	0.225613
2238.000000	0.239845
2239.000000	0.232993
2240.000000	0.225671
2241.000000	0.231737
2242.000000	0.216682
2243.000000	0.230250
2244.000000	0.236393
2245.000000	0.216685
2246.000000	0.238979
2247.000000	0.232534
2248.000000	0.229099
2249.000000	0.205850
2250.000000	0.220783
2251.000000	0.209075
2252.000000	0.234620
2253.000000	0.220192
2254.000000	0.223008
2255.000000	0.208637
2256.000000	0.203129
2257.000000	0.214371
2258.000000	0.216157
2259.000000	0.207000
2260.000000	0.210449
2261.000000	0.204181
2262.000000	0.190344
2263.000000	0.204968
2264.000000	0.194766
2265.000000	0.212926
2266.000000	0.192404
2267.000000	0.177738
2268.000000	0.178083
2269.000000	0.180367
2270.000000	0.192652
2271.000000	0.182328
2272.000000	0.180108
2273.000000	0.186615
2274.000000	0.173282
2275.000000	0.173687
2276.000000	0.167821
2277.000000	0.177044
2278.000000	0.175806
2279.000000	0.173690
2280.000000	0.159398
2281.000000	0.162359
2282.000000	0.171734
2283.000000	0.178273
2284.000000	0.162470
2285.000000	0.174498
2286.000000	0.169236
2287.000000	0.164337
2288.000000	0.168467
2289.000000	0.169835
2290.000000	0.158176
2291.000000	0.158019
2292.000000	0.167037
2293.000000	0.182779
2294.000000	0.172886
2295.000000	0.173734
2296.000000	0.171160
2297.000000	0.174038
2298.000000	0.183275
2299.000000	0.172550
2300.000000	0.170325
2301.000000	0.172556
2302.000000	0.185292
2303.000000	0.188535
2304.000000	0.179975
2305.000000	0.178241
2306.000000	0.196779
2307.000000	0.189283
2308.000000	0.188864
2309.000000	0.193902
2310.000000	0.201897
2311.000000	0.189830
2312.000000	0.192834
2313.000000	0.191074
2314.000000	0.198673
2315.000000	0.185651
2316.000000	0.195375
2317.000000	0.197190
2318.000000	0.187336
2319.000000	0.179536
2320.000000	0.172007
2321.000000	0.176857
2322.000000	0.171526
2323.000000	0.166418
2324.000000	0.166981
2325.000000	0.156904
2326.000000	0.161382
2327.000000	0.165431
2328.000000	0.151975
2329.000000	0.154936
2330.000000	0.161513
2331.000000	0.153730
2332.000000	0.157091
2333.000000	0.151049
2334.000000	0.146776
2335.000000	0.146957
2336.000000	0.142798
2337.000000	0.135095
2338.000000	0.142495
2339.000000	0.152769
2340.000000	0.152346
2341.000000	0.149458
2342.000000	0.155382
2343.000000	0.163568
2344.000000	0.161068
2345.000000	0.157739
2346.000000	0.164715
2347.000000	0.166758
2348.000000	0.167044
2349.000000	0.178400
2350.000000	0.173536
2351.000000	0.166117
2352.000000	0.167815
2353.000000	0.167227
2354.000000	0.166729
2355.000000	0.171215
2356.000000	0.167056
2357.000000	0.158430
2358.000000	0.157339
2359.000000	0.158072
2360.000000	0.156308
2361.000000	0.156731
2362.000000	0.157142
2363.000000	0.151808
2364.000000	0.147235
2365.000000	0.151640
2366.000000	0.154361
2367.000000	0.159978
2368.000000	0.160310
2369.000000	0.151614
2370.000000	0.164609
2371.000000	0.176579
2372.000000	0.168314
2373.000000	0.155079
2374.000000	0.154235
2375.000000	0.165482
2376.000000	0.153492
2377.000000	0.147195
2378.000000	0.154380
2379.000000	0.156637
2380.000000	0.161202
2381.000000	0.166779
2382.000000	0.168356
2383.000000	0.167573
2384.000000	0.165478
2385.000000	0.163415
2386.000000	0.156696
2387.000000	0.166198
2388.000000	0.173700
2389.000000	0.160392
2390.000000	0.159965
2391.000000	0.167369
2392.000000	0.156929
2393.000000	0.161663
2394.000000	0.163628
2395.000000	0.167510
2396.000000	0.167914
2397.000000	0.161649
2398.000000	0.158158
2399.000000	0.163508
2400.000000	0.167390
2401.000000	0.166389
2402.000000	0.164803
2403.000000	0.166994
2404.000000	0.171085
2405.000000	0.179222
2406.000000	0.169017
2407.000000	0.156979
2408.000000	0.155472
2409.000000	0.154093
2410.000000	0.160207
2411.000000	0.161240
2412.000000	0.162203
2413.000000	0.161511
2414.000000	0.157584
2415.000000	0.156694
2416.000000	0.150400
2417.000000	0.159200
2418.000000	0.154155
2419.000000	0.156169
2420.000000	0.157968
2421.000000	0.160094
2422.000000	0.151443
2423.000000	0.149062
2424.000000	0.140072
2425.000000	0.152601
2426.000000	0.148420
2427.000000	0.145410
2428.000000	0.153625
2429.000000	0.148396
2430.000000	0.134846
2431.000000	0.135061
2432.000000	0.124836
2433.000000	0.129901
2434.000000	0.121940
2435.000000	0.133486
2436.000000	0.134857
2437.000000	0.133223
2438.000000	0.121282
2439.000000	0.124149
2440.000000	0.125058
2441.000000	0.124306
2442.000000	0.119544
2443.000000	0.125863
2444.000000	0.121736
2445.000000	0.134099
2446.000000	0.118872
2447.000000	0.110018
2448.000000	0.103871
2449.000000	0.095161
2450.000000	0.111090
2451.000000	0.108494
2452.000000	0.102649
2453.000000	0.094689
2454.000000	0.101492
2455.000000	0.089745
2456.000000	0.093730
2457.000000	0.075313
2458.000000	0.087993
2459.000000	0.091237
2460.000000	0.103429
2461.000000	0.088878
2462.000000	0.110029
2463.000000	0.092286
2464.000000	0.074005
2465.000000	0.095406
2466.000000	0.072545
2467.000000	0.084569
2468.000000	0.075167
2469.000000	0.080696
2470.000000	0.052437
2471.000000	0.073909
2472.000000	0.063500
2473.000000	0.073361
2474.000000	0.056992
2475.000000	0.067886
2476.000000	0.074722
2477.000000	0.109307
2478.000000	0.070843
2479.000000	0.067518
2480.000000	0.053307
2481.000000	0.062886
2482.000000	0.070610
2483.000000	0.043937
2484.000000	0.047498
2485.000000	0.039822
2486.000000	0.051544
2487.000000	0.075304
2488.000000	0.054861
2489.000000	0.020917
2490.000000	0.038865
2491.000000	0.089343
2492.000000	0.053949
2493.000000	0.050966
2494.000000	0.143698
2495.000000	0.093269
2496.000000	0.031756
2497.000000	0.144517
2498.000000	0.017250
2499.000000	0.111891
2500.000000	0.093530
