PE UV       SUBTECH     SPECTRUM    ASCII       PEDS        4.00        
   -1
BIOUCR0010-3.Sample.ASC
24/02/19
14:48:03.00
24/02/19
14:48:03.00
Vinicio Soto Monge
P. chalcotea
250,000000
1
Lambda 1050
1050L1511233
PerkinElmer UV WinLab 6.3.2.0749 / 2.02.05 Lambda 900 UV/VIS/NIR, Aug  7 2015 09:38:08

0
0
3350/servo 860,8/2
0
0
UV/VIS
1
1
1
DoubleDePol,CommonBeamDepol,RBeamAtt,SBeamAtt,60mm sphere, WB InGaAs Detector
0
0
0
0
Program
Program
3350/servo 860,8/2
3350/0,2 860,8/0,2
3350/0,2 860,8/0,2
0
15.00
 
 
 
0
 
860,8
319,2
860,8
Front
100
on
S:100 R:100
0
0
0
0
 
0
 
 
 
0
 
 
0
0
0
0
0
 
 
 
 
0
0


0
0
#HDR
-1
-1
#GR
nm
%R
1.0
0.0
2500,000000
-1,000000
2251
8
19,675600
1,594900
#DATA

250.000000	0.046003
251.000000	0.048206
252.000000	0.031510
253.000000	0.041761
254.000000	0.048136
255.000000	0.030202
256.000000	0.037635
257.000000	0.027004
258.000000	0.024674
259.000000	0.040661
260.000000	0.036797
261.000000	0.038199
262.000000	0.015110
263.000000	0.038298
264.000000	0.029346
265.000000	0.016190
266.000000	0.029968
267.000000	0.028701
268.000000	0.025096
269.000000	0.028815
270.000000	0.036451
271.000000	0.034302
272.000000	0.026978
273.000000	0.032713
274.000000	0.040274
275.000000	0.042959
276.000000	0.024618
277.000000	0.054710
278.000000	0.027549
279.000000	0.021188
280.000000	0.026188
281.000000	0.035952
282.000000	0.019001
283.000000	0.022120
284.000000	0.030066
285.000000	0.028059
286.000000	0.025712
287.000000	0.022518
288.000000	0.027695
289.000000	0.017552
290.000000	0.032672
291.000000	0.049813
292.000000	0.015301
293.000000	0.051782
294.000000	0.043034
295.000000	0.033034
296.000000	0.022498
297.000000	0.040059
298.000000	0.026962
299.000000	0.038392
300.000000	0.036075
301.000000	0.032250
302.000000	0.044326
303.000000	0.052007
304.000000	0.035565
305.000000	0.021547
306.000000	0.044357
307.000000	0.050230
308.000000	0.042790
309.000000	0.032953
310.000000	0.029377
311.000000	0.037782
312.000000	0.040747
313.000000	0.017405
314.000000	0.033095
315.000000	0.058316
316.000000	0.032242
317.000000	0.064810
318.000000	0.097591
319.000000	0.035697
320.000000	0.059588
321.000000	0.016208
322.000000	0.113115
323.000000	0.061388
324.000000	0.050020
325.000000	0.051654
326.000000	0.067842
327.000000	0.051611
328.000000	0.068293
329.000000	0.062432
330.000000	0.051602
331.000000	0.082060
332.000000	0.076565
333.000000	0.040630
334.000000	0.047932
335.000000	0.044093
336.000000	0.039687
337.000000	0.054806
338.000000	0.051106
339.000000	0.053877
340.000000	0.093089
341.000000	0.056259
342.000000	0.050664
343.000000	0.037966
344.000000	0.038951
345.000000	0.044556
346.000000	0.026150
347.000000	0.054060
348.000000	0.068687
349.000000	0.065392
350.000000	0.032594
351.000000	0.036802
352.000000	0.073793
353.000000	0.071690
354.000000	0.032613
355.000000	0.025869
356.000000	0.060870
357.000000	0.060170
358.000000	0.061942
359.000000	0.066697
360.000000	0.063033
361.000000	0.056974
362.000000	0.049795
363.000000	0.035478
364.000000	0.045374
365.000000	0.064970
366.000000	0.068011
367.000000	0.083061
368.000000	0.075149
369.000000	0.062006
370.000000	0.065181
371.000000	0.059380
372.000000	0.056350
373.000000	0.055200
374.000000	0.054500
375.000000	0.076046
376.000000	0.060341
377.000000	0.042250
378.000000	0.043027
379.000000	0.047550
380.000000	0.043778
381.000000	0.043164
382.000000	0.045873
383.000000	0.052541
384.000000	0.051554
385.000000	0.046605
386.000000	0.052259
387.000000	0.049642
388.000000	0.047151
389.000000	0.047532
390.000000	0.045839
391.000000	0.047611
392.000000	0.052077
393.000000	0.043372
394.000000	0.042702
395.000000	0.046114
396.000000	0.048391
397.000000	0.050216
398.000000	0.048534
399.000000	0.048067
400.000000	0.051599
401.000000	0.048358
402.000000	0.047954
403.000000	0.048281
404.000000	0.050269
405.000000	0.049879
406.000000	0.048483
407.000000	0.047944
408.000000	0.053275
409.000000	0.051940
410.000000	0.045294
411.000000	0.049269
412.000000	0.052145
413.000000	0.052420
414.000000	0.051149
415.000000	0.051618
416.000000	0.052387
417.000000	0.052131
418.000000	0.053131
419.000000	0.054427
420.000000	0.053093
421.000000	0.049903
422.000000	0.053360
423.000000	0.055310
424.000000	0.051147
425.000000	0.057360
426.000000	0.060640
427.000000	0.055732
428.000000	0.052503
429.000000	0.052046
430.000000	0.053397
431.000000	0.052920
432.000000	0.054280
433.000000	0.056472
434.000000	0.055941
435.000000	0.054197
436.000000	0.052539
437.000000	0.052156
438.000000	0.052780
439.000000	0.056030
440.000000	0.054942
441.000000	0.052516
442.000000	0.056170
443.000000	0.059034
444.000000	0.055226
445.000000	0.052986
446.000000	0.054502
447.000000	0.057611
448.000000	0.059719
449.000000	0.059235
450.000000	0.055669
451.000000	0.052354
452.000000	0.051866
453.000000	0.053140
454.000000	0.053044
455.000000	0.055302
456.000000	0.058144
457.000000	0.054729
458.000000	0.053791
459.000000	0.057639
460.000000	0.056946
461.000000	0.056482
462.000000	0.058028
463.000000	0.055140
464.000000	0.055457
465.000000	0.058547
466.000000	0.059227
467.000000	0.061452
468.000000	0.066588
469.000000	0.068004
470.000000	0.067889
471.000000	0.071996
472.000000	0.078260
473.000000	0.083135
474.000000	0.087270
475.000000	0.091465
476.000000	0.098127
477.000000	0.106400
478.000000	0.115272
479.000000	0.125040
480.000000	0.133917
481.000000	0.146075
482.000000	0.158521
483.000000	0.173907
484.000000	0.192323
485.000000	0.216061
486.000000	0.240826
487.000000	0.267411
488.000000	0.295159
489.000000	0.327752
490.000000	0.361716
491.000000	0.397637
492.000000	0.436801
493.000000	0.468293
494.000000	0.501205
495.000000	0.529963
496.000000	0.555471
497.000000	0.573907
498.000000	0.585246
499.000000	0.588943
500.000000	0.595826
501.000000	0.599532
502.000000	0.604577
503.000000	0.614534
504.000000	0.628335
505.000000	0.651221
506.000000	0.680075
507.000000	0.716003
508.000000	0.770161
509.000000	0.827962
510.000000	0.891273
511.000000	0.956085
512.000000	1.021483
513.000000	1.081329
514.000000	1.120404
515.000000	1.139097
516.000000	1.150435
517.000000	1.148652
518.000000	1.135142
519.000000	1.104334
520.000000	1.062965
521.000000	1.017529
522.000000	0.965606
523.000000	0.905661
524.000000	0.837275
525.000000	0.769899
526.000000	0.698480
527.000000	0.631454
528.000000	0.558561
529.000000	0.493151
530.000000	0.447008
531.000000	0.415823
532.000000	0.409304
533.000000	0.439265
534.000000	0.502079
535.000000	0.580681
536.000000	0.676756
537.000000	0.782130
538.000000	0.897167
539.000000	1.012472
540.000000	1.139078
541.000000	1.273416
542.000000	1.403661
543.000000	1.535499
544.000000	1.675904
545.000000	1.814661
546.000000	1.939474
547.000000	2.060912
548.000000	2.186176
549.000000	2.299661
550.000000	2.393193
551.000000	2.460423
552.000000	2.508033
553.000000	2.532699
554.000000	2.515452
555.000000	2.467018
556.000000	2.388793
557.000000	2.274241
558.000000	2.119453
559.000000	1.953152
560.000000	1.719972
561.000000	1.526010
562.000000	1.336652
563.000000	1.156081
564.000000	1.001942
565.000000	0.858731
566.000000	0.743196
567.000000	0.651205
568.000000	0.569356
569.000000	0.500529
570.000000	0.434078
571.000000	0.382775
572.000000	0.331812
573.000000	0.292551
574.000000	0.246559
575.000000	0.226180
576.000000	0.231912
577.000000	0.267170
578.000000	0.326203
579.000000	0.398064
580.000000	0.465385
581.000000	0.538622
582.000000	0.593263
583.000000	0.627901
584.000000	0.649373
585.000000	0.643205
586.000000	0.617872
587.000000	0.579361
588.000000	0.521142
589.000000	0.454810
590.000000	0.384273
591.000000	0.318825
592.000000	0.267417
593.000000	0.232315
594.000000	0.204216
595.000000	0.185614
596.000000	0.180971
597.000000	0.182081
598.000000	0.192183
599.000000	0.207805
600.000000	0.244968
601.000000	0.279366
602.000000	0.308950
603.000000	0.322683
604.000000	0.340190
605.000000	0.337766
606.000000	0.324504
607.000000	0.300945
608.000000	0.269296
609.000000	0.237837
610.000000	0.208418
611.000000	0.189307
612.000000	0.171914
613.000000	0.160201
614.000000	0.158595
615.000000	0.158901
616.000000	0.153090
617.000000	0.149792
618.000000	0.161808
619.000000	0.167929
620.000000	0.178506
621.000000	0.184739
622.000000	0.194166
623.000000	0.205623
624.000000	0.198906
625.000000	0.185530
626.000000	0.180659
627.000000	0.167740
628.000000	0.168812
629.000000	0.158497
630.000000	0.153547
631.000000	0.163577
632.000000	0.172775
633.000000	0.187493
634.000000	0.192080
635.000000	0.193714
636.000000	0.193328
637.000000	0.202586
638.000000	0.202745
639.000000	0.195207
640.000000	0.195729
641.000000	0.192984
642.000000	0.185802
643.000000	0.186587
644.000000	0.183074
645.000000	0.187029
646.000000	0.178791
647.000000	0.179637
648.000000	0.181231
649.000000	0.182039
650.000000	0.188126
651.000000	0.201452
652.000000	0.214710
653.000000	0.231770
654.000000	0.248374
655.000000	0.257796
656.000000	0.273686
657.000000	0.281498
658.000000	0.284995
659.000000	0.286077
660.000000	0.285581
661.000000	0.277934
662.000000	0.271363
663.000000	0.262041
664.000000	0.250941
665.000000	0.246241
666.000000	0.246914
667.000000	0.238950
668.000000	0.234508
669.000000	0.240625
670.000000	0.238380
671.000000	0.237442
672.000000	0.253413
673.000000	0.272346
674.000000	0.289376
675.000000	0.307075
676.000000	0.321669
677.000000	0.334836
678.000000	0.343313
679.000000	0.361366
680.000000	0.372174
681.000000	0.375069
682.000000	0.372896
683.000000	0.377605
684.000000	0.361358
685.000000	0.356557
686.000000	0.351138
687.000000	0.344522
688.000000	0.336274
689.000000	0.334037
690.000000	0.333408
691.000000	0.337731
692.000000	0.329559
693.000000	0.337812
694.000000	0.353764
695.000000	0.362372
696.000000	0.368771
697.000000	0.391744
698.000000	0.408375
699.000000	0.422621
700.000000	0.444626
701.000000	0.456816
702.000000	0.467881
703.000000	0.482486
704.000000	0.482397
705.000000	0.483338
706.000000	0.481632
707.000000	0.475903
708.000000	0.475127
709.000000	0.476056
710.000000	0.469088
711.000000	0.451558
712.000000	0.446354
713.000000	0.440567
714.000000	0.438564
715.000000	0.440742
716.000000	0.439909
717.000000	0.445674
718.000000	0.463211
719.000000	0.468300
720.000000	0.470924
721.000000	0.482893
722.000000	0.508954
723.000000	0.525154
724.000000	0.538740
725.000000	0.554315
726.000000	0.563236
727.000000	0.576442
728.000000	0.581265
729.000000	0.579967
730.000000	0.588042
731.000000	0.589380
732.000000	0.598276
733.000000	0.591896
734.000000	0.581605
735.000000	0.587972
736.000000	0.582976
737.000000	0.569543
738.000000	0.575291
739.000000	0.588380
740.000000	0.586332
741.000000	0.585202
742.000000	0.588672
743.000000	0.592560
744.000000	0.607634
745.000000	0.635165
746.000000	0.660122
747.000000	0.672629
748.000000	0.691726
749.000000	0.711191
750.000000	0.723672
751.000000	0.729098
752.000000	0.744654
753.000000	0.763389
754.000000	0.774912
755.000000	0.781547
756.000000	0.779452
757.000000	0.798371
758.000000	0.805192
759.000000	0.812898
760.000000	0.824333
761.000000	0.821769
762.000000	0.815981
763.000000	0.810937
764.000000	0.820400
765.000000	0.829679
766.000000	0.831388
767.000000	0.846550
768.000000	0.859161
769.000000	0.863229
770.000000	0.881056
771.000000	0.894161
772.000000	0.889416
773.000000	0.897415
774.000000	0.910798
775.000000	0.929355
776.000000	0.934408
777.000000	0.927047
778.000000	0.955843
779.000000	0.971379
780.000000	0.968975
781.000000	0.972647
782.000000	0.965222
783.000000	0.969292
784.000000	0.951726
785.000000	0.961155
786.000000	0.979101
787.000000	0.981899
788.000000	0.977530
789.000000	0.965516
790.000000	0.967218
791.000000	0.951265
792.000000	0.929908
793.000000	0.922503
794.000000	0.928342
795.000000	0.920204
796.000000	0.904299
797.000000	0.889269
798.000000	0.894211
799.000000	0.909505
800.000000	0.881491
801.000000	0.886355
802.000000	0.877956
803.000000	0.885687
804.000000	0.875695
805.000000	0.867072
806.000000	0.858648
807.000000	0.867297
808.000000	0.865041
809.000000	0.858455
810.000000	0.870639
811.000000	0.891987
812.000000	0.860046
813.000000	0.884816
814.000000	0.870343
815.000000	0.823028
816.000000	0.808546
817.000000	0.810820
818.000000	0.800013
819.000000	0.812252
820.000000	0.784924
821.000000	0.759607
822.000000	0.806949
823.000000	0.828475
824.000000	0.760909
825.000000	0.753327
826.000000	0.750764
827.000000	0.748865
828.000000	0.737156
829.000000	0.713601
830.000000	0.717698
831.000000	0.707520
832.000000	0.693754
833.000000	0.743441
834.000000	0.745450
835.000000	0.738096
836.000000	0.768525
837.000000	0.714067
838.000000	0.706350
839.000000	0.695921
840.000000	0.730771
841.000000	0.713225
842.000000	0.760684
843.000000	0.776145
844.000000	0.708272
845.000000	0.746876
846.000000	0.784783
847.000000	0.830348
848.000000	0.709124
849.000000	0.682089
850.000000	0.737196
851.000000	0.700306
852.000000	0.664083
853.000000	0.751366
854.000000	0.743992
855.000000	0.671612
856.000000	0.693035
857.000000	0.692913
858.000000	1.391612
859.000000	0.734502
860.000000	0.728528
861.000000	0.737004
862.000000	0.722245
863.000000	0.699508
864.000000	0.686648
865.000000	0.675490
866.000000	0.668637
867.000000	0.653631
868.000000	0.656228
869.000000	0.623434
870.000000	0.622349
871.000000	0.605489
872.000000	0.599606
873.000000	0.585594
874.000000	0.573468
875.000000	0.584855
876.000000	0.580007
877.000000	0.549129
878.000000	0.542121
879.000000	0.549857
880.000000	0.543111
881.000000	0.513855
882.000000	0.526172
883.000000	0.513734
884.000000	0.498264
885.000000	0.491467
886.000000	0.500200
887.000000	0.500521
888.000000	0.482494
889.000000	0.469531
890.000000	0.462079
891.000000	0.467040
892.000000	0.469890
893.000000	0.466790
894.000000	0.464458
895.000000	0.445961
896.000000	0.439791
897.000000	0.435871
898.000000	0.444314
899.000000	0.461894
900.000000	0.449632
901.000000	0.459833
902.000000	0.458527
903.000000	0.453917
904.000000	0.448464
905.000000	0.460334
906.000000	0.467510
907.000000	0.485732
908.000000	0.469714
909.000000	0.476745
910.000000	0.481703
911.000000	0.475705
912.000000	0.482176
913.000000	0.474319
914.000000	0.490865
915.000000	0.481923
916.000000	0.498551
917.000000	0.502660
918.000000	0.514350
919.000000	0.511677
920.000000	0.525927
921.000000	0.512673
922.000000	0.528262
923.000000	0.522838
924.000000	0.540171
925.000000	0.534630
926.000000	0.536863
927.000000	0.545109
928.000000	0.551270
929.000000	0.564525
930.000000	0.559923
931.000000	0.572511
932.000000	0.567165
933.000000	0.587266
934.000000	0.594086
935.000000	0.601931
936.000000	0.603314
937.000000	0.602634
938.000000	0.612844
939.000000	0.622091
940.000000	0.633827
941.000000	0.633796
942.000000	0.661693
943.000000	0.648046
944.000000	0.659634
945.000000	0.670295
946.000000	0.679008
947.000000	0.683712
948.000000	0.674293
949.000000	0.690597
950.000000	0.696250
951.000000	0.698380
952.000000	0.718404
953.000000	0.717903
954.000000	0.712782
955.000000	0.738488
956.000000	0.735544
957.000000	0.727114
958.000000	0.737723
959.000000	0.747288
960.000000	0.748035
961.000000	0.751310
962.000000	0.756635
963.000000	0.760337
964.000000	0.771839
965.000000	0.773839
966.000000	0.775296
967.000000	0.773811
968.000000	0.783770
969.000000	0.783641
970.000000	0.775704
971.000000	0.783983
972.000000	0.789461
973.000000	0.791468
974.000000	0.801554
975.000000	0.823059
976.000000	0.811592
977.000000	0.800953
978.000000	0.816332
979.000000	0.808945
980.000000	0.805526
981.000000	0.807870
982.000000	0.823214
983.000000	0.834385
984.000000	0.838577
985.000000	0.842006
986.000000	0.845162
987.000000	0.833450
988.000000	0.829169
989.000000	0.851182
990.000000	0.853298
991.000000	0.842466
992.000000	0.843631
993.000000	0.847894
994.000000	0.845552
995.000000	0.860774
996.000000	0.863189
997.000000	0.861097
998.000000	0.851738
999.000000	0.857704
1000.000000	0.871706
1001.000000	0.870253
1002.000000	0.866634
1003.000000	0.863321
1004.000000	0.855106
1005.000000	0.850913
1006.000000	0.854847
1007.000000	0.861710
1008.000000	0.861920
1009.000000	0.874269
1010.000000	0.881721
1011.000000	0.871221
1012.000000	0.869045
1013.000000	0.865661
1014.000000	0.866436
1015.000000	0.862259
1016.000000	0.855911
1017.000000	0.873091
1018.000000	0.882249
1019.000000	0.872121
1020.000000	0.872272
1021.000000	0.874368
1022.000000	0.874189
1023.000000	0.884019
1024.000000	0.882397
1025.000000	0.879060
1026.000000	0.888328
1027.000000	0.882747
1028.000000	0.888476
1029.000000	0.889688
1030.000000	0.888046
1031.000000	0.890749
1032.000000	0.888509
1033.000000	0.889362
1034.000000	0.882791
1035.000000	0.875603
1036.000000	0.886213
1037.000000	0.894418
1038.000000	0.892166
1039.000000	0.884264
1040.000000	0.890663
1041.000000	0.896126
1042.000000	0.890364
1043.000000	0.894000
1044.000000	0.881059
1045.000000	0.872474
1046.000000	0.890689
1047.000000	0.891146
1048.000000	0.900766
1049.000000	0.909421
1050.000000	0.912729
1051.000000	0.906769
1052.000000	0.903273
1053.000000	0.897719
1054.000000	0.895930
1055.000000	0.893951
1056.000000	0.897998
1057.000000	0.901586
1058.000000	0.905986
1059.000000	0.906663
1060.000000	0.897125
1061.000000	0.900445
1062.000000	0.892574
1063.000000	0.887288
1064.000000	0.887503
1065.000000	0.893563
1066.000000	0.897158
1067.000000	0.906211
1068.000000	0.909811
1069.000000	0.906674
1070.000000	0.894468
1071.000000	0.890350
1072.000000	0.898693
1073.000000	0.908322
1074.000000	0.924936
1075.000000	0.906903
1076.000000	0.893881
1077.000000	0.900408
1078.000000	0.896410
1079.000000	0.888069
1080.000000	0.909656
1081.000000	0.918659
1082.000000	0.914399
1083.000000	0.909444
1084.000000	0.914180
1085.000000	0.917816
1086.000000	0.915582
1087.000000	0.922625
1088.000000	0.922703
1089.000000	0.907905
1090.000000	0.923316
1091.000000	0.920150
1092.000000	0.911259
1093.000000	0.913538
1094.000000	0.922157
1095.000000	0.911803
1096.000000	0.906510
1097.000000	0.903339
1098.000000	0.912533
1099.000000	0.930254
1100.000000	0.924823
1101.000000	0.916789
1102.000000	0.910933
1103.000000	0.923315
1104.000000	0.909458
1105.000000	0.897410
1106.000000	0.916299
1107.000000	0.923404
1108.000000	0.910681
1109.000000	0.903254
1110.000000	0.903002
1111.000000	0.903722
1112.000000	0.908877
1113.000000	0.909008
1114.000000	0.884257
1115.000000	0.902345
1116.000000	0.909601
1117.000000	0.907528
1118.000000	0.919566
1119.000000	0.925294
1120.000000	0.914248
1121.000000	0.901600
1122.000000	0.899634
1123.000000	0.921047
1124.000000	0.897887
1125.000000	0.915197
1126.000000	0.905485
1127.000000	0.887135
1128.000000	0.878288
1129.000000	0.871557
1130.000000	0.889589
1131.000000	0.875718
1132.000000	0.855795
1133.000000	0.858509
1134.000000	0.850644
1135.000000	0.860171
1136.000000	0.866068
1137.000000	0.857965
1138.000000	0.840124
1139.000000	0.831808
1140.000000	0.826768
1141.000000	0.817310
1142.000000	0.825120
1143.000000	0.819960
1144.000000	0.821835
1145.000000	0.818184
1146.000000	0.810170
1147.000000	0.797397
1148.000000	0.797502
1149.000000	0.810156
1150.000000	0.810169
1151.000000	0.802919
1152.000000	0.796903
1153.000000	0.787636
1154.000000	0.772390
1155.000000	0.784142
1156.000000	0.766122
1157.000000	0.761743
1158.000000	0.754334
1159.000000	0.756315
1160.000000	0.743327
1161.000000	0.730270
1162.000000	0.729684
1163.000000	0.714453
1164.000000	0.696493
1165.000000	0.710717
1166.000000	0.710031
1167.000000	0.705965
1168.000000	0.684937
1169.000000	0.673069
1170.000000	0.670981
1171.000000	0.670714
1172.000000	0.657812
1173.000000	0.648943
1174.000000	0.647230
1175.000000	0.641281
1176.000000	0.650244
1177.000000	0.639864
1178.000000	0.641805
1179.000000	0.640867
1180.000000	0.644065
1181.000000	0.637365
1182.000000	0.631140
1183.000000	0.630943
1184.000000	0.616653
1185.000000	0.637189
1186.000000	0.630055
1187.000000	0.621229
1188.000000	0.641713
1189.000000	0.644420
1190.000000	0.644473
1191.000000	0.655005
1192.000000	0.653605
1193.000000	0.649267
1194.000000	0.668692
1195.000000	0.674479
1196.000000	0.658947
1197.000000	0.656590
1198.000000	0.679992
1199.000000	0.677079
1200.000000	0.677772
1201.000000	0.679930
1202.000000	0.679114
1203.000000	0.659020
1204.000000	0.679728
1205.000000	0.670533
1206.000000	0.684211
1207.000000	0.693386
1208.000000	0.698850
1209.000000	0.693958
1210.000000	0.692506
1211.000000	0.697126
1212.000000	0.694923
1213.000000	0.692652
1214.000000	0.696976
1215.000000	0.693384
1216.000000	0.708086
1217.000000	0.705134
1218.000000	0.698474
1219.000000	0.700190
1220.000000	0.691469
1221.000000	0.695344
1222.000000	0.694288
1223.000000	0.695834
1224.000000	0.695951
1225.000000	0.693793
1226.000000	0.698063
1227.000000	0.695545
1228.000000	0.708899
1229.000000	0.709083
1230.000000	0.710500
1231.000000	0.718645
1232.000000	0.716176
1233.000000	0.714439
1234.000000	0.709251
1235.000000	0.712104
1236.000000	0.718512
1237.000000	0.714748
1238.000000	0.710955
1239.000000	0.710587
1240.000000	0.715608
1241.000000	0.730878
1242.000000	0.719828
1243.000000	0.723008
1244.000000	0.719176
1245.000000	0.724609
1246.000000	0.735512
1247.000000	0.730587
1248.000000	0.740986
1249.000000	0.743254
1250.000000	0.732928
1251.000000	0.737348
1252.000000	0.751971
1253.000000	0.749321
1254.000000	0.739230
1255.000000	0.732424
1256.000000	0.736459
1257.000000	0.743199
1258.000000	0.750014
1259.000000	0.746103
1260.000000	0.738721
1261.000000	0.737186
1262.000000	0.733828
1263.000000	0.732684
1264.000000	0.738139
1265.000000	0.742604
1266.000000	0.750952
1267.000000	0.751016
1268.000000	0.745951
1269.000000	0.746943
1270.000000	0.741178
1271.000000	0.745079
1272.000000	0.748301
1273.000000	0.747839
1274.000000	0.749299
1275.000000	0.754082
1276.000000	0.745215
1277.000000	0.740793
1278.000000	0.739854
1279.000000	0.740793
1280.000000	0.750174
1281.000000	0.752786
1282.000000	0.764219
1283.000000	0.758639
1284.000000	0.757474
1285.000000	0.764252
1286.000000	0.762983
1287.000000	0.766596
1288.000000	0.773577
1289.000000	0.770513
1290.000000	0.772277
1291.000000	0.773308
1292.000000	0.776665
1293.000000	0.781213
1294.000000	0.770684
1295.000000	0.764829
1296.000000	0.763157
1297.000000	0.763954
1298.000000	0.766694
1299.000000	0.761714
1300.000000	0.763948
1301.000000	0.773319
1302.000000	0.773336
1303.000000	0.767759
1304.000000	0.768945
1305.000000	0.772329
1306.000000	0.765407
1307.000000	0.750796
1308.000000	0.746509
1309.000000	0.759948
1310.000000	0.772248
1311.000000	0.778114
1312.000000	0.778600
1313.000000	0.769097
1314.000000	0.765385
1315.000000	0.765287
1316.000000	0.763748
1317.000000	0.762617
1318.000000	0.761172
1319.000000	0.764640
1320.000000	0.761790
1321.000000	0.748491
1322.000000	0.745472
1323.000000	0.743099
1324.000000	0.744782
1325.000000	0.747655
1326.000000	0.737258
1327.000000	0.734601
1328.000000	0.724001
1329.000000	0.721588
1330.000000	0.715471
1331.000000	0.710565
1332.000000	0.701293
1333.000000	0.706481
1334.000000	0.705697
1335.000000	0.694318
1336.000000	0.679464
1337.000000	0.668841
1338.000000	0.671835
1339.000000	0.664299
1340.000000	0.662632
1341.000000	0.650628
1342.000000	0.638424
1343.000000	0.637054
1344.000000	0.627155
1345.000000	0.609200
1346.000000	0.592845
1347.000000	0.574776
1348.000000	0.563805
1349.000000	0.562937
1350.000000	0.551954
1351.000000	0.539537
1352.000000	0.537529
1353.000000	0.537051
1354.000000	0.535105
1355.000000	0.523870
1356.000000	0.526777
1357.000000	0.508870
1358.000000	0.489219
1359.000000	0.495893
1360.000000	0.480195
1361.000000	0.469323
1362.000000	0.479609
1363.000000	0.478655
1364.000000	0.472036
1365.000000	0.480792
1366.000000	0.470816
1367.000000	0.473923
1368.000000	0.477678
1369.000000	0.459339
1370.000000	0.448326
1371.000000	0.429887
1372.000000	0.424793
1373.000000	0.416410
1374.000000	0.404965
1375.000000	0.405750
1376.000000	0.397239
1377.000000	0.382769
1378.000000	0.367162
1379.000000	0.359823
1380.000000	0.364014
1381.000000	0.349045
1382.000000	0.356317
1383.000000	0.338722
1384.000000	0.316708
1385.000000	0.316388
1386.000000	0.303404
1387.000000	0.304737
1388.000000	0.276069
1389.000000	0.270295
1390.000000	0.260582
1391.000000	0.237540
1392.000000	0.230709
1393.000000	0.208531
1394.000000	0.197681
1395.000000	0.198943
1396.000000	0.179107
1397.000000	0.164610
1398.000000	0.141466
1399.000000	0.113217
1400.000000	0.114302
1401.000000	0.105483
1402.000000	0.082819
1403.000000	0.083808
1404.000000	0.065617
1405.000000	0.054116
1406.000000	0.051377
1407.000000	0.075008
1408.000000	0.093850
1409.000000	0.106532
1410.000000	0.117749
1411.000000	0.131054
1412.000000	0.174509
1413.000000	0.178083
1414.000000	0.210396
1415.000000	0.217340
1416.000000	0.239019
1417.000000	0.246261
1418.000000	0.266975
1419.000000	0.259852
1420.000000	0.276063
1421.000000	0.302996
1422.000000	0.311295
1423.000000	0.309592
1424.000000	0.342149
1425.000000	0.346494
1426.000000	0.366908
1427.000000	0.373967
1428.000000	0.387754
1429.000000	0.371159
1430.000000	0.403100
1431.000000	0.419589
1432.000000	0.417185
1433.000000	0.435801
1434.000000	0.445919
1435.000000	0.442365
1436.000000	0.439560
1437.000000	0.452706
1438.000000	0.471934
1439.000000	0.468707
1440.000000	0.466862
1441.000000	0.478305
1442.000000	0.490458
1443.000000	0.479354
1444.000000	0.497607
1445.000000	0.498761
1446.000000	0.506334
1447.000000	0.510723
1448.000000	0.515393
1449.000000	0.522995
1450.000000	0.534669
1451.000000	0.534204
1452.000000	0.540319
1453.000000	0.544123
1454.000000	0.540693
1455.000000	0.563942
1456.000000	0.561513
1457.000000	0.570757
1458.000000	0.581456
1459.000000	0.573151
1460.000000	0.591035
1461.000000	0.588943
1462.000000	0.598029
1463.000000	0.601053
1464.000000	0.605546
1465.000000	0.621558
1466.000000	0.614729
1467.000000	0.626314
1468.000000	0.627863
1469.000000	0.628540
1470.000000	0.635065
1471.000000	0.642150
1472.000000	0.649458
1473.000000	0.649553
1474.000000	0.657055
1475.000000	0.657590
1476.000000	0.666299
1477.000000	0.677729
1478.000000	0.674396
1479.000000	0.679461
1480.000000	0.674387
1481.000000	0.672021
1482.000000	0.675687
1483.000000	0.679924
1484.000000	0.686177
1485.000000	0.682947
1486.000000	0.697552
1487.000000	0.685600
1488.000000	0.688711
1489.000000	0.702040
1490.000000	0.697413
1491.000000	0.690528
1492.000000	0.694801
1493.000000	0.693288
1494.000000	0.693284
1495.000000	0.703411
1496.000000	0.700811
1497.000000	0.697507
1498.000000	0.681237
1499.000000	0.686386
1500.000000	0.692162
1501.000000	0.694484
1502.000000	0.674163
1503.000000	0.676027
1504.000000	0.672784
1505.000000	0.664519
1506.000000	0.663385
1507.000000	0.641651
1508.000000	0.647024
1509.000000	0.651852
1510.000000	0.631900
1511.000000	0.623458
1512.000000	0.620372
1513.000000	0.605358
1514.000000	0.608740
1515.000000	0.616070
1516.000000	0.604006
1517.000000	0.610941
1518.000000	0.599374
1519.000000	0.588656
1520.000000	0.585106
1521.000000	0.573863
1522.000000	0.569166
1523.000000	0.568032
1524.000000	0.560014
1525.000000	0.555830
1526.000000	0.549836
1527.000000	0.550173
1528.000000	0.549447
1529.000000	0.539139
1530.000000	0.526887
1531.000000	0.518219
1532.000000	0.507852
1533.000000	0.507543
1534.000000	0.512806
1535.000000	0.514974
1536.000000	0.522695
1537.000000	0.520145
1538.000000	0.510550
1539.000000	0.504842
1540.000000	0.498456
1541.000000	0.495586
1542.000000	0.490183
1543.000000	0.493617
1544.000000	0.494130
1545.000000	0.491182
1546.000000	0.490365
1547.000000	0.483349
1548.000000	0.475680
1549.000000	0.470875
1550.000000	0.471819
1551.000000	0.468369
1552.000000	0.455460
1553.000000	0.446197
1554.000000	0.446898
1555.000000	0.444694
1556.000000	0.442485
1557.000000	0.444890
1558.000000	0.443474
1559.000000	0.440947
1560.000000	0.442402
1561.000000	0.434851
1562.000000	0.429920
1563.000000	0.435494
1564.000000	0.435749
1565.000000	0.436107
1566.000000	0.436057
1567.000000	0.427698
1568.000000	0.423896
1569.000000	0.432013
1570.000000	0.439200
1571.000000	0.437431
1572.000000	0.439200
1573.000000	0.438481
1574.000000	0.446302
1575.000000	0.442668
1576.000000	0.426187
1577.000000	0.431036
1578.000000	0.441270
1579.000000	0.444981
1580.000000	0.444321
1581.000000	0.439384
1582.000000	0.425982
1583.000000	0.418568
1584.000000	0.424415
1585.000000	0.426010
1586.000000	0.409827
1587.000000	0.403190
1588.000000	0.410820
1589.000000	0.409713
1590.000000	0.406516
1591.000000	0.412819
1592.000000	0.404689
1593.000000	0.402335
1594.000000	0.397255
1595.000000	0.388071
1596.000000	0.383015
1597.000000	0.381237
1598.000000	0.371012
1599.000000	0.375991
1600.000000	0.367044
1601.000000	0.350851
1602.000000	0.348963
1603.000000	0.357675
1604.000000	0.341041
1605.000000	0.332275
1606.000000	0.331548
1607.000000	0.319829
1608.000000	0.317336
1609.000000	0.314736
1610.000000	0.309131
1611.000000	0.312462
1612.000000	0.307029
1613.000000	0.307221
1614.000000	0.305297
1615.000000	0.301711
1616.000000	0.281479
1617.000000	0.272496
1618.000000	0.282990
1619.000000	0.281219
1620.000000	0.270754
1621.000000	0.267313
1622.000000	0.287958
1623.000000	0.281525
1624.000000	0.274607
1625.000000	0.260651
1626.000000	0.263630
1627.000000	0.259241
1628.000000	0.256946
1629.000000	0.252401
1630.000000	0.260816
1631.000000	0.254033
1632.000000	0.241307
1633.000000	0.229117
1634.000000	0.235352
1635.000000	0.223693
1636.000000	0.220280
1637.000000	0.217263
1638.000000	0.220668
1639.000000	0.233014
1640.000000	0.240984
1641.000000	0.234759
1642.000000	0.241886
1643.000000	0.244452
1644.000000	0.235637
1645.000000	0.233493
1646.000000	0.237081
1647.000000	0.232728
1648.000000	0.217562
1649.000000	0.221283
1650.000000	0.218392
1651.000000	0.233880
1652.000000	0.222845
1653.000000	0.232153
1654.000000	0.246369
1655.000000	0.265620
1656.000000	0.250856
1657.000000	0.250085
1658.000000	0.261963
1659.000000	0.276802
1660.000000	0.263416
1661.000000	0.255655
1662.000000	0.277845
1663.000000	0.293983
1664.000000	0.321137
1665.000000	0.323714
1666.000000	0.315965
1667.000000	0.340371
1668.000000	0.351806
1669.000000	0.367172
1670.000000	0.399228
1671.000000	0.366198
1672.000000	0.383331
1673.000000	0.401063
1674.000000	0.418807
1675.000000	0.424972
1676.000000	0.432242
1677.000000	0.425005
1678.000000	0.446574
1679.000000	0.460129
1680.000000	0.466271
1681.000000	0.463760
1682.000000	0.478239
1683.000000	0.488742
1684.000000	0.511645
1685.000000	0.534197
1686.000000	0.539112
1687.000000	0.547310
1688.000000	0.537127
1689.000000	0.527024
1690.000000	0.526711
1691.000000	0.526730
1692.000000	0.516315
1693.000000	0.506830
1694.000000	0.484447
1695.000000	0.486239
1696.000000	0.476295
1697.000000	0.461214
1698.000000	0.457515
1699.000000	0.465179
1700.000000	0.455010
1701.000000	0.470245
1702.000000	0.446263
1703.000000	0.446989
1704.000000	0.463004
1705.000000	0.467027
1706.000000	0.470898
1707.000000	0.467375
1708.000000	0.479329
1709.000000	0.487824
1710.000000	0.477461
1711.000000	0.484128
1712.000000	0.504939
1713.000000	0.517365
1714.000000	0.537581
1715.000000	0.552316
1716.000000	0.577410
1717.000000	0.578884
1718.000000	0.593222
1719.000000	0.612533
1720.000000	0.620206
1721.000000	0.620411
1722.000000	0.651717
1723.000000	0.654597
1724.000000	0.664470
1725.000000	0.655892
1726.000000	0.624274
1727.000000	0.632823
1728.000000	0.636883
1729.000000	0.612233
1730.000000	0.604395
1731.000000	0.601198
1732.000000	0.592817
1733.000000	0.577695
1734.000000	0.580185
1735.000000	0.585591
1736.000000	0.582415
1737.000000	0.570790
1738.000000	0.570422
1739.000000	0.572239
1740.000000	0.553507
1741.000000	0.545819
1742.000000	0.543788
1743.000000	0.533650
1744.000000	0.528163
1745.000000	0.510752
1746.000000	0.517180
1747.000000	0.511144
1748.000000	0.494657
1749.000000	0.496707
1750.000000	0.496285
1751.000000	0.488848
1752.000000	0.491672
1753.000000	0.484500
1754.000000	0.483091
1755.000000	0.479676
1756.000000	0.488714
1757.000000	0.484632
1758.000000	0.484850
1759.000000	0.485141
1760.000000	0.476694
1761.000000	0.484923
1762.000000	0.482229
1763.000000	0.485837
1764.000000	0.486204
1765.000000	0.484333
1766.000000	0.482510
1767.000000	0.464352
1768.000000	0.465508
1769.000000	0.470761
1770.000000	0.468034
1771.000000	0.464085
1772.000000	0.465347
1773.000000	0.466730
1774.000000	0.448889
1775.000000	0.447539
1776.000000	0.452567
1777.000000	0.450421
1778.000000	0.449984
1779.000000	0.444960
1780.000000	0.442384
1781.000000	0.454891
1782.000000	0.453076
1783.000000	0.451613
1784.000000	0.442307
1785.000000	0.446023
1786.000000	0.436156
1787.000000	0.426392
1788.000000	0.419505
1789.000000	0.424446
1790.000000	0.427173
1791.000000	0.423271
1792.000000	0.422642
1793.000000	0.416363
1794.000000	0.422067
1795.000000	0.434210
1796.000000	0.428206
1797.000000	0.418500
1798.000000	0.421893
1799.000000	0.422292
1800.000000	0.418955
1801.000000	0.406997
1802.000000	0.402029
1803.000000	0.400040
1804.000000	0.404685
1805.000000	0.402933
1806.000000	0.408044
1807.000000	0.397559
1808.000000	0.397800
1809.000000	0.409394
1810.000000	0.402371
1811.000000	0.398673
1812.000000	0.396881
1813.000000	0.387125
1814.000000	0.387242
1815.000000	0.395378
1816.000000	0.393363
1817.000000	0.387602
1818.000000	0.392105
1819.000000	0.383627
1820.000000	0.380071
1821.000000	0.374304
1822.000000	0.362179
1823.000000	0.370488
1824.000000	0.375785
1825.000000	0.378535
1826.000000	0.384314
1827.000000	0.384455
1828.000000	0.382953
1829.000000	0.373829
1830.000000	0.362373
1831.000000	0.366652
1832.000000	0.374037
1833.000000	0.365013
1834.000000	0.372964
1835.000000	0.360791
1836.000000	0.340350
1837.000000	0.326832
1838.000000	0.314520
1839.000000	0.326484
1840.000000	0.323289
1841.000000	0.324910
1842.000000	0.318814
1843.000000	0.307607
1844.000000	0.309139
1845.000000	0.312307
1846.000000	0.306334
1847.000000	0.303478
1848.000000	0.299369
1849.000000	0.302112
1850.000000	0.309386
1851.000000	0.315019
1852.000000	0.320720
1853.000000	0.324428
1854.000000	0.311368
1855.000000	0.293673
1856.000000	0.304431
1857.000000	0.309111
1858.000000	0.311340
1859.000000	0.311458
1860.000000	0.314656
1861.000000	0.317275
1862.000000	0.317585
1863.000000	0.327794
1864.000000	0.332042
1865.000000	0.343630
1866.000000	0.339937
1867.000000	0.345065
1868.000000	0.342809
1869.000000	0.348495
1870.000000	0.353705
1871.000000	0.354772
1872.000000	0.349915
1873.000000	0.353793
1874.000000	0.358009
1875.000000	0.380631
1876.000000	0.399298
1877.000000	0.430748
1878.000000	0.451574
1879.000000	0.478171
1880.000000	0.508602
1881.000000	0.520328
1882.000000	0.529395
1883.000000	0.542233
1884.000000	0.561429
1885.000000	0.590098
1886.000000	0.597647
1887.000000	0.619133
1888.000000	0.652613
1889.000000	0.678707
1890.000000	0.694147
1891.000000	0.727913
1892.000000	0.749173
1893.000000	0.783836
1894.000000	0.809323
1895.000000	0.829144
1896.000000	0.853198
1897.000000	0.857036
1898.000000	0.867764
1899.000000	0.883256
1900.000000	0.898062
1901.000000	0.895070
1902.000000	0.916709
1903.000000	0.926533
1904.000000	0.932006
1905.000000	0.951961
1906.000000	0.980314
1907.000000	0.990074
1908.000000	0.992986
1909.000000	0.997301
1910.000000	1.015213
1911.000000	1.010645
1912.000000	1.000551
1913.000000	1.001687
1914.000000	0.999667
1915.000000	0.991201
1916.000000	1.015506
1917.000000	1.006149
1918.000000	1.000199
1919.000000	1.000242
1920.000000	1.003217
1921.000000	0.996446
1922.000000	0.975427
1923.000000	0.996152
1924.000000	1.006989
1925.000000	1.012491
1926.000000	1.009168
1927.000000	1.003073
1928.000000	0.993038
1929.000000	0.997571
1930.000000	1.006479
1931.000000	1.009655
1932.000000	1.007262
1933.000000	1.002936
1934.000000	1.012706
1935.000000	1.006747
1936.000000	1.005842
1937.000000	1.008642
1938.000000	1.007451
1939.000000	1.011689
1940.000000	1.026259
1941.000000	1.016081
1942.000000	1.021668
1943.000000	1.021212
1944.000000	1.026273
1945.000000	1.019956
1946.000000	1.019844
1947.000000	1.025537
1948.000000	1.018031
1949.000000	1.033144
1950.000000	1.021543
1951.000000	1.028251
1952.000000	1.028169
1953.000000	1.035973
1954.000000	1.021036
1955.000000	1.025389
1956.000000	1.023647
1957.000000	1.019876
1958.000000	1.000664
1959.000000	1.021941
1960.000000	1.021468
1961.000000	1.009625
1962.000000	0.998418
1963.000000	1.009581
1964.000000	1.024188
1965.000000	1.011462
1966.000000	1.015994
1967.000000	1.007866
1968.000000	0.991461
1969.000000	0.996264
1970.000000	0.992748
1971.000000	0.998701
1972.000000	0.988611
1973.000000	0.986072
1974.000000	0.983310
1975.000000	0.980099
1976.000000	0.986840
1977.000000	0.968977
1978.000000	0.970136
1979.000000	0.958133
1980.000000	0.972776
1981.000000	0.960434
1982.000000	0.951155
1983.000000	0.956194
1984.000000	0.952532
1985.000000	0.950641
1986.000000	0.944202
1987.000000	0.929187
1988.000000	0.939218
1989.000000	0.930320
1990.000000	0.921717
1991.000000	0.914430
1992.000000	0.929364
1993.000000	0.922143
1994.000000	0.906591
1995.000000	0.913757
1996.000000	0.914446
1997.000000	0.897585
1998.000000	0.904383
1999.000000	0.900777
2000.000000	0.892554
2001.000000	0.888469
2002.000000	0.898609
2003.000000	0.885015
2004.000000	0.890952
2005.000000	0.876110
2006.000000	0.882613
2007.000000	0.871663
2008.000000	0.869499
2009.000000	0.861686
2010.000000	0.866002
2011.000000	0.865784
2012.000000	0.874484
2013.000000	0.886555
2014.000000	0.877184
2015.000000	0.865881
2016.000000	0.867907
2017.000000	0.873740
2018.000000	0.881616
2019.000000	0.888546
2020.000000	0.881600
2021.000000	0.887060
2022.000000	0.885483
2023.000000	0.893356
2024.000000	0.901483
2025.000000	0.883499
2026.000000	0.897641
2027.000000	0.897669
2028.000000	0.897420
2029.000000	0.908274
2030.000000	0.910040
2031.000000	0.908919
2032.000000	0.911736
2033.000000	0.898882
2034.000000	0.908731
2035.000000	0.916458
2036.000000	0.915462
2037.000000	0.910141
2038.000000	0.910795
2039.000000	0.916314
2040.000000	0.921331
2041.000000	0.924723
2042.000000	0.913588
2043.000000	0.914647
2044.000000	0.924994
2045.000000	0.936731
2046.000000	0.929109
2047.000000	0.915080
2048.000000	0.927354
2049.000000	0.920733
2050.000000	0.906199
2051.000000	0.907121
2052.000000	0.905227
2053.000000	0.908811
2054.000000	0.899385
2055.000000	0.892548
2056.000000	0.897971
2057.000000	0.889335
2058.000000	0.888566
2059.000000	0.889080
2060.000000	0.879639
2061.000000	0.872580
2062.000000	0.871239
2063.000000	0.868476
2064.000000	0.868499
2065.000000	0.864534
2066.000000	0.852511
2067.000000	0.843380
2068.000000	0.841388
2069.000000	0.845696
2070.000000	0.836017
2071.000000	0.831387
2072.000000	0.830264
2073.000000	0.827094
2074.000000	0.818109
2075.000000	0.825461
2076.000000	0.822823
2077.000000	0.810655
2078.000000	0.799764
2079.000000	0.795145
2080.000000	0.805253
2081.000000	0.804631
2082.000000	0.808189
2083.000000	0.803538
2084.000000	0.789272
2085.000000	0.791746
2086.000000	0.793478
2087.000000	0.789914
2088.000000	0.786759
2089.000000	0.785828
2090.000000	0.778792
2091.000000	0.774093
2092.000000	0.774574
2093.000000	0.776852
2094.000000	0.785111
2095.000000	0.779203
2096.000000	0.767274
2097.000000	0.760257
2098.000000	0.764484
2099.000000	0.771149
2100.000000	0.761856
2101.000000	0.752104
2102.000000	0.747021
2103.000000	0.742388
2104.000000	0.745575
2105.000000	0.753606
2106.000000	0.743693
2107.000000	0.740794
2108.000000	0.737981
2109.000000	0.728128
2110.000000	0.710443
2111.000000	0.705625
2112.000000	0.705101
2113.000000	0.699326
2114.000000	0.700150
2115.000000	0.702745
2116.000000	0.701820
2117.000000	0.694769
2118.000000	0.693352
2119.000000	0.690556
2120.000000	0.679006
2121.000000	0.678076
2122.000000	0.678769
2123.000000	0.677010
2124.000000	0.675968
2125.000000	0.677731
2126.000000	0.676534
2127.000000	0.677297
2128.000000	0.678210
2129.000000	0.659397
2130.000000	0.654214
2131.000000	0.658920
2132.000000	0.655911
2133.000000	0.662105
2134.000000	0.654058
2135.000000	0.651252
2136.000000	0.657349
2137.000000	0.645800
2138.000000	0.648812
2139.000000	0.657582
2140.000000	0.658134
2141.000000	0.648164
2142.000000	0.643892
2143.000000	0.644018
2144.000000	0.653470
2145.000000	0.651948
2146.000000	0.653692
2147.000000	0.659971
2148.000000	0.658317
2149.000000	0.666497
2150.000000	0.668960
2151.000000	0.669455
2152.000000	0.661213
2153.000000	0.670823
2154.000000	0.663929
2155.000000	0.678483
2156.000000	0.672847
2157.000000	0.664841
2158.000000	0.669777
2159.000000	0.673762
2160.000000	0.673149
2161.000000	0.682472
2162.000000	0.683002
2163.000000	0.674784
2164.000000	0.683515
2165.000000	0.680703
2166.000000	0.682512
2167.000000	0.685434
2168.000000	0.681060
2169.000000	0.684970
2170.000000	0.679499
2171.000000	0.691768
2172.000000	0.682042
2173.000000	0.684729
2174.000000	0.685122
2175.000000	0.683516
2176.000000	0.681523
2177.000000	0.687194
2178.000000	0.688775
2179.000000	0.693387
2180.000000	0.684889
2181.000000	0.675831
2182.000000	0.681069
2183.000000	0.687388
2184.000000	0.670027
2185.000000	0.660219
2186.000000	0.664312
2187.000000	0.676167
2188.000000	0.651302
2189.000000	0.656422
2190.000000	0.653345
2191.000000	0.635439
2192.000000	0.633178
2193.000000	0.617024
2194.000000	0.610656
2195.000000	0.597717
2196.000000	0.601874
2197.000000	0.576965
2198.000000	0.558088
2199.000000	0.563021
2200.000000	0.556850
2201.000000	0.544817
2202.000000	0.539099
2203.000000	0.533752
2204.000000	0.520228
2205.000000	0.501912
2206.000000	0.504289
2207.000000	0.488795
2208.000000	0.484964
2209.000000	0.490330
2210.000000	0.486022
2211.000000	0.481748
2212.000000	0.467825
2213.000000	0.461764
2214.000000	0.466270
2215.000000	0.462935
2216.000000	0.470290
2217.000000	0.466393
2218.000000	0.481747
2219.000000	0.472456
2220.000000	0.497168
2221.000000	0.495249
2222.000000	0.499062
2223.000000	0.483065
2224.000000	0.498319
2225.000000	0.485180
2226.000000	0.488112
2227.000000	0.480209
2228.000000	0.487983
2229.000000	0.480573
2230.000000	0.495523
2231.000000	0.490214
2232.000000	0.484334
2233.000000	0.497553
2234.000000	0.499714
2235.000000	0.505594
2236.000000	0.498110
2237.000000	0.495027
2238.000000	0.487664
2239.000000	0.492182
2240.000000	0.480090
2241.000000	0.482155
2242.000000	0.504598
2243.000000	0.499217
2244.000000	0.498553
2245.000000	0.489047
2246.000000	0.498583
2247.000000	0.511101
2248.000000	0.506233
2249.000000	0.503039
2250.000000	0.504776
2251.000000	0.512413
2252.000000	0.515077
2253.000000	0.502292
2254.000000	0.496711
2255.000000	0.511838
2256.000000	0.521949
2257.000000	0.498755
2258.000000	0.493559
2259.000000	0.511139
2260.000000	0.511375
2261.000000	0.502950
2262.000000	0.521103
2263.000000	0.500367
2264.000000	0.503235
2265.000000	0.508495
2266.000000	0.491825
2267.000000	0.493614
2268.000000	0.515331
2269.000000	0.510187
2270.000000	0.500593
2271.000000	0.517326
2272.000000	0.515804
2273.000000	0.505970
2274.000000	0.501418
2275.000000	0.494196
2276.000000	0.501236
2277.000000	0.493904
2278.000000	0.503878
2279.000000	0.502628
2280.000000	0.497376
2281.000000	0.500355
2282.000000	0.515234
2283.000000	0.500290
2284.000000	0.504477
2285.000000	0.506729
2286.000000	0.495737
2287.000000	0.489189
2288.000000	0.490900
2289.000000	0.494846
2290.000000	0.498865
2291.000000	0.490473
2292.000000	0.487961
2293.000000	0.483362
2294.000000	0.480668
2295.000000	0.490158
2296.000000	0.499912
2297.000000	0.484027
2298.000000	0.479923
2299.000000	0.479318
2300.000000	0.479992
2301.000000	0.481926
2302.000000	0.476851
2303.000000	0.481264
2304.000000	0.472062
2305.000000	0.462883
2306.000000	0.465025
2307.000000	0.456414
2308.000000	0.447850
2309.000000	0.465815
2310.000000	0.468003
2311.000000	0.459109
2312.000000	0.455044
2313.000000	0.452142
2314.000000	0.452348
2315.000000	0.455484
2316.000000	0.455753
2317.000000	0.450481
2318.000000	0.448196
2319.000000	0.438495
2320.000000	0.449105
2321.000000	0.452570
2322.000000	0.429425
2323.000000	0.425579
2324.000000	0.440132
2325.000000	0.445630
2326.000000	0.437639
2327.000000	0.425330
2328.000000	0.421147
2329.000000	0.425917
2330.000000	0.425622
2331.000000	0.422517
2332.000000	0.410951
2333.000000	0.399076
2334.000000	0.400043
2335.000000	0.401459
2336.000000	0.392067
2337.000000	0.384935
2338.000000	0.379784
2339.000000	0.382533
2340.000000	0.378452
2341.000000	0.366937
2342.000000	0.365274
2343.000000	0.362024
2344.000000	0.358337
2345.000000	0.361446
2346.000000	0.360130
2347.000000	0.361514
2348.000000	0.353369
2349.000000	0.337376
2350.000000	0.335589
2351.000000	0.334451
2352.000000	0.331606
2353.000000	0.333346
2354.000000	0.327475
2355.000000	0.331029
2356.000000	0.334628
2357.000000	0.331957
2358.000000	0.336344
2359.000000	0.317714
2360.000000	0.297477
2361.000000	0.304966
2362.000000	0.319865
2363.000000	0.326229
2364.000000	0.303365
2365.000000	0.300342
2366.000000	0.309648
2367.000000	0.301620
2368.000000	0.303154
2369.000000	0.305812
2370.000000	0.291653
2371.000000	0.283305
2372.000000	0.281395
2373.000000	0.280831
2374.000000	0.281371
2375.000000	0.279120
2376.000000	0.272772
2377.000000	0.260733
2378.000000	0.255242
2379.000000	0.267959
2380.000000	0.263500
2381.000000	0.252924
2382.000000	0.256221
2383.000000	0.260760
2384.000000	0.256701
2385.000000	0.251493
2386.000000	0.243929
2387.000000	0.234800
2388.000000	0.235048
2389.000000	0.239936
2390.000000	0.244783
2391.000000	0.237722
2392.000000	0.231346
2393.000000	0.225673
2394.000000	0.219431
2395.000000	0.222205
2396.000000	0.214888
2397.000000	0.219000
2398.000000	0.215203
2399.000000	0.205346
2400.000000	0.204100
2401.000000	0.201344
2402.000000	0.197829
2403.000000	0.187143
2404.000000	0.185693
2405.000000	0.190151
2406.000000	0.189570
2407.000000	0.179996
2408.000000	0.183597
2409.000000	0.173743
2410.000000	0.170433
2411.000000	0.158995
2412.000000	0.161806
2413.000000	0.156027
2414.000000	0.152317
2415.000000	0.156310
2416.000000	0.151012
2417.000000	0.133475
2418.000000	0.123643
2419.000000	0.121957
2420.000000	0.121891
2421.000000	0.114359
2422.000000	0.116714
2423.000000	0.127275
2424.000000	0.123678
2425.000000	0.122104
2426.000000	0.126295
2427.000000	0.130600
2428.000000	0.125689
2429.000000	0.115362
2430.000000	0.116634
2431.000000	0.115676
2432.000000	0.131550
2433.000000	0.133578
2434.000000	0.129169
2435.000000	0.115038
2436.000000	0.128312
2437.000000	0.127455
2438.000000	0.127382
2439.000000	0.134121
2440.000000	0.149233
2441.000000	0.138804
2442.000000	0.130919
2443.000000	0.130879
2444.000000	0.138814
2445.000000	0.129283
2446.000000	0.148736
2447.000000	0.137553
2448.000000	0.121834
2449.000000	0.120254
2450.000000	0.143251
2451.000000	0.146545
2452.000000	0.131275
2453.000000	0.135669
2454.000000	0.136988
2455.000000	0.151151
2456.000000	0.133172
2457.000000	0.126878
2458.000000	0.136989
2459.000000	0.138971
2460.000000	0.135426
2461.000000	0.159427
2462.000000	0.145576
2463.000000	0.144529
2464.000000	0.154871
2465.000000	0.135181
2466.000000	0.141477
2467.000000	0.163387
2468.000000	0.161358
2469.000000	0.124301
2470.000000	0.158919
2471.000000	0.146056
2472.000000	0.172565
2473.000000	0.137830
2474.000000	0.141931
2475.000000	0.117014
2476.000000	0.114485
2477.000000	0.108420
2478.000000	0.164403
2479.000000	0.153617
2480.000000	0.170589
2481.000000	0.134301
2482.000000	0.117857
2483.000000	0.185516
2484.000000	0.147350
2485.000000	0.186890
2486.000000	0.177854
2487.000000	0.145011
2488.000000	0.171116
2489.000000	0.133209
2490.000000	0.113287
2491.000000	0.182609
2492.000000	0.101978
2493.000000	0.106156
2494.000000	0.206514
2495.000000	0.132628
2496.000000	0.161495
2497.000000	0.207760
2498.000000	0.132094
2499.000000	0.176388
2500.000000	0.142240
