PE UV       SUBTECH     SPECTRUM    ASCII       PEDS        4.00        
   -1
BIOUCR0020-3.Sample.ASC
24/02/20
13:09:39.00
24/02/20
13:09:39.00
Vinicio Soto Monge
P. resplendens (sin datos) Parte central elitros cafe bajo PL. Plateado bajo PR. 
250,000000
1
Lambda 1050
1050L1511233
PerkinElmer UV WinLab 6.3.2.0749 / 2.02.05 Lambda 900 UV/VIS/NIR, Aug  7 2015 09:38:08

0
0
3350/servo 860,8/2
0
0
UV/VIS
1
1
1
DoubleDePol,CommonBeamDepol,RBeamAtt,SBeamAtt,60mm sphere, WB InGaAs Detector
0
0
0
0
Program
Program
3350/servo 860,8/2
3350/0,2 860,8/0,2
3350/0,2 860,8/0,2
0
15.00
 
 
 
0
 
860,8
319,2
860,8
Front
100
on
S:100 R:100
0
0
0
0
 
0
 
 
 
0
 
 
0
0
0
0
0
 
 
 
 
0
0


0
0
#HDR
-1
-1
#GR
nm
%R
1.0
0.0
2500,000000
-1,000000
2251
8
22,024300
1,389500
#DATA

250.000000	0.067607
251.000000	0.063644
252.000000	0.056571
253.000000	0.073629
254.000000	0.050682
255.000000	0.042866
256.000000	0.047172
257.000000	0.057124
258.000000	0.074843
259.000000	0.077999
260.000000	0.069952
261.000000	0.037557
262.000000	0.047434
263.000000	0.057213
264.000000	0.050263
265.000000	0.051682
266.000000	0.043851
267.000000	0.060086
268.000000	0.053439
269.000000	0.073519
270.000000	0.040807
271.000000	0.075450
272.000000	0.055433
273.000000	0.076826
274.000000	0.039088
275.000000	0.026058
276.000000	0.030245
277.000000	0.052440
278.000000	0.051790
279.000000	0.045758
280.000000	0.031333
281.000000	0.063263
282.000000	0.022082
283.000000	0.037047
284.000000	0.048233
285.000000	0.079070
286.000000	0.028733
287.000000	0.039522
288.000000	0.069741
289.000000	0.058262
290.000000	0.075662
291.000000	0.044552
292.000000	0.025789
293.000000	0.041227
294.000000	0.052986
295.000000	0.033055
296.000000	0.067579
297.000000	0.021397
298.000000	0.020738
299.000000	0.067368
300.000000	0.046255
301.000000	0.035267
302.000000	0.058357
303.000000	0.056607
304.000000	0.039108
305.000000	0.019104
306.000000	0.045522
307.000000	0.090097
308.000000	0.059648
309.000000	0.058988
310.000000	0.055473
311.000000	0.050542
312.000000	0.065362
313.000000	0.067384
314.000000	0.061188
315.000000	0.054408
316.000000	0.034284
317.000000	0.171323
318.000000	0.040479
319.000000	0.385936
320.000000	0.179117
321.000000	0.474449
322.000000	0.092007
323.000000	0.111548
324.000000	0.021815
325.000000	0.177084
326.000000	0.079784
327.000000	0.164212
328.000000	0.073254
329.000000	0.083741
330.000000	0.039237
331.000000	0.049373
332.000000	0.066809
333.000000	0.025229
334.000000	0.063096
335.000000	0.079762
336.000000	0.052627
337.000000	0.077448
338.000000	0.085154
339.000000	0.135819
340.000000	0.132569
341.000000	0.076155
342.000000	0.024013
343.000000	0.038213
344.000000	0.071911
345.000000	0.099581
346.000000	0.115820
347.000000	0.083439
348.000000	0.065429
349.000000	0.109098
350.000000	0.083090
351.000000	0.089210
352.000000	0.116754
353.000000	0.101364
354.000000	0.127532
355.000000	0.078207
356.000000	0.048443
357.000000	0.068626
358.000000	0.026547
359.000000	0.029989
360.000000	0.076801
361.000000	0.051969
362.000000	0.066655
363.000000	0.057405
364.000000	0.033310
365.000000	0.031899
366.000000	0.050483
367.000000	0.060511
368.000000	0.060097
369.000000	0.047081
370.000000	0.067846
371.000000	0.091329
372.000000	0.049067
373.000000	0.064556
374.000000	0.063128
375.000000	0.066947
376.000000	0.015820
377.000000	0.049382
378.000000	0.044901
379.000000	0.046264
380.000000	0.056495
381.000000	0.055456
382.000000	0.048869
383.000000	0.044319
384.000000	0.049215
385.000000	0.056188
386.000000	0.052537
387.000000	0.049908
388.000000	0.051256
389.000000	0.054258
390.000000	0.055753
391.000000	0.054283
392.000000	0.055607
393.000000	0.058625
394.000000	0.054629
395.000000	0.059675
396.000000	0.066839
397.000000	0.068929
398.000000	0.064322
399.000000	0.067889
400.000000	0.071952
401.000000	0.077139
402.000000	0.075601
403.000000	0.082362
404.000000	0.089797
405.000000	0.094923
406.000000	0.097615
407.000000	0.105319
408.000000	0.118916
409.000000	0.125120
410.000000	0.134677
411.000000	0.142176
412.000000	0.153335
413.000000	0.171474
414.000000	0.185123
415.000000	0.202847
416.000000	0.220332
417.000000	0.242222
418.000000	0.273913
419.000000	0.300609
420.000000	0.323152
421.000000	0.352988
422.000000	0.388074
423.000000	0.416476
424.000000	0.449846
425.000000	0.490249
426.000000	0.528597
427.000000	0.562218
428.000000	0.604347
429.000000	0.647499
430.000000	0.687912
431.000000	0.730351
432.000000	0.774549
433.000000	0.818720
434.000000	0.859203
435.000000	0.900684
436.000000	0.939497
437.000000	0.972646
438.000000	1.004882
439.000000	1.040150
440.000000	1.070041
441.000000	1.098042
442.000000	1.116653
443.000000	1.134518
444.000000	1.152714
445.000000	1.165203
446.000000	1.180752
447.000000	1.191623
448.000000	1.195060
449.000000	1.196882
450.000000	1.202703
451.000000	1.202673
452.000000	1.200498
453.000000	1.201713
454.000000	1.196732
455.000000	1.190453
456.000000	1.185767
457.000000	1.171247
458.000000	1.164117
459.000000	1.159728
460.000000	1.147650
461.000000	1.132201
462.000000	1.114559
463.000000	1.094388
464.000000	1.076320
465.000000	1.064359
466.000000	1.051469
467.000000	1.035815
468.000000	1.018206
469.000000	0.997530
470.000000	0.975038
471.000000	0.952053
472.000000	0.929453
473.000000	0.904265
474.000000	0.880286
475.000000	0.848634
476.000000	0.811825
477.000000	0.776102
478.000000	0.741187
479.000000	0.700996
480.000000	0.655791
481.000000	0.611783
482.000000	0.558100
483.000000	0.495262
484.000000	0.437700
485.000000	0.376282
486.000000	0.311353
487.000000	0.246852
488.000000	0.183950
489.000000	0.114073
490.000000	0.044561
491.000000	0.023837
492.000000	0.079869
493.000000	0.126963
494.000000	0.166968
495.000000	0.187680
496.000000	0.193425
497.000000	0.184705
498.000000	0.175614
499.000000	0.163286
500.000000	0.176132
501.000000	0.225259
502.000000	0.314821
503.000000	0.420596
504.000000	0.537239
505.000000	0.652898
506.000000	0.754683
507.000000	0.863216
508.000000	0.965150
509.000000	1.052384
510.000000	1.133903
511.000000	1.207728
512.000000	1.266333
513.000000	1.320114
514.000000	1.375146
515.000000	1.419887
516.000000	1.457282
517.000000	1.481032
518.000000	1.506057
519.000000	1.527822
520.000000	1.541435
521.000000	1.549113
522.000000	1.562381
523.000000	1.568977
524.000000	1.567626
525.000000	1.577489
526.000000	1.578449
527.000000	1.579175
528.000000	1.582182
529.000000	1.588887
530.000000	1.594017
531.000000	1.613863
532.000000	1.632444
533.000000	1.652498
534.000000	1.670291
535.000000	1.694023
536.000000	1.721278
537.000000	1.760822
538.000000	1.801853
539.000000	1.846601
540.000000	1.906019
541.000000	1.963323
542.000000	2.021892
543.000000	2.067028
544.000000	2.111610
545.000000	2.149631
546.000000	2.186563
547.000000	2.217388
548.000000	2.230815
549.000000	2.248546
550.000000	2.258696
551.000000	2.256020
552.000000	2.244621
553.000000	2.236687
554.000000	2.215088
555.000000	2.196618
556.000000	2.173959
557.000000	2.159690
558.000000	2.157465
559.000000	2.147933
560.000000	2.054522
561.000000	2.032997
562.000000	2.012633
563.000000	1.994112
564.000000	1.987887
565.000000	1.983068
566.000000	1.976941
567.000000	1.961664
568.000000	1.946799
569.000000	1.942683
570.000000	1.922306
571.000000	1.912475
572.000000	1.897905
573.000000	1.887089
574.000000	1.866611
575.000000	1.868242
576.000000	1.857251
577.000000	1.851658
578.000000	1.841767
579.000000	1.832325
580.000000	1.813309
581.000000	1.817030
582.000000	1.801126
583.000000	1.789144
584.000000	1.773749
585.000000	1.758129
586.000000	1.750256
587.000000	1.735881
588.000000	1.731623
589.000000	1.718328
590.000000	1.711123
591.000000	1.690208
592.000000	1.669557
593.000000	1.651071
594.000000	1.641564
595.000000	1.630152
596.000000	1.609191
597.000000	1.625484
598.000000	1.637127
599.000000	1.641068
600.000000	1.663665
601.000000	1.676927
602.000000	1.708231
603.000000	1.706890
604.000000	1.704725
605.000000	1.711588
606.000000	1.690096
607.000000	1.675135
608.000000	1.628597
609.000000	1.584483
610.000000	1.533205
611.000000	1.456107
612.000000	1.376358
613.000000	1.295696
614.000000	1.194403
615.000000	1.115446
616.000000	1.029865
617.000000	0.951472
618.000000	0.881195
619.000000	0.832923
620.000000	0.814207
621.000000	0.777081
622.000000	0.765458
623.000000	0.778659
624.000000	0.812496
625.000000	0.857417
626.000000	0.918242
627.000000	0.977283
628.000000	1.023633
629.000000	1.086070
630.000000	1.113460
631.000000	1.124558
632.000000	1.136786
633.000000	1.147272
634.000000	1.143264
635.000000	1.123185
636.000000	1.104796
637.000000	1.091414
638.000000	1.079425
639.000000	1.073897
640.000000	1.066272
641.000000	1.061952
642.000000	1.078034
643.000000	1.096925
644.000000	1.130334
645.000000	1.168764
646.000000	1.227472
647.000000	1.269343
648.000000	1.328470
649.000000	1.376203
650.000000	1.426774
651.000000	1.454751
652.000000	1.492542
653.000000	1.515922
654.000000	1.529003
655.000000	1.525884
656.000000	1.510940
657.000000	1.482006
658.000000	1.449244
659.000000	1.423333
660.000000	1.400136
661.000000	1.354790
662.000000	1.302873
663.000000	1.273872
664.000000	1.255654
665.000000	1.235265
666.000000	1.210839
667.000000	1.194766
668.000000	1.185919
669.000000	1.194555
670.000000	1.198848
671.000000	1.192736
672.000000	1.204881
673.000000	1.224277
674.000000	1.243190
675.000000	1.264010
676.000000	1.279005
677.000000	1.297081
678.000000	1.302444
679.000000	1.304589
680.000000	1.303941
681.000000	1.297800
682.000000	1.261795
683.000000	1.253678
684.000000	1.239608
685.000000	1.203839
686.000000	1.189594
687.000000	1.168113
688.000000	1.139747
689.000000	1.112863
690.000000	1.103225
691.000000	1.072197
692.000000	1.052685
693.000000	1.044757
694.000000	1.037487
695.000000	1.048008
696.000000	1.058882
697.000000	1.069026
698.000000	1.087211
699.000000	1.107090
700.000000	1.118955
701.000000	1.146499
702.000000	1.168888
703.000000	1.179665
704.000000	1.173992
705.000000	1.182357
706.000000	1.172921
707.000000	1.174812
708.000000	1.170587
709.000000	1.145565
710.000000	1.137236
711.000000	1.129496
712.000000	1.111491
713.000000	1.093527
714.000000	1.070238
715.000000	1.064117
716.000000	1.051549
717.000000	1.023769
718.000000	1.017830
719.000000	1.011429
720.000000	1.008049
721.000000	1.007261
722.000000	0.991131
723.000000	1.001090
724.000000	0.993862
725.000000	1.000977
726.000000	1.008322
727.000000	1.010618
728.000000	1.013642
729.000000	1.013164
730.000000	1.002094
731.000000	0.986168
732.000000	0.993246
733.000000	0.985230
734.000000	0.964811
735.000000	0.933489
736.000000	0.915960
737.000000	0.919579
738.000000	0.902853
739.000000	0.895904
740.000000	0.891048
741.000000	0.877185
742.000000	0.859685
743.000000	0.853074
744.000000	0.854478
745.000000	0.846374
746.000000	0.831256
747.000000	0.826532
748.000000	0.819108
749.000000	0.811617
750.000000	0.819961
751.000000	0.808729
752.000000	0.795713
753.000000	0.791891
754.000000	0.775685
755.000000	0.761816
756.000000	0.753708
757.000000	0.754535
758.000000	0.758873
759.000000	0.747291
760.000000	0.737524
761.000000	0.756677
762.000000	0.771192
763.000000	0.764707
764.000000	0.754854
765.000000	0.753197
766.000000	0.766923
767.000000	0.770758
768.000000	0.757081
769.000000	0.753334
770.000000	0.759746
771.000000	0.759774
772.000000	0.754953
773.000000	0.781830
774.000000	0.782924
775.000000	0.759814
776.000000	0.765281
777.000000	0.788977
778.000000	0.764065
779.000000	0.749843
780.000000	0.771642
781.000000	0.764200
782.000000	0.762438
783.000000	0.756459
784.000000	0.750796
785.000000	0.758433
786.000000	0.746690
787.000000	0.734628
788.000000	0.703150
789.000000	0.721493
790.000000	0.739895
791.000000	0.710347
792.000000	0.687013
793.000000	0.707319
794.000000	0.749026
795.000000	0.741850
796.000000	0.714733
797.000000	0.696222
798.000000	0.700405
799.000000	0.691557
800.000000	0.689683
801.000000	0.672778
802.000000	0.649978
803.000000	0.694934
804.000000	0.692729
805.000000	0.640677
806.000000	0.642424
807.000000	0.611874
808.000000	0.597959
809.000000	0.605189
810.000000	0.584409
811.000000	0.575150
812.000000	0.576663
813.000000	0.583189
814.000000	0.583950
815.000000	0.568927
816.000000	0.600112
817.000000	0.614881
818.000000	0.561492
819.000000	0.593242
820.000000	0.592134
821.000000	0.611917
822.000000	0.565960
823.000000	0.629338
824.000000	0.679559
825.000000	0.637537
826.000000	0.633411
827.000000	0.612419
828.000000	0.643077
829.000000	0.677116
830.000000	0.646427
831.000000	0.641772
832.000000	0.629103
833.000000	0.635112
834.000000	0.609611
835.000000	0.670644
836.000000	0.705429
837.000000	0.710170
838.000000	0.652184
839.000000	0.717383
840.000000	0.680200
841.000000	0.715915
842.000000	0.642422
843.000000	0.717625
844.000000	0.677802
845.000000	0.678618
846.000000	0.645803
847.000000	0.593650
848.000000	0.706144
849.000000	0.772394
850.000000	0.724629
851.000000	0.772294
852.000000	0.725647
853.000000	0.767247
854.000000	0.903638
855.000000	0.760410
856.000000	0.842066
857.000000	0.819228
858.000000	0.730864
859.000000	0.833602
860.000000	0.834429
861.000000	0.848707
862.000000	0.870650
863.000000	0.888861
864.000000	0.909868
865.000000	0.923611
866.000000	0.936152
867.000000	0.956871
868.000000	0.965108
869.000000	0.981868
870.000000	0.974588
871.000000	0.996683
872.000000	1.008676
873.000000	1.028548
874.000000	1.032501
875.000000	1.058929
876.000000	1.050214
877.000000	1.085968
878.000000	1.081923
879.000000	1.084053
880.000000	1.095194
881.000000	1.102225
882.000000	1.095382
883.000000	1.100567
884.000000	1.105619
885.000000	1.101204
886.000000	1.086571
887.000000	1.090072
888.000000	1.116057
889.000000	1.115703
890.000000	1.105719
891.000000	1.088477
892.000000	1.097913
893.000000	1.118480
894.000000	1.109768
895.000000	1.128268
896.000000	1.135952
897.000000	1.114219
898.000000	1.112012
899.000000	1.123868
900.000000	1.128980
901.000000	1.109198
902.000000	1.130177
903.000000	1.122680
904.000000	1.127240
905.000000	1.125751
906.000000	1.130490
907.000000	1.109406
908.000000	1.116941
909.000000	1.118920
910.000000	1.120600
911.000000	1.120193
912.000000	1.119696
913.000000	1.110623
914.000000	1.133440
915.000000	1.120737
916.000000	1.130022
917.000000	1.131821
918.000000	1.144861
919.000000	1.159489
920.000000	1.167141
921.000000	1.158441
922.000000	1.169179
923.000000	1.146401
924.000000	1.168112
925.000000	1.164758
926.000000	1.155039
927.000000	1.162633
928.000000	1.174920
929.000000	1.158686
930.000000	1.158231
931.000000	1.130413
932.000000	1.141746
933.000000	1.146858
934.000000	1.138638
935.000000	1.137692
936.000000	1.136403
937.000000	1.146401
938.000000	1.163656
939.000000	1.176272
940.000000	1.152806
941.000000	1.160848
942.000000	1.152668
943.000000	1.153274
944.000000	1.163371
945.000000	1.152251
946.000000	1.137624
947.000000	1.125174
948.000000	1.126345
949.000000	1.125695
950.000000	1.088329
951.000000	1.070171
952.000000	1.056965
953.000000	1.053248
954.000000	1.047083
955.000000	1.018380
956.000000	1.025022
957.000000	1.032591
958.000000	1.019575
959.000000	1.020572
960.000000	1.013237
961.000000	1.000054
962.000000	0.995217
963.000000	0.980652
964.000000	0.998915
965.000000	0.993120
966.000000	0.984344
967.000000	0.993011
968.000000	0.975714
969.000000	0.957035
970.000000	0.943798
971.000000	0.932454
972.000000	0.932329
973.000000	0.931634
974.000000	0.917557
975.000000	0.929145
976.000000	0.910197
977.000000	0.889084
978.000000	0.889394
979.000000	0.885994
980.000000	0.895924
981.000000	0.891477
982.000000	0.892812
983.000000	0.897933
984.000000	0.906370
985.000000	0.906927
986.000000	0.909795
987.000000	0.914405
988.000000	0.920631
989.000000	0.915285
990.000000	0.914906
991.000000	0.902514
992.000000	0.902938
993.000000	0.896321
994.000000	0.887572
995.000000	0.881729
996.000000	0.879165
997.000000	0.868224
998.000000	0.870468
999.000000	0.855188
1000.000000	0.845389
1001.000000	0.845840
1002.000000	0.845680
1003.000000	0.829867
1004.000000	0.817612
1005.000000	0.814046
1006.000000	0.819149
1007.000000	0.815655
1008.000000	0.799130
1009.000000	0.784949
1010.000000	0.791119
1011.000000	0.796009
1012.000000	0.790499
1013.000000	0.781048
1014.000000	0.771230
1015.000000	0.765845
1016.000000	0.752702
1017.000000	0.742609
1018.000000	0.724384
1019.000000	0.714395
1020.000000	0.709462
1021.000000	0.693251
1022.000000	0.684320
1023.000000	0.678831
1024.000000	0.674266
1025.000000	0.668675
1026.000000	0.661666
1027.000000	0.655954
1028.000000	0.647721
1029.000000	0.649648
1030.000000	0.649347
1031.000000	0.638684
1032.000000	0.636559
1033.000000	0.637708
1034.000000	0.651219
1035.000000	0.651509
1036.000000	0.644875
1037.000000	0.631987
1038.000000	0.620605
1039.000000	0.626526
1040.000000	0.624292
1041.000000	0.619162
1042.000000	0.624505
1043.000000	0.625549
1044.000000	0.624828
1045.000000	0.629882
1046.000000	0.634590
1047.000000	0.638314
1048.000000	0.626090
1049.000000	0.624797
1050.000000	0.623354
1051.000000	0.627285
1052.000000	0.632468
1053.000000	0.642902
1054.000000	0.651026
1055.000000	0.643564
1056.000000	0.638506
1057.000000	0.641216
1058.000000	0.641899
1059.000000	0.654856
1060.000000	0.668036
1061.000000	0.672148
1062.000000	0.676420
1063.000000	0.671155
1064.000000	0.667197
1065.000000	0.674505
1066.000000	0.676596
1067.000000	0.689447
1068.000000	0.692127
1069.000000	0.686837
1070.000000	0.687567
1071.000000	0.683504
1072.000000	0.683445
1073.000000	0.701517
1074.000000	0.703032
1075.000000	0.701039
1076.000000	0.702001
1077.000000	0.706511
1078.000000	0.707627
1079.000000	0.702739
1080.000000	0.695476
1081.000000	0.690277
1082.000000	0.688650
1083.000000	0.703071
1084.000000	0.708465
1085.000000	0.719029
1086.000000	0.723476
1087.000000	0.723370
1088.000000	0.724871
1089.000000	0.722137
1090.000000	0.716063
1091.000000	0.714151
1092.000000	0.709168
1093.000000	0.717389
1094.000000	0.723653
1095.000000	0.709582
1096.000000	0.718842
1097.000000	0.734569
1098.000000	0.734028
1099.000000	0.729747
1100.000000	0.721829
1101.000000	0.737893
1102.000000	0.720178
1103.000000	0.721358
1104.000000	0.715762
1105.000000	0.727523
1106.000000	0.727579
1107.000000	0.734966
1108.000000	0.733095
1109.000000	0.723530
1110.000000	0.720866
1111.000000	0.717730
1112.000000	0.722401
1113.000000	0.715778
1114.000000	0.714703
1115.000000	0.710250
1116.000000	0.713056
1117.000000	0.715538
1118.000000	0.717786
1119.000000	0.712565
1120.000000	0.709496
1121.000000	0.714198
1122.000000	0.707445
1123.000000	0.711702
1124.000000	0.697941
1125.000000	0.704054
1126.000000	0.722103
1127.000000	0.710751
1128.000000	0.730937
1129.000000	0.729102
1130.000000	0.729998
1131.000000	0.717160
1132.000000	0.728825
1133.000000	0.725870
1134.000000	0.723837
1135.000000	0.703205
1136.000000	0.706738
1137.000000	0.717749
1138.000000	0.716697
1139.000000	0.715342
1140.000000	0.711338
1141.000000	0.709022
1142.000000	0.704770
1143.000000	0.701272
1144.000000	0.709284
1145.000000	0.716440
1146.000000	0.722587
1147.000000	0.723534
1148.000000	0.729934
1149.000000	0.724332
1150.000000	0.734366
1151.000000	0.723926
1152.000000	0.736448
1153.000000	0.717718
1154.000000	0.707819
1155.000000	0.720559
1156.000000	0.717855
1157.000000	0.725008
1158.000000	0.721249
1159.000000	0.710439
1160.000000	0.724156
1161.000000	0.716272
1162.000000	0.710234
1163.000000	0.729314
1164.000000	0.705373
1165.000000	0.712927
1166.000000	0.718205
1167.000000	0.722834
1168.000000	0.704076
1169.000000	0.698851
1170.000000	0.683070
1171.000000	0.707831
1172.000000	0.701203
1173.000000	0.683073
1174.000000	0.692550
1175.000000	0.693730
1176.000000	0.668686
1177.000000	0.675873
1178.000000	0.675762
1179.000000	0.686370
1180.000000	0.681267
1181.000000	0.688045
1182.000000	0.675555
1183.000000	0.668388
1184.000000	0.669272
1185.000000	0.684829
1186.000000	0.678585
1187.000000	0.657921
1188.000000	0.705168
1189.000000	0.689457
1190.000000	0.681319
1191.000000	0.681299
1192.000000	0.679807
1193.000000	0.683607
1194.000000	0.684274
1195.000000	0.691301
1196.000000	0.683504
1197.000000	0.689892
1198.000000	0.688796
1199.000000	0.700454
1200.000000	0.704855
1201.000000	0.704397
1202.000000	0.711003
1203.000000	0.708986
1204.000000	0.711085
1205.000000	0.706554
1206.000000	0.722735
1207.000000	0.726084
1208.000000	0.726530
1209.000000	0.709545
1210.000000	0.714312
1211.000000	0.705647
1212.000000	0.714475
1213.000000	0.717706
1214.000000	0.719577
1215.000000	0.709052
1216.000000	0.721846
1217.000000	0.728154
1218.000000	0.718329
1219.000000	0.715303
1220.000000	0.717784
1221.000000	0.709294
1222.000000	0.719450
1223.000000	0.720571
1224.000000	0.716548
1225.000000	0.721135
1226.000000	0.716019
1227.000000	0.721583
1228.000000	0.721210
1229.000000	0.709766
1230.000000	0.703365
1231.000000	0.711647
1232.000000	0.704211
1233.000000	0.713019
1234.000000	0.712675
1235.000000	0.717816
1236.000000	0.704844
1237.000000	0.711310
1238.000000	0.706636
1239.000000	0.704092
1240.000000	0.697690
1241.000000	0.704849
1242.000000	0.700222
1243.000000	0.710389
1244.000000	0.704858
1245.000000	0.701011
1246.000000	0.701583
1247.000000	0.695126
1248.000000	0.707952
1249.000000	0.688777
1250.000000	0.693415
1251.000000	0.700406
1252.000000	0.707755
1253.000000	0.714656
1254.000000	0.718861
1255.000000	0.715526
1256.000000	0.702545
1257.000000	0.701878
1258.000000	0.704369
1259.000000	0.706422
1260.000000	0.706079
1261.000000	0.720157
1262.000000	0.712665
1263.000000	0.709694
1264.000000	0.695813
1265.000000	0.695743
1266.000000	0.699579
1267.000000	0.703327
1268.000000	0.711995
1269.000000	0.717948
1270.000000	0.719733
1271.000000	0.726023
1272.000000	0.720141
1273.000000	0.711122
1274.000000	0.712336
1275.000000	0.716018
1276.000000	0.716488
1277.000000	0.710951
1278.000000	0.709841
1279.000000	0.702656
1280.000000	0.704131
1281.000000	0.710408
1282.000000	0.703364
1283.000000	0.704098
1284.000000	0.711906
1285.000000	0.713239
1286.000000	0.706606
1287.000000	0.702667
1288.000000	0.707717
1289.000000	0.712503
1290.000000	0.711725
1291.000000	0.703150
1292.000000	0.711069
1293.000000	0.719742
1294.000000	0.706474
1295.000000	0.707875
1296.000000	0.714625
1297.000000	0.714929
1298.000000	0.715944
1299.000000	0.717487
1300.000000	0.721153
1301.000000	0.716900
1302.000000	0.717380
1303.000000	0.732957
1304.000000	0.742828
1305.000000	0.742609
1306.000000	0.743289
1307.000000	0.738695
1308.000000	0.730440
1309.000000	0.731003
1310.000000	0.735053
1311.000000	0.742925
1312.000000	0.748273
1313.000000	0.744330
1314.000000	0.742719
1315.000000	0.741747
1316.000000	0.741196
1317.000000	0.731440
1318.000000	0.733957
1319.000000	0.741047
1320.000000	0.741149
1321.000000	0.748000
1322.000000	0.744038
1323.000000	0.750733
1324.000000	0.742530
1325.000000	0.732054
1326.000000	0.732587
1327.000000	0.745635
1328.000000	0.754647
1329.000000	0.751549
1330.000000	0.749595
1331.000000	0.741829
1332.000000	0.745491
1333.000000	0.743508
1334.000000	0.743408
1335.000000	0.742193
1336.000000	0.748203
1337.000000	0.741619
1338.000000	0.739354
1339.000000	0.735529
1340.000000	0.740233
1341.000000	0.741229
1342.000000	0.739831
1343.000000	0.728799
1344.000000	0.726005
1345.000000	0.728217
1346.000000	0.732917
1347.000000	0.705103
1348.000000	0.697052
1349.000000	0.712907
1350.000000	0.720067
1351.000000	0.719925
1352.000000	0.704640
1353.000000	0.689651
1354.000000	0.679821
1355.000000	0.683009
1356.000000	0.692109
1357.000000	0.700469
1358.000000	0.681479
1359.000000	0.691436
1360.000000	0.675732
1361.000000	0.654412
1362.000000	0.663195
1363.000000	0.703236
1364.000000	0.678095
1365.000000	0.655748
1366.000000	0.678944
1367.000000	0.686118
1368.000000	0.676370
1369.000000	0.688448
1370.000000	0.674033
1371.000000	0.656919
1372.000000	0.660829
1373.000000	0.676700
1374.000000	0.679856
1375.000000	0.676282
1376.000000	0.658490
1377.000000	0.650470
1378.000000	0.641995
1379.000000	0.630336
1380.000000	0.623158
1381.000000	0.596338
1382.000000	0.575295
1383.000000	0.573637
1384.000000	0.584379
1385.000000	0.593240
1386.000000	0.594475
1387.000000	0.582551
1388.000000	0.554381
1389.000000	0.569852
1390.000000	0.582056
1391.000000	0.573166
1392.000000	0.566954
1393.000000	0.573348
1394.000000	0.583935
1395.000000	0.567747
1396.000000	0.559395
1397.000000	0.582330
1398.000000	0.586775
1399.000000	0.566762
1400.000000	0.530366
1401.000000	0.541091
1402.000000	0.582447
1403.000000	0.594225
1404.000000	0.555677
1405.000000	0.549656
1406.000000	0.570222
1407.000000	0.569511
1408.000000	0.552253
1409.000000	0.565320
1410.000000	0.546516
1411.000000	0.556420
1412.000000	0.555962
1413.000000	0.536022
1414.000000	0.502700
1415.000000	0.526910
1416.000000	0.531966
1417.000000	0.522209
1418.000000	0.502434
1419.000000	0.493749
1420.000000	0.510177
1421.000000	0.520423
1422.000000	0.505921
1423.000000	0.499624
1424.000000	0.498580
1425.000000	0.487656
1426.000000	0.485611
1427.000000	0.474026
1428.000000	0.489813
1429.000000	0.498932
1430.000000	0.483993
1431.000000	0.481405
1432.000000	0.476903
1433.000000	0.479169
1434.000000	0.484332
1435.000000	0.484783
1436.000000	0.478514
1437.000000	0.468147
1438.000000	0.451565
1439.000000	0.463794
1440.000000	0.479858
1441.000000	0.465121
1442.000000	0.458861
1443.000000	0.468073
1444.000000	0.456696
1445.000000	0.437472
1446.000000	0.457962
1447.000000	0.458548
1448.000000	0.470074
1449.000000	0.461577
1450.000000	0.465376
1451.000000	0.460948
1452.000000	0.465450
1453.000000	0.471977
1454.000000	0.444043
1455.000000	0.442872
1456.000000	0.449838
1457.000000	0.459385
1458.000000	0.437652
1459.000000	0.432689
1460.000000	0.442801
1461.000000	0.447814
1462.000000	0.453254
1463.000000	0.438890
1464.000000	0.429240
1465.000000	0.419941
1466.000000	0.421947
1467.000000	0.431875
1468.000000	0.426654
1469.000000	0.403009
1470.000000	0.407428
1471.000000	0.423178
1472.000000	0.417618
1473.000000	0.404866
1474.000000	0.402479
1475.000000	0.413470
1476.000000	0.404110
1477.000000	0.395476
1478.000000	0.375149
1479.000000	0.369984
1480.000000	0.378403
1481.000000	0.376871
1482.000000	0.379312
1483.000000	0.381771
1484.000000	0.379446
1485.000000	0.371858
1486.000000	0.374136
1487.000000	0.378708
1488.000000	0.379261
1489.000000	0.383581
1490.000000	0.382352
1491.000000	0.388669
1492.000000	0.382292
1493.000000	0.378380
1494.000000	0.375941
1495.000000	0.374057
1496.000000	0.371227
1497.000000	0.369395
1498.000000	0.365715
1499.000000	0.352089
1500.000000	0.357233
1501.000000	0.353733
1502.000000	0.362485
1503.000000	0.355562
1504.000000	0.365929
1505.000000	0.361136
1506.000000	0.367241
1507.000000	0.373106
1508.000000	0.370071
1509.000000	0.366603
1510.000000	0.368895
1511.000000	0.377938
1512.000000	0.373165
1513.000000	0.363555
1514.000000	0.360139
1515.000000	0.359990
1516.000000	0.368330
1517.000000	0.372405
1518.000000	0.362780
1519.000000	0.359410
1520.000000	0.369527
1521.000000	0.369984
1522.000000	0.366907
1523.000000	0.372455
1524.000000	0.371002
1525.000000	0.369616
1526.000000	0.376908
1527.000000	0.369288
1528.000000	0.369968
1529.000000	0.378540
1530.000000	0.373647
1531.000000	0.373841
1532.000000	0.376766
1533.000000	0.375485
1534.000000	0.375547
1535.000000	0.380044
1536.000000	0.377790
1537.000000	0.379893
1538.000000	0.382134
1539.000000	0.375000
1540.000000	0.371503
1541.000000	0.378744
1542.000000	0.377824
1543.000000	0.371265
1544.000000	0.374527
1545.000000	0.375514
1546.000000	0.375888
1547.000000	0.375159
1548.000000	0.374542
1549.000000	0.374589
1550.000000	0.377008
1551.000000	0.383438
1552.000000	0.379961
1553.000000	0.376494
1554.000000	0.381852
1555.000000	0.381360
1556.000000	0.379292
1557.000000	0.389214
1558.000000	0.393898
1559.000000	0.389037
1560.000000	0.391485
1561.000000	0.391913
1562.000000	0.394281
1563.000000	0.384910
1564.000000	0.371270
1565.000000	0.379035
1566.000000	0.388535
1567.000000	0.383144
1568.000000	0.384567
1569.000000	0.387790
1570.000000	0.393338
1571.000000	0.401693
1572.000000	0.392035
1573.000000	0.382211
1574.000000	0.386785
1575.000000	0.387680
1576.000000	0.379137
1577.000000	0.385646
1578.000000	0.389076
1579.000000	0.393586
1580.000000	0.396095
1581.000000	0.396510
1582.000000	0.387677
1583.000000	0.381985
1584.000000	0.387747
1585.000000	0.389782
1586.000000	0.387647
1587.000000	0.385187
1588.000000	0.393576
1589.000000	0.403717
1590.000000	0.406296
1591.000000	0.402836
1592.000000	0.408068
1593.000000	0.414420
1594.000000	0.412484
1595.000000	0.415530
1596.000000	0.413662
1597.000000	0.400695
1598.000000	0.400474
1599.000000	0.405698
1600.000000	0.415350
1601.000000	0.428802
1602.000000	0.432263
1603.000000	0.419634
1604.000000	0.420459
1605.000000	0.435479
1606.000000	0.432192
1607.000000	0.442189
1608.000000	0.455819
1609.000000	0.453282
1610.000000	0.445267
1611.000000	0.448663
1612.000000	0.458433
1613.000000	0.459636
1614.000000	0.452989
1615.000000	0.447564
1616.000000	0.459231
1617.000000	0.460759
1618.000000	0.461929
1619.000000	0.453128
1620.000000	0.447019
1621.000000	0.448949
1622.000000	0.451714
1623.000000	0.464232
1624.000000	0.468911
1625.000000	0.471588
1626.000000	0.470305
1627.000000	0.475568
1628.000000	0.465242
1629.000000	0.472020
1630.000000	0.477837
1631.000000	0.488974
1632.000000	0.485866
1633.000000	0.478502
1634.000000	0.481998
1635.000000	0.479092
1636.000000	0.487952
1637.000000	0.486014
1638.000000	0.487532
1639.000000	0.486331
1640.000000	0.486605
1641.000000	0.488809
1642.000000	0.476336
1643.000000	0.484395
1644.000000	0.478380
1645.000000	0.480768
1646.000000	0.478429
1647.000000	0.481529
1648.000000	0.480746
1649.000000	0.480774
1650.000000	0.474767
1651.000000	0.498237
1652.000000	0.481138
1653.000000	0.491725
1654.000000	0.499662
1655.000000	0.504541
1656.000000	0.487865
1657.000000	0.502650
1658.000000	0.500856
1659.000000	0.491731
1660.000000	0.493290
1661.000000	0.486486
1662.000000	0.474273
1663.000000	0.474553
1664.000000	0.469732
1665.000000	0.471115
1666.000000	0.470733
1667.000000	0.468145
1668.000000	0.468370
1669.000000	0.463268
1670.000000	0.449367
1671.000000	0.436162
1672.000000	0.454647
1673.000000	0.440472
1674.000000	0.436431
1675.000000	0.427589
1676.000000	0.427782
1677.000000	0.418283
1678.000000	0.409009
1679.000000	0.410464
1680.000000	0.423463
1681.000000	0.420420
1682.000000	0.390319
1683.000000	0.404406
1684.000000	0.393514
1685.000000	0.397334
1686.000000	0.374534
1687.000000	0.382498
1688.000000	0.359375
1689.000000	0.356550
1690.000000	0.363844
1691.000000	0.360745
1692.000000	0.354295
1693.000000	0.365371
1694.000000	0.375177
1695.000000	0.388772
1696.000000	0.392074
1697.000000	0.380124
1698.000000	0.382703
1699.000000	0.375127
1700.000000	0.371616
1701.000000	0.377781
1702.000000	0.389225
1703.000000	0.383856
1704.000000	0.362264
1705.000000	0.380636
1706.000000	0.368326
1707.000000	0.373366
1708.000000	0.368893
1709.000000	0.384316
1710.000000	0.380478
1711.000000	0.384708
1712.000000	0.375015
1713.000000	0.376540
1714.000000	0.358504
1715.000000	0.344531
1716.000000	0.357960
1717.000000	0.327714
1718.000000	0.313085
1719.000000	0.323334
1720.000000	0.329254
1721.000000	0.306105
1722.000000	0.313998
1723.000000	0.304517
1724.000000	0.309865
1725.000000	0.305249
1726.000000	0.295374
1727.000000	0.295776
1728.000000	0.303762
1729.000000	0.303194
1730.000000	0.308952
1731.000000	0.308825
1732.000000	0.318906
1733.000000	0.321476
1734.000000	0.315617
1735.000000	0.311181
1736.000000	0.304160
1737.000000	0.311697
1738.000000	0.309495
1739.000000	0.307789
1740.000000	0.318573
1741.000000	0.323757
1742.000000	0.328042
1743.000000	0.335247
1744.000000	0.345619
1745.000000	0.322102
1746.000000	0.332220
1747.000000	0.317651
1748.000000	0.342285
1749.000000	0.332894
1750.000000	0.328443
1751.000000	0.338327
1752.000000	0.345846
1753.000000	0.335396
1754.000000	0.346705
1755.000000	0.359320
1756.000000	0.343196
1757.000000	0.337558
1758.000000	0.334936
1759.000000	0.349579
1760.000000	0.351286
1761.000000	0.339650
1762.000000	0.336004
1763.000000	0.343964
1764.000000	0.336859
1765.000000	0.342459
1766.000000	0.340163
1767.000000	0.356662
1768.000000	0.360994
1769.000000	0.339985
1770.000000	0.325590
1771.000000	0.335535
1772.000000	0.350803
1773.000000	0.360425
1774.000000	0.352961
1775.000000	0.361267
1776.000000	0.360867
1777.000000	0.354562
1778.000000	0.355984
1779.000000	0.346406
1780.000000	0.347755
1781.000000	0.352448
1782.000000	0.357672
1783.000000	0.349628
1784.000000	0.339903
1785.000000	0.347702
1786.000000	0.361449
1787.000000	0.353679
1788.000000	0.354134
1789.000000	0.360176
1790.000000	0.356796
1791.000000	0.356529
1792.000000	0.359896
1793.000000	0.353644
1794.000000	0.353735
1795.000000	0.361963
1796.000000	0.363810
1797.000000	0.356536
1798.000000	0.362138
1799.000000	0.357637
1800.000000	0.360845
1801.000000	0.369180
1802.000000	0.360580
1803.000000	0.359919
1804.000000	0.357304
1805.000000	0.361473
1806.000000	0.366358
1807.000000	0.362634
1808.000000	0.374216
1809.000000	0.380219
1810.000000	0.363237
1811.000000	0.368975
1812.000000	0.377423
1813.000000	0.379942
1814.000000	0.381293
1815.000000	0.383826
1816.000000	0.378074
1817.000000	0.376213
1818.000000	0.388124
1819.000000	0.377357
1820.000000	0.359293
1821.000000	0.354458
1822.000000	0.371413
1823.000000	0.394251
1824.000000	0.394161
1825.000000	0.383395
1826.000000	0.377619
1827.000000	0.368894
1828.000000	0.370575
1829.000000	0.374717
1830.000000	0.368362
1831.000000	0.370694
1832.000000	0.384648
1833.000000	0.395563
1834.000000	0.387995
1835.000000	0.364330
1836.000000	0.353625
1837.000000	0.353225
1838.000000	0.367297
1839.000000	0.375713
1840.000000	0.372753
1841.000000	0.363955
1842.000000	0.368458
1843.000000	0.404375
1844.000000	0.429730
1845.000000	0.416744
1846.000000	0.379810
1847.000000	0.352587
1848.000000	0.351804
1849.000000	0.384412
1850.000000	0.421338
1851.000000	0.429915
1852.000000	0.400736
1853.000000	0.383023
1854.000000	0.386715
1855.000000	0.390474
1856.000000	0.394690
1857.000000	0.401627
1858.000000	0.383493
1859.000000	0.374164
1860.000000	0.376883
1861.000000	0.384309
1862.000000	0.412375
1863.000000	0.419809
1864.000000	0.418857
1865.000000	0.407626
1866.000000	0.396702
1867.000000	0.384943
1868.000000	0.375930
1869.000000	0.360018
1870.000000	0.337117
1871.000000	0.347246
1872.000000	0.371897
1873.000000	0.372569
1874.000000	0.375466
1875.000000	0.379776
1876.000000	0.381687
1877.000000	0.395079
1878.000000	0.386908
1879.000000	0.391015
1880.000000	0.395703
1881.000000	0.382634
1882.000000	0.366621
1883.000000	0.349452
1884.000000	0.353378
1885.000000	0.355386
1886.000000	0.351887
1887.000000	0.344572
1888.000000	0.343545
1889.000000	0.330561
1890.000000	0.330693
1891.000000	0.324014
1892.000000	0.307417
1893.000000	0.296803
1894.000000	0.308940
1895.000000	0.298124
1896.000000	0.298036
1897.000000	0.278659
1898.000000	0.257777
1899.000000	0.232502
1900.000000	0.228796
1901.000000	0.226560
1902.000000	0.224149
1903.000000	0.224953
1904.000000	0.202846
1905.000000	0.183761
1906.000000	0.186284
1907.000000	0.200117
1908.000000	0.194206
1909.000000	0.193670
1910.000000	0.184768
1911.000000	0.164846
1912.000000	0.138327
1913.000000	0.129481
1914.000000	0.150717
1915.000000	0.146806
1916.000000	0.140907
1917.000000	0.153116
1918.000000	0.154258
1919.000000	0.138328
1920.000000	0.131019
1921.000000	0.135704
1922.000000	0.122769
1923.000000	0.124764
1924.000000	0.133073
1925.000000	0.128007
1926.000000	0.118451
1927.000000	0.113428
1928.000000	0.126585
1929.000000	0.129893
1930.000000	0.120081
1931.000000	0.123184
1932.000000	0.119662
1933.000000	0.121668
1934.000000	0.114761
1935.000000	0.105369
1936.000000	0.120038
1937.000000	0.124805
1938.000000	0.104971
1939.000000	0.095074
1940.000000	0.105236
1941.000000	0.117556
1942.000000	0.122258
1943.000000	0.110970
1944.000000	0.117471
1945.000000	0.099996
1946.000000	0.107673
1947.000000	0.112172
1948.000000	0.112137
1949.000000	0.111189
1950.000000	0.126628
1951.000000	0.112571
1952.000000	0.108004
1953.000000	0.115500
1954.000000	0.106587
1955.000000	0.132559
1956.000000	0.115274
1957.000000	0.130295
1958.000000	0.136572
1959.000000	0.114751
1960.000000	0.124598
1961.000000	0.124517
1962.000000	0.134671
1963.000000	0.133329
1964.000000	0.139691
1965.000000	0.131635
1966.000000	0.144554
1967.000000	0.136395
1968.000000	0.136147
1969.000000	0.134661
1970.000000	0.125983
1971.000000	0.128570
1972.000000	0.133681
1973.000000	0.130313
1974.000000	0.144979
1975.000000	0.135663
1976.000000	0.127591
1977.000000	0.138863
1978.000000	0.131125
1979.000000	0.144008
1980.000000	0.134597
1981.000000	0.143418
1982.000000	0.141299
1983.000000	0.121297
1984.000000	0.136893
1985.000000	0.147339
1986.000000	0.131260
1987.000000	0.145783
1988.000000	0.133137
1989.000000	0.135855
1990.000000	0.136923
1991.000000	0.152261
1992.000000	0.140571
1993.000000	0.143876
1994.000000	0.149365
1995.000000	0.140652
1996.000000	0.151861
1997.000000	0.151281
1998.000000	0.143533
1999.000000	0.150460
2000.000000	0.154329
2001.000000	0.137243
2002.000000	0.144852
2003.000000	0.138690
2004.000000	0.146787
2005.000000	0.139089
2006.000000	0.148153
2007.000000	0.130613
2008.000000	0.132006
2009.000000	0.129881
2010.000000	0.133336
2011.000000	0.146771
2012.000000	0.121827
2013.000000	0.120537
2014.000000	0.125790
2015.000000	0.119123
2016.000000	0.116812
2017.000000	0.111948
2018.000000	0.118947
2019.000000	0.124294
2020.000000	0.128097
2021.000000	0.111738
2022.000000	0.104414
2023.000000	0.108627
2024.000000	0.102694
2025.000000	0.105232
2026.000000	0.100842
2027.000000	0.084677
2028.000000	0.089640
2029.000000	0.088256
2030.000000	0.076425
2031.000000	0.082814
2032.000000	0.074039
2033.000000	0.063752
2034.000000	0.064662
2035.000000	0.074625
2036.000000	0.075434
2037.000000	0.071277
2038.000000	0.061396
2039.000000	0.063668
2040.000000	0.060610
2041.000000	0.060238
2042.000000	0.055733
2043.000000	0.053552
2044.000000	0.057268
2045.000000	0.059963
2046.000000	0.053862
2047.000000	0.040033
2048.000000	0.034305
2049.000000	0.029781
2050.000000	0.032332
2051.000000	0.034871
2052.000000	0.040137
2053.000000	0.029788
2054.000000	0.026874
2055.000000	0.019052
2056.000000	0.016890
2057.000000	0.008516
2058.000000	0.006478
2059.000000	0.011720
2060.000000	0.025461
2061.000000	0.022914
2062.000000	0.012241
2063.000000	0.009494
2064.000000	0.016974
2065.000000	0.011651
2066.000000	0.013754
2067.000000	0.019561
2068.000000	0.023729
2069.000000	0.025414
2070.000000	0.029155
2071.000000	0.032171
2072.000000	0.025379
2073.000000	0.024358
2074.000000	0.034659
2075.000000	0.036229
2076.000000	0.039858
2077.000000	0.037136
2078.000000	0.034528
2079.000000	0.039078
2080.000000	0.047756
2081.000000	0.049816
2082.000000	0.042716
2083.000000	0.042607
2084.000000	0.042606
2085.000000	0.040400
2086.000000	0.041811
2087.000000	0.044417
2088.000000	0.056263
2089.000000	0.055071
2090.000000	0.046056
2091.000000	0.047947
2092.000000	0.045973
2093.000000	0.044121
2094.000000	0.048602
2095.000000	0.054167
2096.000000	0.050713
2097.000000	0.056703
2098.000000	0.052105
2099.000000	0.048900
2100.000000	0.052859
2101.000000	0.039506
2102.000000	0.039760
2103.000000	0.044807
2104.000000	0.042489
2105.000000	0.047612
2106.000000	0.055582
2107.000000	0.058215
2108.000000	0.055509
2109.000000	0.049166
2110.000000	0.045260
2111.000000	0.048140
2112.000000	0.052701
2113.000000	0.065406
2114.000000	0.065490
2115.000000	0.058610
2116.000000	0.056445
2117.000000	0.056156
2118.000000	0.060795
2119.000000	0.061086
2120.000000	0.060249
2121.000000	0.057690
2122.000000	0.055452
2123.000000	0.062024
2124.000000	0.067555
2125.000000	0.072262
2126.000000	0.070935
2127.000000	0.071537
2128.000000	0.067184
2129.000000	0.065150
2130.000000	0.071180
2131.000000	0.060702
2132.000000	0.053801
2133.000000	0.067955
2134.000000	0.070641
2135.000000	0.075919
2136.000000	0.075468
2137.000000	0.077042
2138.000000	0.072605
2139.000000	0.074884
2140.000000	0.078630
2141.000000	0.077363
2142.000000	0.081104
2143.000000	0.092325
2144.000000	0.091883
2145.000000	0.088808
2146.000000	0.086626
2147.000000	0.077977
2148.000000	0.070180
2149.000000	0.087024
2150.000000	0.087039
2151.000000	0.079071
2152.000000	0.078975
2153.000000	0.083271
2154.000000	0.072560
2155.000000	0.076251
2156.000000	0.083437
2157.000000	0.086301
2158.000000	0.079537
2159.000000	0.068673
2160.000000	0.081292
2161.000000	0.083659
2162.000000	0.081183
2163.000000	0.088461
2164.000000	0.081449
2165.000000	0.074664
2166.000000	0.076453
2167.000000	0.075476
2168.000000	0.081018
2169.000000	0.073143
2170.000000	0.077433
2171.000000	0.090496
2172.000000	0.072486
2173.000000	0.067320
2174.000000	0.059697
2175.000000	0.079810
2176.000000	0.072565
2177.000000	0.074388
2178.000000	0.067306
2179.000000	0.060611
2180.000000	0.079476
2181.000000	0.079035
2182.000000	0.067868
2183.000000	0.051227
2184.000000	0.060482
2185.000000	0.068652
2186.000000	0.072986
2187.000000	0.069140
2188.000000	0.077724
2189.000000	0.076973
2190.000000	0.070045
2191.000000	0.072191
2192.000000	0.070103
2193.000000	0.068392
2194.000000	0.071110
2195.000000	0.057900
2196.000000	0.059873
2197.000000	0.050721
2198.000000	0.051036
2199.000000	0.061485
2200.000000	0.064982
2201.000000	0.060751
2202.000000	0.048987
2203.000000	0.034122
2204.000000	0.045675
2205.000000	0.036470
2206.000000	0.050160
2207.000000	0.047591
2208.000000	0.047302
2209.000000	0.054782
2210.000000	0.052055
2211.000000	0.027758
2212.000000	0.043564
2213.000000	0.051448
2214.000000	0.049882
2215.000000	0.045185
2216.000000	0.057338
2217.000000	0.032074
2218.000000	0.049629
2219.000000	0.058865
2220.000000	0.042336
2221.000000	0.040129
2222.000000	0.041710
2223.000000	0.043806
2224.000000	0.052544
2225.000000	0.061864
2226.000000	0.051203
2227.000000	0.045204
2228.000000	0.046109
2229.000000	0.052387
2230.000000	0.049244
2231.000000	0.053078
2232.000000	0.051685
2233.000000	0.077721
2234.000000	0.066082
2235.000000	0.049732
2236.000000	0.061530
2237.000000	0.063459
2238.000000	0.069942
2239.000000	0.057224
2240.000000	0.051522
2241.000000	0.045625
2242.000000	0.062719
2243.000000	0.062268
2244.000000	0.067155
2245.000000	0.050001
2246.000000	0.057100
2247.000000	0.063239
2248.000000	0.061461
2249.000000	0.066773
2250.000000	0.069135
2251.000000	0.071536
2252.000000	0.064415
2253.000000	0.067214
2254.000000	0.072911
2255.000000	0.063513
2256.000000	0.051868
2257.000000	0.065007
2258.000000	0.065801
2259.000000	0.060049
2260.000000	0.062919
2261.000000	0.069683
2262.000000	0.073491
2263.000000	0.083434
2264.000000	0.076698
2265.000000	0.075278
2266.000000	0.059760
2267.000000	0.068095
2268.000000	0.081629
2269.000000	0.067034
2270.000000	0.068504
2271.000000	0.067441
2272.000000	0.055183
2273.000000	0.068597
2274.000000	0.077550
2275.000000	0.074442
2276.000000	0.067690
2277.000000	0.064503
2278.000000	0.065186
2279.000000	0.072067
2280.000000	0.065430
2281.000000	0.068970
2282.000000	0.081176
2283.000000	0.071890
2284.000000	0.070571
2285.000000	0.072323
2286.000000	0.081868
2287.000000	0.076897
2288.000000	0.075760
2289.000000	0.065922
2290.000000	0.082418
2291.000000	0.086774
2292.000000	0.081575
2293.000000	0.076559
2294.000000	0.076547
2295.000000	0.078851
2296.000000	0.085200
2297.000000	0.082493
2298.000000	0.091808
2299.000000	0.084438
2300.000000	0.092606
2301.000000	0.095178
2302.000000	0.096123
2303.000000	0.079973
2304.000000	0.080570
2305.000000	0.078920
2306.000000	0.086098
2307.000000	0.091717
2308.000000	0.087920
2309.000000	0.085338
2310.000000	0.075180
2311.000000	0.092404
2312.000000	0.095526
2313.000000	0.095400
2314.000000	0.090534
2315.000000	0.087867
2316.000000	0.083609
2317.000000	0.091014
2318.000000	0.093503
2319.000000	0.110258
2320.000000	0.103311
2321.000000	0.094886
2322.000000	0.086772
2323.000000	0.090969
2324.000000	0.095908
2325.000000	0.097020
2326.000000	0.088592
2327.000000	0.082550
2328.000000	0.086332
2329.000000	0.095039
2330.000000	0.095008
2331.000000	0.089712
2332.000000	0.079806
2333.000000	0.079569
2334.000000	0.090074
2335.000000	0.097760
2336.000000	0.099979
2337.000000	0.092876
2338.000000	0.093092
2339.000000	0.091945
2340.000000	0.086883
2341.000000	0.086944
2342.000000	0.086917
2343.000000	0.086200
2344.000000	0.091522
2345.000000	0.090763
2346.000000	0.096668
2347.000000	0.099216
2348.000000	0.096350
2349.000000	0.090728
2350.000000	0.084957
2351.000000	0.087247
2352.000000	0.083840
2353.000000	0.081227
2354.000000	0.097275
2355.000000	0.094081
2356.000000	0.088850
2357.000000	0.095816
2358.000000	0.097508
2359.000000	0.095339
2360.000000	0.091602
2361.000000	0.091259
2362.000000	0.093253
2363.000000	0.087982
2364.000000	0.088752
2365.000000	0.096900
2366.000000	0.095401
2367.000000	0.087604
2368.000000	0.090116
2369.000000	0.087978
2370.000000	0.087377
2371.000000	0.086935
2372.000000	0.093401
2373.000000	0.101044
2374.000000	0.093655
2375.000000	0.087609
2376.000000	0.096192
2377.000000	0.104445
2378.000000	0.097720
2379.000000	0.096883
2380.000000	0.092056
2381.000000	0.092855
2382.000000	0.094655
2383.000000	0.091747
2384.000000	0.097120
2385.000000	0.094956
2386.000000	0.092956
2387.000000	0.098168
2388.000000	0.098113
2389.000000	0.091706
2390.000000	0.096878
2391.000000	0.090760
2392.000000	0.094461
2393.000000	0.105505
2394.000000	0.105697
2395.000000	0.094038
2396.000000	0.102710
2397.000000	0.105429
2398.000000	0.096986
2399.000000	0.096708
2400.000000	0.097714
2401.000000	0.098777
2402.000000	0.089928
2403.000000	0.091817
2404.000000	0.091097
2405.000000	0.089048
2406.000000	0.099350
2407.000000	0.101680
2408.000000	0.095056
2409.000000	0.089524
2410.000000	0.097401
2411.000000	0.103020
2412.000000	0.103421
2413.000000	0.104267
2414.000000	0.107743
2415.000000	0.114465
2416.000000	0.115273
2417.000000	0.116314
2418.000000	0.118014
2419.000000	0.115350
2420.000000	0.099875
2421.000000	0.088630
2422.000000	0.097435
2423.000000	0.109128
2424.000000	0.096135
2425.000000	0.102751
2426.000000	0.092592
2427.000000	0.100362
2428.000000	0.099585
2429.000000	0.097300
2430.000000	0.099538
2431.000000	0.095122
2432.000000	0.097151
2433.000000	0.109782
2434.000000	0.099632
2435.000000	0.100212
2436.000000	0.089729
2437.000000	0.101816
2438.000000	0.095442
2439.000000	0.103056
2440.000000	0.098436
2441.000000	0.086390
2442.000000	0.094000
2443.000000	0.091502
2444.000000	0.093512
2445.000000	0.095459
2446.000000	0.083986
2447.000000	0.088001
2448.000000	0.090658
2449.000000	0.089200
2450.000000	0.089696
2451.000000	0.084254
2452.000000	0.083393
2453.000000	0.099282
2454.000000	0.101208
2455.000000	0.105309
2456.000000	0.073937
2457.000000	0.078524
2458.000000	0.098996
2459.000000	0.085748
2460.000000	0.087407
2461.000000	0.062597
2462.000000	0.078849
2463.000000	0.070902
2464.000000	0.080439
2465.000000	0.082427
2466.000000	0.084437
2467.000000	0.093906
2468.000000	0.069218
2469.000000	0.067903
2470.000000	0.082567
2471.000000	0.077926
2472.000000	0.049233
2473.000000	0.075849
2474.000000	0.096266
2475.000000	0.108137
2476.000000	0.089279
2477.000000	0.076493
2478.000000	0.064874
2479.000000	0.071422
2480.000000	0.123527
2481.000000	0.062118
2482.000000	0.067713
2483.000000	0.110034
2484.000000	0.094480
2485.000000	0.122921
2486.000000	0.060202
2487.000000	0.074312
2488.000000	0.099360
2489.000000	0.088745
2490.000000	0.061010
2491.000000	0.066545
2492.000000	0.115964
2493.000000	0.068697
2494.000000	0.075973
2495.000000	0.089917
2496.000000	0.077800
2497.000000	0.095654
2498.000000	0.094384
2499.000000	0.098634
2500.000000	0.099966
