PE UV       SUBTECH     SPECTRUM    ASCII       PEDS        4.00        
   -1
BIOUCR0024-3.Sample.ASC
24/02/20
14:02:04.00
24/02/20
14:02:04.00
Vinicio Soto Monge
P. resplendens 18 de Mayo de 1985 R.W. Volcan, Panama
250,000000
1
Lambda 1050
1050L1511233
PerkinElmer UV WinLab 6.3.2.0749 / 2.02.05 Lambda 900 UV/VIS/NIR, Aug  7 2015 09:38:08

0
0
3350/servo 860,8/2
0
0
UV/VIS
1
1
1
DoubleDePol,CommonBeamDepol,RBeamAtt,SBeamAtt,60mm sphere, WB InGaAs Detector
0
0
0
0
Program
Program
3350/servo 860,8/2
3350/0,2 860,8/0,2
3350/0,2 860,8/0,2
0
15.00
 
 
 
0
 
860,8
319,2
860,8
Front
100
on
S:100 R:100
0
0
0
0
 
0
 
 
 
0
 
 
0
0
0
0
0
 
 
 
 
0
0


0
0
#HDR
-1
-1
#GR
nm
%R
1.0
0.0
2500,000000
-1,000000
2251
8
24,512600
1,671100
#DATA

250.000000	0.097337
251.000000	0.087313
252.000000	0.088491
253.000000	0.067989
254.000000	0.085476
255.000000	0.088511
256.000000	0.099840
257.000000	0.074757
258.000000	0.097177
259.000000	0.100679
260.000000	0.102018
261.000000	0.084376
262.000000	0.095223
263.000000	0.076515
264.000000	0.065582
265.000000	0.068536
266.000000	0.060160
267.000000	0.071377
268.000000	0.090392
269.000000	0.064405
270.000000	0.086693
271.000000	0.076478
272.000000	0.066921
273.000000	0.086805
274.000000	0.073523
275.000000	0.060466
276.000000	0.085489
277.000000	0.091305
278.000000	0.078754
279.000000	0.078190
280.000000	0.055111
281.000000	0.057466
282.000000	0.067441
283.000000	0.058341
284.000000	0.073848
285.000000	0.057793
286.000000	0.063437
287.000000	0.066421
288.000000	0.096395
289.000000	0.069796
290.000000	0.076206
291.000000	0.088584
292.000000	0.080131
293.000000	0.047006
294.000000	0.072574
295.000000	0.078917
296.000000	0.064595
297.000000	0.063569
298.000000	0.093306
299.000000	0.046103
300.000000	0.050629
301.000000	0.061714
302.000000	0.069627
303.000000	0.067073
304.000000	0.055347
305.000000	0.049212
306.000000	0.089661
307.000000	0.079882
308.000000	0.068571
309.000000	0.101324
310.000000	0.086484
311.000000	0.061024
312.000000	0.036375
313.000000	0.036717
314.000000	0.061453
315.000000	0.059372
316.000000	0.030659
317.000000	0.217738
318.000000	0.146773
319.000000	0.039582
320.000000	0.207141
321.000000	0.268037
322.000000	0.107190
323.000000	0.120014
324.000000	0.105287
325.000000	0.202436
326.000000	0.066826
327.000000	0.120471
328.000000	0.093979
329.000000	0.203482
330.000000	0.029277
331.000000	0.017632
332.000000	0.040607
333.000000	0.094835
334.000000	0.050958
335.000000	0.041682
336.000000	0.065787
337.000000	0.047879
338.000000	0.044913
339.000000	0.036312
340.000000	0.039310
341.000000	0.087766
342.000000	0.034822
343.000000	0.063108
344.000000	0.039049
345.000000	0.025073
346.000000	0.052678
347.000000	0.062579
348.000000	0.041511
349.000000	0.026172
350.000000	0.023031
351.000000	0.034073
352.000000	0.015720
353.000000	0.060449
354.000000	0.114001
355.000000	0.041000
356.000000	0.013273
357.000000	0.031417
358.000000	0.008354
359.000000	0.010269
360.000000	0.034950
361.000000	0.017513
362.000000	0.016155
363.000000	0.025217
364.000000	0.062294
365.000000	0.079167
366.000000	0.057944
367.000000	0.055390
368.000000	0.065544
369.000000	0.069693
370.000000	0.132835
371.000000	0.140706
372.000000	0.134419
373.000000	0.163946
374.000000	0.174084
375.000000	0.148567
376.000000	0.071683
377.000000	0.060525
378.000000	0.063404
379.000000	0.069566
380.000000	0.064240
381.000000	0.069233
382.000000	0.066889
383.000000	0.063896
384.000000	0.068410
385.000000	0.072238
386.000000	0.076983
387.000000	0.079944
388.000000	0.089167
389.000000	0.092810
390.000000	0.103349
391.000000	0.109777
392.000000	0.116889
393.000000	0.121508
394.000000	0.128554
395.000000	0.132025
396.000000	0.130833
397.000000	0.135218
398.000000	0.147463
399.000000	0.163563
400.000000	0.167878
401.000000	0.176910
402.000000	0.181543
403.000000	0.186584
404.000000	0.195455
405.000000	0.201772
406.000000	0.208138
407.000000	0.217565
408.000000	0.219309
409.000000	0.226725
410.000000	0.237082
411.000000	0.248993
412.000000	0.254863
413.000000	0.254160
414.000000	0.256937
415.000000	0.264802
416.000000	0.272555
417.000000	0.272133
418.000000	0.272632
419.000000	0.279029
420.000000	0.285450
421.000000	0.293926
422.000000	0.296526
423.000000	0.296546
424.000000	0.300359
425.000000	0.303374
426.000000	0.303707
427.000000	0.302183
428.000000	0.305904
429.000000	0.307032
430.000000	0.303457
431.000000	0.300991
432.000000	0.304660
433.000000	0.306105
434.000000	0.310182
435.000000	0.310684
436.000000	0.303802
437.000000	0.303755
438.000000	0.299124
439.000000	0.283562
440.000000	0.278370
441.000000	0.282029
442.000000	0.275080
443.000000	0.262637
444.000000	0.257133
445.000000	0.249088
446.000000	0.233207
447.000000	0.224399
448.000000	0.219635
449.000000	0.212021
450.000000	0.201830
451.000000	0.194883
452.000000	0.189765
453.000000	0.184379
454.000000	0.179179
455.000000	0.173039
456.000000	0.180403
457.000000	0.185597
458.000000	0.192826
459.000000	0.205405
460.000000	0.215455
461.000000	0.226871
462.000000	0.246908
463.000000	0.268554
464.000000	0.288962
465.000000	0.312788
466.000000	0.342504
467.000000	0.371285
468.000000	0.403717
469.000000	0.435515
470.000000	0.466054
471.000000	0.492982
472.000000	0.511868
473.000000	0.529721
474.000000	0.548359
475.000000	0.567568
476.000000	0.583345
477.000000	0.593677
478.000000	0.599449
479.000000	0.603927
480.000000	0.605331
481.000000	0.602767
482.000000	0.596932
483.000000	0.586456
484.000000	0.583540
485.000000	0.578183
486.000000	0.566815
487.000000	0.559524
488.000000	0.554905
489.000000	0.549130
490.000000	0.538037
491.000000	0.529774
492.000000	0.518907
493.000000	0.511132
494.000000	0.503277
495.000000	0.498516
496.000000	0.493893
497.000000	0.499884
498.000000	0.505802
499.000000	0.516545
500.000000	0.532332
501.000000	0.549020
502.000000	0.566759
503.000000	0.577781
504.000000	0.597650
505.000000	0.619701
506.000000	0.642251
507.000000	0.662670
508.000000	0.682866
509.000000	0.696486
510.000000	0.708609
511.000000	0.715833
512.000000	0.718894
513.000000	0.723686
514.000000	0.729618
515.000000	0.733920
516.000000	0.736834
517.000000	0.754248
518.000000	0.771601
519.000000	0.788008
520.000000	0.786900
521.000000	0.800622
522.000000	0.820731
523.000000	0.841151
524.000000	0.856298
525.000000	0.862346
526.000000	0.876261
527.000000	0.893752
528.000000	0.902745
529.000000	0.916106
530.000000	0.933226
531.000000	0.956416
532.000000	0.968820
533.000000	0.987376
534.000000	1.006810
535.000000	1.032498
536.000000	1.065119
537.000000	1.086017
538.000000	1.120441
539.000000	1.148160
540.000000	1.164211
541.000000	1.199030
542.000000	1.212372
543.000000	1.237093
544.000000	1.250666
545.000000	1.267002
546.000000	1.290164
547.000000	1.299885
548.000000	1.311440
549.000000	1.335439
550.000000	1.343933
551.000000	1.353545
552.000000	1.374563
553.000000	1.377019
554.000000	1.386478
555.000000	1.410943
556.000000	1.425960
557.000000	1.438329
558.000000	1.444396
559.000000	1.451723
560.000000	1.399077
561.000000	1.392581
562.000000	1.385965
563.000000	1.389150
564.000000	1.402030
565.000000	1.403825
566.000000	1.396953
567.000000	1.407489
568.000000	1.422113
569.000000	1.430588
570.000000	1.442208
571.000000	1.456695
572.000000	1.461205
573.000000	1.482831
574.000000	1.480739
575.000000	1.503135
576.000000	1.491923
577.000000	1.501031
578.000000	1.506684
579.000000	1.498129
580.000000	1.486900
581.000000	1.492025
582.000000	1.464580
583.000000	1.454210
584.000000	1.441144
585.000000	1.431700
586.000000	1.430203
587.000000	1.408750
588.000000	1.402188
589.000000	1.398006
590.000000	1.412314
591.000000	1.445263
592.000000	1.453738
593.000000	1.484323
594.000000	1.498643
595.000000	1.518374
596.000000	1.510308
597.000000	1.518761
598.000000	1.499142
599.000000	1.477718
600.000000	1.450641
601.000000	1.416086
602.000000	1.375664
603.000000	1.343734
604.000000	1.325377
605.000000	1.294827
606.000000	1.287005
607.000000	1.267822
608.000000	1.269439
609.000000	1.289390
610.000000	1.298928
611.000000	1.305747
612.000000	1.342518
613.000000	1.367137
614.000000	1.403755
615.000000	1.402368
616.000000	1.417080
617.000000	1.427883
618.000000	1.404497
619.000000	1.410298
620.000000	1.387306
621.000000	1.350102
622.000000	1.325261
623.000000	1.281196
624.000000	1.233748
625.000000	1.201111
626.000000	1.145327
627.000000	1.112537
628.000000	1.070626
629.000000	1.047612
630.000000	1.022493
631.000000	1.017368
632.000000	1.026377
633.000000	1.040784
634.000000	1.060813
635.000000	1.088589
636.000000	1.117147
637.000000	1.129300
638.000000	1.144007
639.000000	1.142632
640.000000	1.137077
641.000000	1.126430
642.000000	1.116368
643.000000	1.101062
644.000000	1.069933
645.000000	1.058906
646.000000	1.061456
647.000000	1.068077
648.000000	1.064647
649.000000	1.077474
650.000000	1.094738
651.000000	1.131922
652.000000	1.167638
653.000000	1.203460
654.000000	1.246414
655.000000	1.287816
656.000000	1.323401
657.000000	1.359688
658.000000	1.373479
659.000000	1.400721
660.000000	1.401999
661.000000	1.402462
662.000000	1.383990
663.000000	1.357655
664.000000	1.339000
665.000000	1.304888
666.000000	1.280823
667.000000	1.267310
668.000000	1.247558
669.000000	1.228045
670.000000	1.214315
671.000000	1.210752
672.000000	1.222455
673.000000	1.252835
674.000000	1.269632
675.000000	1.295461
676.000000	1.311213
677.000000	1.346436
678.000000	1.393893
679.000000	1.405333
680.000000	1.437990
681.000000	1.455770
682.000000	1.471343
683.000000	1.463227
684.000000	1.471016
685.000000	1.468171
686.000000	1.469512
687.000000	1.445428
688.000000	1.422162
689.000000	1.411689
690.000000	1.429680
691.000000	1.442980
692.000000	1.430892
693.000000	1.429667
694.000000	1.427998
695.000000	1.430060
696.000000	1.435196
697.000000	1.446299
698.000000	1.458034
699.000000	1.468339
700.000000	1.493431
701.000000	1.500107
702.000000	1.488126
703.000000	1.496843
704.000000	1.509244
705.000000	1.515718
706.000000	1.517449
707.000000	1.505489
708.000000	1.508154
709.000000	1.523476
710.000000	1.534636
711.000000	1.542698
712.000000	1.550317
713.000000	1.562120
714.000000	1.570523
715.000000	1.593326
716.000000	1.637112
717.000000	1.680646
718.000000	1.715737
719.000000	1.752802
720.000000	1.806005
721.000000	1.864910
722.000000	1.893081
723.000000	1.916152
724.000000	1.944166
725.000000	1.947641
726.000000	1.948282
727.000000	1.937871
728.000000	1.959876
729.000000	1.964770
730.000000	1.949028
731.000000	1.932180
732.000000	1.914619
733.000000	1.908777
734.000000	1.900830
735.000000	1.876323
736.000000	1.870576
737.000000	1.869200
738.000000	1.854343
739.000000	1.847657
740.000000	1.846623
741.000000	1.853553
742.000000	1.851117
743.000000	1.812757
744.000000	1.793929
745.000000	1.812174
746.000000	1.806994
747.000000	1.784789
748.000000	1.789160
749.000000	1.786552
750.000000	1.760408
751.000000	1.722664
752.000000	1.706058
753.000000	1.709240
754.000000	1.696682
755.000000	1.697677
756.000000	1.688241
757.000000	1.691248
758.000000	1.702825
759.000000	1.716117
760.000000	1.719488
761.000000	1.711909
762.000000	1.705465
763.000000	1.692940
764.000000	1.722199
765.000000	1.733762
766.000000	1.721936
767.000000	1.722297
768.000000	1.716410
769.000000	1.702133
770.000000	1.701100
771.000000	1.724668
772.000000	1.715583
773.000000	1.688101
774.000000	1.657389
775.000000	1.651132
776.000000	1.657252
777.000000	1.631802
778.000000	1.635864
779.000000	1.628393
780.000000	1.613815
781.000000	1.622849
782.000000	1.639263
783.000000	1.610664
784.000000	1.588074
785.000000	1.612263
786.000000	1.626267
787.000000	1.583700
788.000000	1.609354
789.000000	1.622868
790.000000	1.599825
791.000000	1.568628
792.000000	1.547099
793.000000	1.528875
794.000000	1.535773
795.000000	1.559418
796.000000	1.562148
797.000000	1.560654
798.000000	1.559948
799.000000	1.522049
800.000000	1.521492
801.000000	1.513328
802.000000	1.484701
803.000000	1.499198
804.000000	1.484232
805.000000	1.513795
806.000000	1.522144
807.000000	1.491730
808.000000	1.515937
809.000000	1.452596
810.000000	1.436876
811.000000	1.460275
812.000000	1.479785
813.000000	1.455130
814.000000	1.444030
815.000000	1.470034
816.000000	1.472393
817.000000	1.441561
818.000000	1.386397
819.000000	1.362811
820.000000	1.397332
821.000000	1.425091
822.000000	1.425662
823.000000	1.466132
824.000000	1.467296
825.000000	1.413423
826.000000	1.414040
827.000000	1.400183
828.000000	1.376206
829.000000	1.351977
830.000000	1.378501
831.000000	1.367416
832.000000	1.288563
833.000000	1.285485
834.000000	1.285640
835.000000	1.344394
836.000000	1.410464
837.000000	1.361441
838.000000	1.286650
839.000000	1.328524
840.000000	1.336256
841.000000	1.354015
842.000000	1.306477
843.000000	1.256616
844.000000	1.162243
845.000000	1.165231
846.000000	1.290321
847.000000	1.338151
848.000000	1.260773
849.000000	1.198959
850.000000	1.309686
851.000000	1.226657
852.000000	1.252774
853.000000	1.278606
854.000000	1.362647
855.000000	1.303442
856.000000	1.361791
857.000000	0.997656
858.000000	0.516627
859.000000	1.010760
860.000000	0.994340
861.000000	0.991441
862.000000	1.005750
863.000000	0.996563
864.000000	1.024165
865.000000	1.020984
866.000000	1.018087
867.000000	1.020681
868.000000	1.033011
869.000000	1.052072
870.000000	1.044622
871.000000	1.074903
872.000000	1.084486
873.000000	1.093598
874.000000	1.100666
875.000000	1.117006
876.000000	1.130521
877.000000	1.142263
878.000000	1.159899
879.000000	1.173048
880.000000	1.183513
881.000000	1.202007
882.000000	1.201278
883.000000	1.212066
884.000000	1.239539
885.000000	1.242225
886.000000	1.270771
887.000000	1.272898
888.000000	1.275153
889.000000	1.303983
890.000000	1.300802
891.000000	1.305483
892.000000	1.314907
893.000000	1.331046
894.000000	1.335219
895.000000	1.363387
896.000000	1.373529
897.000000	1.396746
898.000000	1.402454
899.000000	1.395020
900.000000	1.390236
901.000000	1.388741
902.000000	1.384075
903.000000	1.393078
904.000000	1.382523
905.000000	1.379206
906.000000	1.398111
907.000000	1.393211
908.000000	1.364123
909.000000	1.355650
910.000000	1.371313
911.000000	1.381538
912.000000	1.352942
913.000000	1.350210
914.000000	1.364130
915.000000	1.352507
916.000000	1.357089
917.000000	1.344285
918.000000	1.322835
919.000000	1.314957
920.000000	1.298907
921.000000	1.288256
922.000000	1.296502
923.000000	1.299720
924.000000	1.276751
925.000000	1.259996
926.000000	1.255732
927.000000	1.242192
928.000000	1.221651
929.000000	1.222710
930.000000	1.213545
931.000000	1.196542
932.000000	1.191880
933.000000	1.178131
934.000000	1.181541
935.000000	1.163737
936.000000	1.162500
937.000000	1.154076
938.000000	1.139591
939.000000	1.157774
940.000000	1.137476
941.000000	1.130904
942.000000	1.133620
943.000000	1.128576
944.000000	1.133653
945.000000	1.124237
946.000000	1.107712
947.000000	1.107643
948.000000	1.100188
949.000000	1.090393
950.000000	1.079793
951.000000	1.090303
952.000000	1.080039
953.000000	1.059905
954.000000	1.058509
955.000000	1.059021
956.000000	1.065259
957.000000	1.057633
958.000000	1.054717
959.000000	1.040421
960.000000	1.043193
961.000000	1.040194
962.000000	1.040560
963.000000	1.034369
964.000000	1.026009
965.000000	1.026758
966.000000	1.026879
967.000000	1.026169
968.000000	1.028839
969.000000	1.013821
970.000000	1.013921
971.000000	1.031463
972.000000	1.031704
973.000000	1.014585
974.000000	0.997922
975.000000	1.007701
976.000000	0.997285
977.000000	0.992890
978.000000	0.985309
979.000000	0.981213
980.000000	0.977063
981.000000	0.975615
982.000000	0.977750
983.000000	0.965237
984.000000	0.972932
985.000000	0.967483
986.000000	0.968808
987.000000	0.968004
988.000000	0.966419
989.000000	0.967581
990.000000	0.969781
991.000000	0.963422
992.000000	0.966884
993.000000	0.971701
994.000000	0.963654
995.000000	0.956850
996.000000	0.949226
997.000000	0.949011
998.000000	0.952190
999.000000	0.951088
1000.000000	0.961037
1001.000000	0.969768
1002.000000	0.965508
1003.000000	0.951703
1004.000000	0.949794
1005.000000	0.941320
1006.000000	0.944585
1007.000000	0.955930
1008.000000	0.959714
1009.000000	0.961938
1010.000000	0.951729
1011.000000	0.935699
1012.000000	0.929841
1013.000000	0.940663
1014.000000	0.944608
1015.000000	0.938204
1016.000000	0.937844
1017.000000	0.952261
1018.000000	0.952431
1019.000000	0.943451
1020.000000	0.942686
1021.000000	0.940114
1022.000000	0.942165
1023.000000	0.943859
1024.000000	0.943866
1025.000000	0.944879
1026.000000	0.945748
1027.000000	0.931740
1028.000000	0.923335
1029.000000	0.940243
1030.000000	0.941229
1031.000000	0.934045
1032.000000	0.935578
1033.000000	0.940700
1034.000000	0.937916
1035.000000	0.935030
1036.000000	0.930893
1037.000000	0.922822
1038.000000	0.923715
1039.000000	0.924522
1040.000000	0.935574
1041.000000	0.937997
1042.000000	0.931386
1043.000000	0.921200
1044.000000	0.914687
1045.000000	0.923962
1046.000000	0.925957
1047.000000	0.933914
1048.000000	0.938745
1049.000000	0.934209
1050.000000	0.928853
1051.000000	0.920159
1052.000000	0.921521
1053.000000	0.914654
1054.000000	0.908133
1055.000000	0.897006
1056.000000	0.898640
1057.000000	0.900676
1058.000000	0.894052
1059.000000	0.905015
1060.000000	0.916066
1061.000000	0.920035
1062.000000	0.913042
1063.000000	0.905116
1064.000000	0.922631
1065.000000	0.928565
1066.000000	0.929321
1067.000000	0.935781
1068.000000	0.941442
1069.000000	0.934942
1070.000000	0.932877
1071.000000	0.930109
1072.000000	0.913958
1073.000000	0.905067
1074.000000	0.909396
1075.000000	0.909482
1076.000000	0.901094
1077.000000	0.909894
1078.000000	0.925289
1079.000000	0.924415
1080.000000	0.924894
1081.000000	0.920805
1082.000000	0.923036
1083.000000	0.903379
1084.000000	0.907376
1085.000000	0.917937
1086.000000	0.905262
1087.000000	0.911128
1088.000000	0.904510
1089.000000	0.906203
1090.000000	0.902525
1091.000000	0.913901
1092.000000	0.915763
1093.000000	0.904419
1094.000000	0.893881
1095.000000	0.891351
1096.000000	0.890865
1097.000000	0.887279
1098.000000	0.900238
1099.000000	0.904095
1100.000000	0.871757
1101.000000	0.856867
1102.000000	0.879533
1103.000000	0.879211
1104.000000	0.885180
1105.000000	0.872357
1106.000000	0.870272
1107.000000	0.896025
1108.000000	0.889985
1109.000000	0.874920
1110.000000	0.880958
1111.000000	0.871371
1112.000000	0.860908
1113.000000	0.868612
1114.000000	0.870234
1115.000000	0.865112
1116.000000	0.873442
1117.000000	0.859963
1118.000000	0.870367
1119.000000	0.872242
1120.000000	0.893241
1121.000000	0.890790
1122.000000	0.898950
1123.000000	0.898411
1124.000000	0.888027
1125.000000	0.873906
1126.000000	0.874643
1127.000000	0.870775
1128.000000	0.863228
1129.000000	0.871897
1130.000000	0.863235
1131.000000	0.876487
1132.000000	0.866832
1133.000000	0.875107
1134.000000	0.878520
1135.000000	0.873217
1136.000000	0.847534
1137.000000	0.831520
1138.000000	0.844919
1139.000000	0.841179
1140.000000	0.837447
1141.000000	0.843910
1142.000000	0.837313
1143.000000	0.828649
1144.000000	0.831900
1145.000000	0.818684
1146.000000	0.809109
1147.000000	0.819436
1148.000000	0.822476
1149.000000	0.813408
1150.000000	0.813258
1151.000000	0.801971
1152.000000	0.806931
1153.000000	0.784905
1154.000000	0.798554
1155.000000	0.787981
1156.000000	0.807700
1157.000000	0.801356
1158.000000	0.806168
1159.000000	0.808032
1160.000000	0.795678
1161.000000	0.792142
1162.000000	0.756020
1163.000000	0.767862
1164.000000	0.748900
1165.000000	0.758204
1166.000000	0.736477
1167.000000	0.745778
1168.000000	0.745375
1169.000000	0.735278
1170.000000	0.743707
1171.000000	0.758161
1172.000000	0.749963
1173.000000	0.736493
1174.000000	0.735655
1175.000000	0.746260
1176.000000	0.730312
1177.000000	0.734155
1178.000000	0.762909
1179.000000	0.746697
1180.000000	0.743472
1181.000000	0.737488
1182.000000	0.739531
1183.000000	0.747063
1184.000000	0.736162
1185.000000	0.750606
1186.000000	0.738767
1187.000000	0.739294
1188.000000	0.742890
1189.000000	0.736371
1190.000000	0.754686
1191.000000	0.762833
1192.000000	0.764895
1193.000000	0.755490
1194.000000	0.752032
1195.000000	0.764650
1196.000000	0.756678
1197.000000	0.757715
1198.000000	0.751745
1199.000000	0.766103
1200.000000	0.763903
1201.000000	0.761894
1202.000000	0.763838
1203.000000	0.753044
1204.000000	0.758969
1205.000000	0.742670
1206.000000	0.769262
1207.000000	0.773382
1208.000000	0.760086
1209.000000	0.752427
1210.000000	0.755081
1211.000000	0.767633
1212.000000	0.756509
1213.000000	0.765201
1214.000000	0.760575
1215.000000	0.749484
1216.000000	0.748685
1217.000000	0.755829
1218.000000	0.747962
1219.000000	0.753456
1220.000000	0.764612
1221.000000	0.769225
1222.000000	0.753467
1223.000000	0.748784
1224.000000	0.760586
1225.000000	0.755837
1226.000000	0.750980
1227.000000	0.753857
1228.000000	0.748934
1229.000000	0.753265
1230.000000	0.762452
1231.000000	0.754034
1232.000000	0.755686
1233.000000	0.760976
1234.000000	0.746315
1235.000000	0.759560
1236.000000	0.768788
1237.000000	0.780604
1238.000000	0.783251
1239.000000	0.774233
1240.000000	0.752763
1241.000000	0.764587
1242.000000	0.766511
1243.000000	0.764612
1244.000000	0.766679
1245.000000	0.767489
1246.000000	0.774940
1247.000000	0.773592
1248.000000	0.767072
1249.000000	0.770443
1250.000000	0.783414
1251.000000	0.779672
1252.000000	0.786148
1253.000000	0.784709
1254.000000	0.777302
1255.000000	0.791106
1256.000000	0.786002
1257.000000	0.778628
1258.000000	0.779270
1259.000000	0.785282
1260.000000	0.794868
1261.000000	0.795656
1262.000000	0.791256
1263.000000	0.783935
1264.000000	0.776278
1265.000000	0.772402
1266.000000	0.778930
1267.000000	0.772822
1268.000000	0.772551
1269.000000	0.766900
1270.000000	0.760651
1271.000000	0.761796
1272.000000	0.757991
1273.000000	0.759400
1274.000000	0.764038
1275.000000	0.759228
1276.000000	0.758650
1277.000000	0.761414
1278.000000	0.763210
1279.000000	0.758666
1280.000000	0.754006
1281.000000	0.757934
1282.000000	0.755506
1283.000000	0.754160
1284.000000	0.746031
1285.000000	0.744458
1286.000000	0.750386
1287.000000	0.746955
1288.000000	0.755697
1289.000000	0.764775
1290.000000	0.765817
1291.000000	0.762311
1292.000000	0.761183
1293.000000	0.760945
1294.000000	0.762633
1295.000000	0.766631
1296.000000	0.763999
1297.000000	0.758899
1298.000000	0.753640
1299.000000	0.750444
1300.000000	0.751043
1301.000000	0.746251
1302.000000	0.756601
1303.000000	0.765088
1304.000000	0.770933
1305.000000	0.774653
1306.000000	0.765603
1307.000000	0.766144
1308.000000	0.779804
1309.000000	0.776686
1310.000000	0.771928
1311.000000	0.773627
1312.000000	0.769906
1313.000000	0.765316
1314.000000	0.767515
1315.000000	0.775831
1316.000000	0.771488
1317.000000	0.764781
1318.000000	0.771162
1319.000000	0.766696
1320.000000	0.762067
1321.000000	0.758031
1322.000000	0.750172
1323.000000	0.748929
1324.000000	0.748503
1325.000000	0.750297
1326.000000	0.749408
1327.000000	0.754323
1328.000000	0.763250
1329.000000	0.749707
1330.000000	0.743495
1331.000000	0.742665
1332.000000	0.745830
1333.000000	0.739569
1334.000000	0.740646
1335.000000	0.728892
1336.000000	0.713183
1337.000000	0.713344
1338.000000	0.715950
1339.000000	0.716053
1340.000000	0.711429
1341.000000	0.692734
1342.000000	0.692613
1343.000000	0.694601
1344.000000	0.702153
1345.000000	0.680072
1346.000000	0.675709
1347.000000	0.664024
1348.000000	0.659881
1349.000000	0.661913
1350.000000	0.651752
1351.000000	0.651438
1352.000000	0.643715
1353.000000	0.623758
1354.000000	0.624396
1355.000000	0.612924
1356.000000	0.616816
1357.000000	0.617004
1358.000000	0.606449
1359.000000	0.613360
1360.000000	0.625371
1361.000000	0.621895
1362.000000	0.599142
1363.000000	0.593263
1364.000000	0.616867
1365.000000	0.612334
1366.000000	0.601691
1367.000000	0.604984
1368.000000	0.603366
1369.000000	0.598593
1370.000000	0.571484
1371.000000	0.569224
1372.000000	0.577612
1373.000000	0.573019
1374.000000	0.546805
1375.000000	0.543798
1376.000000	0.539640
1377.000000	0.543083
1378.000000	0.534007
1379.000000	0.526430
1380.000000	0.546626
1381.000000	0.543557
1382.000000	0.519239
1383.000000	0.520471
1384.000000	0.528107
1385.000000	0.518331
1386.000000	0.517274
1387.000000	0.517607
1388.000000	0.517061
1389.000000	0.511333
1390.000000	0.496518
1391.000000	0.500255
1392.000000	0.505365
1393.000000	0.498195
1394.000000	0.497553
1395.000000	0.502628
1396.000000	0.496040
1397.000000	0.502513
1398.000000	0.490677
1399.000000	0.497795
1400.000000	0.499396
1401.000000	0.484538
1402.000000	0.460168
1403.000000	0.474425
1404.000000	0.461932
1405.000000	0.458061
1406.000000	0.449769
1407.000000	0.443734
1408.000000	0.430437
1409.000000	0.445284
1410.000000	0.439901
1411.000000	0.418321
1412.000000	0.418059
1413.000000	0.406957
1414.000000	0.407196
1415.000000	0.404052
1416.000000	0.390925
1417.000000	0.393428
1418.000000	0.396374
1419.000000	0.396817
1420.000000	0.385288
1421.000000	0.372689
1422.000000	0.355154
1423.000000	0.370669
1424.000000	0.369308
1425.000000	0.361346
1426.000000	0.346667
1427.000000	0.354992
1428.000000	0.342224
1429.000000	0.341182
1430.000000	0.340375
1431.000000	0.329369
1432.000000	0.329257
1433.000000	0.308669
1434.000000	0.312916
1435.000000	0.322447
1436.000000	0.314686
1437.000000	0.316754
1438.000000	0.326484
1439.000000	0.310978
1440.000000	0.307698
1441.000000	0.306961
1442.000000	0.317414
1443.000000	0.300577
1444.000000	0.306608
1445.000000	0.297571
1446.000000	0.310777
1447.000000	0.312024
1448.000000	0.312658
1449.000000	0.325147
1450.000000	0.304459
1451.000000	0.301800
1452.000000	0.305257
1453.000000	0.310343
1454.000000	0.308340
1455.000000	0.322155
1456.000000	0.316312
1457.000000	0.316034
1458.000000	0.315796
1459.000000	0.310840
1460.000000	0.310931
1461.000000	0.316700
1462.000000	0.335923
1463.000000	0.320645
1464.000000	0.316350
1465.000000	0.312443
1466.000000	0.320004
1467.000000	0.322486
1468.000000	0.325136
1469.000000	0.320683
1470.000000	0.311822
1471.000000	0.330356
1472.000000	0.346599
1473.000000	0.332255
1474.000000	0.340568
1475.000000	0.327870
1476.000000	0.344710
1477.000000	0.336217
1478.000000	0.344226
1479.000000	0.343126
1480.000000	0.342950
1481.000000	0.346987
1482.000000	0.353021
1483.000000	0.350705
1484.000000	0.357929
1485.000000	0.347695
1486.000000	0.347403
1487.000000	0.359749
1488.000000	0.346773
1489.000000	0.352887
1490.000000	0.352970
1491.000000	0.358463
1492.000000	0.355909
1493.000000	0.366173
1494.000000	0.370762
1495.000000	0.360419
1496.000000	0.361186
1497.000000	0.351555
1498.000000	0.354194
1499.000000	0.350675
1500.000000	0.350536
1501.000000	0.361001
1502.000000	0.349378
1503.000000	0.344918
1504.000000	0.337759
1505.000000	0.340591
1506.000000	0.338968
1507.000000	0.342232
1508.000000	0.335896
1509.000000	0.335367
1510.000000	0.332808
1511.000000	0.341275
1512.000000	0.343784
1513.000000	0.349098
1514.000000	0.346531
1515.000000	0.320856
1516.000000	0.322155
1517.000000	0.321312
1518.000000	0.330469
1519.000000	0.339175
1520.000000	0.332171
1521.000000	0.328454
1522.000000	0.333157
1523.000000	0.341698
1524.000000	0.329270
1525.000000	0.322466
1526.000000	0.329701
1527.000000	0.336972
1528.000000	0.325692
1529.000000	0.313717
1530.000000	0.314885
1531.000000	0.318153
1532.000000	0.314882
1533.000000	0.322090
1534.000000	0.319035
1535.000000	0.324824
1536.000000	0.320871
1537.000000	0.308340
1538.000000	0.307914
1539.000000	0.313625
1540.000000	0.312930
1541.000000	0.315114
1542.000000	0.317528
1543.000000	0.318194
1544.000000	0.316059
1545.000000	0.302166
1546.000000	0.296848
1547.000000	0.316953
1548.000000	0.326994
1549.000000	0.320697
1550.000000	0.317246
1551.000000	0.315910
1552.000000	0.321477
1553.000000	0.321521
1554.000000	0.326464
1555.000000	0.336056
1556.000000	0.324855
1557.000000	0.321369
1558.000000	0.326315
1559.000000	0.326603
1560.000000	0.332663
1561.000000	0.337959
1562.000000	0.335134
1563.000000	0.332496
1564.000000	0.325798
1565.000000	0.324664
1566.000000	0.329058
1567.000000	0.328888
1568.000000	0.344049
1569.000000	0.347594
1570.000000	0.337417
1571.000000	0.342861
1572.000000	0.346974
1573.000000	0.349633
1574.000000	0.346171
1575.000000	0.344502
1576.000000	0.353385
1577.000000	0.357811
1578.000000	0.352584
1579.000000	0.349456
1580.000000	0.346840
1581.000000	0.350941
1582.000000	0.356348
1583.000000	0.354125
1584.000000	0.351173
1585.000000	0.354596
1586.000000	0.352170
1587.000000	0.358887
1588.000000	0.359388
1589.000000	0.355013
1590.000000	0.353356
1591.000000	0.354082
1592.000000	0.358262
1593.000000	0.363452
1594.000000	0.357352
1595.000000	0.351791
1596.000000	0.343246
1597.000000	0.343988
1598.000000	0.343740
1599.000000	0.345879
1600.000000	0.351854
1601.000000	0.368356
1602.000000	0.366919
1603.000000	0.360576
1604.000000	0.358962
1605.000000	0.363614
1606.000000	0.361141
1607.000000	0.348610
1608.000000	0.351171
1609.000000	0.359150
1610.000000	0.356382
1611.000000	0.350657
1612.000000	0.358023
1613.000000	0.351166
1614.000000	0.342915
1615.000000	0.343587
1616.000000	0.346212
1617.000000	0.338323
1618.000000	0.331200
1619.000000	0.341089
1620.000000	0.334015
1621.000000	0.325815
1622.000000	0.329824
1623.000000	0.332751
1624.000000	0.334836
1625.000000	0.329872
1626.000000	0.324238
1627.000000	0.329295
1628.000000	0.329568
1629.000000	0.326652
1630.000000	0.311340
1631.000000	0.320825
1632.000000	0.321549
1633.000000	0.314198
1634.000000	0.318579
1635.000000	0.310046
1636.000000	0.307428
1637.000000	0.310945
1638.000000	0.311525
1639.000000	0.314907
1640.000000	0.320708
1641.000000	0.316211
1642.000000	0.310263
1643.000000	0.320545
1644.000000	0.309331
1645.000000	0.302189
1646.000000	0.305423
1647.000000	0.320066
1648.000000	0.317430
1649.000000	0.309049
1650.000000	0.297569
1651.000000	0.321485
1652.000000	0.313090
1653.000000	0.304457
1654.000000	0.305411
1655.000000	0.306422
1656.000000	0.309570
1657.000000	0.311060
1658.000000	0.295477
1659.000000	0.294382
1660.000000	0.295001
1661.000000	0.301893
1662.000000	0.295287
1663.000000	0.295017
1664.000000	0.292537
1665.000000	0.318959
1666.000000	0.310153
1667.000000	0.310724
1668.000000	0.294930
1669.000000	0.298381
1670.000000	0.284575
1671.000000	0.285425
1672.000000	0.303671
1673.000000	0.302766
1674.000000	0.298806
1675.000000	0.294631
1676.000000	0.290511
1677.000000	0.305205
1678.000000	0.301608
1679.000000	0.294688
1680.000000	0.293329
1681.000000	0.305202
1682.000000	0.307448
1683.000000	0.295583
1684.000000	0.302860
1685.000000	0.297212
1686.000000	0.295711
1687.000000	0.299411
1688.000000	0.332366
1689.000000	0.323902
1690.000000	0.314832
1691.000000	0.322542
1692.000000	0.326845
1693.000000	0.329599
1694.000000	0.320779
1695.000000	0.323903
1696.000000	0.322810
1697.000000	0.309735
1698.000000	0.330118
1699.000000	0.334993
1700.000000	0.339124
1701.000000	0.337389
1702.000000	0.351057
1703.000000	0.340525
1704.000000	0.347790
1705.000000	0.353437
1706.000000	0.335937
1707.000000	0.331388
1708.000000	0.334935
1709.000000	0.327521
1710.000000	0.322139
1711.000000	0.319618
1712.000000	0.321727
1713.000000	0.313574
1714.000000	0.315059
1715.000000	0.325949
1716.000000	0.307661
1717.000000	0.298401
1718.000000	0.292092
1719.000000	0.307135
1720.000000	0.309083
1721.000000	0.303437
1722.000000	0.301836
1723.000000	0.290344
1724.000000	0.285020
1725.000000	0.296344
1726.000000	0.307170
1727.000000	0.299776
1728.000000	0.298961
1729.000000	0.291398
1730.000000	0.298866
1731.000000	0.299082
1732.000000	0.312756
1733.000000	0.305824
1734.000000	0.298854
1735.000000	0.308121
1736.000000	0.305959
1737.000000	0.294383
1738.000000	0.286173
1739.000000	0.290180
1740.000000	0.282246
1741.000000	0.277649
1742.000000	0.282885
1743.000000	0.289476
1744.000000	0.283134
1745.000000	0.283313
1746.000000	0.289212
1747.000000	0.278187
1748.000000	0.266161
1749.000000	0.267340
1750.000000	0.259026
1751.000000	0.262389
1752.000000	0.270622
1753.000000	0.270262
1754.000000	0.277981
1755.000000	0.273147
1756.000000	0.259132
1757.000000	0.261604
1758.000000	0.255515
1759.000000	0.246214
1760.000000	0.258263
1761.000000	0.249429
1762.000000	0.260200
1763.000000	0.255907
1764.000000	0.242197
1765.000000	0.242715
1766.000000	0.251196
1767.000000	0.259766
1768.000000	0.253034
1769.000000	0.264625
1770.000000	0.245930
1771.000000	0.248949
1772.000000	0.251135
1773.000000	0.251174
1774.000000	0.254447
1775.000000	0.252500
1776.000000	0.252498
1777.000000	0.260178
1778.000000	0.251823
1779.000000	0.259875
1780.000000	0.254217
1781.000000	0.241969
1782.000000	0.242825
1783.000000	0.248507
1784.000000	0.244754
1785.000000	0.252851
1786.000000	0.251801
1787.000000	0.247438
1788.000000	0.256362
1789.000000	0.257866
1790.000000	0.247378
1791.000000	0.247978
1792.000000	0.265635
1793.000000	0.268892
1794.000000	0.265891
1795.000000	0.261581
1796.000000	0.276235
1797.000000	0.273295
1798.000000	0.262571
1799.000000	0.255049
1800.000000	0.254850
1801.000000	0.264997
1802.000000	0.268763
1803.000000	0.267655
1804.000000	0.272685
1805.000000	0.280858
1806.000000	0.281694
1807.000000	0.276660
1808.000000	0.274059
1809.000000	0.274756
1810.000000	0.277804
1811.000000	0.292183
1812.000000	0.288081
1813.000000	0.279563
1814.000000	0.268990
1815.000000	0.270418
1816.000000	0.276810
1817.000000	0.283039
1818.000000	0.272108
1819.000000	0.272566
1820.000000	0.292142
1821.000000	0.295218
1822.000000	0.290338
1823.000000	0.283953
1824.000000	0.276649
1825.000000	0.269113
1826.000000	0.273441
1827.000000	0.274399
1828.000000	0.272297
1829.000000	0.291584
1830.000000	0.300857
1831.000000	0.281852
1832.000000	0.270527
1833.000000	0.288009
1834.000000	0.293895
1835.000000	0.289674
1836.000000	0.295177
1837.000000	0.293053
1838.000000	0.291746
1839.000000	0.285486
1840.000000	0.299169
1841.000000	0.309426
1842.000000	0.302415
1843.000000	0.291847
1844.000000	0.274724
1845.000000	0.259097
1846.000000	0.275785
1847.000000	0.302602
1848.000000	0.310856
1849.000000	0.299643
1850.000000	0.270347
1851.000000	0.272988
1852.000000	0.285505
1853.000000	0.286603
1854.000000	0.287671
1855.000000	0.292654
1856.000000	0.285142
1857.000000	0.270524
1858.000000	0.269670
1859.000000	0.282031
1860.000000	0.277277
1861.000000	0.284604
1862.000000	0.286839
1863.000000	0.266511
1864.000000	0.247911
1865.000000	0.241227
1866.000000	0.241890
1867.000000	0.251807
1868.000000	0.239669
1869.000000	0.237451
1870.000000	0.257784
1871.000000	0.244598
1872.000000	0.245636
1873.000000	0.253576
1874.000000	0.252203
1875.000000	0.257777
1876.000000	0.254287
1877.000000	0.235462
1878.000000	0.228700
1879.000000	0.243154
1880.000000	0.233023
1881.000000	0.229251
1882.000000	0.233449
1883.000000	0.239554
1884.000000	0.233119
1885.000000	0.235933
1886.000000	0.228626
1887.000000	0.228956
1888.000000	0.229217
1889.000000	0.230569
1890.000000	0.227044
1891.000000	0.229741
1892.000000	0.241940
1893.000000	0.242969
1894.000000	0.246621
1895.000000	0.247907
1896.000000	0.244209
1897.000000	0.244370
1898.000000	0.257874
1899.000000	0.268076
1900.000000	0.280587
1901.000000	0.277853
1902.000000	0.278314
1903.000000	0.279148
1904.000000	0.288102
1905.000000	0.301316
1906.000000	0.322313
1907.000000	0.314615
1908.000000	0.313838
1909.000000	0.311932
1910.000000	0.305059
1911.000000	0.304962
1912.000000	0.310440
1913.000000	0.323560
1914.000000	0.318789
1915.000000	0.338589
1916.000000	0.333022
1917.000000	0.319144
1918.000000	0.302430
1919.000000	0.304008
1920.000000	0.319021
1921.000000	0.323637
1922.000000	0.331321
1923.000000	0.332148
1924.000000	0.318226
1925.000000	0.325385
1926.000000	0.330393
1927.000000	0.313204
1928.000000	0.319273
1929.000000	0.328478
1930.000000	0.324176
1931.000000	0.304539
1932.000000	0.329262
1933.000000	0.315556
1934.000000	0.319694
1935.000000	0.308743
1936.000000	0.314680
1937.000000	0.309275
1938.000000	0.319856
1939.000000	0.330658
1940.000000	0.318172
1941.000000	0.303476
1942.000000	0.329250
1943.000000	0.330246
1944.000000	0.318674
1945.000000	0.335107
1946.000000	0.316834
1947.000000	0.335171
1948.000000	0.313640
1949.000000	0.319727
1950.000000	0.326152
1951.000000	0.317952
1952.000000	0.324279
1953.000000	0.322031
1954.000000	0.310770
1955.000000	0.315507
1956.000000	0.327690
1957.000000	0.326956
1958.000000	0.328458
1959.000000	0.315887
1960.000000	0.313891
1961.000000	0.332491
1962.000000	0.333235
1963.000000	0.334529
1964.000000	0.323215
1965.000000	0.333255
1966.000000	0.316550
1967.000000	0.314697
1968.000000	0.332983
1969.000000	0.325218
1970.000000	0.332650
1971.000000	0.326386
1972.000000	0.339411
1973.000000	0.331002
1974.000000	0.326235
1975.000000	0.339668
1976.000000	0.340134
1977.000000	0.324027
1978.000000	0.307789
1979.000000	0.331557
1980.000000	0.306002
1981.000000	0.330374
1982.000000	0.329624
1983.000000	0.308287
1984.000000	0.332226
1985.000000	0.322470
1986.000000	0.327916
1987.000000	0.328082
1988.000000	0.326117
1989.000000	0.320908
1990.000000	0.324852
1991.000000	0.316175
1992.000000	0.317864
1993.000000	0.299845
1994.000000	0.312490
1995.000000	0.313555
1996.000000	0.329345
1997.000000	0.322445
1998.000000	0.314367
1999.000000	0.324415
2000.000000	0.308536
2001.000000	0.314604
2002.000000	0.308965
2003.000000	0.310427
2004.000000	0.321202
2005.000000	0.310928
2006.000000	0.300580
2007.000000	0.301566
2008.000000	0.286302
2009.000000	0.296931
2010.000000	0.301357
2011.000000	0.299658
2012.000000	0.298104
2013.000000	0.288687
2014.000000	0.286129
2015.000000	0.297485
2016.000000	0.281670
2017.000000	0.285368
2018.000000	0.294838
2019.000000	0.279765
2020.000000	0.277966
2021.000000	0.282992
2022.000000	0.279955
2023.000000	0.293980
2024.000000	0.284809
2025.000000	0.279860
2026.000000	0.272592
2027.000000	0.285203
2028.000000	0.285993
2029.000000	0.272224
2030.000000	0.279651
2031.000000	0.276623
2032.000000	0.280618
2033.000000	0.294992
2034.000000	0.278378
2035.000000	0.273386
2036.000000	0.273061
2037.000000	0.274955
2038.000000	0.277383
2039.000000	0.281262
2040.000000	0.287592
2041.000000	0.282742
2042.000000	0.275269
2043.000000	0.271978
2044.000000	0.276274
2045.000000	0.276380
2046.000000	0.280227
2047.000000	0.286746
2048.000000	0.271301
2049.000000	0.268808
2050.000000	0.286191
2051.000000	0.285447
2052.000000	0.283379
2053.000000	0.288017
2054.000000	0.284509
2055.000000	0.281866
2056.000000	0.290622
2057.000000	0.293296
2058.000000	0.295408
2059.000000	0.296066
2060.000000	0.292968
2061.000000	0.295541
2062.000000	0.310840
2063.000000	0.315925
2064.000000	0.318250
2065.000000	0.315380
2066.000000	0.310582
2067.000000	0.321470
2068.000000	0.321256
2069.000000	0.330300
2070.000000	0.331776
2071.000000	0.322326
2072.000000	0.325808
2073.000000	0.322965
2074.000000	0.317121
2075.000000	0.313949
2076.000000	0.319644
2077.000000	0.324781
2078.000000	0.316210
2079.000000	0.322080
2080.000000	0.330213
2081.000000	0.329190
2082.000000	0.331784
2083.000000	0.331263
2084.000000	0.330883
2085.000000	0.336304
2086.000000	0.337230
2087.000000	0.336100
2088.000000	0.339463
2089.000000	0.342201
2090.000000	0.336464
2091.000000	0.333646
2092.000000	0.340667
2093.000000	0.341146
2094.000000	0.333735
2095.000000	0.335080
2096.000000	0.331266
2097.000000	0.334779
2098.000000	0.340052
2099.000000	0.330023
2100.000000	0.332120
2101.000000	0.341842
2102.000000	0.332077
2103.000000	0.330598
2104.000000	0.336467
2105.000000	0.334180
2106.000000	0.332944
2107.000000	0.326777
2108.000000	0.328840
2109.000000	0.330484
2110.000000	0.324743
2111.000000	0.334775
2112.000000	0.336567
2113.000000	0.319506
2114.000000	0.318362
2115.000000	0.323008
2116.000000	0.331762
2117.000000	0.337925
2118.000000	0.312972
2119.000000	0.299823
2120.000000	0.305134
2121.000000	0.319201
2122.000000	0.320087
2123.000000	0.310777
2124.000000	0.312325
2125.000000	0.320855
2126.000000	0.318874
2127.000000	0.324636
2128.000000	0.323116
2129.000000	0.312032
2130.000000	0.321642
2131.000000	0.325025
2132.000000	0.317933
2133.000000	0.309233
2134.000000	0.320175
2135.000000	0.320799
2136.000000	0.317952
2137.000000	0.316083
2138.000000	0.307726
2139.000000	0.295538
2140.000000	0.308167
2141.000000	0.306420
2142.000000	0.299919
2143.000000	0.308360
2144.000000	0.299104
2145.000000	0.297725
2146.000000	0.302639
2147.000000	0.301492
2148.000000	0.300910
2149.000000	0.295251
2150.000000	0.292236
2151.000000	0.296157
2152.000000	0.293057
2153.000000	0.288312
2154.000000	0.310430
2155.000000	0.314979
2156.000000	0.308657
2157.000000	0.304739
2158.000000	0.297460
2159.000000	0.295066
2160.000000	0.299678
2161.000000	0.307062
2162.000000	0.306702
2163.000000	0.299695
2164.000000	0.283387
2165.000000	0.290575
2166.000000	0.287624
2167.000000	0.271976
2168.000000	0.287064
2169.000000	0.295672
2170.000000	0.275677
2171.000000	0.285226
2172.000000	0.277634
2173.000000	0.274503
2174.000000	0.270280
2175.000000	0.280028
2176.000000	0.270730
2177.000000	0.273432
2178.000000	0.275185
2179.000000	0.274648
2180.000000	0.273525
2181.000000	0.274134
2182.000000	0.267416
2183.000000	0.256422
2184.000000	0.261293
2185.000000	0.274685
2186.000000	0.269662
2187.000000	0.262892
2188.000000	0.258085
2189.000000	0.260617
2190.000000	0.253118
2191.000000	0.241667
2192.000000	0.232692
2193.000000	0.229107
2194.000000	0.222441
2195.000000	0.241019
2196.000000	0.225291
2197.000000	0.218341
2198.000000	0.200042
2199.000000	0.202701
2200.000000	0.200750
2201.000000	0.203443
2202.000000	0.203269
2203.000000	0.212014
2204.000000	0.207636
2205.000000	0.200196
2206.000000	0.203029
2207.000000	0.194814
2208.000000	0.186881
2209.000000	0.200238
2210.000000	0.195401
2211.000000	0.204742
2212.000000	0.194536
2213.000000	0.213614
2214.000000	0.222459
2215.000000	0.212717
2216.000000	0.221805
2217.000000	0.228988
2218.000000	0.225013
2219.000000	0.232254
2220.000000	0.224117
2221.000000	0.216845
2222.000000	0.226927
2223.000000	0.224749
2224.000000	0.224308
2225.000000	0.222422
2226.000000	0.228362
2227.000000	0.245726
2228.000000	0.239760
2229.000000	0.215329
2230.000000	0.239821
2231.000000	0.244964
2232.000000	0.231759
2233.000000	0.229364
2234.000000	0.239149
2235.000000	0.237771
2236.000000	0.235206
2237.000000	0.241490
2238.000000	0.239532
2239.000000	0.239617
2240.000000	0.243490
2241.000000	0.239466
2242.000000	0.236663
2243.000000	0.250666
2244.000000	0.241048
2245.000000	0.256435
2246.000000	0.239444
2247.000000	0.238398
2248.000000	0.249433
2249.000000	0.238542
2250.000000	0.261529
2251.000000	0.250172
2252.000000	0.257433
2253.000000	0.249748
2254.000000	0.254416
2255.000000	0.269579
2256.000000	0.257876
2257.000000	0.239877
2258.000000	0.259296
2259.000000	0.275119
2260.000000	0.278582
2261.000000	0.258448
2262.000000	0.261868
2263.000000	0.267356
2264.000000	0.270808
2265.000000	0.275340
2266.000000	0.272571
2267.000000	0.268663
2268.000000	0.272788
2269.000000	0.266102
2270.000000	0.277615
2271.000000	0.277075
2272.000000	0.277240
2273.000000	0.266309
2274.000000	0.278923
2275.000000	0.280664
2276.000000	0.283647
2277.000000	0.267119
2278.000000	0.272016
2279.000000	0.275817
2280.000000	0.267589
2281.000000	0.285095
2282.000000	0.283059
2283.000000	0.280263
2284.000000	0.271650
2285.000000	0.288191
2286.000000	0.288521
2287.000000	0.279360
2288.000000	0.289212
2289.000000	0.289043
2290.000000	0.292723
2291.000000	0.292328
2292.000000	0.288570
2293.000000	0.279092
2294.000000	0.280028
2295.000000	0.299420
2296.000000	0.301008
2297.000000	0.288332
2298.000000	0.282603
2299.000000	0.291657
2300.000000	0.292885
2301.000000	0.300848
2302.000000	0.303367
2303.000000	0.303242
2304.000000	0.294495
2305.000000	0.298085
2306.000000	0.303971
2307.000000	0.314559
2308.000000	0.304699
2309.000000	0.318753
2310.000000	0.316007
2311.000000	0.314419
2312.000000	0.310828
2313.000000	0.303698
2314.000000	0.307396
2315.000000	0.327756
2316.000000	0.321499
2317.000000	0.319841
2318.000000	0.322185
2319.000000	0.307762
2320.000000	0.314406
2321.000000	0.317940
2322.000000	0.320731
2323.000000	0.316720
2324.000000	0.306908
2325.000000	0.316292
2326.000000	0.322311
2327.000000	0.318031
2328.000000	0.329734
2329.000000	0.324833
2330.000000	0.308902
2331.000000	0.320391
2332.000000	0.320416
2333.000000	0.311747
2334.000000	0.306274
2335.000000	0.311645
2336.000000	0.312509
2337.000000	0.316365
2338.000000	0.327289
2339.000000	0.319074
2340.000000	0.305413
2341.000000	0.315708
2342.000000	0.315205
2343.000000	0.306899
2344.000000	0.307230
2345.000000	0.306486
2346.000000	0.303256
2347.000000	0.307302
2348.000000	0.310620
2349.000000	0.302135
2350.000000	0.302460
2351.000000	0.305687
2352.000000	0.307192
2353.000000	0.301598
2354.000000	0.294382
2355.000000	0.303499
2356.000000	0.317230
2357.000000	0.313550
2358.000000	0.304445
2359.000000	0.300495
2360.000000	0.310778
2361.000000	0.313995
2362.000000	0.306133
2363.000000	0.293075
2364.000000	0.286674
2365.000000	0.286011
2366.000000	0.285717
2367.000000	0.291708
2368.000000	0.291870
2369.000000	0.287008
2370.000000	0.288767
2371.000000	0.297138
2372.000000	0.291193
2373.000000	0.284864
2374.000000	0.281621
2375.000000	0.279845
2376.000000	0.285676
2377.000000	0.284411
2378.000000	0.286634
2379.000000	0.285579
2380.000000	0.281301
2381.000000	0.279356
2382.000000	0.273690
2383.000000	0.270495
2384.000000	0.276579
2385.000000	0.273687
2386.000000	0.272966
2387.000000	0.275985
2388.000000	0.270993
2389.000000	0.268005
2390.000000	0.267885
2391.000000	0.275436
2392.000000	0.268786
2393.000000	0.264630
2394.000000	0.260613
2395.000000	0.264256
2396.000000	0.272822
2397.000000	0.267052
2398.000000	0.256829
2399.000000	0.264966
2400.000000	0.265725
2401.000000	0.253081
2402.000000	0.257261
2403.000000	0.260708
2404.000000	0.254708
2405.000000	0.255551
2406.000000	0.247174
2407.000000	0.247958
2408.000000	0.262599
2409.000000	0.253724
2410.000000	0.241610
2411.000000	0.246715
2412.000000	0.256990
2413.000000	0.253657
2414.000000	0.247882
2415.000000	0.245188
2416.000000	0.243716
2417.000000	0.241776
2418.000000	0.234989
2419.000000	0.228385
2420.000000	0.235908
2421.000000	0.248636
2422.000000	0.251209
2423.000000	0.238073
2424.000000	0.242540
2425.000000	0.233380
2426.000000	0.239929
2427.000000	0.238612
2428.000000	0.240428
2429.000000	0.242557
2430.000000	0.235386
2431.000000	0.235182
2432.000000	0.238583
2433.000000	0.232308
2434.000000	0.230197
2435.000000	0.228215
2436.000000	0.221299
2437.000000	0.226787
2438.000000	0.231445
2439.000000	0.231658
2440.000000	0.253765
2441.000000	0.224970
2442.000000	0.230485
2443.000000	0.218637
2444.000000	0.214874
2445.000000	0.218694
2446.000000	0.238799
2447.000000	0.212565
2448.000000	0.226499
2449.000000	0.213673
2450.000000	0.212839
2451.000000	0.206331
2452.000000	0.219056
2453.000000	0.216033
2454.000000	0.203432
2455.000000	0.226932
2456.000000	0.212104
2457.000000	0.211068
2458.000000	0.233190
2459.000000	0.215082
2460.000000	0.218173
2461.000000	0.227843
2462.000000	0.210844
2463.000000	0.215576
2464.000000	0.224320
2465.000000	0.192132
2466.000000	0.215692
2467.000000	0.219193
2468.000000	0.196293
2469.000000	0.193215
2470.000000	0.223700
2471.000000	0.199271
2472.000000	0.236947
2473.000000	0.181812
2474.000000	0.158816
2475.000000	0.185455
2476.000000	0.219789
2477.000000	0.188995
2478.000000	0.217429
2479.000000	0.192025
2480.000000	0.201117
2481.000000	0.195671
2482.000000	0.213659
2483.000000	0.211402
2484.000000	0.223946
2485.000000	0.163683
2486.000000	0.243460
2487.000000	0.232894
2488.000000	0.213877
2489.000000	0.189984
2490.000000	0.231716
2491.000000	0.252586
2492.000000	0.220493
2493.000000	0.181022
2494.000000	0.207719
2495.000000	0.226224
2496.000000	0.195893
2497.000000	0.176494
2498.000000	0.222250
2499.000000	0.185575
2500.000000	0.172621
