PE UV       SUBTECH     SPECTRUM    ASCII       PEDS        4.00        
   -1
BIOUCR0009-3.Sample.ASC
24/02/19
14:35:46.00
24/02/19
14:35:46.00
Vinicio Soto Monge
P. chalcotea
250,000000
1
Lambda 1050
1050L1511233
PerkinElmer UV WinLab 6.3.2.0749 / 2.02.05 Lambda 900 UV/VIS/NIR, Aug  7 2015 09:38:08

0
0
3350/servo 860,8/2
0
0
UV/VIS
1
1
1
DoubleDePol,CommonBeamDepol,RBeamAtt,SBeamAtt,60mm sphere, WB InGaAs Detector
0
0
0
0
Program
Program
3350/servo 860,8/2
3350/0,2 860,8/0,2
3350/0,2 860,8/0,2
0
15.00
 
 
 
0
 
860,8
319,2
860,8
Front
100
on
S:100 R:100
0
0
0
0
 
0
 
 
 
0
 
 
0
0
0
0
0
 
 
 
 
0
0


0
0
#HDR
-1
-1
#GR
nm
%R
1.0
0.0
2500,000000
-1,000000
2251
8
20,301000
1,537100
#DATA

250.000000	0.093014
251.000000	0.092384
252.000000	0.088020
253.000000	0.077660
254.000000	0.096310
255.000000	0.093415
256.000000	0.101936
257.000000	0.092461
258.000000	0.116117
259.000000	0.087860
260.000000	0.085626
261.000000	0.089541
262.000000	0.099234
263.000000	0.101204
264.000000	0.095839
265.000000	0.096077
266.000000	0.085513
267.000000	0.096608
268.000000	0.077813
269.000000	0.096849
270.000000	0.096117
271.000000	0.085566
272.000000	0.088792
273.000000	0.103425
274.000000	0.084807
275.000000	0.112892
276.000000	0.102933
277.000000	0.107133
278.000000	0.100259
279.000000	0.100817
280.000000	0.099466
281.000000	0.099296
282.000000	0.095053
283.000000	0.098729
284.000000	0.096540
285.000000	0.090847
286.000000	0.084021
287.000000	0.073219
288.000000	0.090437
289.000000	0.076895
290.000000	0.082737
291.000000	0.097935
292.000000	0.094663
293.000000	0.109093
294.000000	0.093575
295.000000	0.092537
296.000000	0.090023
297.000000	0.097577
298.000000	0.113640
299.000000	0.096200
300.000000	0.087489
301.000000	0.114932
302.000000	0.089857
303.000000	0.104229
304.000000	0.108964
305.000000	0.094452
306.000000	0.093126
307.000000	0.099959
308.000000	0.081937
309.000000	0.106628
310.000000	0.098772
311.000000	0.115847
312.000000	0.103686
313.000000	0.093357
314.000000	0.088964
315.000000	0.093168
316.000000	0.135114
317.000000	0.194790
318.000000	0.113671
319.000000	0.117569
320.000000	0.125218
321.000000	0.122163
322.000000	0.071859
323.000000	0.127665
324.000000	0.125514
325.000000	0.083786
326.000000	0.059264
327.000000	0.095883
328.000000	0.120457
329.000000	0.136252
330.000000	0.128431
331.000000	0.091270
332.000000	0.120956
333.000000	0.077787
334.000000	0.099159
335.000000	0.096495
336.000000	0.124128
337.000000	0.094408
338.000000	0.105542
339.000000	0.120698
340.000000	0.106094
341.000000	0.103038
342.000000	0.071611
343.000000	0.127922
344.000000	0.110590
345.000000	0.122414
346.000000	0.106315
347.000000	0.140681
348.000000	0.143084
349.000000	0.108862
350.000000	0.097346
351.000000	0.096448
352.000000	0.103618
353.000000	0.109764
354.000000	0.111040
355.000000	0.109239
356.000000	0.094226
357.000000	0.083545
358.000000	0.081915
359.000000	0.098888
360.000000	0.103977
361.000000	0.095438
362.000000	0.100857
363.000000	0.091219
364.000000	0.109221
365.000000	0.121448
366.000000	0.087694
367.000000	0.095057
368.000000	0.079817
369.000000	0.085720
370.000000	0.103576
371.000000	0.102713
372.000000	0.114015
373.000000	0.119139
374.000000	0.099939
375.000000	0.098523
376.000000	0.123889
377.000000	0.082922
378.000000	0.085421
379.000000	0.085460
380.000000	0.084251
381.000000	0.087130
382.000000	0.087516
383.000000	0.088057
384.000000	0.086383
385.000000	0.082956
386.000000	0.082503
387.000000	0.086874
388.000000	0.084213
389.000000	0.081904
390.000000	0.085628
391.000000	0.081723
392.000000	0.082123
393.000000	0.081200
394.000000	0.080168
395.000000	0.084169
396.000000	0.083993
397.000000	0.080868
398.000000	0.080284
399.000000	0.083635
400.000000	0.087575
401.000000	0.085645
402.000000	0.083124
403.000000	0.084227
404.000000	0.084649
405.000000	0.084865
406.000000	0.083846
407.000000	0.082253
408.000000	0.080758
409.000000	0.084143
410.000000	0.077638
411.000000	0.077178
412.000000	0.082061
413.000000	0.080341
414.000000	0.078432
415.000000	0.080613
416.000000	0.084172
417.000000	0.083221
418.000000	0.079782
419.000000	0.081071
420.000000	0.081506
421.000000	0.081912
422.000000	0.082022
423.000000	0.075895
424.000000	0.076052
425.000000	0.079958
426.000000	0.084366
427.000000	0.083770
428.000000	0.078970
429.000000	0.079332
430.000000	0.078039
431.000000	0.075199
432.000000	0.075398
433.000000	0.077075
434.000000	0.075123
435.000000	0.073818
436.000000	0.074602
437.000000	0.074695
438.000000	0.076802
439.000000	0.076123
440.000000	0.072239
441.000000	0.070882
442.000000	0.072486
443.000000	0.072761
444.000000	0.069581
445.000000	0.069612
446.000000	0.074186
447.000000	0.072211
448.000000	0.073400
449.000000	0.073216
450.000000	0.069785
451.000000	0.071263
452.000000	0.071361
453.000000	0.069919
454.000000	0.069453
455.000000	0.070360
456.000000	0.070867
457.000000	0.072021
458.000000	0.069654
459.000000	0.068678
460.000000	0.070401
461.000000	0.068963
462.000000	0.071377
463.000000	0.073410
464.000000	0.074731
465.000000	0.077421
466.000000	0.076786
467.000000	0.078636
468.000000	0.081324
469.000000	0.083566
470.000000	0.084007
471.000000	0.086409
472.000000	0.090300
473.000000	0.092067
474.000000	0.093417
475.000000	0.097493
476.000000	0.103489
477.000000	0.111426
478.000000	0.119900
479.000000	0.130303
480.000000	0.143186
481.000000	0.162333
482.000000	0.182072
483.000000	0.205511
484.000000	0.236365
485.000000	0.273441
486.000000	0.308069
487.000000	0.335022
488.000000	0.364047
489.000000	0.390135
490.000000	0.408960
491.000000	0.422504
492.000000	0.427589
493.000000	0.431747
494.000000	0.429741
495.000000	0.422427
496.000000	0.425392
497.000000	0.434309
498.000000	0.443618
499.000000	0.466717
500.000000	0.502625
501.000000	0.554281
502.000000	0.613401
503.000000	0.678869
504.000000	0.752400
505.000000	0.833491
506.000000	0.909808
507.000000	0.977135
508.000000	1.037899
509.000000	1.091742
510.000000	1.134188
511.000000	1.162843
512.000000	1.178847
513.000000	1.185944
514.000000	1.181981
515.000000	1.169106
516.000000	1.146860
517.000000	1.118475
518.000000	1.088707
519.000000	1.062747
520.000000	1.033391
521.000000	0.998525
522.000000	0.966028
523.000000	0.936349
524.000000	0.901517
525.000000	0.871374
526.000000	0.841670
527.000000	0.814144
528.000000	0.783090
529.000000	0.756550
530.000000	0.725897
531.000000	0.694600
532.000000	0.661301
533.000000	0.624667
534.000000	0.578536
535.000000	0.527196
536.000000	0.477814
537.000000	0.412388
538.000000	0.339342
539.000000	0.255192
540.000000	0.161667
541.000000	0.085178
542.000000	0.096173
543.000000	0.198895
544.000000	0.309795
545.000000	0.423515
546.000000	0.525454
547.000000	0.617226
548.000000	0.685480
549.000000	0.733131
550.000000	0.757501
551.000000	0.763650
552.000000	0.740813
553.000000	0.701525
554.000000	0.647395
555.000000	0.576143
556.000000	0.510672
557.000000	0.444095
558.000000	0.382839
559.000000	0.344199
560.000000	0.305972
561.000000	0.291547
562.000000	0.290315
563.000000	0.291662
564.000000	0.311682
565.000000	0.339594
566.000000	0.375380
567.000000	0.413949
568.000000	0.455818
569.000000	0.477913
570.000000	0.491763
571.000000	0.483320
572.000000	0.463334
573.000000	0.423238
574.000000	0.374898
575.000000	0.318386
576.000000	0.270000
577.000000	0.226479
578.000000	0.198214
579.000000	0.181439
580.000000	0.183883
581.000000	0.202196
582.000000	0.238703
583.000000	0.289200
584.000000	0.343250
585.000000	0.397401
586.000000	0.441654
587.000000	0.472798
588.000000	0.489278
589.000000	0.493378
590.000000	0.482741
591.000000	0.455220
592.000000	0.420218
593.000000	0.384071
594.000000	0.339315
595.000000	0.299944
596.000000	0.271228
597.000000	0.236945
598.000000	0.206088
599.000000	0.167259
600.000000	0.121846
601.000000	0.078351
602.000000	0.052494
603.000000	0.088135
604.000000	0.145433
605.000000	0.207698
606.000000	0.269568
607.000000	0.323766
608.000000	0.369422
609.000000	0.397309
610.000000	0.427195
611.000000	0.432198
612.000000	0.429122
613.000000	0.405600
614.000000	0.377610
615.000000	0.343341
616.000000	0.313555
617.000000	0.276692
618.000000	0.248816
619.000000	0.220478
620.000000	0.189094
621.000000	0.163776
622.000000	0.147176
623.000000	0.139622
624.000000	0.139558
625.000000	0.155950
626.000000	0.187942
627.000000	0.219768
628.000000	0.255368
629.000000	0.299601
630.000000	0.328092
631.000000	0.354534
632.000000	0.370294
633.000000	0.377451
634.000000	0.381016
635.000000	0.368498
636.000000	0.352308
637.000000	0.328836
638.000000	0.304217
639.000000	0.275284
640.000000	0.247161
641.000000	0.221418
642.000000	0.199221
643.000000	0.177869
644.000000	0.163226
645.000000	0.149982
646.000000	0.150899
647.000000	0.159294
648.000000	0.168597
649.000000	0.199097
650.000000	0.212364
651.000000	0.241299
652.000000	0.269661
653.000000	0.292694
654.000000	0.311772
655.000000	0.330326
656.000000	0.340325
657.000000	0.347742
658.000000	0.351268
659.000000	0.337537
660.000000	0.327128
661.000000	0.306694
662.000000	0.285587
663.000000	0.266517
664.000000	0.247003
665.000000	0.225060
666.000000	0.205555
667.000000	0.190459
668.000000	0.176901
669.000000	0.170198
670.000000	0.171920
671.000000	0.178606
672.000000	0.185814
673.000000	0.202155
674.000000	0.214299
675.000000	0.227467
676.000000	0.255647
677.000000	0.274458
678.000000	0.290299
679.000000	0.309251
680.000000	0.322248
681.000000	0.330834
682.000000	0.330000
683.000000	0.325414
684.000000	0.317682
685.000000	0.303458
686.000000	0.296151
687.000000	0.278028
688.000000	0.256648
689.000000	0.229543
690.000000	0.212450
691.000000	0.207938
692.000000	0.190429
693.000000	0.180647
694.000000	0.168027
695.000000	0.158711
696.000000	0.164762
697.000000	0.167083
698.000000	0.170893
699.000000	0.181089
700.000000	0.201850
701.000000	0.208766
702.000000	0.227179
703.000000	0.236018
704.000000	0.248904
705.000000	0.263103
706.000000	0.273006
707.000000	0.274691
708.000000	0.270277
709.000000	0.278105
710.000000	0.280978
711.000000	0.263548
712.000000	0.254104
713.000000	0.249060
714.000000	0.236200
715.000000	0.229037
716.000000	0.217620
717.000000	0.197008
718.000000	0.185758
719.000000	0.183498
720.000000	0.184097
721.000000	0.176331
722.000000	0.164413
723.000000	0.163161
724.000000	0.161274
725.000000	0.170102
726.000000	0.175343
727.000000	0.186496
728.000000	0.197363
729.000000	0.206219
730.000000	0.210159
731.000000	0.220234
732.000000	0.233671
733.000000	0.240012
734.000000	0.237149
735.000000	0.243739
736.000000	0.249973
737.000000	0.244945
738.000000	0.232954
739.000000	0.233548
740.000000	0.232856
741.000000	0.232867
742.000000	0.225701
743.000000	0.202573
744.000000	0.191196
745.000000	0.192726
746.000000	0.189863
747.000000	0.176622
748.000000	0.164113
749.000000	0.163755
750.000000	0.160885
751.000000	0.153472
752.000000	0.160803
753.000000	0.173582
754.000000	0.180510
755.000000	0.181445
756.000000	0.190800
757.000000	0.203257
758.000000	0.198803
759.000000	0.204152
760.000000	0.209751
761.000000	0.214071
762.000000	0.228800
763.000000	0.238834
764.000000	0.252198
765.000000	0.260748
766.000000	0.264006
767.000000	0.276899
768.000000	0.302153
769.000000	0.322087
770.000000	0.342044
771.000000	0.356938
772.000000	0.359043
773.000000	0.381414
774.000000	0.394264
775.000000	0.398891
776.000000	0.435756
777.000000	0.448470
778.000000	0.455078
779.000000	0.466989
780.000000	0.480994
781.000000	0.518828
782.000000	0.534990
783.000000	0.527201
784.000000	0.531912
785.000000	0.543359
786.000000	0.566987
787.000000	0.593029
788.000000	0.587666
789.000000	0.587814
790.000000	0.631365
791.000000	0.640515
792.000000	0.658322
793.000000	0.680479
794.000000	0.666280
795.000000	0.681555
796.000000	0.676294
797.000000	0.664692
798.000000	0.715292
799.000000	0.723695
800.000000	0.725898
801.000000	0.741707
802.000000	0.754767
803.000000	0.749277
804.000000	0.732662
805.000000	0.747932
806.000000	0.761203
807.000000	0.761155
808.000000	0.785819
809.000000	0.789837
810.000000	0.792782
811.000000	0.798070
812.000000	0.793674
813.000000	0.811157
814.000000	0.829442
815.000000	0.788087
816.000000	0.769218
817.000000	0.803239
818.000000	0.774784
819.000000	0.746966
820.000000	0.744280
821.000000	0.736374
822.000000	0.771231
823.000000	0.739723
824.000000	0.709627
825.000000	0.741022
826.000000	0.730233
827.000000	0.708850
828.000000	0.720676
829.000000	0.738768
830.000000	0.692326
831.000000	0.645393
832.000000	0.676046
833.000000	0.687187
834.000000	0.733295
835.000000	0.687062
836.000000	0.658766
837.000000	0.633477
838.000000	0.627281
839.000000	0.585186
840.000000	0.563788
841.000000	0.600560
842.000000	0.600712
843.000000	0.582358
844.000000	0.598594
845.000000	0.566155
846.000000	0.550968
847.000000	0.530970
848.000000	0.477495
849.000000	0.521045
850.000000	0.457421
851.000000	0.494833
852.000000	0.557462
853.000000	0.482316
854.000000	0.498108
855.000000	0.488098
856.000000	0.429731
857.000000	0.393533
858.000000	0.678159
859.000000	0.422690
860.000000	0.403394
861.000000	0.411602
862.000000	0.402175
863.000000	0.401992
864.000000	0.391251
865.000000	0.402077
866.000000	0.400875
867.000000	0.372542
868.000000	0.382303
869.000000	0.381419
870.000000	0.372075
871.000000	0.354077
872.000000	0.370360
873.000000	0.351775
874.000000	0.348754
875.000000	0.336196
876.000000	0.338255
877.000000	0.316309
878.000000	0.301819
879.000000	0.295331
880.000000	0.289704
881.000000	0.279566
882.000000	0.261478
883.000000	0.261508
884.000000	0.232117
885.000000	0.249195
886.000000	0.246555
887.000000	0.246424
888.000000	0.250971
889.000000	0.230931
890.000000	0.258667
891.000000	0.253022
892.000000	0.253003
893.000000	0.263286
894.000000	0.272530
895.000000	0.282774
896.000000	0.280262
897.000000	0.255665
898.000000	0.274901
899.000000	0.300712
900.000000	0.325742
901.000000	0.336906
902.000000	0.335075
903.000000	0.345773
904.000000	0.343194
905.000000	0.378955
906.000000	0.401798
907.000000	0.397795
908.000000	0.371345
909.000000	0.386189
910.000000	0.376169
911.000000	0.403991
912.000000	0.415412
913.000000	0.405219
914.000000	0.391840
915.000000	0.399590
916.000000	0.398610
917.000000	0.414518
918.000000	0.412146
919.000000	0.423349
920.000000	0.434405
921.000000	0.433159
922.000000	0.429425
923.000000	0.430616
924.000000	0.439821
925.000000	0.428770
926.000000	0.449256
927.000000	0.432899
928.000000	0.433223
929.000000	0.428023
930.000000	0.446774
931.000000	0.441006
932.000000	0.420811
933.000000	0.429644
934.000000	0.424440
935.000000	0.434872
936.000000	0.429681
937.000000	0.430336
938.000000	0.427606
939.000000	0.426794
940.000000	0.414466
941.000000	0.423079
942.000000	0.415986
943.000000	0.397824
944.000000	0.397485
945.000000	0.394970
946.000000	0.374101
947.000000	0.385081
948.000000	0.393868
949.000000	0.385720
950.000000	0.359550
951.000000	0.363707
952.000000	0.344270
953.000000	0.333923
954.000000	0.347354
955.000000	0.345501
956.000000	0.330519
957.000000	0.342622
958.000000	0.329660
959.000000	0.336629
960.000000	0.318134
961.000000	0.315432
962.000000	0.319637
963.000000	0.318739
964.000000	0.295478
965.000000	0.298657
966.000000	0.289332
967.000000	0.303313
968.000000	0.303863
969.000000	0.289883
970.000000	0.277734
971.000000	0.271986
972.000000	0.276982
973.000000	0.271925
974.000000	0.271643
975.000000	0.259765
976.000000	0.241502
977.000000	0.237963
978.000000	0.245300
979.000000	0.242058
980.000000	0.241118
981.000000	0.236957
982.000000	0.241015
983.000000	0.236871
984.000000	0.234244
985.000000	0.233414
986.000000	0.226950
987.000000	0.218667
988.000000	0.223116
989.000000	0.215950
990.000000	0.226586
991.000000	0.228807
992.000000	0.207983
993.000000	0.206295
994.000000	0.213401
995.000000	0.222186
996.000000	0.226788
997.000000	0.217797
998.000000	0.210399
999.000000	0.200186
1000.000000	0.208177
1001.000000	0.202575
1002.000000	0.200192
1003.000000	0.198231
1004.000000	0.189905
1005.000000	0.201728
1006.000000	0.192283
1007.000000	0.191653
1008.000000	0.199165
1009.000000	0.198305
1010.000000	0.196324
1011.000000	0.194623
1012.000000	0.195302
1013.000000	0.191530
1014.000000	0.181276
1015.000000	0.183644
1016.000000	0.198367
1017.000000	0.185653
1018.000000	0.175953
1019.000000	0.180651
1020.000000	0.197774
1021.000000	0.199340
1022.000000	0.184455
1023.000000	0.184490
1024.000000	0.192251
1025.000000	0.190545
1026.000000	0.174795
1027.000000	0.183916
1028.000000	0.198145
1029.000000	0.193200
1030.000000	0.192333
1031.000000	0.184561
1032.000000	0.179674
1033.000000	0.194413
1034.000000	0.196089
1035.000000	0.182789
1036.000000	0.182231
1037.000000	0.186529
1038.000000	0.179149
1039.000000	0.179284
1040.000000	0.185732
1041.000000	0.186954
1042.000000	0.185067
1043.000000	0.180919
1044.000000	0.184470
1045.000000	0.181161
1046.000000	0.187804
1047.000000	0.180520
1048.000000	0.179004
1049.000000	0.190496
1050.000000	0.186757
1051.000000	0.179950
1052.000000	0.188101
1053.000000	0.191715
1054.000000	0.187645
1055.000000	0.187872
1056.000000	0.187203
1057.000000	0.189415
1058.000000	0.181208
1059.000000	0.179246
1060.000000	0.181832
1061.000000	0.191315
1062.000000	0.199150
1063.000000	0.187324
1064.000000	0.191038
1065.000000	0.182992
1066.000000	0.173827
1067.000000	0.173686
1068.000000	0.180093
1069.000000	0.188249
1070.000000	0.185788
1071.000000	0.181009
1072.000000	0.180287
1073.000000	0.180003
1074.000000	0.180635
1075.000000	0.179357
1076.000000	0.192924
1077.000000	0.207941
1078.000000	0.197520
1079.000000	0.185686
1080.000000	0.185363
1081.000000	0.185294
1082.000000	0.179210
1083.000000	0.178227
1084.000000	0.187415
1085.000000	0.191861
1086.000000	0.185987
1087.000000	0.194959
1088.000000	0.181759
1089.000000	0.185650
1090.000000	0.198392
1091.000000	0.186921
1092.000000	0.177678
1093.000000	0.184124
1094.000000	0.202612
1095.000000	0.204821
1096.000000	0.196443
1097.000000	0.184612
1098.000000	0.185683
1099.000000	0.209459
1100.000000	0.206525
1101.000000	0.188367
1102.000000	0.189136
1103.000000	0.200473
1104.000000	0.206814
1105.000000	0.199736
1106.000000	0.194280
1107.000000	0.186620
1108.000000	0.183349
1109.000000	0.183209
1110.000000	0.200964
1111.000000	0.196377
1112.000000	0.198491
1113.000000	0.197577
1114.000000	0.187813
1115.000000	0.186130
1116.000000	0.200220
1117.000000	0.214877
1118.000000	0.214071
1119.000000	0.190637
1120.000000	0.183367
1121.000000	0.184632
1122.000000	0.182071
1123.000000	0.180926
1124.000000	0.190616
1125.000000	0.192128
1126.000000	0.187669
1127.000000	0.195398
1128.000000	0.180725
1129.000000	0.171765
1130.000000	0.181142
1131.000000	0.185025
1132.000000	0.167865
1133.000000	0.195618
1134.000000	0.180054
1135.000000	0.171376
1136.000000	0.183133
1137.000000	0.189788
1138.000000	0.162694
1139.000000	0.158443
1140.000000	0.170308
1141.000000	0.187624
1142.000000	0.179256
1143.000000	0.181112
1144.000000	0.167668
1145.000000	0.181297
1146.000000	0.180755
1147.000000	0.173997
1148.000000	0.176561
1149.000000	0.173014
1150.000000	0.175392
1151.000000	0.168889
1152.000000	0.169239
1153.000000	0.159111
1154.000000	0.155291
1155.000000	0.140238
1156.000000	0.157002
1157.000000	0.147373
1158.000000	0.169915
1159.000000	0.144646
1160.000000	0.151628
1161.000000	0.159722
1162.000000	0.152479
1163.000000	0.149310
1164.000000	0.159438
1165.000000	0.149714
1166.000000	0.151295
1167.000000	0.139818
1168.000000	0.138191
1169.000000	0.151625
1170.000000	0.150137
1171.000000	0.148894
1172.000000	0.137072
1173.000000	0.150126
1174.000000	0.137902
1175.000000	0.127245
1176.000000	0.141941
1177.000000	0.130903
1178.000000	0.131515
1179.000000	0.137377
1180.000000	0.132335
1181.000000	0.130344
1182.000000	0.134051
1183.000000	0.149656
1184.000000	0.138978
1185.000000	0.130587
1186.000000	0.132580
1187.000000	0.138280
1188.000000	0.128320
1189.000000	0.136313
1190.000000	0.132665
1191.000000	0.138502
1192.000000	0.129469
1193.000000	0.146599
1194.000000	0.150209
1195.000000	0.137454
1196.000000	0.151460
1197.000000	0.163317
1198.000000	0.161569
1199.000000	0.162981
1200.000000	0.157467
1201.000000	0.145487
1202.000000	0.153626
1203.000000	0.164487
1204.000000	0.167620
1205.000000	0.160181
1206.000000	0.157491
1207.000000	0.151348
1208.000000	0.162410
1209.000000	0.161693
1210.000000	0.166142
1211.000000	0.156500
1212.000000	0.169234
1213.000000	0.179195
1214.000000	0.177346
1215.000000	0.167891
1216.000000	0.178532
1217.000000	0.167081
1218.000000	0.165096
1219.000000	0.159954
1220.000000	0.161246
1221.000000	0.164944
1222.000000	0.167018
1223.000000	0.162606
1224.000000	0.164055
1225.000000	0.159707
1226.000000	0.174379
1227.000000	0.171192
1228.000000	0.178993
1229.000000	0.174243
1230.000000	0.168893
1231.000000	0.178235
1232.000000	0.180723
1233.000000	0.180710
1234.000000	0.165586
1235.000000	0.163164
1236.000000	0.172800
1237.000000	0.175144
1238.000000	0.174254
1239.000000	0.180976
1240.000000	0.196849
1241.000000	0.185288
1242.000000	0.186350
1243.000000	0.178851
1244.000000	0.180884
1245.000000	0.197974
1246.000000	0.199739
1247.000000	0.192281
1248.000000	0.188220
1249.000000	0.183784
1250.000000	0.190893
1251.000000	0.201156
1252.000000	0.195720
1253.000000	0.196434
1254.000000	0.204410
1255.000000	0.200769
1256.000000	0.201674
1257.000000	0.208854
1258.000000	0.209320
1259.000000	0.205758
1260.000000	0.210048
1261.000000	0.204272
1262.000000	0.198340
1263.000000	0.185798
1264.000000	0.188672
1265.000000	0.188240
1266.000000	0.188881
1267.000000	0.196020
1268.000000	0.205152
1269.000000	0.198850
1270.000000	0.199013
1271.000000	0.198936
1272.000000	0.199696
1273.000000	0.195665
1274.000000	0.192142
1275.000000	0.210941
1276.000000	0.207073
1277.000000	0.202985
1278.000000	0.211636
1279.000000	0.220063
1280.000000	0.225695
1281.000000	0.217944
1282.000000	0.209373
1283.000000	0.221031
1284.000000	0.227168
1285.000000	0.220965
1286.000000	0.216035
1287.000000	0.217900
1288.000000	0.224632
1289.000000	0.221056
1290.000000	0.218007
1291.000000	0.222621
1292.000000	0.231875
1293.000000	0.232829
1294.000000	0.231277
1295.000000	0.224066
1296.000000	0.227935
1297.000000	0.235282
1298.000000	0.238166
1299.000000	0.243542
1300.000000	0.236130
1301.000000	0.226282
1302.000000	0.225598
1303.000000	0.235313
1304.000000	0.242029
1305.000000	0.240130
1306.000000	0.233817
1307.000000	0.229282
1308.000000	0.226952
1309.000000	0.221260
1310.000000	0.227822
1311.000000	0.237227
1312.000000	0.236582
1313.000000	0.239889
1314.000000	0.231413
1315.000000	0.233738
1316.000000	0.238048
1317.000000	0.232480
1318.000000	0.233677
1319.000000	0.231733
1320.000000	0.220546
1321.000000	0.224094
1322.000000	0.234404
1323.000000	0.234144
1324.000000	0.220821
1325.000000	0.210816
1326.000000	0.223061
1327.000000	0.216625
1328.000000	0.212503
1329.000000	0.223060
1330.000000	0.216594
1331.000000	0.202286
1332.000000	0.205969
1333.000000	0.210681
1334.000000	0.210232
1335.000000	0.200160
1336.000000	0.188153
1337.000000	0.193732
1338.000000	0.199814
1339.000000	0.194719
1340.000000	0.194933
1341.000000	0.195349
1342.000000	0.186694
1343.000000	0.174395
1344.000000	0.172547
1345.000000	0.180171
1346.000000	0.157942
1347.000000	0.155289
1348.000000	0.163111
1349.000000	0.149091
1350.000000	0.147335
1351.000000	0.148133
1352.000000	0.139204
1353.000000	0.134740
1354.000000	0.127620
1355.000000	0.121666
1356.000000	0.115563
1357.000000	0.117147
1358.000000	0.117583
1359.000000	0.108114
1360.000000	0.096588
1361.000000	0.098639
1362.000000	0.126433
1363.000000	0.116038
1364.000000	0.111080
1365.000000	0.120261
1366.000000	0.112051
1367.000000	0.117749
1368.000000	0.118077
1369.000000	0.126534
1370.000000	0.112374
1371.000000	0.096571
1372.000000	0.090228
1373.000000	0.100362
1374.000000	0.090124
1375.000000	0.080375
1376.000000	0.078147
1377.000000	0.078766
1378.000000	0.079707
1379.000000	0.059999
1380.000000	0.061999
1381.000000	0.070050
1382.000000	0.079808
1383.000000	0.080060
1384.000000	0.081406
1385.000000	0.062175
1386.000000	0.067004
1387.000000	0.081971
1388.000000	0.074319
1389.000000	0.075691
1390.000000	0.065477
1391.000000	0.081903
1392.000000	0.076697
1393.000000	0.092727
1394.000000	0.099059
1395.000000	0.102947
1396.000000	0.099861
1397.000000	0.076749
1398.000000	0.076873
1399.000000	0.112386
1400.000000	0.134091
1401.000000	0.106694
1402.000000	0.120965
1403.000000	0.154854
1404.000000	0.172220
1405.000000	0.167979
1406.000000	0.163958
1407.000000	0.168851
1408.000000	0.181903
1409.000000	0.197273
1410.000000	0.204518
1411.000000	0.188858
1412.000000	0.200833
1413.000000	0.218370
1414.000000	0.242230
1415.000000	0.215252
1416.000000	0.225714
1417.000000	0.247972
1418.000000	0.259566
1419.000000	0.249619
1420.000000	0.247142
1421.000000	0.234420
1422.000000	0.255004
1423.000000	0.247540
1424.000000	0.262224
1425.000000	0.268141
1426.000000	0.265948
1427.000000	0.267141
1428.000000	0.270503
1429.000000	0.268700
1430.000000	0.282644
1431.000000	0.260921
1432.000000	0.281824
1433.000000	0.266252
1434.000000	0.275150
1435.000000	0.267211
1436.000000	0.271784
1437.000000	0.285231
1438.000000	0.298367
1439.000000	0.298821
1440.000000	0.292770
1441.000000	0.275443
1442.000000	0.283357
1443.000000	0.289886
1444.000000	0.289579
1445.000000	0.303426
1446.000000	0.300819
1447.000000	0.296284
1448.000000	0.302942
1449.000000	0.306160
1450.000000	0.297269
1451.000000	0.312447
1452.000000	0.306725
1453.000000	0.300451
1454.000000	0.304370
1455.000000	0.306324
1456.000000	0.310126
1457.000000	0.319414
1458.000000	0.309188
1459.000000	0.313742
1460.000000	0.305806
1461.000000	0.321228
1462.000000	0.321541
1463.000000	0.312173
1464.000000	0.324731
1465.000000	0.330336
1466.000000	0.314531
1467.000000	0.324306
1468.000000	0.322112
1469.000000	0.322081
1470.000000	0.313785
1471.000000	0.329306
1472.000000	0.335003
1473.000000	0.331897
1474.000000	0.331593
1475.000000	0.344414
1476.000000	0.347579
1477.000000	0.340586
1478.000000	0.325815
1479.000000	0.335362
1480.000000	0.331277
1481.000000	0.327761
1482.000000	0.343661
1483.000000	0.349734
1484.000000	0.350067
1485.000000	0.344569
1486.000000	0.346551
1487.000000	0.339820
1488.000000	0.340525
1489.000000	0.348211
1490.000000	0.353378
1491.000000	0.355055
1492.000000	0.346094
1493.000000	0.343470
1494.000000	0.341918
1495.000000	0.342925
1496.000000	0.349380
1497.000000	0.344764
1498.000000	0.355552
1499.000000	0.363347
1500.000000	0.357079
1501.000000	0.345905
1502.000000	0.350975
1503.000000	0.354720
1504.000000	0.353625
1505.000000	0.357941
1506.000000	0.358289
1507.000000	0.355858
1508.000000	0.347379
1509.000000	0.344646
1510.000000	0.351522
1511.000000	0.347252
1512.000000	0.339707
1513.000000	0.348356
1514.000000	0.358467
1515.000000	0.344057
1516.000000	0.341177
1517.000000	0.352436
1518.000000	0.347458
1519.000000	0.341934
1520.000000	0.337719
1521.000000	0.338132
1522.000000	0.338862
1523.000000	0.338895
1524.000000	0.332931
1525.000000	0.336940
1526.000000	0.337159
1527.000000	0.334646
1528.000000	0.334703
1529.000000	0.334807
1530.000000	0.332513
1531.000000	0.333805
1532.000000	0.328868
1533.000000	0.321932
1534.000000	0.327701
1535.000000	0.320622
1536.000000	0.310814
1537.000000	0.304632
1538.000000	0.305504
1539.000000	0.307284
1540.000000	0.309611
1541.000000	0.309080
1542.000000	0.304312
1543.000000	0.305852
1544.000000	0.308303
1545.000000	0.309267
1546.000000	0.317430
1547.000000	0.318308
1548.000000	0.310497
1549.000000	0.321694
1550.000000	0.317990
1551.000000	0.301759
1552.000000	0.302401
1553.000000	0.302857
1554.000000	0.306614
1555.000000	0.300157
1556.000000	0.295963
1557.000000	0.296519
1558.000000	0.297382
1559.000000	0.299757
1560.000000	0.304279
1561.000000	0.303231
1562.000000	0.294248
1563.000000	0.299334
1564.000000	0.301980
1565.000000	0.292061
1566.000000	0.289453
1567.000000	0.294050
1568.000000	0.297235
1569.000000	0.286265
1570.000000	0.281000
1571.000000	0.291253
1572.000000	0.291462
1573.000000	0.288594
1574.000000	0.290345
1575.000000	0.296923
1576.000000	0.291247
1577.000000	0.287606
1578.000000	0.287160
1579.000000	0.279740
1580.000000	0.289868
1581.000000	0.293446
1582.000000	0.282753
1583.000000	0.292842
1584.000000	0.293790
1585.000000	0.299791
1586.000000	0.301799
1587.000000	0.285330
1588.000000	0.286377
1589.000000	0.287126
1590.000000	0.283015
1591.000000	0.274595
1592.000000	0.273568
1593.000000	0.282489
1594.000000	0.287576
1595.000000	0.282763
1596.000000	0.298029
1597.000000	0.289179
1598.000000	0.288269
1599.000000	0.286729
1600.000000	0.286529
1601.000000	0.286564
1602.000000	0.278834
1603.000000	0.277762
1604.000000	0.274629
1605.000000	0.277859
1606.000000	0.284417
1607.000000	0.272316
1608.000000	0.276656
1609.000000	0.279290
1610.000000	0.276049
1611.000000	0.282776
1612.000000	0.288165
1613.000000	0.294849
1614.000000	0.276184
1615.000000	0.277487
1616.000000	0.282077
1617.000000	0.275193
1618.000000	0.277725
1619.000000	0.266510
1620.000000	0.269090
1621.000000	0.280402
1622.000000	0.279970
1623.000000	0.271717
1624.000000	0.278398
1625.000000	0.285338
1626.000000	0.280371
1627.000000	0.280929
1628.000000	0.293817
1629.000000	0.285205
1630.000000	0.281009
1631.000000	0.292205
1632.000000	0.279226
1633.000000	0.279248
1634.000000	0.282828
1635.000000	0.289896
1636.000000	0.290566
1637.000000	0.290298
1638.000000	0.286704
1639.000000	0.284523
1640.000000	0.277425
1641.000000	0.273415
1642.000000	0.264044
1643.000000	0.269805
1644.000000	0.257541
1645.000000	0.258799
1646.000000	0.261140
1647.000000	0.262023
1648.000000	0.264268
1649.000000	0.268772
1650.000000	0.269516
1651.000000	0.264759
1652.000000	0.279523
1653.000000	0.274481
1654.000000	0.273161
1655.000000	0.284673
1656.000000	0.298274
1657.000000	0.308102
1658.000000	0.310599
1659.000000	0.309784
1660.000000	0.303224
1661.000000	0.323739
1662.000000	0.307964
1663.000000	0.328318
1664.000000	0.323914
1665.000000	0.325198
1666.000000	0.352356
1667.000000	0.341700
1668.000000	0.334473
1669.000000	0.336502
1670.000000	0.332775
1671.000000	0.347860
1672.000000	0.337608
1673.000000	0.343424
1674.000000	0.344414
1675.000000	0.353874
1676.000000	0.359574
1677.000000	0.356652
1678.000000	0.360800
1679.000000	0.349340
1680.000000	0.344592
1681.000000	0.355344
1682.000000	0.357435
1683.000000	0.365949
1684.000000	0.362456
1685.000000	0.357936
1686.000000	0.359773
1687.000000	0.352969
1688.000000	0.364739
1689.000000	0.332700
1690.000000	0.330162
1691.000000	0.340157
1692.000000	0.324639
1693.000000	0.328799
1694.000000	0.307143
1695.000000	0.314921
1696.000000	0.309981
1697.000000	0.303526
1698.000000	0.290238
1699.000000	0.307470
1700.000000	0.297976
1701.000000	0.309703
1702.000000	0.296430
1703.000000	0.301256
1704.000000	0.297993
1705.000000	0.297624
1706.000000	0.292646
1707.000000	0.300088
1708.000000	0.298748
1709.000000	0.284730
1710.000000	0.291942
1711.000000	0.301197
1712.000000	0.303620
1713.000000	0.290388
1714.000000	0.306274
1715.000000	0.323771
1716.000000	0.308427
1717.000000	0.310852
1718.000000	0.297441
1719.000000	0.307774
1720.000000	0.328864
1721.000000	0.318074
1722.000000	0.308180
1723.000000	0.311774
1724.000000	0.318303
1725.000000	0.317718
1726.000000	0.318424
1727.000000	0.320675
1728.000000	0.307375
1729.000000	0.311017
1730.000000	0.314184
1731.000000	0.316601
1732.000000	0.311797
1733.000000	0.312019
1734.000000	0.301662
1735.000000	0.307167
1736.000000	0.318042
1737.000000	0.320921
1738.000000	0.305507
1739.000000	0.296392
1740.000000	0.297193
1741.000000	0.307692
1742.000000	0.306901
1743.000000	0.298409
1744.000000	0.292373
1745.000000	0.290879
1746.000000	0.291159
1747.000000	0.292061
1748.000000	0.293642
1749.000000	0.302396
1750.000000	0.292587
1751.000000	0.276708
1752.000000	0.288616
1753.000000	0.295050
1754.000000	0.294373
1755.000000	0.292701
1756.000000	0.283957
1757.000000	0.284338
1758.000000	0.293899
1759.000000	0.292461
1760.000000	0.288016
1761.000000	0.279460
1762.000000	0.287733
1763.000000	0.281956
1764.000000	0.277889
1765.000000	0.290103
1766.000000	0.287854
1767.000000	0.281849
1768.000000	0.279597
1769.000000	0.280908
1770.000000	0.284567
1771.000000	0.286227
1772.000000	0.286150
1773.000000	0.279415
1774.000000	0.301187
1775.000000	0.290343
1776.000000	0.277040
1777.000000	0.281938
1778.000000	0.277803
1779.000000	0.276178
1780.000000	0.277735
1781.000000	0.277562
1782.000000	0.276434
1783.000000	0.274084
1784.000000	0.269522
1785.000000	0.264128
1786.000000	0.267001
1787.000000	0.271527
1788.000000	0.265592
1789.000000	0.267405
1790.000000	0.265833
1791.000000	0.271222
1792.000000	0.272113
1793.000000	0.260995
1794.000000	0.256936
1795.000000	0.266534
1796.000000	0.269335
1797.000000	0.274875
1798.000000	0.268902
1799.000000	0.266241
1800.000000	0.276609
1801.000000	0.276607
1802.000000	0.269734
1803.000000	0.258333
1804.000000	0.256483
1805.000000	0.269295
1806.000000	0.269502
1807.000000	0.248885
1808.000000	0.250236
1809.000000	0.258741
1810.000000	0.256002
1811.000000	0.261153
1812.000000	0.256920
1813.000000	0.268396
1814.000000	0.265142
1815.000000	0.253595
1816.000000	0.253792
1817.000000	0.263344
1818.000000	0.260536
1819.000000	0.259342
1820.000000	0.264481
1821.000000	0.262282
1822.000000	0.259718
1823.000000	0.253298
1824.000000	0.241689
1825.000000	0.247964
1826.000000	0.261424
1827.000000	0.255388
1828.000000	0.250958
1829.000000	0.261327
1830.000000	0.262439
1831.000000	0.249296
1832.000000	0.241883
1833.000000	0.250050
1834.000000	0.261638
1835.000000	0.258635
1836.000000	0.247171
1837.000000	0.243808
1838.000000	0.242737
1839.000000	0.235848
1840.000000	0.235586
1841.000000	0.241988
1842.000000	0.239465
1843.000000	0.238902
1844.000000	0.234420
1845.000000	0.232342
1846.000000	0.250481
1847.000000	0.263680
1848.000000	0.254891
1849.000000	0.243530
1850.000000	0.242642
1851.000000	0.236843
1852.000000	0.238274
1853.000000	0.242548
1854.000000	0.237102
1855.000000	0.234168
1856.000000	0.236078
1857.000000	0.247095
1858.000000	0.253534
1859.000000	0.251969
1860.000000	0.244328
1861.000000	0.248297
1862.000000	0.255127
1863.000000	0.249740
1864.000000	0.239899
1865.000000	0.247139
1866.000000	0.264370
1867.000000	0.265736
1868.000000	0.259069
1869.000000	0.258784
1870.000000	0.273578
1871.000000	0.272988
1872.000000	0.277362
1873.000000	0.281995
1874.000000	0.272971
1875.000000	0.274247
1876.000000	0.289342
1877.000000	0.274798
1878.000000	0.274691
1879.000000	0.284351
1880.000000	0.280952
1881.000000	0.277102
1882.000000	0.280571
1883.000000	0.286509
1884.000000	0.312562
1885.000000	0.323085
1886.000000	0.326217
1887.000000	0.326729
1888.000000	0.326715
1889.000000	0.330734
1890.000000	0.338230
1891.000000	0.362344
1892.000000	0.361218
1893.000000	0.352319
1894.000000	0.362534
1895.000000	0.357322
1896.000000	0.357998
1897.000000	0.358832
1898.000000	0.369732
1899.000000	0.379908
1900.000000	0.377173
1901.000000	0.389276
1902.000000	0.388640
1903.000000	0.382846
1904.000000	0.384172
1905.000000	0.394842
1906.000000	0.402638
1907.000000	0.394222
1908.000000	0.399977
1909.000000	0.388918
1910.000000	0.382379
1911.000000	0.380380
1912.000000	0.372719
1913.000000	0.378977
1914.000000	0.389664
1915.000000	0.402543
1916.000000	0.387332
1917.000000	0.388109
1918.000000	0.376075
1919.000000	0.364400
1920.000000	0.378545
1921.000000	0.382890
1922.000000	0.368205
1923.000000	0.376100
1924.000000	0.373960
1925.000000	0.385877
1926.000000	0.382151
1927.000000	0.371391
1928.000000	0.369312
1929.000000	0.372477
1930.000000	0.377153
1931.000000	0.359861
1932.000000	0.362107
1933.000000	0.356696
1934.000000	0.355969
1935.000000	0.360891
1936.000000	0.352496
1937.000000	0.346670
1938.000000	0.350705
1939.000000	0.352391
1940.000000	0.369745
1941.000000	0.360540
1942.000000	0.359821
1943.000000	0.341945
1944.000000	0.354502
1945.000000	0.355008
1946.000000	0.364500
1947.000000	0.349998
1948.000000	0.343549
1949.000000	0.341477
1950.000000	0.351625
1951.000000	0.357756
1952.000000	0.348758
1953.000000	0.360303
1954.000000	0.353473
1955.000000	0.348543
1956.000000	0.352335
1957.000000	0.345731
1958.000000	0.351872
1959.000000	0.349669
1960.000000	0.352322
1961.000000	0.358817
1962.000000	0.368506
1963.000000	0.355506
1964.000000	0.344404
1965.000000	0.343116
1966.000000	0.344296
1967.000000	0.353453
1968.000000	0.343935
1969.000000	0.344134
1970.000000	0.369950
1971.000000	0.356057
1972.000000	0.337619
1973.000000	0.359019
1974.000000	0.357887
1975.000000	0.348335
1976.000000	0.350572
1977.000000	0.341768
1978.000000	0.347574
1979.000000	0.347953
1980.000000	0.331660
1981.000000	0.344511
1982.000000	0.344803
1983.000000	0.335851
1984.000000	0.333882
1985.000000	0.331203
1986.000000	0.340153
1987.000000	0.352066
1988.000000	0.354618
1989.000000	0.351279
1990.000000	0.355091
1991.000000	0.340769
1992.000000	0.342441
1993.000000	0.353140
1994.000000	0.350895
1995.000000	0.347251
1996.000000	0.357751
1997.000000	0.338844
1998.000000	0.337017
1999.000000	0.347477
2000.000000	0.355179
2001.000000	0.343630
2002.000000	0.340486
2003.000000	0.355327
2004.000000	0.344995
2005.000000	0.347846
2006.000000	0.347718
2007.000000	0.349041
2008.000000	0.342485
2009.000000	0.347238
2010.000000	0.347342
2011.000000	0.364205
2012.000000	0.364135
2013.000000	0.353020
2014.000000	0.342907
2015.000000	0.360431
2016.000000	0.362395
2017.000000	0.371692
2018.000000	0.366743
2019.000000	0.352639
2020.000000	0.362551
2021.000000	0.367105
2022.000000	0.361564
2023.000000	0.365946
2024.000000	0.374936
2025.000000	0.378833
2026.000000	0.379345
2027.000000	0.373689
2028.000000	0.385272
2029.000000	0.387678
2030.000000	0.375363
2031.000000	0.382707
2032.000000	0.370078
2033.000000	0.385893
2034.000000	0.388391
2035.000000	0.390471
2036.000000	0.387833
2037.000000	0.389444
2038.000000	0.402799
2039.000000	0.398976
2040.000000	0.393018
2041.000000	0.389932
2042.000000	0.393051
2043.000000	0.400184
2044.000000	0.389142
2045.000000	0.396636
2046.000000	0.397645
2047.000000	0.393120
2048.000000	0.394571
2049.000000	0.388556
2050.000000	0.395170
2051.000000	0.392228
2052.000000	0.396977
2053.000000	0.390695
2054.000000	0.402932
2055.000000	0.408854
2056.000000	0.400588
2057.000000	0.401437
2058.000000	0.408547
2059.000000	0.414927
2060.000000	0.417004
2061.000000	0.409814
2062.000000	0.402054
2063.000000	0.397845
2064.000000	0.399770
2065.000000	0.400154
2066.000000	0.397320
2067.000000	0.396901
2068.000000	0.395952
2069.000000	0.406403
2070.000000	0.397162
2071.000000	0.389959
2072.000000	0.393763
2073.000000	0.402503
2074.000000	0.400387
2075.000000	0.393740
2076.000000	0.397117
2077.000000	0.407809
2078.000000	0.402716
2079.000000	0.403530
2080.000000	0.397316
2081.000000	0.396421
2082.000000	0.389987
2083.000000	0.399488
2084.000000	0.407064
2085.000000	0.406261
2086.000000	0.399767
2087.000000	0.401811
2088.000000	0.412488
2089.000000	0.412648
2090.000000	0.403552
2091.000000	0.399246
2092.000000	0.407572
2093.000000	0.414446
2094.000000	0.422347
2095.000000	0.416799
2096.000000	0.409492
2097.000000	0.404747
2098.000000	0.405087
2099.000000	0.412017
2100.000000	0.413677
2101.000000	0.416653
2102.000000	0.424393
2103.000000	0.421884
2104.000000	0.416592
2105.000000	0.420955
2106.000000	0.422363
2107.000000	0.419068
2108.000000	0.420811
2109.000000	0.416942
2110.000000	0.423824
2111.000000	0.430715
2112.000000	0.426532
2113.000000	0.416019
2114.000000	0.423099
2115.000000	0.418567
2116.000000	0.418321
2117.000000	0.426943
2118.000000	0.419817
2119.000000	0.425600
2120.000000	0.431374
2121.000000	0.430505
2122.000000	0.432818
2123.000000	0.431059
2124.000000	0.428345
2125.000000	0.425426
2126.000000	0.428094
2127.000000	0.439654
2128.000000	0.444642
2129.000000	0.436498
2130.000000	0.432107
2131.000000	0.433166
2132.000000	0.437441
2133.000000	0.430959
2134.000000	0.428600
2135.000000	0.436100
2136.000000	0.442082
2137.000000	0.450128
2138.000000	0.453753
2139.000000	0.436621
2140.000000	0.435196
2141.000000	0.439884
2142.000000	0.444720
2143.000000	0.443704
2144.000000	0.442115
2145.000000	0.433259
2146.000000	0.441330
2147.000000	0.441717
2148.000000	0.445013
2149.000000	0.441083
2150.000000	0.438839
2151.000000	0.440030
2152.000000	0.435332
2153.000000	0.444837
2154.000000	0.444816
2155.000000	0.440398
2156.000000	0.436691
2157.000000	0.443459
2158.000000	0.434993
2159.000000	0.450151
2160.000000	0.455255
2161.000000	0.442192
2162.000000	0.436970
2163.000000	0.439175
2164.000000	0.438466
2165.000000	0.432732
2166.000000	0.433157
2167.000000	0.434104
2168.000000	0.436720
2169.000000	0.436568
2170.000000	0.439105
2171.000000	0.419011
2172.000000	0.418843
2173.000000	0.426511
2174.000000	0.416897
2175.000000	0.412666
2176.000000	0.414659
2177.000000	0.420683
2178.000000	0.417716
2179.000000	0.409480
2180.000000	0.412938
2181.000000	0.394310
2182.000000	0.390371
2183.000000	0.398646
2184.000000	0.386571
2185.000000	0.389203
2186.000000	0.396983
2187.000000	0.380939
2188.000000	0.385635
2189.000000	0.378969
2190.000000	0.385902
2191.000000	0.377495
2192.000000	0.366811
2193.000000	0.364555
2194.000000	0.347742
2195.000000	0.346829
2196.000000	0.353351
2197.000000	0.341401
2198.000000	0.329459
2199.000000	0.318719
2200.000000	0.336260
2201.000000	0.325652
2202.000000	0.325291
2203.000000	0.305881
2204.000000	0.299740
2205.000000	0.296797
2206.000000	0.293488
2207.000000	0.295721
2208.000000	0.285907
2209.000000	0.298482
2210.000000	0.293753
2211.000000	0.280306
2212.000000	0.295319
2213.000000	0.296372
2214.000000	0.297390
2215.000000	0.301205
2216.000000	0.310368
2217.000000	0.305840
2218.000000	0.301452
2219.000000	0.304663
2220.000000	0.299155
2221.000000	0.309234
2222.000000	0.308981
2223.000000	0.316531
2224.000000	0.323100
2225.000000	0.335736
2226.000000	0.330376
2227.000000	0.322563
2228.000000	0.312190
2229.000000	0.320614
2230.000000	0.319965
2231.000000	0.315908
2232.000000	0.323248
2233.000000	0.322293
2234.000000	0.313840
2235.000000	0.322645
2236.000000	0.322382
2237.000000	0.315015
2238.000000	0.332072
2239.000000	0.332198
2240.000000	0.338984
2241.000000	0.326944
2242.000000	0.330226
2243.000000	0.324830
2244.000000	0.340725
2245.000000	0.334330
2246.000000	0.328485
2247.000000	0.331761
2248.000000	0.325564
2249.000000	0.331459
2250.000000	0.330727
2251.000000	0.327409
2252.000000	0.338848
2253.000000	0.338730
2254.000000	0.351327
2255.000000	0.351703
2256.000000	0.336662
2257.000000	0.328142
2258.000000	0.336349
2259.000000	0.340027
2260.000000	0.338913
2261.000000	0.355380
2262.000000	0.352655
2263.000000	0.343530
2264.000000	0.352571
2265.000000	0.350854
2266.000000	0.344580
2267.000000	0.347878
2268.000000	0.355477
2269.000000	0.359177
2270.000000	0.342341
2271.000000	0.333330
2272.000000	0.343398
2273.000000	0.348722
2274.000000	0.345955
2275.000000	0.342275
2276.000000	0.338037
2277.000000	0.336440
2278.000000	0.345942
2279.000000	0.344675
2280.000000	0.346772
2281.000000	0.336318
2282.000000	0.343867
2283.000000	0.357954
2284.000000	0.354560
2285.000000	0.337607
2286.000000	0.338913
2287.000000	0.337138
2288.000000	0.338538
2289.000000	0.357131
2290.000000	0.349028
2291.000000	0.350631
2292.000000	0.343732
2293.000000	0.330009
2294.000000	0.332242
2295.000000	0.337181
2296.000000	0.333223
2297.000000	0.341593
2298.000000	0.343158
2299.000000	0.331528
2300.000000	0.342978
2301.000000	0.347683
2302.000000	0.342314
2303.000000	0.340989
2304.000000	0.338106
2305.000000	0.341555
2306.000000	0.344396
2307.000000	0.358312
2308.000000	0.349948
2309.000000	0.330504
2310.000000	0.332719
2311.000000	0.341724
2312.000000	0.342908
2313.000000	0.348635
2314.000000	0.358298
2315.000000	0.358469
2316.000000	0.361146
2317.000000	0.360773
2318.000000	0.365318
2319.000000	0.358911
2320.000000	0.352156
2321.000000	0.363379
2322.000000	0.354246
2323.000000	0.365280
2324.000000	0.361490
2325.000000	0.364352
2326.000000	0.363144
2327.000000	0.356151
2328.000000	0.362517
2329.000000	0.355585
2330.000000	0.355700
2331.000000	0.355202
2332.000000	0.358720
2333.000000	0.348803
2334.000000	0.351659
2335.000000	0.353251
2336.000000	0.344090
2337.000000	0.345067
2338.000000	0.339212
2339.000000	0.332306
2340.000000	0.331271
2341.000000	0.338173
2342.000000	0.339700
2343.000000	0.335473
2344.000000	0.336100
2345.000000	0.335227
2346.000000	0.324923
2347.000000	0.313106
2348.000000	0.318753
2349.000000	0.335737
2350.000000	0.332144
2351.000000	0.327096
2352.000000	0.331544
2353.000000	0.331701
2354.000000	0.336965
2355.000000	0.334773
2356.000000	0.338584
2357.000000	0.329573
2358.000000	0.322376
2359.000000	0.335888
2360.000000	0.338303
2361.000000	0.333308
2362.000000	0.332418
2363.000000	0.334706
2364.000000	0.335072
2365.000000	0.332062
2366.000000	0.336273
2367.000000	0.331354
2368.000000	0.329525
2369.000000	0.326594
2370.000000	0.315631
2371.000000	0.315880
2372.000000	0.320645
2373.000000	0.312038
2374.000000	0.320489
2375.000000	0.328022
2376.000000	0.326429
2377.000000	0.317039
2378.000000	0.307555
2379.000000	0.311501
2380.000000	0.319073
2381.000000	0.316409
2382.000000	0.310389
2383.000000	0.316641
2384.000000	0.301914
2385.000000	0.289617
2386.000000	0.308022
2387.000000	0.299974
2388.000000	0.296760
2389.000000	0.310188
2390.000000	0.317384
2391.000000	0.309639
2392.000000	0.307760
2393.000000	0.309759
2394.000000	0.301036
2395.000000	0.302528
2396.000000	0.305548
2397.000000	0.308194
2398.000000	0.305674
2399.000000	0.306069
2400.000000	0.309550
2401.000000	0.293956
2402.000000	0.294591
2403.000000	0.295998
2404.000000	0.297220
2405.000000	0.290313
2406.000000	0.292122
2407.000000	0.286243
2408.000000	0.291356
2409.000000	0.287794
2410.000000	0.286049
2411.000000	0.281266
2412.000000	0.282764
2413.000000	0.273335
2414.000000	0.272816
2415.000000	0.278273
2416.000000	0.277146
2417.000000	0.282172
2418.000000	0.282893
2419.000000	0.277875
2420.000000	0.270337
2421.000000	0.264209
2422.000000	0.269798
2423.000000	0.268597
2424.000000	0.275239
2425.000000	0.269768
2426.000000	0.268546
2427.000000	0.260884
2428.000000	0.265557
2429.000000	0.280354
2430.000000	0.277422
2431.000000	0.271332
2432.000000	0.265779
2433.000000	0.261196
2434.000000	0.266168
2435.000000	0.272940
2436.000000	0.277575
2437.000000	0.272059
2438.000000	0.276241
2439.000000	0.272762
2440.000000	0.272121
2441.000000	0.271189
2442.000000	0.280951
2443.000000	0.256397
2444.000000	0.272701
2445.000000	0.282211
2446.000000	0.258158
2447.000000	0.257083
2448.000000	0.258742
2449.000000	0.256699
2450.000000	0.256522
2451.000000	0.263452
2452.000000	0.258766
2453.000000	0.253735
2454.000000	0.254695
2455.000000	0.245121
2456.000000	0.235120
2457.000000	0.239003
2458.000000	0.247103
2459.000000	0.250182
2460.000000	0.258091
2461.000000	0.254824
2462.000000	0.264519
2463.000000	0.249015
2464.000000	0.259407
2465.000000	0.261244
2466.000000	0.237987
2467.000000	0.245021
2468.000000	0.242386
2469.000000	0.251968
2470.000000	0.239255
2471.000000	0.245910
2472.000000	0.227993
2473.000000	0.266087
2474.000000	0.241165
2475.000000	0.204771
2476.000000	0.235102
2477.000000	0.262874
2478.000000	0.247243
2479.000000	0.258581
2480.000000	0.256122
2481.000000	0.199209
2482.000000	0.240218
2483.000000	0.208892
2484.000000	0.256345
2485.000000	0.302806
2486.000000	0.200347
2487.000000	0.237520
2488.000000	0.209843
2489.000000	0.220817
2490.000000	0.225150
2491.000000	0.270805
2492.000000	0.245936
2493.000000	0.245443
2494.000000	0.227481
2495.000000	0.243768
2496.000000	0.245085
2497.000000	0.257178
2498.000000	0.286518
2499.000000	0.282807
2500.000000	0.293400
