PE UV       SUBTECH     SPECTRUM    ASCII       PEDS        4.00        
   -1
BIOUCR0003-3.Sample.ASC
24/02/19
11:51:08.00
24/02/19
11:51:08.00
Vinicio Soto Monge
P. cupreomarginata (sin datos) Monteverde(dudoso) 
250,000000
1
Lambda 1050
1050L1511233
PerkinElmer UV WinLab 6.3.2.0749 / 2.02.05 Lambda 900 UV/VIS/NIR, Aug  7 2015 09:38:08

0
0
3350/servo 860,8/2
0
0
UV/VIS
1
1
1
DoubleDePol,CommonBeamDepol,RBeamAtt,SBeamAtt,60mm sphere, WB InGaAs Detector
0
0
0
0
Program
Program
3350/servo 860,8/2
3350/0,2 860,8/0,2
3350/0,2 860,8/0,2
0
15.00
 
 
 
0
 
860,8
319,2
860,8
Front
100
on
S:100 R:100
0
0
0
0
 
0
 
 
 
0
 
 
0
0
0
0
0
 
 
 
 
0
0


0
0
#HDR
-1
-1
#GR
nm
%R
1.0
0.0
2500,000000
-1,000000
2251
8
21,834900
1,499300
#DATA

250.000000	0.046733
251.000000	0.038231
252.000000	0.056547
253.000000	0.037962
254.000000	0.054685
255.000000	0.049598
256.000000	0.038996
257.000000	0.047158
258.000000	0.025055
259.000000	0.041696
260.000000	0.040990
261.000000	0.043345
262.000000	0.041343
263.000000	0.055297
264.000000	0.050014
265.000000	0.049247
266.000000	0.048922
267.000000	0.045759
268.000000	0.038802
269.000000	0.040654
270.000000	0.039116
271.000000	0.045281
272.000000	0.025274
273.000000	0.026041
274.000000	0.031968
275.000000	0.035628
276.000000	0.032198
277.000000	0.035722
278.000000	0.043300
279.000000	0.032580
280.000000	0.023326
281.000000	0.033079
282.000000	0.034288
283.000000	0.030858
284.000000	0.019240
285.000000	0.035851
286.000000	0.053308
287.000000	0.051805
288.000000	0.039215
289.000000	0.029423
290.000000	0.034221
291.000000	0.026562
292.000000	0.045797
293.000000	0.043035
294.000000	0.051450
295.000000	0.034706
296.000000	0.035470
297.000000	0.038690
298.000000	0.010287
299.000000	0.021631
300.000000	0.037280
301.000000	0.021152
302.000000	0.044340
303.000000	0.040975
304.000000	0.031667
305.000000	0.024160
306.000000	0.022322
307.000000	0.026101
308.000000	0.038295
309.000000	0.024464
310.000000	0.036020
311.000000	0.041383
312.000000	0.038439
313.000000	0.019633
314.000000	0.020722
315.000000	0.019237
316.000000	0.034936
317.000000	0.077532
318.000000	0.064583
319.000000	0.088135
320.000000	0.059656
321.000000	0.050438
322.000000	0.090076
323.000000	0.019848
324.000000	0.064568
325.000000	0.025518
326.000000	0.068273
327.000000	0.022109
328.000000	0.031681
329.000000	0.020558
330.000000	0.058397
331.000000	0.065612
332.000000	0.063595
333.000000	0.013700
334.000000	0.023720
335.000000	0.024878
336.000000	0.051466
337.000000	0.059568
338.000000	0.068127
339.000000	0.023759
340.000000	0.036685
341.000000	0.042741
342.000000	0.023875
343.000000	0.040038
344.000000	0.041235
345.000000	0.027141
346.000000	0.010470
347.000000	0.047980
348.000000	0.028740
349.000000	0.020879
350.000000	0.000684
351.000000	0.020996
352.000000	0.021904
353.000000	0.029677
354.000000	0.021909
355.000000	0.039012
356.000000	0.037524
357.000000	0.038635
358.000000	0.032845
359.000000	0.023322
360.000000	0.042924
361.000000	0.038983
362.000000	0.028877
363.000000	0.011941
364.000000	0.012758
365.000000	0.029813
366.000000	0.039528
367.000000	0.033152
368.000000	0.023499
369.000000	0.034587
370.000000	0.043056
371.000000	0.036513
372.000000	0.017670
373.000000	0.012411
374.000000	0.029654
375.000000	0.030887
376.000000	0.018074
377.000000	0.019400
378.000000	0.018911
379.000000	0.019212
380.000000	0.014701
381.000000	0.015592
382.000000	0.016545
383.000000	0.018227
384.000000	0.021755
385.000000	0.021155
386.000000	0.027615
387.000000	0.025697
388.000000	0.019699
389.000000	0.018226
390.000000	0.019530
391.000000	0.023164
392.000000	0.022350
393.000000	0.024550
394.000000	0.026900
395.000000	0.025533
396.000000	0.028416
397.000000	0.030275
398.000000	0.028549
399.000000	0.027504
400.000000	0.028170
401.000000	0.031818
402.000000	0.032592
403.000000	0.033252
404.000000	0.033024
405.000000	0.036970
406.000000	0.043072
407.000000	0.039272
408.000000	0.042765
409.000000	0.044345
410.000000	0.047027
411.000000	0.044091
412.000000	0.045281
413.000000	0.050647
414.000000	0.052885
415.000000	0.050183
416.000000	0.049745
417.000000	0.054589
418.000000	0.057626
419.000000	0.059908
420.000000	0.066251
421.000000	0.071086
422.000000	0.071884
423.000000	0.071818
424.000000	0.076626
425.000000	0.081304
426.000000	0.079350
427.000000	0.082231
428.000000	0.083111
429.000000	0.086427
430.000000	0.094686
431.000000	0.092824
432.000000	0.086997
433.000000	0.093613
434.000000	0.098004
435.000000	0.094344
436.000000	0.096239
437.000000	0.103571
438.000000	0.107780
439.000000	0.105729
440.000000	0.108465
441.000000	0.107424
442.000000	0.109457
443.000000	0.112803
444.000000	0.112824
445.000000	0.116658
446.000000	0.121522
447.000000	0.119071
448.000000	0.119790
449.000000	0.129175
450.000000	0.132366
451.000000	0.127923
452.000000	0.131493
453.000000	0.133921
454.000000	0.132968
455.000000	0.132959
456.000000	0.127504
457.000000	0.122960
458.000000	0.122343
459.000000	0.117032
460.000000	0.110391
461.000000	0.109915
462.000000	0.105415
463.000000	0.098262
464.000000	0.091738
465.000000	0.083808
466.000000	0.075491
467.000000	0.066820
468.000000	0.063817
469.000000	0.057429
470.000000	0.048869
471.000000	0.040780
472.000000	0.038408
473.000000	0.038688
474.000000	0.038942
475.000000	0.042508
476.000000	0.046501
477.000000	0.051145
478.000000	0.057185
479.000000	0.059609
480.000000	0.060887
481.000000	0.067244
482.000000	0.074989
483.000000	0.078572
484.000000	0.087692
485.000000	0.091772
486.000000	0.096873
487.000000	0.105294
488.000000	0.107760
489.000000	0.111066
490.000000	0.114567
491.000000	0.115180
492.000000	0.117061
493.000000	0.115647
494.000000	0.109233
495.000000	0.108962
496.000000	0.116995
497.000000	0.119353
498.000000	0.111756
499.000000	0.104044
500.000000	0.097048
501.000000	0.088464
502.000000	0.078353
503.000000	0.067675
504.000000	0.063346
505.000000	0.061348
506.000000	0.057669
507.000000	0.063963
508.000000	0.069575
509.000000	0.080769
510.000000	0.084562
511.000000	0.093413
512.000000	0.101834
513.000000	0.115141
514.000000	0.127141
515.000000	0.144889
516.000000	0.157196
517.000000	0.164511
518.000000	0.170657
519.000000	0.178938
520.000000	0.187130
521.000000	0.201338
522.000000	0.205187
523.000000	0.197090
524.000000	0.188649
525.000000	0.181369
526.000000	0.183674
527.000000	0.185413
528.000000	0.187906
529.000000	0.195266
530.000000	0.197940
531.000000	0.194206
532.000000	0.191969
533.000000	0.194945
534.000000	0.192211
535.000000	0.189931
536.000000	0.189845
537.000000	0.186665
538.000000	0.168536
539.000000	0.159636
540.000000	0.146034
541.000000	0.130397
542.000000	0.124033
543.000000	0.116761
544.000000	0.105668
545.000000	0.104264
546.000000	0.092887
547.000000	0.090439
548.000000	0.094228
549.000000	0.093371
550.000000	0.091978
551.000000	0.089458
552.000000	0.084550
553.000000	0.093160
554.000000	0.093309
555.000000	0.106191
556.000000	0.107312
557.000000	0.114620
558.000000	0.115171
559.000000	0.108891
560.000000	0.142059
561.000000	0.142248
562.000000	0.167917
563.000000	0.160954
564.000000	0.169511
565.000000	0.182039
566.000000	0.178034
567.000000	0.171952
568.000000	0.154872
569.000000	0.148081
570.000000	0.144579
571.000000	0.136184
572.000000	0.139928
573.000000	0.144034
574.000000	0.152644
575.000000	0.166229
576.000000	0.174014
577.000000	0.175311
578.000000	0.168297
579.000000	0.159139
580.000000	0.156482
581.000000	0.159067
582.000000	0.178647
583.000000	0.177888
584.000000	0.198966
585.000000	0.221594
586.000000	0.245944
587.000000	0.261625
588.000000	0.277929
589.000000	0.273024
590.000000	0.269096
591.000000	0.241058
592.000000	0.243811
593.000000	0.234658
594.000000	0.233190
595.000000	0.239181
596.000000	0.240296
597.000000	0.246570
598.000000	0.279917
599.000000	0.281822
600.000000	0.277536
601.000000	0.291914
602.000000	0.308216
603.000000	0.290123
604.000000	0.298405
605.000000	0.310101
606.000000	0.296362
607.000000	0.293027
608.000000	0.273343
609.000000	0.280695
610.000000	0.283669
611.000000	0.293333
612.000000	0.283962
613.000000	0.274945
614.000000	0.292207
615.000000	0.299063
616.000000	0.283027
617.000000	0.318120
618.000000	0.309808
619.000000	0.321713
620.000000	0.328379
621.000000	0.316740
622.000000	0.309379
623.000000	0.291142
624.000000	0.288323
625.000000	0.251513
626.000000	0.219320
627.000000	0.190830
628.000000	0.145463
629.000000	0.106032
630.000000	0.054293
631.000000	0.015451
632.000000	0.042328
633.000000	0.069013
634.000000	0.092537
635.000000	0.115877
636.000000	0.133827
637.000000	0.150721
638.000000	0.161245
639.000000	0.169160
640.000000	0.155485
641.000000	0.156908
642.000000	0.147507
643.000000	0.139383
644.000000	0.148116
645.000000	0.135690
646.000000	0.125365
647.000000	0.110489
648.000000	0.100202
649.000000	0.089358
650.000000	0.077318
651.000000	0.062071
652.000000	0.045310
653.000000	0.038272
654.000000	0.033036
655.000000	0.034782
656.000000	0.040838
657.000000	0.047442
658.000000	0.058334
659.000000	0.061193
660.000000	0.077140
661.000000	0.082169
662.000000	0.077821
663.000000	0.072817
664.000000	0.053386
665.000000	0.048930
666.000000	0.021512
667.000000	0.031851
668.000000	0.048464
669.000000	0.072685
670.000000	0.100079
671.000000	0.096455
672.000000	0.125161
673.000000	0.135070
674.000000	0.130806
675.000000	0.156202
676.000000	0.142605
677.000000	0.124048
678.000000	0.131179
679.000000	0.124059
680.000000	0.123179
681.000000	0.117162
682.000000	0.102556
683.000000	0.090968
684.000000	0.091058
685.000000	0.106980
686.000000	0.104774
687.000000	0.100447
688.000000	0.117019
689.000000	0.108408
690.000000	0.100159
691.000000	0.120053
692.000000	0.118921
693.000000	0.114116
694.000000	0.127858
695.000000	0.143588
696.000000	0.134268
697.000000	0.119356
698.000000	0.118115
699.000000	0.140453
700.000000	0.117371
701.000000	0.099689
702.000000	0.095708
703.000000	0.093504
704.000000	0.090557
705.000000	0.060888
706.000000	0.069562
707.000000	0.079764
708.000000	0.062447
709.000000	0.072731
710.000000	0.103132
711.000000	0.128766
712.000000	0.141616
713.000000	0.157673
714.000000	0.168621
715.000000	0.183602
716.000000	0.189459
717.000000	0.173097
718.000000	0.187499
719.000000	0.207648
720.000000	0.211550
721.000000	0.187354
722.000000	0.169543
723.000000	0.163788
724.000000	0.147153
725.000000	0.134826
726.000000	0.111456
727.000000	0.097983
728.000000	0.077620
729.000000	0.072839
730.000000	0.071823
731.000000	0.045966
732.000000	0.037276
733.000000	0.052185
734.000000	0.036483
735.000000	0.019980
736.000000	0.010703
737.000000	0.025624
738.000000	0.034948
739.000000	0.026225
740.000000	0.038172
741.000000	0.034658
742.000000	0.036120
743.000000	0.031249
744.000000	0.029322
745.000000	0.018238
746.000000	0.008529
747.000000	0.004502
748.000000	0.010478
749.000000	0.019722
750.000000	0.032892
751.000000	0.033674
752.000000	0.048702
753.000000	0.044059
754.000000	0.025056
755.000000	0.050212
756.000000	0.058180
757.000000	0.045951
758.000000	0.048938
759.000000	0.031537
760.000000	0.007082
761.000000	0.023988
762.000000	0.027002
763.000000	0.003460
764.000000	0.032239
765.000000	0.029784
766.000000	0.007641
767.000000	0.022733
768.000000	0.048166
769.000000	0.059581
770.000000	0.073175
771.000000	0.081049
772.000000	0.067974
773.000000	0.066698
774.000000	0.098088
775.000000	0.101098
776.000000	0.079234
777.000000	0.091700
778.000000	0.093562
779.000000	0.094492
780.000000	0.086122
781.000000	0.092410
782.000000	0.080334
783.000000	0.087623
784.000000	0.148016
785.000000	0.162153
786.000000	0.147841
787.000000	0.130482
788.000000	0.134370
789.000000	0.123361
790.000000	0.130369
791.000000	0.127650
792.000000	0.097759
793.000000	0.102757
794.000000	0.128026
795.000000	0.093381
796.000000	0.113044
797.000000	0.093167
798.000000	0.072850
799.000000	0.080580
800.000000	0.078430
801.000000	0.058350
802.000000	0.027923
803.000000	0.026249
804.000000	0.013230
805.000000	0.027115
806.000000	0.038333
807.000000	0.049225
808.000000	0.062982
809.000000	0.103639
810.000000	0.050592
811.000000	0.023084
812.000000	0.017839
813.000000	0.051025
814.000000	0.032468
815.000000	0.058192
816.000000	0.054812
817.000000	0.064589
818.000000	0.041025
819.000000	0.024485
820.000000	0.055583
821.000000	0.053778
822.000000	0.089239
823.000000	0.088622
824.000000	0.113768
825.000000	0.123263
826.000000	0.110667
827.000000	0.177059
828.000000	0.187858
829.000000	0.208918
830.000000	0.180883
831.000000	0.190205
832.000000	0.243645
833.000000	0.205231
834.000000	0.265912
835.000000	0.249396
836.000000	0.226290
837.000000	0.210687
838.000000	0.217283
839.000000	0.230585
840.000000	0.241940
841.000000	0.234097
842.000000	0.209868
843.000000	0.237066
844.000000	0.229548
845.000000	0.214548
846.000000	0.210441
847.000000	0.227611
848.000000	0.159208
849.000000	0.143182
850.000000	0.083405
851.000000	0.256728
852.000000	0.202257
853.000000	0.131337
854.000000	0.109950
855.000000	0.170092
856.000000	0.181692
857.000000	0.142154
858.000000	0.397630
859.000000	0.123900
860.000000	0.131161
861.000000	0.139621
862.000000	0.132130
863.000000	0.149222
864.000000	0.152328
865.000000	0.148059
866.000000	0.157817
867.000000	0.172157
868.000000	0.168684
869.000000	0.183820
870.000000	0.200479
871.000000	0.185241
872.000000	0.206350
873.000000	0.222737
874.000000	0.224653
875.000000	0.231568
876.000000	0.252105
877.000000	0.248969
878.000000	0.243169
879.000000	0.256698
880.000000	0.262223
881.000000	0.265215
882.000000	0.277855
883.000000	0.292354
884.000000	0.319248
885.000000	0.303439
886.000000	0.311763
887.000000	0.302704
888.000000	0.324229
889.000000	0.322534
890.000000	0.336942
891.000000	0.337256
892.000000	0.344948
893.000000	0.339577
894.000000	0.338301
895.000000	0.377957
896.000000	0.377136
897.000000	0.390169
898.000000	0.372880
899.000000	0.394924
900.000000	0.411831
901.000000	0.413001
902.000000	0.416845
903.000000	0.434713
904.000000	0.453326
905.000000	0.460199
906.000000	0.479998
907.000000	0.487486
908.000000	0.502593
909.000000	0.525905
910.000000	0.507549
911.000000	0.523846
912.000000	0.580161
913.000000	0.601309
914.000000	0.592051
915.000000	0.591300
916.000000	0.599328
917.000000	0.629576
918.000000	0.645091
919.000000	0.653759
920.000000	0.658825
921.000000	0.659530
922.000000	0.675407
923.000000	0.687981
924.000000	0.675131
925.000000	0.680278
926.000000	0.686242
927.000000	0.691930
928.000000	0.677578
929.000000	0.695621
930.000000	0.695015
931.000000	0.672570
932.000000	0.685961
933.000000	0.677199
934.000000	0.689297
935.000000	0.684542
936.000000	0.693514
937.000000	0.684010
938.000000	0.694329
939.000000	0.718725
940.000000	0.723946
941.000000	0.733808
942.000000	0.727061
943.000000	0.719721
944.000000	0.731272
945.000000	0.742015
946.000000	0.742231
947.000000	0.744377
948.000000	0.736507
949.000000	0.754990
950.000000	0.760609
951.000000	0.771100
952.000000	0.789251
953.000000	0.800251
954.000000	0.789330
955.000000	0.802810
956.000000	0.826964
957.000000	0.817406
958.000000	0.821166
959.000000	0.826186
960.000000	0.830817
961.000000	0.833478
962.000000	0.815548
963.000000	0.818745
964.000000	0.826152
965.000000	0.828757
966.000000	0.830894
967.000000	0.823322
968.000000	0.829157
969.000000	0.831817
970.000000	0.828083
971.000000	0.826440
972.000000	0.822081
973.000000	0.825358
974.000000	0.812891
975.000000	0.815366
976.000000	0.801410
977.000000	0.805147
978.000000	0.801238
979.000000	0.802972
980.000000	0.804860
981.000000	0.795067
982.000000	0.783037
983.000000	0.784048
984.000000	0.783574
985.000000	0.777544
986.000000	0.771676
987.000000	0.770861
988.000000	0.770556
989.000000	0.771790
990.000000	0.770328
991.000000	0.777001
992.000000	0.790026
993.000000	0.795587
994.000000	0.791442
995.000000	0.780401
996.000000	0.784305
997.000000	0.789938
998.000000	0.800104
999.000000	0.793046
1000.000000	0.791597
1001.000000	0.788363
1002.000000	0.790775
1003.000000	0.797547
1004.000000	0.791944
1005.000000	0.788247
1006.000000	0.795379
1007.000000	0.792714
1008.000000	0.788744
1009.000000	0.780710
1010.000000	0.795431
1011.000000	0.806432
1012.000000	0.803620
1013.000000	0.801252
1014.000000	0.789744
1015.000000	0.780799
1016.000000	0.785096
1017.000000	0.781392
1018.000000	0.794370
1019.000000	0.798112
1020.000000	0.796431
1021.000000	0.802799
1022.000000	0.802232
1023.000000	0.798650
1024.000000	0.791977
1025.000000	0.792449
1026.000000	0.796039
1027.000000	0.804606
1028.000000	0.810277
1029.000000	0.806725
1030.000000	0.801128
1031.000000	0.795666
1032.000000	0.787605
1033.000000	0.792497
1034.000000	0.796516
1035.000000	0.791386
1036.000000	0.795241
1037.000000	0.794464
1038.000000	0.791364
1039.000000	0.794700
1040.000000	0.790563
1041.000000	0.788660
1042.000000	0.782484
1043.000000	0.779372
1044.000000	0.777516
1045.000000	0.769965
1046.000000	0.773810
1047.000000	0.777702
1048.000000	0.780383
1049.000000	0.780037
1050.000000	0.778499
1051.000000	0.773790
1052.000000	0.772314
1053.000000	0.765523
1054.000000	0.756997
1055.000000	0.755843
1056.000000	0.765525
1057.000000	0.769652
1058.000000	0.767780
1059.000000	0.770444
1060.000000	0.760522
1061.000000	0.771877
1062.000000	0.766157
1063.000000	0.771290
1064.000000	0.774912
1065.000000	0.759170
1066.000000	0.754252
1067.000000	0.756276
1068.000000	0.766772
1069.000000	0.781127
1070.000000	0.785260
1071.000000	0.780827
1072.000000	0.789133
1073.000000	0.796623
1074.000000	0.793699
1075.000000	0.806954
1076.000000	0.808525
1077.000000	0.801373
1078.000000	0.804981
1079.000000	0.805242
1080.000000	0.801166
1081.000000	0.800858
1082.000000	0.798366
1083.000000	0.798559
1084.000000	0.793300
1085.000000	0.799846
1086.000000	0.796620
1087.000000	0.773378
1088.000000	0.767961
1089.000000	0.784595
1090.000000	0.785266
1091.000000	0.768312
1092.000000	0.776306
1093.000000	0.775841
1094.000000	0.777254
1095.000000	0.771404
1096.000000	0.767932
1097.000000	0.765787
1098.000000	0.764570
1099.000000	0.753818
1100.000000	0.754002
1101.000000	0.753213
1102.000000	0.761816
1103.000000	0.758412
1104.000000	0.767030
1105.000000	0.747708
1106.000000	0.741067
1107.000000	0.743570
1108.000000	0.739504
1109.000000	0.748334
1110.000000	0.751118
1111.000000	0.747395
1112.000000	0.733977
1113.000000	0.731659
1114.000000	0.724005
1115.000000	0.713801
1116.000000	0.727988
1117.000000	0.733040
1118.000000	0.727421
1119.000000	0.723362
1120.000000	0.730376
1121.000000	0.737727
1122.000000	0.744959
1123.000000	0.729116
1124.000000	0.727386
1125.000000	0.719845
1126.000000	0.729174
1127.000000	0.738403
1128.000000	0.745020
1129.000000	0.740895
1130.000000	0.715349
1131.000000	0.713845
1132.000000	0.724114
1133.000000	0.746049
1134.000000	0.742826
1135.000000	0.715752
1136.000000	0.703478
1137.000000	0.693893
1138.000000	0.704343
1139.000000	0.706900
1140.000000	0.702785
1141.000000	0.695025
1142.000000	0.685933
1143.000000	0.678702
1144.000000	0.673718
1145.000000	0.686092
1146.000000	0.673790
1147.000000	0.666826
1148.000000	0.677878
1149.000000	0.652743
1150.000000	0.645508
1151.000000	0.628711
1152.000000	0.632089
1153.000000	0.609672
1154.000000	0.619534
1155.000000	0.611574
1156.000000	0.612950
1157.000000	0.599057
1158.000000	0.581338
1159.000000	0.601679
1160.000000	0.569182
1161.000000	0.575229
1162.000000	0.558694
1163.000000	0.554309
1164.000000	0.559409
1165.000000	0.552241
1166.000000	0.545548
1167.000000	0.556609
1168.000000	0.550902
1169.000000	0.548145
1170.000000	0.539397
1171.000000	0.532634
1172.000000	0.545158
1173.000000	0.529528
1174.000000	0.533820
1175.000000	0.527330
1176.000000	0.541268
1177.000000	0.537331
1178.000000	0.548343
1179.000000	0.542156
1180.000000	0.550404
1181.000000	0.538000
1182.000000	0.535988
1183.000000	0.542050
1184.000000	0.541073
1185.000000	0.552693
1186.000000	0.539062
1187.000000	0.538569
1188.000000	0.546092
1189.000000	0.546925
1190.000000	0.559408
1191.000000	0.549865
1192.000000	0.551041
1193.000000	0.557976
1194.000000	0.568559
1195.000000	0.561503
1196.000000	0.559392
1197.000000	0.579250
1198.000000	0.559664
1199.000000	0.556896
1200.000000	0.562176
1201.000000	0.570722
1202.000000	0.563461
1203.000000	0.569943
1204.000000	0.558063
1205.000000	0.548118
1206.000000	0.558935
1207.000000	0.555626
1208.000000	0.558863
1209.000000	0.556204
1210.000000	0.556401
1211.000000	0.547842
1212.000000	0.551074
1213.000000	0.547232
1214.000000	0.555896
1215.000000	0.542550
1216.000000	0.549729
1217.000000	0.556575
1218.000000	0.564521
1219.000000	0.570639
1220.000000	0.571683
1221.000000	0.554726
1222.000000	0.562027
1223.000000	0.565443
1224.000000	0.559788
1225.000000	0.561289
1226.000000	0.560215
1227.000000	0.572728
1228.000000	0.573188
1229.000000	0.582705
1230.000000	0.590071
1231.000000	0.591683
1232.000000	0.591645
1233.000000	0.600326
1234.000000	0.587880
1235.000000	0.592862
1236.000000	0.612953
1237.000000	0.609198
1238.000000	0.612096
1239.000000	0.614276
1240.000000	0.616155
1241.000000	0.612136
1242.000000	0.605329
1243.000000	0.611492
1244.000000	0.621509
1245.000000	0.631228
1246.000000	0.635859
1247.000000	0.633052
1248.000000	0.635037
1249.000000	0.626032
1250.000000	0.637593
1251.000000	0.656128
1252.000000	0.647586
1253.000000	0.656237
1254.000000	0.654610
1255.000000	0.652072
1256.000000	0.653341
1257.000000	0.646713
1258.000000	0.647596
1259.000000	0.643264
1260.000000	0.635034
1261.000000	0.629358
1262.000000	0.616978
1263.000000	0.618559
1264.000000	0.625686
1265.000000	0.628765
1266.000000	0.614903
1267.000000	0.605573
1268.000000	0.600496
1269.000000	0.605636
1270.000000	0.609937
1271.000000	0.609046
1272.000000	0.605045
1273.000000	0.596018
1274.000000	0.587169
1275.000000	0.589184
1276.000000	0.598491
1277.000000	0.601635
1278.000000	0.599547
1279.000000	0.585742
1280.000000	0.577841
1281.000000	0.571129
1282.000000	0.570204
1283.000000	0.580676
1284.000000	0.585496
1285.000000	0.593008
1286.000000	0.592756
1287.000000	0.587556
1288.000000	0.587234
1289.000000	0.592164
1290.000000	0.602234
1291.000000	0.609825
1292.000000	0.610709
1293.000000	0.615288
1294.000000	0.620523
1295.000000	0.615600
1296.000000	0.620473
1297.000000	0.620108
1298.000000	0.613101
1299.000000	0.611911
1300.000000	0.619630
1301.000000	0.621853
1302.000000	0.617752
1303.000000	0.620460
1304.000000	0.617947
1305.000000	0.620293
1306.000000	0.623460
1307.000000	0.626029
1308.000000	0.625280
1309.000000	0.624955
1310.000000	0.621559
1311.000000	0.618728
1312.000000	0.618849
1313.000000	0.612552
1314.000000	0.611797
1315.000000	0.615960
1316.000000	0.602494
1317.000000	0.601779
1318.000000	0.610631
1319.000000	0.602665
1320.000000	0.604253
1321.000000	0.612844
1322.000000	0.614796
1323.000000	0.612994
1324.000000	0.616440
1325.000000	0.610931
1326.000000	0.592032
1327.000000	0.587923
1328.000000	0.598201
1329.000000	0.600146
1330.000000	0.586801
1331.000000	0.581473
1332.000000	0.573685
1333.000000	0.560426
1334.000000	0.565067
1335.000000	0.562270
1336.000000	0.563631
1337.000000	0.555866
1338.000000	0.543055
1339.000000	0.537048
1340.000000	0.520727
1341.000000	0.509403
1342.000000	0.507873
1343.000000	0.507790
1344.000000	0.510149
1345.000000	0.499220
1346.000000	0.498648
1347.000000	0.491909
1348.000000	0.480326
1349.000000	0.465193
1350.000000	0.444313
1351.000000	0.438280
1352.000000	0.427276
1353.000000	0.445236
1354.000000	0.459505
1355.000000	0.457867
1356.000000	0.438086
1357.000000	0.424190
1358.000000	0.424441
1359.000000	0.410861
1360.000000	0.427390
1361.000000	0.456339
1362.000000	0.418512
1363.000000	0.391798
1364.000000	0.403335
1365.000000	0.415473
1366.000000	0.406304
1367.000000	0.412950
1368.000000	0.410166
1369.000000	0.388437
1370.000000	0.385464
1371.000000	0.389870
1372.000000	0.380647
1373.000000	0.363911
1374.000000	0.339642
1375.000000	0.343136
1376.000000	0.343221
1377.000000	0.344764
1378.000000	0.339870
1379.000000	0.332868
1380.000000	0.350783
1381.000000	0.366816
1382.000000	0.368879
1383.000000	0.378023
1384.000000	0.352037
1385.000000	0.356892
1386.000000	0.351664
1387.000000	0.377875
1388.000000	0.381000
1389.000000	0.350771
1390.000000	0.321248
1391.000000	0.356384
1392.000000	0.345025
1393.000000	0.329407
1394.000000	0.327487
1395.000000	0.376989
1396.000000	0.347205
1397.000000	0.296407
1398.000000	0.306303
1399.000000	0.319790
1400.000000	0.368087
1401.000000	0.313628
1402.000000	0.262982
1403.000000	0.256916
1404.000000	0.296144
1405.000000	0.271205
1406.000000	0.270354
1407.000000	0.260449
1408.000000	0.259499
1409.000000	0.255312
1410.000000	0.233791
1411.000000	0.216831
1412.000000	0.232725
1413.000000	0.230281
1414.000000	0.245932
1415.000000	0.214597
1416.000000	0.194947
1417.000000	0.202230
1418.000000	0.210187
1419.000000	0.214095
1420.000000	0.195082
1421.000000	0.173263
1422.000000	0.200098
1423.000000	0.195533
1424.000000	0.179459
1425.000000	0.158283
1426.000000	0.170898
1427.000000	0.178002
1428.000000	0.176824
1429.000000	0.162187
1430.000000	0.177624
1431.000000	0.181956
1432.000000	0.174360
1433.000000	0.165752
1434.000000	0.166395
1435.000000	0.155219
1436.000000	0.154837
1437.000000	0.163565
1438.000000	0.171665
1439.000000	0.158180
1440.000000	0.184245
1441.000000	0.174058
1442.000000	0.180028
1443.000000	0.178844
1444.000000	0.187555
1445.000000	0.196518
1446.000000	0.186850
1447.000000	0.187319
1448.000000	0.189945
1449.000000	0.187400
1450.000000	0.211897
1451.000000	0.214303
1452.000000	0.197521
1453.000000	0.203606
1454.000000	0.210691
1455.000000	0.220830
1456.000000	0.218131
1457.000000	0.211559
1458.000000	0.205744
1459.000000	0.215328
1460.000000	0.230128
1461.000000	0.222392
1462.000000	0.233767
1463.000000	0.217410
1464.000000	0.236282
1465.000000	0.256787
1466.000000	0.244718
1467.000000	0.251783
1468.000000	0.258233
1469.000000	0.249239
1470.000000	0.253293
1471.000000	0.254795
1472.000000	0.256983
1473.000000	0.256664
1474.000000	0.244416
1475.000000	0.236427
1476.000000	0.251521
1477.000000	0.271862
1478.000000	0.261200
1479.000000	0.252088
1480.000000	0.259624
1481.000000	0.263629
1482.000000	0.256339
1483.000000	0.254980
1484.000000	0.247343
1485.000000	0.246499
1486.000000	0.251052
1487.000000	0.253281
1488.000000	0.248296
1489.000000	0.230632
1490.000000	0.232999
1491.000000	0.257999
1492.000000	0.248268
1493.000000	0.239574
1494.000000	0.235929
1495.000000	0.218126
1496.000000	0.230357
1497.000000	0.224913
1498.000000	0.203507
1499.000000	0.213054
1500.000000	0.222370
1501.000000	0.222794
1502.000000	0.215809
1503.000000	0.211265
1504.000000	0.207284
1505.000000	0.205497
1506.000000	0.189222
1507.000000	0.192481
1508.000000	0.197625
1509.000000	0.191872
1510.000000	0.180330
1511.000000	0.176123
1512.000000	0.186489
1513.000000	0.168893
1514.000000	0.176841
1515.000000	0.180636
1516.000000	0.174432
1517.000000	0.171795
1518.000000	0.176693
1519.000000	0.170777
1520.000000	0.164090
1521.000000	0.169863
1522.000000	0.178186
1523.000000	0.169274
1524.000000	0.164617
1525.000000	0.167126
1526.000000	0.158601
1527.000000	0.160424
1528.000000	0.166134
1529.000000	0.167249
1530.000000	0.167712
1531.000000	0.163685
1532.000000	0.181940
1533.000000	0.189008
1534.000000	0.181378
1535.000000	0.186672
1536.000000	0.182744
1537.000000	0.186475
1538.000000	0.194384
1539.000000	0.200812
1540.000000	0.210222
1541.000000	0.201547
1542.000000	0.193622
1543.000000	0.195956
1544.000000	0.204957
1545.000000	0.215542
1546.000000	0.210275
1547.000000	0.214295
1548.000000	0.225759
1549.000000	0.236182
1550.000000	0.245061
1551.000000	0.247913
1552.000000	0.244861
1553.000000	0.251213
1554.000000	0.243446
1555.000000	0.237615
1556.000000	0.251416
1557.000000	0.265159
1558.000000	0.261645
1559.000000	0.257393
1560.000000	0.265644
1561.000000	0.264703
1562.000000	0.260452
1563.000000	0.261309
1564.000000	0.257741
1565.000000	0.258202
1566.000000	0.262457
1567.000000	0.268436
1568.000000	0.275534
1569.000000	0.273819
1570.000000	0.267284
1571.000000	0.269488
1572.000000	0.265360
1573.000000	0.270058
1574.000000	0.270693
1575.000000	0.260592
1576.000000	0.263527
1577.000000	0.270349
1578.000000	0.265938
1579.000000	0.267955
1580.000000	0.276405
1581.000000	0.272812
1582.000000	0.259947
1583.000000	0.258627
1584.000000	0.272107
1585.000000	0.268616
1586.000000	0.268098
1587.000000	0.272243
1588.000000	0.271115
1589.000000	0.257226
1590.000000	0.267705
1591.000000	0.275833
1592.000000	0.265426
1593.000000	0.260627
1594.000000	0.256014
1595.000000	0.252815
1596.000000	0.245529
1597.000000	0.240754
1598.000000	0.246659
1599.000000	0.245220
1600.000000	0.232162
1601.000000	0.239471
1602.000000	0.257891
1603.000000	0.255803
1604.000000	0.245348
1605.000000	0.233519
1606.000000	0.236489
1607.000000	0.231645
1608.000000	0.229519
1609.000000	0.228514
1610.000000	0.223604
1611.000000	0.217292
1612.000000	0.232259
1613.000000	0.223955
1614.000000	0.209491
1615.000000	0.209075
1616.000000	0.209084
1617.000000	0.217932
1618.000000	0.207277
1619.000000	0.202059
1620.000000	0.206619
1621.000000	0.195811
1622.000000	0.204007
1623.000000	0.198792
1624.000000	0.201459
1625.000000	0.212574
1626.000000	0.203332
1627.000000	0.199409
1628.000000	0.203183
1629.000000	0.205277
1630.000000	0.207333
1631.000000	0.208649
1632.000000	0.202730
1633.000000	0.211422
1634.000000	0.205150
1635.000000	0.211359
1636.000000	0.212726
1637.000000	0.222408
1638.000000	0.222646
1639.000000	0.228348
1640.000000	0.228006
1641.000000	0.217553
1642.000000	0.228800
1643.000000	0.213379
1644.000000	0.221533
1645.000000	0.237928
1646.000000	0.226849
1647.000000	0.224290
1648.000000	0.242391
1649.000000	0.233571
1650.000000	0.226403
1651.000000	0.240134
1652.000000	0.240553
1653.000000	0.251121
1654.000000	0.256276
1655.000000	0.250160
1656.000000	0.260940
1657.000000	0.250077
1658.000000	0.233900
1659.000000	0.250269
1660.000000	0.246883
1661.000000	0.254582
1662.000000	0.249436
1663.000000	0.246419
1664.000000	0.250455
1665.000000	0.255359
1666.000000	0.242919
1667.000000	0.243407
1668.000000	0.245257
1669.000000	0.237485
1670.000000	0.227973
1671.000000	0.240530
1672.000000	0.252424
1673.000000	0.247607
1674.000000	0.267654
1675.000000	0.258835
1676.000000	0.251367
1677.000000	0.232673
1678.000000	0.244775
1679.000000	0.224615
1680.000000	0.228772
1681.000000	0.224540
1682.000000	0.227100
1683.000000	0.226530
1684.000000	0.238464
1685.000000	0.232049
1686.000000	0.246120
1687.000000	0.251884
1688.000000	0.256440
1689.000000	0.248752
1690.000000	0.265981
1691.000000	0.290571
1692.000000	0.278740
1693.000000	0.263062
1694.000000	0.265793
1695.000000	0.259067
1696.000000	0.229062
1697.000000	0.246075
1698.000000	0.253278
1699.000000	0.239508
1700.000000	0.240990
1701.000000	0.228782
1702.000000	0.221481
1703.000000	0.219470
1704.000000	0.217939
1705.000000	0.202910
1706.000000	0.201471
1707.000000	0.201478
1708.000000	0.192234
1709.000000	0.181933
1710.000000	0.183387
1711.000000	0.181001
1712.000000	0.180275
1713.000000	0.164259
1714.000000	0.152043
1715.000000	0.141552
1716.000000	0.144805
1717.000000	0.141109
1718.000000	0.144764
1719.000000	0.153606
1720.000000	0.150531
1721.000000	0.152731
1722.000000	0.166482
1723.000000	0.162192
1724.000000	0.156061
1725.000000	0.163338
1726.000000	0.178905
1727.000000	0.180185
1728.000000	0.171334
1729.000000	0.163669
1730.000000	0.171594
1731.000000	0.179116
1732.000000	0.154571
1733.000000	0.169611
1734.000000	0.168026
1735.000000	0.164741
1736.000000	0.165567
1737.000000	0.166521
1738.000000	0.163202
1739.000000	0.158262
1740.000000	0.149831
1741.000000	0.157636
1742.000000	0.152905
1743.000000	0.158887
1744.000000	0.157087
1745.000000	0.144640
1746.000000	0.132442
1747.000000	0.148013
1748.000000	0.144402
1749.000000	0.146716
1750.000000	0.138306
1751.000000	0.152244
1752.000000	0.137923
1753.000000	0.150313
1754.000000	0.158246
1755.000000	0.151083
1756.000000	0.158896
1757.000000	0.156688
1758.000000	0.157579
1759.000000	0.166846
1760.000000	0.167204
1761.000000	0.162062
1762.000000	0.166701
1763.000000	0.171666
1764.000000	0.165302
1765.000000	0.172789
1766.000000	0.177408
1767.000000	0.179589
1768.000000	0.190500
1769.000000	0.196520
1770.000000	0.212066
1771.000000	0.217254
1772.000000	0.205275
1773.000000	0.203520
1774.000000	0.207611
1775.000000	0.216836
1776.000000	0.220333
1777.000000	0.219996
1778.000000	0.212143
1779.000000	0.224288
1780.000000	0.224860
1781.000000	0.222131
1782.000000	0.217600
1783.000000	0.220157
1784.000000	0.224169
1785.000000	0.223829
1786.000000	0.229823
1787.000000	0.238877
1788.000000	0.232721
1789.000000	0.235970
1790.000000	0.235906
1791.000000	0.237010
1792.000000	0.243046
1793.000000	0.244246
1794.000000	0.238397
1795.000000	0.245389
1796.000000	0.247101
1797.000000	0.235318
1798.000000	0.234955
1799.000000	0.241522
1800.000000	0.251785
1801.000000	0.264126
1802.000000	0.250488
1803.000000	0.233646
1804.000000	0.240326
1805.000000	0.247313
1806.000000	0.250093
1807.000000	0.246265
1808.000000	0.238534
1809.000000	0.238548
1810.000000	0.251205
1811.000000	0.256647
1812.000000	0.245687
1813.000000	0.233876
1814.000000	0.238174
1815.000000	0.243240
1816.000000	0.229453
1817.000000	0.209672
1818.000000	0.204356
1819.000000	0.233918
1820.000000	0.259910
1821.000000	0.253783
1822.000000	0.224591
1823.000000	0.200321
1824.000000	0.197560
1825.000000	0.202307
1826.000000	0.219288
1827.000000	0.223996
1828.000000	0.218332
1829.000000	0.220113
1830.000000	0.232522
1831.000000	0.223608
1832.000000	0.193195
1833.000000	0.173611
1834.000000	0.184545
1835.000000	0.215103
1836.000000	0.222681
1837.000000	0.206951
1838.000000	0.199418
1839.000000	0.199821
1840.000000	0.218842
1841.000000	0.239604
1842.000000	0.210573
1843.000000	0.161774
1844.000000	0.127520
1845.000000	0.128232
1846.000000	0.175633
1847.000000	0.222929
1848.000000	0.236236
1849.000000	0.178449
1850.000000	0.134957
1851.000000	0.131923
1852.000000	0.157994
1853.000000	0.173117
1854.000000	0.170500
1855.000000	0.162649
1856.000000	0.139805
1857.000000	0.145000
1858.000000	0.160229
1859.000000	0.162784
1860.000000	0.158014
1861.000000	0.140812
1862.000000	0.118460
1863.000000	0.092174
1864.000000	0.087960
1865.000000	0.101806
1866.000000	0.094229
1867.000000	0.092682
1868.000000	0.092626
1869.000000	0.114388
1870.000000	0.128557
1871.000000	0.111253
1872.000000	0.110661
1873.000000	0.106337
1874.000000	0.089477
1875.000000	0.083196
1876.000000	0.077535
1877.000000	0.071658
1878.000000	0.076785
1879.000000	0.071842
1880.000000	0.055353
1881.000000	0.054211
1882.000000	0.056822
1883.000000	0.065639
1884.000000	0.052161
1885.000000	0.041422
1886.000000	0.029099
1887.000000	0.011361
1888.000000	0.012171
1889.000000	0.018300
1890.000000	0.010537
1891.000000	0.032411
1892.000000	0.028067
1893.000000	0.013154
1894.000000	0.016438
1895.000000	0.014603
1896.000000	0.008511
1897.000000	0.016804
1898.000000	0.034627
1899.000000	0.031238
1900.000000	0.034306
1901.000000	0.032480
1902.000000	0.032284
1903.000000	0.025508
1904.000000	0.052559
1905.000000	0.079768
1906.000000	0.065913
1907.000000	0.058158
1908.000000	0.057786
1909.000000	0.043737
1910.000000	0.060486
1911.000000	0.080342
1912.000000	0.097583
1913.000000	0.091417
1914.000000	0.088436
1915.000000	0.091346
1916.000000	0.083598
1917.000000	0.075129
1918.000000	0.081917
1919.000000	0.093551
1920.000000	0.104194
1921.000000	0.097856
1922.000000	0.097416
1923.000000	0.104318
1924.000000	0.097140
1925.000000	0.095199
1926.000000	0.125422
1927.000000	0.136271
1928.000000	0.127624
1929.000000	0.130867
1930.000000	0.139732
1931.000000	0.137227
1932.000000	0.133035
1933.000000	0.149623
1934.000000	0.147632
1935.000000	0.142796
1936.000000	0.164522
1937.000000	0.167446
1938.000000	0.161815
1939.000000	0.172775
1940.000000	0.169759
1941.000000	0.170867
1942.000000	0.178892
1943.000000	0.178820
1944.000000	0.167786
1945.000000	0.175473
1946.000000	0.179039
1947.000000	0.186758
1948.000000	0.183862
1949.000000	0.173030
1950.000000	0.183201
1951.000000	0.206043
1952.000000	0.178603
1953.000000	0.184969
1954.000000	0.195705
1955.000000	0.190175
1956.000000	0.189074
1957.000000	0.189724
1958.000000	0.177963
1959.000000	0.178618
1960.000000	0.184374
1961.000000	0.188743
1962.000000	0.182643
1963.000000	0.167523
1964.000000	0.177255
1965.000000	0.165697
1966.000000	0.179090
1967.000000	0.191049
1968.000000	0.168033
1969.000000	0.167725
1970.000000	0.159206
1971.000000	0.167600
1972.000000	0.162836
1973.000000	0.156305
1974.000000	0.153063
1975.000000	0.163260
1976.000000	0.156668
1977.000000	0.142792
1978.000000	0.160249
1979.000000	0.148780
1980.000000	0.153095
1981.000000	0.135974
1982.000000	0.134599
1983.000000	0.136945
1984.000000	0.147313
1985.000000	0.131747
1986.000000	0.142207
1987.000000	0.137366
1988.000000	0.139207
1989.000000	0.133571
1990.000000	0.116296
1991.000000	0.126114
1992.000000	0.119864
1993.000000	0.120089
1994.000000	0.112055
1995.000000	0.110715
1996.000000	0.114681
1997.000000	0.107568
1998.000000	0.110935
1999.000000	0.112491
2000.000000	0.099178
2001.000000	0.105011
2002.000000	0.087448
2003.000000	0.096286
2004.000000	0.099548
2005.000000	0.101382
2006.000000	0.082067
2007.000000	0.073456
2008.000000	0.069739
2009.000000	0.077226
2010.000000	0.072486
2011.000000	0.065846
2012.000000	0.063723
2013.000000	0.059600
2014.000000	0.056716
2015.000000	0.052566
2016.000000	0.039165
2017.000000	0.042346
2018.000000	0.045247
2019.000000	0.041636
2020.000000	0.040566
2021.000000	0.046651
2022.000000	0.039724
2023.000000	0.054825
2024.000000	0.041815
2025.000000	0.035238
2026.000000	0.026103
2027.000000	0.027408
2028.000000	0.022120
2029.000000	0.042443
2030.000000	0.033821
2031.000000	0.017119
2032.000000	0.025541
2033.000000	0.026285
2034.000000	0.016412
2035.000000	0.014063
2036.000000	0.020357
2037.000000	0.033732
2038.000000	0.034236
2039.000000	0.015646
2040.000000	0.016293
2041.000000	0.016634
2042.000000	0.012788
2043.000000	0.014431
2044.000000	0.012443
2045.000000	0.010697
2046.000000	0.010908
2047.000000	0.027146
2048.000000	0.032223
2049.000000	0.026701
2050.000000	0.032464
2051.000000	0.022325
2052.000000	0.029359
2053.000000	0.043601
2054.000000	0.042418
2055.000000	0.039700
2056.000000	0.044590
2057.000000	0.050212
2058.000000	0.046129
2059.000000	0.049789
2060.000000	0.057533
2061.000000	0.056090
2062.000000	0.047642
2063.000000	0.050123
2064.000000	0.053685
2065.000000	0.059384
2066.000000	0.063073
2067.000000	0.067163
2068.000000	0.072347
2069.000000	0.059129
2070.000000	0.068640
2071.000000	0.068098
2072.000000	0.061573
2073.000000	0.060340
2074.000000	0.064244
2075.000000	0.070641
2076.000000	0.066239
2077.000000	0.062223
2078.000000	0.063317
2079.000000	0.056364
2080.000000	0.050401
2081.000000	0.057001
2082.000000	0.062482
2083.000000	0.057226
2084.000000	0.052283
2085.000000	0.063428
2086.000000	0.061954
2087.000000	0.057151
2088.000000	0.057810
2089.000000	0.058312
2090.000000	0.059702
2091.000000	0.069104
2092.000000	0.064288
2093.000000	0.052171
2094.000000	0.055212
2095.000000	0.065708
2096.000000	0.061248
2097.000000	0.067514
2098.000000	0.069781
2099.000000	0.059936
2100.000000	0.065387
2101.000000	0.064380
2102.000000	0.067148
2103.000000	0.067311
2104.000000	0.069494
2105.000000	0.071511
2106.000000	0.067869
2107.000000	0.073658
2108.000000	0.079455
2109.000000	0.075326
2110.000000	0.069153
2111.000000	0.068260
2112.000000	0.070983
2113.000000	0.073706
2114.000000	0.073760
2115.000000	0.076049
2116.000000	0.069601
2117.000000	0.064784
2118.000000	0.060499
2119.000000	0.063906
2120.000000	0.061336
2121.000000	0.061919
2122.000000	0.065003
2123.000000	0.064879
2124.000000	0.056998
2125.000000	0.054869
2126.000000	0.068945
2127.000000	0.072983
2128.000000	0.050980
2129.000000	0.037489
2130.000000	0.046964
2131.000000	0.059324
2132.000000	0.052764
2133.000000	0.045126
2134.000000	0.047652
2135.000000	0.047210
2136.000000	0.048650
2137.000000	0.049944
2138.000000	0.046324
2139.000000	0.039873
2140.000000	0.027483
2141.000000	0.028888
2142.000000	0.028278
2143.000000	0.030503
2144.000000	0.031010
2145.000000	0.036711
2146.000000	0.029608
2147.000000	0.019900
2148.000000	0.019154
2149.000000	0.018475
2150.000000	0.026526
2151.000000	0.014796
2152.000000	0.027757
2153.000000	0.028047
2154.000000	0.027267
2155.000000	0.023165
2156.000000	0.013665
2157.000000	0.031386
2158.000000	0.027646
2159.000000	0.024650
2160.000000	0.025808
2161.000000	0.025517
2162.000000	0.015614
2163.000000	0.010785
2164.000000	0.006054
2165.000000	0.020056
2166.000000	0.014208
2167.000000	0.013759
2168.000000	0.019249
2169.000000	0.015085
2170.000000	0.010858
2171.000000	0.007144
2172.000000	0.004734
2173.000000	0.017110
2174.000000	0.025151
2175.000000	0.016743
2176.000000	0.009268
2177.000000	0.006313
2178.000000	0.006455
2179.000000	0.012606
2180.000000	0.013289
2181.000000	0.009349
2182.000000	0.005000
2183.000000	0.012605
2184.000000	0.010852
2185.000000	0.020752
2186.000000	0.019737
2187.000000	0.031189
2188.000000	0.032489
2189.000000	0.034305
2190.000000	0.037187
2191.000000	0.030165
2192.000000	0.043108
2193.000000	0.033580
2194.000000	0.030696
2195.000000	0.036733
2196.000000	0.033720
2197.000000	0.032108
2198.000000	0.040100
2199.000000	0.037775
2200.000000	0.039168
2201.000000	0.028370
2202.000000	0.040807
2203.000000	0.034710
2204.000000	0.042635
2205.000000	0.043824
2206.000000	0.031482
2207.000000	0.039941
2208.000000	0.036556
2209.000000	0.036304
2210.000000	0.023297
2211.000000	0.018399
2212.000000	0.008307
2213.000000	0.020679
2214.000000	0.023913
2215.000000	0.024196
2216.000000	0.013031
2217.000000	0.010664
2218.000000	0.025373
2219.000000	0.008200
2220.000000	0.019959
2221.000000	0.018151
2222.000000	0.032385
2223.000000	0.024373
2224.000000	0.029330
2225.000000	0.014619
2226.000000	0.007877
2227.000000	0.023338
2228.000000	0.029700
2229.000000	0.024996
2230.000000	0.013890
2231.000000	0.018360
2232.000000	0.028015
2233.000000	0.038400
2234.000000	0.031286
2235.000000	0.025113
2236.000000	0.034789
2237.000000	0.034502
2238.000000	0.042100
2239.000000	0.022743
2240.000000	0.018759
2241.000000	0.029893
2242.000000	0.037055
2243.000000	0.040421
2244.000000	0.039900
2245.000000	0.046122
2246.000000	0.035963
2247.000000	0.016913
2248.000000	0.028685
2249.000000	0.027094
2250.000000	0.026654
2251.000000	0.034905
2252.000000	0.021306
2253.000000	0.028026
2254.000000	0.024911
2255.000000	0.020388
2256.000000	0.027814
2257.000000	0.027952
2258.000000	0.022600
2259.000000	0.015444
2260.000000	0.009067
2261.000000	0.026007
2262.000000	0.014684
2263.000000	0.002228
2264.000000	0.007562
2265.000000	0.006116
2266.000000	0.005529
2267.000000	0.001872
2268.000000	0.008204
2269.000000	0.008925
2270.000000	0.007419
2271.000000	0.004214
2272.000000	0.015478
2273.000000	0.011001
2274.000000	0.009097
2275.000000	0.015603
2276.000000	0.008262
2277.000000	0.003989
2278.000000	0.012855
2279.000000	0.010281
2280.000000	0.016629
2281.000000	0.006538
2282.000000	0.012689
2283.000000	0.010802
2284.000000	0.007087
2285.000000	0.005208
2286.000000	0.014684
2287.000000	0.004557
2288.000000	0.017246
2289.000000	0.005890
2290.000000	0.010751
2291.000000	0.018592
2292.000000	0.020396
2293.000000	0.019322
2294.000000	0.015509
2295.000000	0.003707
2296.000000	0.014632
2297.000000	0.017074
2298.000000	0.023483
2299.000000	0.028369
2300.000000	0.028861
2301.000000	0.017405
2302.000000	0.024721
2303.000000	0.018097
2304.000000	0.021093
2305.000000	0.019276
2306.000000	0.012471
2307.000000	0.026710
2308.000000	0.013208
2309.000000	0.013146
2310.000000	0.027672
2311.000000	0.037315
2312.000000	0.019790
2313.000000	0.023102
2314.000000	0.029436
2315.000000	0.017103
2316.000000	0.010874
2317.000000	0.008568
2318.000000	0.021274
2319.000000	0.024935
2320.000000	0.021402
2321.000000	0.029492
2322.000000	0.033994
2323.000000	0.022832
2324.000000	0.027714
2325.000000	0.036749
2326.000000	0.033007
2327.000000	0.029544
2328.000000	0.025019
2329.000000	0.013991
2330.000000	0.018709
2331.000000	0.023482
2332.000000	0.013702
2333.000000	0.014144
2334.000000	0.010925
2335.000000	0.007302
2336.000000	0.012103
2337.000000	0.017652
2338.000000	0.016568
2339.000000	0.014925
2340.000000	0.016729
2341.000000	0.015259
2342.000000	0.031510
2343.000000	0.025623
2344.000000	0.014600
2345.000000	0.015761
2346.000000	0.015499
2347.000000	0.018067
2348.000000	0.019339
2349.000000	0.021150
2350.000000	0.025989
2351.000000	0.021510
2352.000000	0.021924
2353.000000	0.023922
2354.000000	0.027412
2355.000000	0.032929
2356.000000	0.027989
2357.000000	0.019251
2358.000000	0.019131
2359.000000	0.015422
2360.000000	0.021527
2361.000000	0.027573
2362.000000	0.029929
2363.000000	0.039850
2364.000000	0.035441
2365.000000	0.029617
2366.000000	0.032837
2367.000000	0.029552
2368.000000	0.034846
2369.000000	0.036661
2370.000000	0.037682
2371.000000	0.037528
2372.000000	0.033476
2373.000000	0.041217
2374.000000	0.037421
2375.000000	0.038051
2376.000000	0.045346
2377.000000	0.039772
2378.000000	0.040098
2379.000000	0.043179
2380.000000	0.041263
2381.000000	0.046608
2382.000000	0.037792
2383.000000	0.039529
2384.000000	0.050514
2385.000000	0.040722
2386.000000	0.050535
2387.000000	0.057204
2388.000000	0.054404
2389.000000	0.062729
2390.000000	0.061366
2391.000000	0.056138
2392.000000	0.059871
2393.000000	0.070626
2394.000000	0.066920
2395.000000	0.061047
2396.000000	0.064416
2397.000000	0.060787
2398.000000	0.054051
2399.000000	0.054610
2400.000000	0.053325
2401.000000	0.056830
2402.000000	0.071646
2403.000000	0.065601
2404.000000	0.058331
2405.000000	0.060723
2406.000000	0.069743
2407.000000	0.073998
2408.000000	0.063351
2409.000000	0.066969
2410.000000	0.072258
2411.000000	0.069021
2412.000000	0.086395
2413.000000	0.095489
2414.000000	0.081028
2415.000000	0.090046
2416.000000	0.083084
2417.000000	0.090004
2418.000000	0.090093
2419.000000	0.086096
2420.000000	0.081884
2421.000000	0.077994
2422.000000	0.094510
2423.000000	0.084562
2424.000000	0.071415
2425.000000	0.085411
2426.000000	0.088275
2427.000000	0.093637
2428.000000	0.078496
2429.000000	0.074755
2430.000000	0.087685
2431.000000	0.090018
2432.000000	0.087621
2433.000000	0.082150
2434.000000	0.079345
2435.000000	0.078933
2436.000000	0.075203
2437.000000	0.083222
2438.000000	0.103253
2439.000000	0.099990
2440.000000	0.077731
2441.000000	0.091949
2442.000000	0.090550
2443.000000	0.078856
2444.000000	0.084917
2445.000000	0.082900
2446.000000	0.070641
2447.000000	0.087073
2448.000000	0.085777
2449.000000	0.067890
2450.000000	0.095941
2451.000000	0.072774
2452.000000	0.067286
2453.000000	0.070122
2454.000000	0.077606
2455.000000	0.084627
2456.000000	0.076282
2457.000000	0.070093
2458.000000	0.071925
2459.000000	0.069041
2460.000000	0.072128
2461.000000	0.057731
2462.000000	0.060161
2463.000000	0.079914
2464.000000	0.090664
2465.000000	0.081699
2466.000000	0.079891
2467.000000	0.077158
2468.000000	0.064172
2469.000000	0.080066
2470.000000	0.038418
2471.000000	0.025116
2472.000000	0.030796
2473.000000	0.017630
2474.000000	0.041492
2475.000000	0.065906
2476.000000	0.070487
2477.000000	0.051325
2478.000000	0.068969
2479.000000	0.073376
2480.000000	0.051727
2481.000000	0.051667
2482.000000	0.031930
2483.000000	0.081463
2484.000000	0.065228
2485.000000	0.145921
2486.000000	0.068188
2487.000000	0.031329
2488.000000	0.061991
2489.000000	0.040119
2490.000000	0.050035
2491.000000	0.063183
2492.000000	0.062864
2493.000000	0.070179
2494.000000	0.072786
2495.000000	0.074343
2496.000000	0.078853
2497.000000	0.053019
2498.000000	0.071716
2499.000000	0.073811
2500.000000	0.039229
