PE UV       SUBTECH     SPECTRUM    ASCII       PEDS        4.00        
   -1
CICIMAUCR0247-3.ASC
24/06/27
15:14:25.00
24/06/27
15:14:25.00
Vinicio Soto Monge
C. resplendens. Sex M. Ventral
250,000000
1
Lambda 1050
1050L1511233
PerkinElmer UV WinLab 6.3.2.0749 / 2.02.05 Lambda 900 UV/VIS/NIR, Aug  7 2015 09:38:08

0
0
3350/servo 860,8/2
0
0
UV/VIS
1
1
1
DoubleDePol,CommonBeamDepol,RBeamAtt,SBeamAtt,60mm sphere, WB InGaAs Detector
0
0
0
0
Program
Program
3350/servo 860,8/2
3350/0,2 860,8/0,2
3350/0,2 860,8/0,2
0
15.00
 
 
 
0
 
860,8
319,2
860,8
Front
100
on
S:100 R:100
0
0
0
0
 
0
 
 
 
0
 
 
0
0
0
0
0
 
 
 
 
0
0


0
0
#HDR
-1
-1
#GR
nm
%R
1.0
0.0
2500,000000
-1,000000
2251
8
66,326800
4,305400
#DATA
2482.000000	8.115895
2481.000000	8.103451
2480.000000	8.153450
2479.000000	8.092548
2478.000000	8.140895
2477.000000	8.180211
2476.000000	8.160498
2475.000000	8.139463
2474.000000	8.177458
2473.000000	8.140124
2472.000000	8.103341
2471.000000	8.151137
2470.000000	8.171401
2469.000000	8.112702
2468.000000	8.178669
2467.000000	8.193206
2466.000000	8.208735
2465.000000	8.223382
2464.000000	8.207633
2463.000000	8.275363
2462.000000	8.254328
2461.000000	8.262038
2460.000000	8.254439
2459.000000	8.295187
2458.000000	8.384392
2457.000000	8.357630
2456.000000	8.385052
2455.000000	8.442650
2454.000000	8.447936
2453.000000	8.476240
2452.000000	8.511041
2451.000000	8.561480
2450.000000	8.606303
2449.000000	8.656081
2448.000000	8.690993
2447.000000	8.783942
2446.000000	8.796827
2445.000000	8.838676
2444.000000	8.911472
2443.000000	8.924908
2442.000000	8.955304
2441.000000	9.010479
2440.000000	9.068737
2439.000000	9.120168
2438.000000	9.162898
2437.000000	9.205408
2436.000000	9.231179
2435.000000	9.291530
2434.000000	9.349788
2433.000000	9.371263
2432.000000	9.409038
2431.000000	9.443949
2430.000000	9.483596
2429.000000	9.549674
2428.000000	9.602646
2427.000000	9.610465
2426.000000	9.649892
2425.000000	9.670376
2424.000000	9.697578
2423.000000	9.743061
2422.000000	9.786452
2421.000000	9.803082
2420.000000	9.844381
2419.000000	9.884798
2418.000000	9.902969
2417.000000	9.936008
2416.000000	9.969928
2415.000000	10.011998
2414.000000	10.058693
2413.000000	10.085344
2412.000000	10.094044
2411.000000	10.130167
2410.000000	10.156268
2409.000000	10.184131
2408.000000	10.197566
2407.000000	10.214857
2406.000000	10.242279
2405.000000	10.253953
2404.000000	10.278732
2403.000000	10.291397
2402.000000	10.297564
2401.000000	10.295692
2400.000000	10.325427
2399.000000	10.345140
2398.000000	10.355382
2397.000000	10.380712
2396.000000	10.389192
2395.000000	10.415513
2394.000000	10.431041
2393.000000	10.452406
2392.000000	10.460115
2391.000000	10.466173
2390.000000	10.475974
2389.000000	10.493595
2388.000000	10.505379
2387.000000	10.501634
2386.000000	10.521237
2385.000000	10.537537
2384.000000	10.525643
2383.000000	10.527845
2382.000000	10.539849
2381.000000	10.542713
2380.000000	10.541832
2379.000000	10.545025
2378.000000	10.535885
2377.000000	10.529717
2376.000000	10.538638
2375.000000	10.542713
2374.000000	10.527184
2373.000000	10.510224
2372.000000	10.507031
2371.000000	10.498771
2370.000000	10.508022
2369.000000	10.497890
2368.000000	10.477736
2367.000000	10.462428
2366.000000	10.454499
2365.000000	10.453287
2364.000000	10.435777
2363.000000	10.400205
2362.000000	10.386769
2361.000000	10.377738
2360.000000	10.347012
2359.000000	10.326418
2358.000000	10.294260
2357.000000	10.275648
2356.000000	10.283247
2355.000000	10.273225
2354.000000	10.255054
2353.000000	10.229834
2352.000000	10.225980
2351.000000	10.243821
2350.000000	10.243711
2349.000000	10.244922
2348.000000	10.246464
2347.000000	10.256045
2346.000000	10.272565
2345.000000	10.277520
2344.000000	10.301198
2343.000000	10.332695
2342.000000	10.344259
2341.000000	10.346792
2340.000000	10.371131
2339.000000	10.396571
2338.000000	10.412209
2337.000000	10.418156
2336.000000	10.436548
2335.000000	10.439631
2334.000000	10.441614
2333.000000	10.456812
2332.000000	10.456591
2331.000000	10.463529
2330.000000	10.460446
2329.000000	10.438090
2328.000000	10.429610
2327.000000	10.415623
2326.000000	10.400866
2325.000000	10.392276
2324.000000	10.366395
2323.000000	10.343158
2322.000000	10.314854
2321.000000	10.272785
2320.000000	10.236112
2319.000000	10.190298
2318.000000	10.152413
2317.000000	10.113207
2316.000000	10.064089
2315.000000	9.998892
2314.000000	9.959136
2313.000000	9.914423
2312.000000	9.853411
2311.000000	9.799668
2310.000000	9.751211
2309.000000	9.701102
2308.000000	9.667292
2307.000000	9.644165
2306.000000	9.636015
2305.000000	9.613549
2304.000000	9.601985
2303.000000	9.594386
2302.000000	9.608042
2301.000000	9.627315
2300.000000	9.646147
2299.000000	9.684472
2298.000000	9.698789
2297.000000	9.744052
2296.000000	9.786562
2295.000000	9.819601
2294.000000	9.879622
2293.000000	9.915524
2292.000000	9.963541
2291.000000	10.000214
2290.000000	10.034795
2289.000000	10.063208
2288.000000	10.097899
2287.000000	10.117502
2286.000000	10.151312
2285.000000	10.135673
2284.000000	10.136665
2283.000000	10.137436
2282.000000	10.125762
2281.000000	10.122017
2280.000000	10.136775
2279.000000	10.109573
2278.000000	10.081600
2277.000000	10.058583
2276.000000	10.042394
2275.000000	10.013760
2274.000000	9.992064
2273.000000	9.994487
2272.000000	9.975545
2271.000000	9.950766
2270.000000	9.949444
2269.000000	9.964091
2268.000000	9.975655
2267.000000	9.999443
2266.000000	10.025434
2265.000000	10.060455
2264.000000	10.135233
2263.000000	10.222456
2262.000000	10.300868
2261.000000	10.396791
2260.000000	10.518154
2259.000000	10.647006
2258.000000	10.775307
2257.000000	10.904489
2256.000000	11.044133
2255.000000	11.197323
2254.000000	11.341814
2253.000000	11.494563
2252.000000	11.661630
2251.000000	11.783544
2250.000000	11.944333
2249.000000	12.084638
2248.000000	12.220208
2247.000000	12.335844
2246.000000	12.470312
2245.000000	12.592005
2244.000000	12.680990
2243.000000	12.789358
2242.000000	12.880105
2241.000000	12.971072
2240.000000	13.043427
2239.000000	13.113139
2238.000000	13.158953
2237.000000	13.224590
2236.000000	13.269854
2235.000000	13.314016
2234.000000	13.347495
2233.000000	13.384168
2232.000000	13.416987
2231.000000	13.413573
2230.000000	13.431414
2229.000000	13.446832
2228.000000	13.446061
2227.000000	13.433506
2226.000000	13.444189
2225.000000	13.436810
2224.000000	13.412031
2223.000000	13.377450
2222.000000	13.343530
2221.000000	13.323377
2220.000000	13.327892
2219.000000	13.284831
2218.000000	13.247607
2217.000000	13.215229
2216.000000	13.184833
2215.000000	13.117985
2214.000000	13.097941
2213.000000	13.038912
2212.000000	13.045850
2211.000000	12.964134
2210.000000	12.969530
2209.000000	12.948275
2208.000000	12.907197
2207.000000	12.862264
2206.000000	12.872506
2205.000000	12.823278
2204.000000	12.833079
2203.000000	12.804886
2202.000000	12.780547
2201.000000	12.761936
2200.000000	12.760394
2199.000000	12.719976
2198.000000	12.709514
2197.000000	12.709954
2196.000000	12.681211
2195.000000	12.675484
2194.000000	12.675043
2193.000000	12.637599
2192.000000	12.626366
2191.000000	12.627577
2190.000000	12.601146
2189.000000	12.599604
2188.000000	12.575376
2187.000000	12.563812
2186.000000	12.545751
2185.000000	12.541236
2184.000000	12.523395
2183.000000	12.523064
2182.000000	12.511941
2181.000000	12.491677
2180.000000	12.470753
2179.000000	12.467669
2178.000000	12.463264
2177.000000	12.447626
2176.000000	12.422736
2175.000000	12.433199
2174.000000	12.432097
2173.000000	12.418882
2172.000000	12.425820
2171.000000	12.423507
2170.000000	12.425379
2169.000000	12.433749
2168.000000	12.440027
2167.000000	12.441348
2166.000000	12.458859
2165.000000	12.476810
2164.000000	12.489365
2163.000000	12.494981
2162.000000	12.522734
2161.000000	12.534298
2160.000000	12.566896
2159.000000	12.581543
2158.000000	12.620529
2157.000000	12.638150
2156.000000	12.666343
2155.000000	12.718104
2154.000000	12.758081
2153.000000	12.799049
2152.000000	12.845414
2151.000000	12.870854
2150.000000	12.916007
2149.000000	12.964134
2148.000000	12.993428
2147.000000	13.030542
2146.000000	13.081312
2145.000000	13.121619
2144.000000	13.160715
2143.000000	13.208291
2142.000000	13.240119
2141.000000	13.280756
2140.000000	13.301130
2139.000000	13.344852
2138.000000	13.376239
2137.000000	13.422714
2136.000000	13.453880
2135.000000	13.465774
2134.000000	13.496060
2133.000000	13.515002
2132.000000	13.546940
2131.000000	13.573922
2130.000000	13.596608
2129.000000	13.609493
2128.000000	13.612247
2127.000000	13.629537
2126.000000	13.644955
2125.000000	13.632511
2124.000000	13.636475
2123.000000	13.639339
2122.000000	13.622929
2121.000000	13.620617
2120.000000	13.612467
2119.000000	13.632731
2118.000000	13.615110
2117.000000	13.605309
2116.000000	13.593745
2115.000000	13.571058
2114.000000	13.564781
2113.000000	13.554208
2112.000000	13.520839
2111.000000	13.493747
2110.000000	13.484606
2109.000000	13.472382
2108.000000	13.453990
2107.000000	13.425247
2106.000000	13.402670
2105.000000	13.379212
2104.000000	13.343310
2103.000000	13.323156
2102.000000	13.315007
2101.000000	13.293752
2100.000000	13.263136
2099.000000	13.233731
2098.000000	13.210714
2097.000000	13.182411
2096.000000	13.159724
2095.000000	13.131421
2094.000000	13.107412
2093.000000	13.085276
2092.000000	13.061819
2091.000000	13.036709
2090.000000	13.012591
2089.000000	13.002238
2088.000000	12.985829
2087.000000	12.959728
2086.000000	12.937152
2085.000000	12.912483
2084.000000	12.894311
2083.000000	12.862814
2082.000000	12.814798
2081.000000	12.771407
2080.000000	12.726254
2079.000000	12.697730
2078.000000	12.650594
2077.000000	12.593327
2076.000000	12.552028
2075.000000	12.502360
2074.000000	12.454343
2073.000000	12.411613
2072.000000	12.349500
2071.000000	12.286286
2070.000000	12.219106
2069.000000	12.158866
2068.000000	12.109417
2067.000000	12.059308
2066.000000	11.995213
2065.000000	11.926602
2064.000000	11.870326
2063.000000	11.813279
2062.000000	11.752047
2061.000000	11.708655
2060.000000	11.667247
2059.000000	11.608548
2058.000000	11.573636
2057.000000	11.543901
2056.000000	11.504365
2055.000000	11.479696
2054.000000	11.481128
2053.000000	11.475181
2052.000000	11.473749
2051.000000	11.485753
2050.000000	11.498858
2049.000000	11.512404
2048.000000	11.542910
2047.000000	11.588834
2046.000000	11.616367
2045.000000	11.650507
2044.000000	11.705792
2043.000000	11.755130
2042.000000	11.777266
2041.000000	11.830789
2040.000000	11.875612
2039.000000	11.915149
2038.000000	11.951051
2037.000000	11.976381
2036.000000	12.014596
2035.000000	12.057987
2034.000000	12.088603
2033.000000	12.106224
2032.000000	12.119439
2031.000000	12.150716
2030.000000	12.146861
2029.000000	12.171310
2028.000000	12.169108
2027.000000	12.184416
2026.000000	12.204129
2025.000000	12.203578
2024.000000	12.193777
2023.000000	12.187940
2022.000000	12.187279
2021.000000	12.190583
2020.000000	12.165583
2019.000000	12.156773
2018.000000	12.148073
2017.000000	12.138051
2016.000000	12.138822
2015.000000	12.116245
2014.000000	12.070431
2013.000000	12.071973
2012.000000	12.051819
2011.000000	12.024617
2010.000000	12.005785
2009.000000	11.960412
2008.000000	11.927593
2007.000000	11.903255
2006.000000	11.878586
2005.000000	11.840150
2004.000000	11.786737
2003.000000	11.764601
2002.000000	11.729690
2001.000000	11.696101
2000.000000	11.655793
1999.000000	11.608548
1998.000000	11.536633
1997.000000	11.470886
1996.000000	11.440049
1995.000000	11.381130
1994.000000	11.325735
1993.000000	11.280802
1992.000000	11.212852
1991.000000	11.175518
1990.000000	11.119572
1989.000000	11.050631
1988.000000	11.004266
1987.000000	10.967813
1986.000000	10.874093
1985.000000	10.823984
1984.000000	10.756144
1983.000000	10.696344
1982.000000	10.650420
1981.000000	10.593813
1980.000000	10.527405
1979.000000	10.459234
1978.000000	10.413310
1977.000000	10.346021
1976.000000	10.301088
1975.000000	10.246354
1974.000000	10.191289
1973.000000	10.142612
1972.000000	10.090520
1971.000000	10.017504
1970.000000	9.984465
1969.000000	9.936229
1968.000000	9.878190
1967.000000	9.830945
1966.000000	9.786673
1965.000000	9.751321
1964.000000	9.697908
1963.000000	9.658151
1962.000000	9.599342
1961.000000	9.540313
1960.000000	9.517406
1959.000000	9.456834
1958.000000	9.438443
1957.000000	9.394941
1956.000000	9.354524
1955.000000	9.282169
1954.000000	9.255848
1953.000000	9.214659
1952.000000	9.186356
1951.000000	9.150343
1950.000000	9.113670
1949.000000	9.063011
1948.000000	9.033496
1947.000000	9.017968
1946.000000	8.970392
1945.000000	8.917860
1944.000000	8.907728
1943.000000	8.912684
1942.000000	8.865218
1941.000000	8.873147
1940.000000	8.840328
1939.000000	8.824580
1938.000000	8.859381
1937.000000	8.839007
1936.000000	8.824249
1935.000000	8.844293
1934.000000	8.842090
1933.000000	8.833390
1932.000000	8.852993
1931.000000	8.865658
1930.000000	8.873698
1929.000000	8.926009
1928.000000	8.958167
1927.000000	8.991536
1926.000000	9.064552
1925.000000	9.075786
1924.000000	9.110476
1923.000000	9.150013
1922.000000	9.217743
1921.000000	9.286354
1920.000000	9.397034
1919.000000	9.469169
1918.000000	9.543066
1917.000000	9.623791
1916.000000	9.699890
1915.000000	9.760572
1914.000000	9.866847
1913.000000	9.974884
1912.000000	10.129726
1911.000000	10.272675
1910.000000	10.383025
1909.000000	10.487758
1908.000000	10.612865
1907.000000	10.734559
1906.000000	10.872221
1905.000000	11.065388
1904.000000	11.277718
1903.000000	11.491260
1902.000000	11.673965
1901.000000	11.862176
1900.000000	12.100387
1899.000000	12.324611
1898.000000	12.621410
1897.000000	12.909179
1896.000000	13.178005
1895.000000	13.425357
1894.000000	13.704095
1893.000000	14.005299
1892.000000	14.328200
1891.000000	14.730063
1890.000000	15.185669
1889.000000	15.604382
1888.000000	16.014725
1887.000000	16.461742
1886.000000	16.888494
1885.000000	17.368880
1884.000000	17.850367
1883.000000	18.399914
1882.000000	18.943183
1881.000000	19.478744
1880.000000	20.001750
1879.000000	20.480263
1878.000000	20.940605
1877.000000	21.459646
1876.000000	21.970758
1875.000000	22.449822
1874.000000	22.937806
1873.000000	23.434271
1872.000000	23.933048
1871.000000	24.415857
1870.000000	24.849327
1869.000000	25.296123
1868.000000	25.734329
1867.000000	26.064828
1866.000000	26.360746
1865.000000	26.601490
1864.000000	26.837608
1863.000000	27.049277
1862.000000	27.250374
1861.000000	27.464136
1860.000000	27.708403
1859.000000	27.959939
1858.000000	28.170838
1857.000000	28.368410
1856.000000	28.523253
1855.000000	28.631620
1854.000000	28.764326
1853.000000	28.913222
1852.000000	29.004739
1851.000000	29.072029
1850.000000	29.132270
1849.000000	29.173678
1848.000000	29.237003
1847.000000	29.357815
1846.000000	29.448342
1845.000000	29.475434
1844.000000	29.426316
1843.000000	29.379731
1842.000000	29.364423
1841.000000	29.398453
1840.000000	29.460786
1839.000000	29.489420
1838.000000	29.485676
1837.000000	29.478077
1836.000000	29.469266
1835.000000	29.457593
1834.000000	29.422571
1833.000000	29.372683
1832.000000	29.304402
1831.000000	29.249227
1830.000000	29.232377
1829.000000	29.216629
1828.000000	29.164868
1827.000000	29.099010
1826.000000	29.056390
1825.000000	29.035135
1824.000000	28.987009
1823.000000	28.910909
1822.000000	28.859699
1821.000000	28.858487
1820.000000	28.879302
1819.000000	28.879632
1818.000000	28.840977
1817.000000	28.785692
1816.000000	28.733820
1815.000000	28.699240
1814.000000	28.685804
1813.000000	28.656950
1812.000000	28.637677
1811.000000	28.621158
1810.000000	28.583053
1809.000000	28.545609
1808.000000	28.496711
1807.000000	28.450787
1806.000000	28.411361
1805.000000	28.363895
1804.000000	28.325129
1803.000000	28.279095
1802.000000	28.222819
1801.000000	28.194515
1800.000000	28.159825
1799.000000	28.112799
1798.000000	28.057184
1797.000000	28.003551
1796.000000	27.956195
1795.000000	27.909170
1794.000000	27.882188
1793.000000	27.844523
1792.000000	27.803555
1791.000000	27.763027
1790.000000	27.704328
1789.000000	27.663691
1788.000000	27.626136
1787.000000	27.581093
1786.000000	27.552239
1785.000000	27.529112
1784.000000	27.499818
1783.000000	27.462924
1782.000000	27.412705
1781.000000	27.371957
1780.000000	27.323830
1779.000000	27.279118
1778.000000	27.242555
1777.000000	27.199274
1776.000000	27.142006
1775.000000	27.067999
1774.000000	27.011723
1773.000000	26.950271
1772.000000	26.903025
1771.000000	26.853246
1770.000000	26.774283
1769.000000	26.700276
1768.000000	26.629022
1767.000000	26.573187
1766.000000	26.516250
1765.000000	26.453255
1764.000000	26.398741
1763.000000	26.358324
1762.000000	26.343786
1761.000000	26.345769
1760.000000	26.348742
1759.000000	26.382442
1758.000000	26.415701
1757.000000	26.459973
1756.000000	26.507770
1755.000000	26.560852
1754.000000	26.615366
1753.000000	26.653141
1752.000000	26.671532
1751.000000	26.712501
1750.000000	26.733976
1749.000000	26.749504
1748.000000	26.742456
1747.000000	26.707214
1746.000000	26.681995
1745.000000	26.657436
1744.000000	26.612393
1743.000000	26.535632
1742.000000	26.453916
1741.000000	26.365042
1740.000000	26.267026
1739.000000	26.155134
1738.000000	26.035423
1737.000000	25.899744
1736.000000	25.796442
1735.000000	25.697876
1734.000000	25.605808
1733.000000	25.543805
1732.000000	25.510986
1731.000000	25.485436
1730.000000	25.478828
1729.000000	25.512418
1728.000000	25.560324
1727.000000	25.606468
1726.000000	25.675189
1725.000000	25.734329
1724.000000	25.784328
1723.000000	25.839833
1722.000000	25.913730
1721.000000	25.981129
1720.000000	26.045115
1719.000000	26.118681
1718.000000	26.210750
1717.000000	26.320659
1716.000000	26.424622
1715.000000	26.538716
1714.000000	26.650167
1713.000000	26.763491
1712.000000	26.871858
1711.000000	26.973838
1710.000000	27.053572
1709.000000	27.120751
1708.000000	27.193106
1707.000000	27.225044
1706.000000	27.209956
1705.000000	27.230440
1704.000000	27.227247
1703.000000	27.198172
1702.000000	27.153019
1701.000000	27.084298
1700.000000	27.019212
1699.000000	26.938046
1698.000000	26.851484
1697.000000	26.740694
1696.000000	26.638604
1695.000000	26.569883
1694.000000	26.544773
1693.000000	26.516139
1692.000000	26.528033
1691.000000	26.587283
1690.000000	26.651929
1689.000000	26.753799
1688.000000	26.855779
1687.000000	26.970534
1686.000000	27.090576
1685.000000	27.175045
1684.000000	27.328125
1683.000000	27.465898
1682.000000	27.629771
1681.000000	27.830867
1680.000000	28.120949
1679.000000	28.449025
1678.000000	28.758710
1677.000000	29.131278
1676.000000	29.489310
1675.000000	29.825756
1674.000000	30.175197
1673.000000	30.469244
1672.000000	30.755250
1671.000000	31.007668
1670.000000	31.240922
1669.000000	31.418672
1668.000000	31.614042
1667.000000	31.798178
1666.000000	31.938814
1665.000000	32.052908
1664.000000	32.180328
1663.000000	32.261714
1662.000000	32.359950
1661.000000	32.445741
1660.000000	32.497171
1659.000000	32.563469
1658.000000	32.613909
1657.000000	32.661044
1656.000000	32.687035
1655.000000	32.725580
1654.000000	32.728554
1653.000000	32.734611
1652.000000	32.729655
1651.000000	32.712255
1650.000000	32.697938
1649.000000	32.646507
1648.000000	32.626353
1647.000000	32.584504
1646.000000	32.567104
1645.000000	32.518316
1644.000000	32.461379
1643.000000	32.414574
1642.000000	32.348717
1641.000000	32.298497
1640.000000	32.246186
1639.000000	32.206429
1638.000000	32.160175
1637.000000	32.099053
1636.000000	32.024385
1635.000000	31.968769
1634.000000	31.904564
1633.000000	31.828464
1632.000000	31.761285
1631.000000	31.695758
1630.000000	31.640583
1629.000000	31.562831
1628.000000	31.461622
1627.000000	31.387285
1626.000000	31.287177
1625.000000	31.214381
1624.000000	31.136960
1623.000000	31.043680
1622.000000	30.974078
1621.000000	30.885974
1620.000000	30.793796
1619.000000	30.706904
1618.000000	30.646112
1617.000000	30.565387
1616.000000	30.487525
1615.000000	30.405919
1614.000000	30.326846
1613.000000	30.253059
1612.000000	30.181365
1611.000000	30.086763
1610.000000	30.009122
1609.000000	29.913529
1608.000000	29.840293
1607.000000	29.761000
1606.000000	29.664196
1605.000000	29.565960
1604.000000	29.471359
1603.000000	29.397462
1602.000000	29.304292
1601.000000	29.224778
1600.000000	29.116962
1599.000000	29.014981
1598.000000	28.916526
1597.000000	28.812233
1596.000000	28.737455
1595.000000	28.657941
1594.000000	28.571820
1593.000000	28.473254
1592.000000	28.380524
1591.000000	28.325570
1590.000000	28.240109
1589.000000	28.137358
1588.000000	28.059937
1587.000000	27.977450
1586.000000	27.902892
1585.000000	27.837475
1584.000000	27.759283
1583.000000	27.689681
1582.000000	27.603450
1581.000000	27.538914
1580.000000	27.465347
1579.000000	27.388366
1578.000000	27.320967
1577.000000	27.272840
1576.000000	27.205551
1575.000000	27.163482
1574.000000	27.114804
1573.000000	27.077580
1572.000000	27.018551
1571.000000	26.982098
1570.000000	26.964037
1569.000000	26.910404
1568.000000	26.878136
1567.000000	26.849832
1566.000000	26.828687
1565.000000	26.803688
1564.000000	26.773953
1563.000000	26.730782
1562.000000	26.706223
1561.000000	26.674396
1560.000000	26.608758
1559.000000	26.565257
1558.000000	26.533320
1557.000000	26.483211
1556.000000	26.426494
1555.000000	26.367685
1554.000000	26.299735
1553.000000	26.217468
1552.000000	26.143901
1551.000000	26.065819
1550.000000	25.989169
1549.000000	25.907673
1548.000000	25.822212
1547.000000	25.752170
1546.000000	25.671996
1545.000000	25.598649
1544.000000	25.533342
1543.000000	25.456031
1542.000000	25.394249
1541.000000	25.343919
1540.000000	25.292709
1539.000000	25.231477
1538.000000	25.172227
1537.000000	25.119255
1536.000000	25.054388
1535.000000	24.981372
1534.000000	24.934898
1533.000000	24.892167
1532.000000	24.827962
1531.000000	24.748999
1530.000000	24.679837
1529.000000	24.609685
1528.000000	24.538431
1527.000000	24.463543
1526.000000	24.390417
1525.000000	24.314097
1524.000000	24.237777
1523.000000	24.159475
1522.000000	24.091415
1521.000000	24.008157
1520.000000	23.916419
1519.000000	23.841861
1518.000000	23.763338
1517.000000	23.685807
1516.000000	23.605523
1515.000000	23.506516
1514.000000	23.424690
1513.000000	23.342643
1512.000000	23.257733
1511.000000	23.182735
1510.000000	23.103001
1509.000000	23.012805
1508.000000	22.915670
1507.000000	22.816994
1506.000000	22.728119
1505.000000	22.657637
1504.000000	22.580546
1503.000000	22.490680
1502.000000	22.404448
1501.000000	22.319869
1500.000000	22.240135
1499.000000	22.168000
1498.000000	22.103684
1497.000000	22.028135
1496.000000	21.950714
1495.000000	21.883865
1494.000000	21.804132
1493.000000	21.741248
1492.000000	21.689487
1491.000000	21.624070
1490.000000	21.561846
1489.000000	21.506121
1488.000000	21.451717
1487.000000	21.394670
1486.000000	21.341147
1485.000000	21.300619
1484.000000	21.252823
1483.000000	21.190820
1482.000000	21.140270
1481.000000	21.103707
1480.000000	21.063730
1479.000000	21.026066
1478.000000	20.989613
1477.000000	20.958997
1476.000000	20.921332
1475.000000	20.895452
1474.000000	20.869681
1473.000000	20.858999
1472.000000	20.829374
1471.000000	20.829044
1470.000000	20.832458
1469.000000	20.817039
1468.000000	20.797546
1467.000000	20.775410
1466.000000	20.782899
1465.000000	20.801401
1464.000000	20.790608
1463.000000	20.784771
1462.000000	20.796886
1461.000000	20.841158
1460.000000	20.871003
1459.000000	20.879042
1458.000000	20.920671
1457.000000	20.941156
1456.000000	20.987961
1455.000000	21.050735
1454.000000	21.102275
1453.000000	21.150402
1452.000000	21.206128
1451.000000	21.275399
1450.000000	21.355684
1449.000000	21.409647
1448.000000	21.443787
1447.000000	21.514160
1446.000000	21.610083
1445.000000	21.688716
1444.000000	21.749397
1443.000000	21.825717
1442.000000	21.910517
1441.000000	21.993775
1440.000000	22.088486
1439.000000	22.204343
1438.000000	22.304341
1437.000000	22.411937
1436.000000	22.506649
1435.000000	22.629774
1434.000000	22.742546
1433.000000	22.866773
1432.000000	23.008730
1431.000000	23.158616
1430.000000	23.305419
1429.000000	23.457729
1428.000000	23.607174
1427.000000	23.772039
1426.000000	23.957497
1425.000000	24.163880
1424.000000	24.350880
1423.000000	24.563210
1422.000000	24.798777
1421.000000	25.019918
1420.000000	25.233459
1419.000000	25.491713
1418.000000	25.770231
1417.000000	26.049410
1416.000000	26.310637
1415.000000	26.598627
1414.000000	26.924170
1413.000000	27.285175
1412.000000	27.616004
1411.000000	27.938794
1410.000000	28.291099
1409.000000	28.724019
1408.000000	29.159802
1407.000000	29.610673
1406.000000	30.049099
1405.000000	30.488737
1404.000000	30.983439
1403.000000	31.455235
1402.000000	31.959298
1401.000000	32.428340
1400.000000	33.026785
1399.000000	33.620604
1398.000000	34.148015
1397.000000	34.540407
1396.000000	35.055263
1395.000000	35.694235
1394.000000	36.379793
1393.000000	36.884186
1392.000000	37.388911
1391.000000	38.029425
1390.000000	38.679961
1389.000000	39.225213
1388.000000	39.876409
1387.000000	40.628595
1386.000000	41.318557
1385.000000	42.000811
1384.000000	42.625246
1383.000000	43.301552
1382.000000	44.007373
1381.000000	44.656587
1380.000000	45.277939
1379.000000	45.606125
1378.000000	46.094110
1377.000000	46.411724
1376.000000	46.755659
1375.000000	47.069418
1374.000000	47.356306
1373.000000	47.670065
1372.000000	47.977768
1371.000000	48.301659
1370.000000	48.686672
1369.000000	48.968274
1368.000000	49.258906
1367.000000	49.551521
1366.000000	49.840281
1365.000000	50.056685
1364.000000	50.317032
1363.000000	50.516807
1362.000000	50.695327
1361.000000	50.931776
1360.000000	51.159854
1359.000000	51.248068
1358.000000	51.386832
1357.000000	51.523723
1356.000000	51.682420
1355.000000	51.864023
1354.000000	52.110714
1353.000000	52.387249
1352.000000	52.594183
1351.000000	52.948470
1350.000000	53.295929
1349.000000	53.633917
1348.000000	53.995142
1347.000000	54.317162
1346.000000	54.686316
1345.000000	54.965054
1344.000000	55.269893
1343.000000	55.600392
1342.000000	55.911949
1341.000000	56.210180
1340.000000	56.528455
1339.000000	56.839792
1338.000000	57.141987
1337.000000	57.424030
1336.000000	57.733934
1335.000000	58.032606
1334.000000	58.318172
1333.000000	58.620809
1332.000000	58.896683
1331.000000	59.177184
1330.000000	59.459887
1329.000000	59.740167
1328.000000	59.994015
1327.000000	60.244120
1326.000000	60.495436
1325.000000	60.741686
1324.000000	60.978024
1323.000000	61.208525
1322.000000	61.414358
1321.000000	61.635718
1320.000000	61.863577
1319.000000	62.073594
1318.000000	62.265550
1317.000000	62.463233
1316.000000	62.644836
1315.000000	62.832607
1314.000000	63.001987
1313.000000	63.161455
1312.000000	63.334358
1311.000000	63.477417
1310.000000	63.640188
1309.000000	63.792718
1308.000000	63.945358
1307.000000	64.050642
1306.000000	64.178943
1305.000000	64.278940
1304.000000	64.403387
1303.000000	64.505477
1302.000000	64.586202
1301.000000	64.672764
1300.000000	64.757674
1299.000000	64.824743
1298.000000	64.904477
1297.000000	64.972647
1296.000000	65.026170
1295.000000	65.073195
1294.000000	65.118349
1293.000000	65.165044
1292.000000	65.203038
1291.000000	65.222091
1290.000000	65.244998
1289.000000	65.280349
1288.000000	65.304468
1287.000000	65.296208
1286.000000	65.297089
1285.000000	65.300283
1284.000000	65.299402
1283.000000	65.288058
1282.000000	65.278477
1281.000000	65.251055
1280.000000	65.233214
1279.000000	65.221100
1278.000000	65.204800
1277.000000	65.170770
1276.000000	65.161850
1275.000000	65.173413
1274.000000	65.148414
1273.000000	65.120331
1272.000000	65.117688
1271.000000	65.117468
1270.000000	65.109318
1269.000000	65.104252
1268.000000	65.103041
1267.000000	65.099627
1266.000000	65.099847
1265.000000	65.086081
1264.000000	65.045663
1263.000000	65.029584
1262.000000	65.018021
1261.000000	64.983440
1260.000000	64.952383
1259.000000	64.928595
1258.000000	64.889609
1257.000000	64.867473
1256.000000	64.838729
1255.000000	64.780691
1254.000000	64.727168
1253.000000	64.688953
1252.000000	64.624307
1251.000000	64.563846
1250.000000	64.519574
1249.000000	64.443254
1248.000000	64.365172
1247.000000	64.298543
1246.000000	64.195792
1245.000000	64.099209
1244.000000	64.030708
1243.000000	63.946239
1242.000000	63.854941
1241.000000	63.756485
1240.000000	63.669593
1239.000000	63.589419
1238.000000	63.506160
1237.000000	63.411449
1236.000000	63.319601
1235.000000	63.223458
1234.000000	63.132050
1233.000000	63.043396
1232.000000	62.951547
1231.000000	62.863444
1230.000000	62.759041
1229.000000	62.640982
1228.000000	62.528539
1227.000000	62.423035
1226.000000	62.312245
1225.000000	62.182072
1224.000000	62.048925
1223.000000	61.916549
1222.000000	61.790671
1221.000000	61.666885
1220.000000	61.542989
1219.000000	61.407860
1218.000000	61.263150
1217.000000	61.133637
1216.000000	61.009851
1215.000000	60.884193
1214.000000	60.761950
1213.000000	60.624948
1212.000000	60.503806
1211.000000	60.386628
1210.000000	60.245552
1209.000000	60.109652
1208.000000	59.992253
1207.000000	59.883555
1206.000000	59.766267
1205.000000	59.650741
1204.000000	59.541382
1203.000000	59.464732
1202.000000	59.384778
1201.000000	59.295793
1200.000000	59.214187
1199.000000	59.143043
1198.000000	59.061437
1197.000000	58.982364
1196.000000	58.886001
1195.000000	58.759462
1194.000000	58.627967
1193.000000	58.483147
1192.000000	58.298239
1191.000000	58.100116
1190.000000	57.873579
1189.000000	57.655412
1188.000000	57.454095
1187.000000	57.287579
1186.000000	57.163573
1185.000000	57.085711
1184.000000	57.074368
1183.000000	57.126790
1182.000000	57.271500
1181.000000	57.467311
1180.000000	57.727877
1179.000000	58.001439
1178.000000	58.288217
1177.000000	58.594267
1176.000000	58.883908
1175.000000	59.138088
1174.000000	59.372884
1173.000000	59.582461
1172.000000	59.796443
1171.000000	60.020557
1170.000000	60.245221
1169.000000	60.465591
1168.000000	60.686841
1167.000000	60.936285
1166.000000	61.181433
1165.000000	61.444203
1164.000000	61.717765
1163.000000	61.990886
1162.000000	62.268523
1161.000000	62.549244
1160.000000	62.850779
1159.000000	63.139319
1158.000000	63.425435
1157.000000	63.729944
1156.000000	63.994365
1155.000000	64.254161
1154.000000	64.520345
1153.000000	64.764832
1152.000000	64.989607
1151.000000	65.190043
1150.000000	65.382880
1149.000000	65.575827
1148.000000	65.772409
1147.000000	65.975488
1146.000000	66.192664
1145.000000	66.415566
1144.000000	66.685494
1143.000000	66.935708
1142.000000	67.234270
1141.000000	67.556289
1140.000000	67.903748
1139.000000	68.245370
1138.000000	68.618710
1137.000000	68.996344
1136.000000	69.407569
1135.000000	69.813176
1134.000000	70.240589
1133.000000	70.661064
1132.000000	70.974824
1131.000000	71.296513
1130.000000	71.590779
1129.000000	71.838351
1128.000000	72.061694
1127.000000	72.244068
1126.000000	72.410144
1125.000000	72.555845
1124.000000	72.682164
1123.000000	72.769827
1122.000000	72.860794
1121.000000	72.905067
1120.000000	72.965858
1119.000000	72.989536
1118.000000	73.016077
1117.000000	73.042288
1116.000000	73.045482
1115.000000	73.038654
1114.000000	73.035790
1113.000000	73.024777
1112.000000	73.032707
1111.000000	73.029073
1110.000000	73.034359
1109.000000	73.000659
1108.000000	72.998677
1107.000000	72.984580
1106.000000	72.969052
1105.000000	72.980615
1104.000000	72.959360
1103.000000	72.955396
1102.000000	72.924229
1101.000000	72.906718
1100.000000	72.907159
1099.000000	72.882930
1098.000000	72.871036
1097.000000	72.813989
1096.000000	72.833152
1095.000000	72.814540
1094.000000	72.780620
1093.000000	72.749784
1092.000000	72.705071
1091.000000	72.687450
1090.000000	72.646482
1089.000000	72.603091
1088.000000	72.545273
1087.000000	72.505736
1086.000000	72.451993
1085.000000	72.400563
1084.000000	72.340542
1083.000000	72.288340
1082.000000	72.250676
1081.000000	72.208386
1080.000000	72.142419
1079.000000	72.068191
1078.000000	72.013677
1077.000000	71.957731
1076.000000	71.891213
1075.000000	71.841434
1074.000000	71.758507
1073.000000	71.680425
1072.000000	71.617871
1071.000000	71.558952
1070.000000	71.483072
1069.000000	71.412810
1068.000000	71.325477
1067.000000	71.260500
1066.000000	71.181647
1065.000000	71.106098
1064.000000	71.003458
1063.000000	70.927909
1062.000000	70.875707
1061.000000	70.794321
1060.000000	70.691350
1059.000000	70.624501
1058.000000	70.529019
1057.000000	70.431004
1056.000000	70.328913
1055.000000	70.263717
1054.000000	70.161957
1053.000000	70.088060
1052.000000	69.989274
1051.000000	69.910200
1050.000000	69.809101
1049.000000	69.712628
1048.000000	69.619348
1047.000000	69.554151
1046.000000	69.467369
1045.000000	69.392921
1044.000000	69.282021
1043.000000	69.208124
1042.000000	69.114183
1041.000000	69.019582
1040.000000	68.943592
1039.000000	68.848991
1038.000000	68.770028
1037.000000	68.672123
1036.000000	68.573557
1035.000000	68.479065
1034.000000	68.404287
1033.000000	68.286339
1032.000000	68.203191
1031.000000	68.095814
1030.000000	67.978086
1029.000000	67.882713
1028.000000	67.783707
1027.000000	67.691308
1026.000000	67.578425
1025.000000	67.478868
1024.000000	67.375676
1023.000000	67.258939
1022.000000	67.159712
1021.000000	67.067313
1020.000000	66.953880
1019.000000	66.850798
1018.000000	66.742541
1017.000000	66.624592
1016.000000	66.533515
1015.000000	66.442107
1014.000000	66.343431
1013.000000	66.264798
1012.000000	66.170417
1011.000000	66.124603
1010.000000	66.048504
1009.000000	65.950158
1008.000000	65.864587
1007.000000	65.801593
1006.000000	65.741793
1005.000000	65.676376
1004.000000	65.606443
1003.000000	65.535079
1002.000000	65.472416
1001.000000	65.407219
1000.000000	65.340700
999.000000	65.289050
998.000000	65.229910
997.000000	65.154471
996.000000	65.104142
995.000000	65.055575
994.000000	64.983880
993.000000	64.908331
992.000000	64.857782
991.000000	64.805580
990.000000	64.755361
989.000000	64.711970
988.000000	64.653822
987.000000	64.600078
986.000000	64.579815
985.000000	64.533340
984.000000	64.487746
983.000000	64.438738
982.000000	64.409114
981.000000	64.379268
980.000000	64.334005
979.000000	64.283125
978.000000	64.258016
977.000000	64.254602
976.000000	64.214404
975.000000	64.174207
974.000000	64.157798
973.000000	64.128393
972.000000	64.092931
971.000000	64.081368
970.000000	64.064518
969.000000	64.023990
968.000000	64.004497
967.000000	64.000533
966.000000	63.997339
965.000000	63.983462
964.000000	63.949212
963.000000	63.931922
962.000000	63.945688
961.000000	63.947670
960.000000	63.930490
959.000000	63.931371
958.000000	63.924984
957.000000	63.934455
956.000000	63.937538
955.000000	63.930380
954.000000	63.958573
953.000000	63.965621
952.000000	63.982802
951.000000	64.007691
950.000000	63.996017
949.000000	63.995797
948.000000	64.017823
947.000000	64.017713
946.000000	64.003286
945.000000	64.017823
944.000000	64.009783
943.000000	63.976745
942.000000	63.948001
941.000000	63.936878
940.000000	63.909565
939.000000	63.854721
938.000000	63.820140
937.000000	63.807916
936.000000	63.770692
935.000000	63.728292
934.000000	63.683139
933.000000	63.658250
932.000000	63.653294
931.000000	63.615409
930.000000	63.559463
929.000000	63.509024
928.000000	63.461338
927.000000	63.430722
926.000000	63.379181
925.000000	63.322024
924.000000	63.257598
923.000000	63.211123
922.000000	63.158922
921.000000	63.106720
920.000000	63.041193
919.000000	62.968728
918.000000	62.918398
917.000000	62.860911
916.000000	62.781507
915.000000	62.696707
914.000000	62.620277
913.000000	62.551116
912.000000	62.469069
911.000000	62.391758
910.000000	62.316650
909.000000	62.240881
908.000000	62.174803
907.000000	62.100686
906.000000	62.051127
905.000000	61.978662
904.000000	61.900029
903.000000	61.833842
902.000000	61.770517
901.000000	61.695188
900.000000	61.632304
899.000000	61.573605
898.000000	61.514576
897.000000	61.456537
896.000000	61.376363
895.000000	61.276585
894.000000	61.207534
893.000000	61.144980
892.000000	61.068000
891.000000	60.958201
890.000000	60.863709
889.000000	60.766795
888.000000	60.634419
887.000000	60.521316
886.000000	60.427706
885.000000	60.299295
884.000000	60.178593
883.000000	60.027275
882.000000	59.901066
881.000000	59.746664
880.000000	59.604046
879.000000	59.418588
878.000000	59.269252
877.000000	59.096459
876.000000	58.911221
875.000000	58.704287
874.000000	58.411452
873.000000	58.127868
872.000000	57.847148
871.000000	57.538014
870.000000	57.335485
869.000000	57.252668
868.000000	57.228329
867.000000	57.207074
866.000000	57.191986
865.000000	57.157075
864.000000	57.135159
863.000000	57.096834
862.000000	57.058289
861.000000	57.025911
860.000000	56.977784
859.000000	56.959503
858.000000	56.926133
857.000000	56.410800
856.000000	57.299600
855.000000	57.068000
854.000000	57.503700
853.000000	57.434800
852.000000	57.007300
851.000000	56.621800
850.000000	56.795400
849.000000	56.849800
848.000000	56.645900
847.000000	56.629200
846.000000	56.917500
845.000000	56.867200
844.000000	56.779200
843.000000	56.678500
842.000000	56.948400
841.000000	56.673700
840.000000	56.560400
839.000000	56.445000
838.000000	56.345500
837.000000	56.292700
836.000000	56.172800
835.000000	56.136900
834.000000	56.198100
833.000000	56.147700
832.000000	55.822000
831.000000	55.925400
830.000000	55.961500
829.000000	55.872900
828.000000	55.818900
827.000000	55.675900
826.000000	55.448600
825.000000	55.536400
824.000000	55.485600
823.000000	55.180400
822.000000	55.143800
821.000000	55.201800
820.000000	55.008900
819.000000	55.024200
818.000000	54.851800
817.000000	54.838400
816.000000	54.591500
815.000000	54.593100
814.000000	54.457300
813.000000	54.348400
812.000000	54.317800
811.000000	54.103700
810.000000	54.085500
809.000000	53.893000
808.000000	53.907300
807.000000	53.825900
806.000000	53.675400
805.000000	53.619700
804.000000	53.475700
803.000000	53.425700
802.000000	53.122500
801.000000	53.194700
800.000000	53.097800
799.000000	53.015500
798.000000	52.863000
797.000000	52.633700
796.000000	52.625300
795.000000	52.479700
794.000000	52.224300
793.000000	52.147300
792.000000	52.132400
791.000000	51.917700
790.000000	51.798600
789.000000	51.765300
788.000000	51.657700
787.000000	51.573600
786.000000	51.201200
785.000000	51.239700
784.000000	50.952900
783.000000	51.042800
782.000000	50.858300
781.000000	50.602500
780.000000	50.466900
779.000000	50.314600
778.000000	50.228200
777.000000	50.035700
776.000000	49.924200
775.000000	49.774600
774.000000	49.582900
773.000000	49.442900
772.000000	49.264200
771.000000	49.196800
770.000000	49.116800
769.000000	48.780800
768.000000	48.640500
767.000000	48.467500
766.000000	48.381600
765.000000	48.132000
764.000000	48.105900
763.000000	47.874400
762.000000	47.765800
761.000000	47.630500
760.000000	47.434000
759.000000	47.261200
758.000000	47.106600
757.000000	46.941500
756.000000	46.769900
755.000000	46.593200
754.000000	46.460100
753.000000	46.210300
752.000000	46.037400
751.000000	45.874100
750.000000	45.686000
749.000000	45.530000
748.000000	45.301600
747.000000	45.207200
746.000000	44.977500
745.000000	44.823500
744.000000	44.692600
743.000000	44.498500
742.000000	44.272100
741.000000	44.124000
740.000000	43.912900
739.000000	43.784800
738.000000	43.595300
737.000000	43.354300
736.000000	43.162600
735.000000	42.954200
734.000000	42.799600
733.000000	42.519100
732.000000	42.383100
731.000000	42.123100
730.000000	41.967000
729.000000	41.737000
728.000000	41.540500
727.000000	41.347200
726.000000	41.157000
725.000000	40.914500
724.000000	40.782400
723.000000	40.519800
722.000000	40.296600
721.000000	40.042800
720.000000	39.858800
719.000000	39.595900
718.000000	39.429700
717.000000	39.179300
716.000000	38.903400
715.000000	38.674900
714.000000	38.431600
713.000000	38.223500
712.000000	38.037900
711.000000	37.803500
710.000000	37.569500
709.000000	37.362600
708.000000	37.110200
707.000000	36.900800
706.000000	36.674500
705.000000	36.462800
704.000000	36.171200
703.000000	35.930100
702.000000	35.770100
701.000000	35.483600
700.000000	35.235800
699.000000	35.003500
698.000000	34.734600
697.000000	34.580700
696.000000	34.346800
695.000000	34.099100
694.000000	33.878500
693.000000	33.653700
692.000000	33.427800
691.000000	33.218200
690.000000	32.988100
689.000000	32.774600
688.000000	32.577400
687.000000	32.331000
686.000000	32.109300
685.000000	31.888900
684.000000	31.683100
683.000000	31.492300
682.000000	31.240300
681.000000	31.034500
680.000000	30.857500
679.000000	30.655900
678.000000	30.496000
677.000000	30.284600
676.000000	30.107100
675.000000	29.913700
674.000000	29.723200
673.000000	29.517800
672.000000	29.339700
671.000000	29.176600
670.000000	29.005400
669.000000	28.848000
668.000000	28.670000
667.000000	28.479300
666.000000	28.313200
665.000000	28.159000
664.000000	28.006500
663.000000	27.834900
662.000000	27.699600
661.000000	27.575600
660.000000	27.405900
659.000000	27.251200
658.000000	27.086600
657.000000	26.948900
656.000000	26.835900
655.000000	26.711000
654.000000	26.585500
653.000000	26.449000
652.000000	26.324700
651.000000	26.224200
650.000000	26.097500
649.000000	25.980700
648.000000	25.875100
647.000000	25.772100
646.000000	25.673000
645.000000	25.577800
644.000000	25.475100
643.000000	25.385900
642.000000	25.299700
641.000000	25.217300
640.000000	25.131000
639.000000	25.055800
638.000000	24.990500
637.000000	24.910700
636.000000	24.848600
635.000000	24.791300
634.000000	24.724200
633.000000	24.673400
632.000000	24.623800
631.000000	24.565700
630.000000	24.496400
629.000000	24.443500
628.000000	24.428000
627.000000	24.389100
626.000000	24.353200
625.000000	24.325600
624.000000	24.288600
623.000000	24.268000
622.000000	24.244800
621.000000	24.227600
620.000000	24.221900
619.000000	24.212900
618.000000	24.198300
617.000000	24.195500
616.000000	24.215600
615.000000	24.214300
614.000000	24.216100
613.000000	24.219100
612.000000	24.246400
611.000000	24.276100
610.000000	24.289400
609.000000	24.317500
608.000000	24.340100
607.000000	24.353000
606.000000	24.406100
605.000000	24.451300
604.000000	24.489800
603.000000	24.532300
602.000000	24.565700
601.000000	24.582300
600.000000	24.611400
599.000000	24.652700
598.000000	24.705100
597.000000	24.741800
596.000000	24.761700
595.000000	24.797200
594.000000	24.829500
593.000000	24.862600
592.000000	24.898800
591.000000	24.922000
590.000000	24.952100
589.000000	24.970700
588.000000	24.981700
587.000000	24.993900
586.000000	25.005200
585.000000	25.011500
584.000000	25.010700
583.000000	25.012100
582.000000	24.993900
581.000000	24.962800
580.000000	24.964500
579.000000	24.952300
578.000000	24.942600
577.000000	24.924800
576.000000	24.868600
575.000000	24.827800
574.000000	24.787400
573.000000	24.738700
572.000000	24.684000
571.000000	24.628200
570.000000	24.563100
569.000000	24.502500
568.000000	24.442700
567.000000	24.380900
566.000000	24.300600
565.000000	24.218800
564.000000	24.128800
563.000000	24.039500
562.000000	23.947600
561.000000	23.824500
560.000000	23.741000
559.000000	23.645700
558.000000	23.523600
557.000000	23.398100
556.000000	23.285000
555.000000	23.159000
554.000000	23.044300
553.000000	22.905800
552.000000	22.765400
551.000000	22.614000
550.000000	22.472700
549.000000	22.330400
548.000000	22.159900
547.000000	22.010400
546.000000	21.829400
545.000000	21.667000
544.000000	21.512400
543.000000	21.325500
542.000000	21.137000
541.000000	20.949000
540.000000	20.758100
539.000000	20.579000
538.000000	20.393700
537.000000	20.193900
536.000000	19.998700
535.000000	19.803100
534.000000	19.600600
533.000000	19.406100
532.000000	19.191300
531.000000	18.969700
530.000000	18.757900
529.000000	18.542800
528.000000	18.336600
527.000000	18.128100
526.000000	17.896800
525.000000	17.691900
524.000000	17.480300
523.000000	17.278000
522.000000	17.069700
521.000000	16.852000
520.000000	16.638400
519.000000	16.452600
518.000000	16.251200
517.000000	16.059500
516.000000	15.858200
515.000000	15.684500
514.000000	15.490800
513.000000	15.310800
512.000000	15.127400
511.000000	14.954000
510.000000	14.778500
509.000000	14.616600
508.000000	14.456400
507.000000	14.319100
506.000000	14.160200
505.000000	13.998700
504.000000	13.866800
503.000000	13.737900
502.000000	13.609200
501.000000	13.461000
500.000000	13.329400
499.000000	13.214700
498.000000	13.101100
497.000000	12.988100
496.000000	12.887300
495.000000	12.782800
494.000000	12.697300
493.000000	12.585500
492.000000	12.509900
491.000000	12.412900
490.000000	12.318500
489.000000	12.230100
488.000000	12.150700
487.000000	12.073100
486.000000	12.005600
485.000000	11.927200
484.000000	11.858900
483.000000	11.770900
482.000000	11.689100
481.000000	11.611700
480.000000	11.526500
479.000000	11.452000
478.000000	11.369800
477.000000	11.305400
476.000000	11.231700
475.000000	11.165200
474.000000	11.091200
473.000000	11.029400
472.000000	10.968000
471.000000	10.906900
470.000000	10.826900
469.000000	10.788400
468.000000	10.719700
467.000000	10.675400
466.000000	10.616100
465.000000	10.562300
464.000000	10.500700
463.000000	10.447100
462.000000	10.391500
461.000000	10.361100
460.000000	10.297000
459.000000	10.237600
458.000000	10.204100
457.000000	10.157200
456.000000	10.088400
455.000000	10.044300
454.000000	10.011200
453.000000	9.935500
452.000000	9.918000
451.000000	9.871500
450.000000	9.832500
449.000000	9.783200
448.000000	9.744500
447.000000	9.679800
446.000000	9.639300
445.000000	9.609400
444.000000	9.572900
443.000000	9.512100
442.000000	9.459800
441.000000	9.419700
440.000000	9.389500
439.000000	9.326400
438.000000	9.267200
437.000000	9.245900
436.000000	9.185700
435.000000	9.158700
434.000000	9.104200
433.000000	9.061000
432.000000	9.029400
431.000000	8.973900
430.000000	8.940500
429.000000	8.904400
428.000000	8.847000
427.000000	8.803200
426.000000	8.766600
425.000000	8.697200
424.000000	8.672100
423.000000	8.615800
422.000000	8.574600
421.000000	8.529700
420.000000	8.499000
419.000000	8.445800
418.000000	8.383900
417.000000	8.355100
416.000000	8.302400
415.000000	8.246600
414.000000	8.222100
413.000000	8.153600
412.000000	8.109100
411.000000	8.068500
410.000000	8.027100
409.000000	7.978200
408.000000	7.914300
407.000000	7.860600
406.000000	7.791300
405.000000	7.755700
404.000000	7.698400
403.000000	7.644800
402.000000	7.593100
401.000000	7.541700
400.000000	7.483100
399.000000	7.423500
398.000000	7.370900
397.000000	7.317800
396.000000	7.256500
395.000000	7.175400
394.000000	7.144400
393.000000	7.069400
392.000000	7.015200
391.000000	6.961800
390.000000	6.905700
389.000000	6.818200
388.000000	6.758100
387.000000	6.690100
386.000000	6.607500
385.000000	6.567500
384.000000	6.504100
383.000000	6.434100
382.000000	6.365100
381.000000	6.293200
380.000000	6.253300
379.000000	6.211000
378.000000	6.165600
377.000000	6.090000
376.000000	6.085200
375.000000	5.914300
374.000000	5.505600
373.000000	5.386800
372.000000	5.333000
371.000000	5.557600
370.000000	5.602200
369.000000	5.498700
368.000000	5.442100
367.000000	5.360300
366.000000	5.355100
365.000000	5.501400
364.000000	5.508700
363.000000	5.489300
362.000000	5.249000
361.000000	5.109100
360.000000	5.282000
359.000000	5.215900
358.000000	5.175100
357.000000	5.267700
356.000000	5.211800
355.000000	5.249600
354.000000	5.222600
353.000000	5.068100
352.000000	4.892800
351.000000	4.898200
350.000000	4.843300
349.000000	4.773000
348.000000	4.908200
347.000000	4.843700
346.000000	4.838100
345.000000	5.073900
344.000000	5.073400
343.000000	5.075900
342.000000	5.100000
341.000000	4.842300
340.000000	4.844200
339.000000	4.749200
338.000000	4.628600
337.000000	4.851000
336.000000	5.074200
335.000000	4.965700
334.000000	4.860400
333.000000	4.863600
332.000000	4.843300
331.000000	4.793700
330.000000	4.528200
329.000000	4.810700
328.000000	5.239600
327.000000	4.944900
326.000000	4.742100
325.000000	4.919400
324.000000	4.827300
323.000000	4.932600
322.000000	5.115500
321.000000	5.046300
320.000000	5.450000
319.000000	5.571900
318.000000	4.887100
317.000000	4.765800
316.000000	4.612200
315.000000	4.360000
314.000000	4.388700
313.000000	4.335800
312.000000	4.356600
311.000000	4.380700
310.000000	4.402300
309.000000	4.388900
308.000000	4.345600
307.000000	4.345000
306.000000	4.360000
305.000000	4.338100
304.000000	4.341500
303.000000	4.381800
302.000000	4.377600
301.000000	4.374400
300.000000	4.317700
299.000000	4.305400
298.000000	4.381700
297.000000	4.366700
296.000000	4.375800
295.000000	4.409000
294.000000	4.347700
293.000000	4.344700
292.000000	4.368400
291.000000	4.313500
290.000000	4.352600
289.000000	4.382800
288.000000	4.353900
287.000000	4.327900
286.000000	4.329900
285.000000	4.353700
284.000000	4.337800
283.000000	4.386500
282.000000	4.412400
281.000000	4.388800
280.000000	4.359700
279.000000	4.336300
278.000000	4.392900
277.000000	4.422500
276.000000	4.419100
275.000000	4.423600
274.000000	4.418300
273.000000	4.418600
272.000000	4.412800
271.000000	4.442100
270.000000	4.449500
269.000000	4.446100
268.000000	4.480600
267.000000	4.498500
266.000000	4.534700
265.000000	4.543100
264.000000	4.550300
263.000000	4.581900
262.000000	4.612100
261.000000	4.600100
260.000000	4.616500
259.000000	4.632700
258.000000	4.680000
257.000000	4.678900
256.000000	4.671700
255.000000	4.681600
254.000000	4.712600
253.000000	4.655600
252.000000	4.693000
251.000000	4.716900
250.000000	4.741500
