PE UV       SUBTECH     SPECTRUM    ASCII       PEDS        4.00        
   -1
CICIMAUCR0261-3.ASC
24/07/01
17:03:09.00
24/07/01
17:03:09.00
Vinicio Soto Monge
C. resplendens. Sex M. Ventral
250,000000
1
Lambda 1050
1050L1511233
PerkinElmer UV WinLab 6.3.2.0749 / 2.02.05 Lambda 900 UV/VIS/NIR, Aug  7 2015 09:38:08

0
0
3350/servo 860,8/2
0
0
UV/VIS
1
1
1
DoubleDePol,CommonBeamDepol,RBeamAtt,SBeamAtt,60mm sphere, WB InGaAs Detector
0
0
0
0
Program
Program
3350/servo 860,8/2
3350/0,2 860,8/0,2
3350/0,2 860,8/0,2
0
15.00
 
 
 
0
 
860,8
319,2
860,8
Front
100
on
S:100 R:100
0
0
0
0
 
0
 
 
 
0
 
 
0
0
0
0
0
 
 
 
 
0
0


0
0
#HDR
-1
-1
#GR
nm
%R
1.0
0.0
2500,000000
-1,000000
2251
8
46,448200
4,460900
#DATA
250.000000	1.101620	nan
251.000000	1.095292	nan
252.000000	1.091639	nan
253.000000	1.088785	nan
254.000000	1.084509	nan
255.000000	1.079036	nan
256.000000	1.075637	nan
257.000000	1.074455	nan
258.000000	1.068378	nan
259.000000	1.064789	nan
260.000000	1.060540	nan
261.000000	1.054309	nan
262.000000	1.047764	nan
263.000000	1.044308	nan
264.000000	1.038264	nan
265.000000	1.032895	nan
266.000000	1.028448	nan
267.000000	1.024398	nan
268.000000	1.019721	nan
269.000000	1.014875	nan
270.000000	1.012500	nan
271.000000	1.010052	nan
272.000000	1.005183	nan
273.000000	1.001919	nan
274.000000	1.001840	nan
275.000000	0.997661	nan
276.000000	0.995742	nan
277.000000	0.995516	nan
278.000000	0.990874	nan
279.000000	0.987487	nan
280.000000	0.989053	nan
281.000000	0.987304	nan
282.000000	0.986777	nan
283.000000	0.985438	nan
284.000000	0.983338	nan
285.000000	0.982955	nan
286.000000	0.979670	nan
287.000000	0.977225	nan
288.000000	0.979833	nan
289.000000	0.974839	nan
290.000000	0.974852	nan
291.000000	0.973116	nan
292.000000	0.970232	nan
293.000000	0.972290	nan
294.000000	0.970090	nan
295.000000	0.969303	nan
296.000000	0.966586	nan
297.000000	0.962352	nan
298.000000	0.962642	nan
299.000000	0.960595	nan
300.000000	0.960699	nan
301.000000	0.957926	nan
302.000000	0.957672	nan
303.000000	0.960083	nan
304.000000	0.959206	nan
305.000000	0.956509	nan
306.000000	0.956564	nan
307.000000	0.955111	nan
308.000000	0.953649	nan
309.000000	0.948287	nan
310.000000	0.947216	nan
311.000000	0.948068	nan
312.000000	0.945982	nan
313.000000	0.945706	nan
314.000000	0.943584	nan
315.000000	0.941461	nan
316.000000	1.104653	nan
317.000000	1.710827	nan
318.000000	1.541608	nan
319.000000	1.330948	nan
320.000000	1.213983	nan
321.000000	1.091694	nan
322.000000	1.035922	nan
323.000000	1.037484	nan
324.000000	1.019860	nan
325.000000	1.025230	nan
326.000000	1.009849	nan
327.000000	1.006001	nan
328.000000	0.986694	nan
329.000000	0.985700	nan
330.000000	0.997570	nan
331.000000	0.993539	nan
332.000000	0.977886	nan
333.000000	0.966548	nan
334.000000	0.968125	nan
335.000000	0.960750	nan
336.000000	0.967298	nan
337.000000	0.959218	nan
338.000000	0.940268	nan
339.000000	0.946298	nan
340.000000	0.948278	nan
341.000000	0.935908	nan
342.000000	0.956155	nan
343.000000	0.952203	nan
344.000000	0.944897	nan
345.000000	0.944519	nan
346.000000	0.950486	nan
347.000000	0.953595	nan
348.000000	0.949934	nan
349.000000	0.945920	nan
350.000000	0.955497	nan
351.000000	0.963665	nan
352.000000	0.967360	nan
353.000000	0.978813	nan
354.000000	0.982016	nan
355.000000	0.980796	nan
356.000000	0.989355	nan
357.000000	0.999399	nan
358.000000	1.002587	nan
359.000000	1.016414	nan
360.000000	1.022376	nan
361.000000	1.029396	nan
362.000000	1.036126	nan
363.000000	1.041778	nan
364.000000	1.053755	nan
365.000000	1.067039	nan
366.000000	1.077270	nan
367.000000	1.086382	nan
368.000000	1.100458	nan
369.000000	1.123806	nan
370.000000	1.133348	nan
371.000000	1.147651	nan
372.000000	1.169941	nan
373.000000	1.195858	nan
374.000000	1.225097	nan
375.000000	1.230468	nan
376.000000	1.253030	nan
377.000000	1.302957	nan
378.000000	1.335976	nan
379.000000	1.372230	nan
380.000000	1.410330	nan
381.000000	1.452447	nan
382.000000	1.498104	nan
383.000000	1.547025	nan
384.000000	1.597837	nan
385.000000	1.655091	nan
386.000000	1.713273	nan
387.000000	1.773697	nan
388.000000	1.838310	nan
389.000000	1.907483	nan
390.000000	1.980574	nan
391.000000	2.056870	nan
392.000000	2.137523	nan
393.000000	2.220661	nan
394.000000	2.305950	nan
395.000000	2.395340	nan
396.000000	2.487332	nan
397.000000	2.580527	nan
398.000000	2.675498	nan
399.000000	2.772997	nan
400.000000	2.872890	nan
401.000000	2.974527	nan
402.000000	3.079368	nan
403.000000	3.185599	nan
404.000000	3.293109	nan
405.000000	3.400262	nan
406.000000	3.508545	nan
407.000000	3.617069	nan
408.000000	3.725176	nan
409.000000	3.834232	nan
410.000000	3.943818	nan
411.000000	4.054434	nan
412.000000	4.166050	nan
413.000000	4.277667	nan
414.000000	4.389016	nan
415.000000	4.500604	nan
416.000000	4.608852	nan
417.000000	4.715600	nan
418.000000	4.824968	nan
419.000000	4.932841	nan
420.000000	5.039515	nan
421.000000	5.147743	nan
422.000000	5.253595	nan
423.000000	5.358147	nan
424.000000	5.461278	nan
425.000000	5.563303	nan
426.000000	5.662966	nan
427.000000	5.759778	nan
428.000000	5.854142	nan
429.000000	5.947457	nan
430.000000	6.040639	nan
431.000000	6.130091	nan
432.000000	6.218599	nan
433.000000	6.305386	nan
434.000000	6.389580	nan
435.000000	6.471042	nan
436.000000	6.550881	nan
437.000000	6.626254	nan
438.000000	6.699486	nan
439.000000	6.772315	nan
440.000000	6.842165	nan
441.000000	6.910631	nan
442.000000	6.974466	nan
443.000000	7.039814	nan
444.000000	7.098607	nan
445.000000	7.155540	nan
446.000000	7.208478	nan
447.000000	7.259275	nan
448.000000	7.306167	nan
449.000000	7.350770	nan
450.000000	7.393145	nan
451.000000	7.433978	nan
452.000000	7.470619	nan
453.000000	7.505378	nan
454.000000	7.538706	nan
455.000000	7.568495	nan
456.000000	7.598525	nan
457.000000	7.623709	nan
458.000000	7.648521	nan
459.000000	7.672679	nan
460.000000	7.693667	nan
461.000000	7.714248	nan
462.000000	7.733400	nan
463.000000	7.751658	nan
464.000000	7.769988	nan
465.000000	7.787345	nan
466.000000	7.803781	nan
467.000000	7.819909	nan
468.000000	7.836471	nan
469.000000	7.853791	nan
470.000000	7.870731	nan
471.000000	7.888382	nan
472.000000	7.907088	nan
473.000000	7.926092	nan
474.000000	7.946868	nan
475.000000	7.969737	nan
476.000000	7.994956	nan
477.000000	8.022017	nan
478.000000	8.051812	nan
479.000000	8.082642	nan
480.000000	8.116310	nan
481.000000	8.151957	nan
482.000000	8.191843	nan
483.000000	8.236299	nan
484.000000	8.285506	nan
485.000000	8.337377	nan
486.000000	8.393296	nan
487.000000	8.453170	nan
488.000000	8.519534	nan
489.000000	8.593405	nan
490.000000	8.673112	nan
491.000000	8.757555	nan
492.000000	8.849936	nan
493.000000	8.944283	nan
494.000000	9.043312	nan
495.000000	9.147654	nan
496.000000	9.259456	nan
497.000000	9.374268	nan
498.000000	9.493216	nan
499.000000	9.618092	nan
500.000000	9.747216	nan
501.000000	9.881223	nan
502.000000	10.023364	nan
503.000000	10.172256	nan
504.000000	10.328154	nan
505.000000	10.490676	nan
506.000000	10.659320	nan
507.000000	10.834696	nan
508.000000	11.016458	nan
509.000000	11.211735	nan
510.000000	11.412570	nan
511.000000	11.626766	nan
512.000000	11.849530	nan
513.000000	12.083911	nan
514.000000	12.328924	nan
515.000000	12.581690	nan
516.000000	12.842927	nan
517.000000	13.111609	nan
518.000000	13.390097	nan
519.000000	13.678480	nan
520.000000	13.976339	nan
521.000000	14.283551	nan
522.000000	14.596921	nan
523.000000	14.916737	nan
524.000000	15.242328	nan
525.000000	15.568517	nan
526.000000	15.896419	nan
527.000000	16.227010	nan
528.000000	16.556689	nan
529.000000	16.889504	nan
530.000000	17.222698	nan
531.000000	17.554421	nan
532.000000	17.885722	nan
533.000000	18.212301	nan
534.000000	18.533154	nan
535.000000	18.847998	nan
536.000000	19.154305	nan
537.000000	19.454002	nan
538.000000	19.743663	nan
539.000000	20.026955	nan
540.000000	20.303768	nan
541.000000	20.571756	nan
542.000000	20.829421	nan
543.000000	21.075909	nan
544.000000	21.309894	nan
545.000000	21.534669	nan
546.000000	21.747075	nan
547.000000	21.952525	nan
548.000000	22.146138	nan
549.000000	22.331150	nan
550.000000	22.507255	nan
551.000000	22.676692	nan
552.000000	22.837749	nan
553.000000	22.992827	nan
554.000000	23.136904	nan
555.000000	23.275804	nan
556.000000	23.407021	nan
557.000000	23.533948	nan
558.000000	23.654819	nan
559.000000	23.770527	nan
560.000000	23.915988	nan
561.000000	24.023830	nan
562.000000	24.121359	nan
563.000000	24.217782	nan
564.000000	24.305646	nan
565.000000	24.387277	nan
566.000000	24.466729	nan
567.000000	24.540649	nan
568.000000	24.608596	nan
569.000000	24.674290	nan
570.000000	24.735967	nan
571.000000	24.791153	nan
572.000000	24.843261	nan
573.000000	24.890955	nan
574.000000	24.937379	nan
575.000000	24.979159	nan
576.000000	25.017383	nan
577.000000	25.052905	nan
578.000000	25.084811	nan
579.000000	25.113203	nan
580.000000	25.138963	nan
581.000000	25.162751	nan
582.000000	25.180381	nan
583.000000	25.194502	nan
584.000000	25.204280	nan
585.000000	25.210046	nan
586.000000	25.211985	nan
587.000000	25.208424	nan
588.000000	25.198769	nan
589.000000	25.183734	nan
590.000000	25.163409	nan
591.000000	25.135831	nan
592.000000	25.100606	nan
593.000000	25.060936	nan
594.000000	25.012421	nan
595.000000	24.958016	nan
596.000000	24.898154	nan
597.000000	24.835009	nan
598.000000	24.761036	nan
599.000000	24.679166	nan
600.000000	24.595293	nan
601.000000	24.500214	nan
602.000000	24.398805	nan
603.000000	24.292488	nan
604.000000	24.177096	nan
605.000000	24.058598	nan
606.000000	23.933442	nan
607.000000	23.800397	nan
608.000000	23.660024	nan
609.000000	23.512176	nan
610.000000	23.358135	nan
611.000000	23.195886	nan
612.000000	23.023269	nan
613.000000	22.842693	nan
614.000000	22.654267	nan
615.000000	22.457097	nan
616.000000	22.251833	nan
617.000000	22.041175	nan
618.000000	21.821605	nan
619.000000	21.593585	nan
620.000000	21.357673	nan
621.000000	21.116446	nan
622.000000	20.868043	nan
623.000000	20.613291	nan
624.000000	20.352490	nan
625.000000	20.092020	nan
626.000000	19.831336	nan
627.000000	19.567954	nan
628.000000	19.303576	nan
629.000000	19.038419	nan
630.000000	18.774954	nan
631.000000	18.516997	nan
632.000000	18.265047	nan
633.000000	18.019420	nan
634.000000	17.784866	nan
635.000000	17.562755	nan
636.000000	17.353159	nan
637.000000	17.159769	nan
638.000000	16.979359	nan
639.000000	16.810555	nan
640.000000	16.655341	nan
641.000000	16.513539	nan
642.000000	16.386759	nan
643.000000	16.271575	nan
644.000000	16.172642	nan
645.000000	16.091103	nan
646.000000	16.029011	nan
647.000000	15.985183	nan
648.000000	15.958743	nan
649.000000	15.950147	nan
650.000000	15.959687	nan
651.000000	15.985109	nan
652.000000	16.026999	nan
653.000000	16.084402	nan
654.000000	16.153374	nan
655.000000	16.233756	nan
656.000000	16.325183	nan
657.000000	16.426145	nan
658.000000	16.533309	nan
659.000000	16.646916	nan
660.000000	16.768016	nan
661.000000	16.894311	nan
662.000000	17.024380	nan
663.000000	17.156866	nan
664.000000	17.289112	nan
665.000000	17.423604	nan
666.000000	17.553781	nan
667.000000	17.679950	nan
668.000000	17.806719	nan
669.000000	17.929529	nan
670.000000	18.050063	nan
671.000000	18.166813	nan
672.000000	18.277582	nan
673.000000	18.386859	nan
674.000000	18.486709	nan
675.000000	18.583164	nan
676.000000	18.677248	nan
677.000000	18.770285	nan
678.000000	18.858292	nan
679.000000	18.941160	nan
680.000000	19.019335	nan
681.000000	19.092047	nan
682.000000	19.162518	nan
683.000000	19.230318	nan
684.000000	19.294498	nan
685.000000	19.353828	nan
686.000000	19.406404	nan
687.000000	19.455624	nan
688.000000	19.494825	nan
689.000000	19.534379	nan
690.000000	19.567972	nan
691.000000	19.597021	nan
692.000000	19.623697	nan
693.000000	19.645526	nan
694.000000	19.664156	nan
695.000000	19.682877	nan
696.000000	19.696720	nan
697.000000	19.710753	nan
698.000000	19.724253	nan
699.000000	19.738463	nan
700.000000	19.752325	nan
701.000000	19.765036	nan
702.000000	19.779767	nan
703.000000	19.800447	nan
704.000000	19.824070	nan
705.000000	19.849484	nan
706.000000	19.873155	nan
707.000000	19.894930	nan
708.000000	19.923283	nan
709.000000	19.955251	nan
710.000000	19.989866	nan
711.000000	20.024748	nan
712.000000	20.057871	nan
713.000000	20.093346	nan
714.000000	20.127749	nan
715.000000	20.164948	nan
716.000000	20.207811	nan
717.000000	20.243778	nan
718.000000	20.282331	nan
719.000000	20.320916	nan
720.000000	20.364079	nan
721.000000	20.402879	nan
722.000000	20.439664	nan
723.000000	20.480692	nan
724.000000	20.524705	nan
725.000000	20.567040	nan
726.000000	20.605725	nan
727.000000	20.645744	nan
728.000000	20.689367	nan
729.000000	20.731126	nan
730.000000	20.770315	nan
731.000000	20.810695	nan
732.000000	20.856359	nan
733.000000	20.901972	nan
734.000000	20.938589	nan
735.000000	20.980395	nan
736.000000	21.020499	nan
737.000000	21.055899	nan
738.000000	21.095765	nan
739.000000	21.127342	nan
740.000000	21.164680	nan
741.000000	21.194811	nan
742.000000	21.224786	nan
743.000000	21.246793	nan
744.000000	21.269294	nan
745.000000	21.287507	nan
746.000000	21.304711	nan
747.000000	21.325060	nan
748.000000	21.339549	nan
749.000000	21.348802	nan
750.000000	21.353256	nan
751.000000	21.360798	nan
752.000000	21.364089	nan
753.000000	21.358748	nan
754.000000	21.354465	nan
755.000000	21.352674	nan
756.000000	21.336455	nan
757.000000	21.329318	nan
758.000000	21.314530	nan
759.000000	21.294748	nan
760.000000	21.276447	nan
761.000000	21.254295	nan
762.000000	21.226533	nan
763.000000	21.194746	nan
764.000000	21.161742	nan
765.000000	21.126987	nan
766.000000	21.084710	nan
767.000000	21.052775	nan
768.000000	21.020973	nan
769.000000	20.983115	nan
770.000000	20.948076	nan
771.000000	20.908050	nan
772.000000	20.867736	nan
773.000000	20.822145	nan
774.000000	20.788554	nan
775.000000	20.755684	nan
776.000000	20.707833	nan
777.000000	20.669023	nan
778.000000	20.627102	nan
779.000000	20.591307	nan
780.000000	20.545172	nan
781.000000	20.507630	nan
782.000000	20.461511	nan
783.000000	20.411261	nan
784.000000	20.369515	nan
785.000000	20.322872	nan
786.000000	20.271900	nan
787.000000	20.220758	nan
788.000000	20.171444	nan
789.000000	20.130130	nan
790.000000	20.071952	nan
791.000000	20.006281	nan
792.000000	19.954312	nan
793.000000	19.892072	nan
794.000000	19.834196	nan
795.000000	19.767703	nan
796.000000	19.698679	nan
797.000000	19.641533	nan
798.000000	19.571035	nan
799.000000	19.498473	nan
800.000000	19.421317	nan
801.000000	19.351577	nan
802.000000	19.269647	nan
803.000000	19.199370	nan
804.000000	19.119811	nan
805.000000	19.038951	nan
806.000000	18.951381	nan
807.000000	18.860208	nan
808.000000	18.791140	nan
809.000000	18.700046	nan
810.000000	18.626350	nan
811.000000	18.541907	nan
812.000000	18.448395	nan
813.000000	18.366633	nan
814.000000	18.286227	nan
815.000000	18.200523	nan
816.000000	18.116086	nan
817.000000	18.037209	nan
818.000000	17.940085	nan
819.000000	17.861114	nan
820.000000	17.782122	nan
821.000000	17.704288	nan
822.000000	17.606237	nan
823.000000	17.530871	nan
824.000000	17.443459	nan
825.000000	17.352129	nan
826.000000	17.261728	nan
827.000000	17.175485	nan
828.000000	17.092806	nan
829.000000	17.017770	nan
830.000000	16.923871	nan
831.000000	16.842589	nan
832.000000	16.752934	nan
833.000000	16.666321	nan
834.000000	16.585646	nan
835.000000	16.503736	nan
836.000000	16.402817	nan
837.000000	16.319402	nan
838.000000	16.245689	nan
839.000000	16.170200	nan
840.000000	16.060869	nan
841.000000	15.987321	nan
842.000000	15.904967	nan
843.000000	15.836720	nan
844.000000	15.745854	nan
845.000000	15.669998	nan
846.000000	15.604181	nan
847.000000	15.539829	nan
848.000000	15.462183	nan
849.000000	15.404810	nan
850.000000	15.341698	nan
851.000000	15.274893	nan
852.000000	15.207322	nan
853.000000	15.156911	nan
854.000000	15.075916	nan
855.000000	15.026449	nan
856.000000	14.976434	nan
857.000000	15.007497	nan
858.000000	14.719769	nan
859.000000	14.624805	nan
860.000000	14.594733	nan
861.000000	14.556285	nan
862.000000	14.502779	nan
863.000000	14.475035	nan
864.000000	14.442622	nan
865.000000	14.404210	nan
866.000000	14.368815	nan
867.000000	14.325156	nan
868.000000	14.277818	nan
869.000000	14.248095	nan
870.000000	14.230220	nan
871.000000	14.183354	nan
872.000000	14.155109	nan
873.000000	14.129531	nan
874.000000	14.115845	nan
875.000000	14.088668	nan
876.000000	14.057245	nan
877.000000	14.018361	nan
878.000000	13.994971	nan
879.000000	13.960281	nan
880.000000	13.922924	nan
881.000000	13.895325	nan
882.000000	13.860674	nan
883.000000	13.836629	nan
884.000000	13.798969	nan
885.000000	13.765515	nan
886.000000	13.735125	nan
887.000000	13.699555	nan
888.000000	13.662885	nan
889.000000	13.639468	nan
890.000000	13.611439	nan
891.000000	13.579434	nan
892.000000	13.545843	nan
893.000000	13.518967	nan
894.000000	13.488185	nan
895.000000	13.451272	nan
896.000000	13.423547	nan
897.000000	13.395807	nan
898.000000	13.363786	nan
899.000000	13.331189	nan
900.000000	13.302631	nan
901.000000	13.272773	nan
902.000000	13.242416	nan
903.000000	13.212004	nan
904.000000	13.178443	nan
905.000000	13.146936	nan
906.000000	13.118143	nan
907.000000	13.085686	nan
908.000000	13.049542	nan
909.000000	13.014701	nan
910.000000	12.984575	nan
911.000000	12.949393	nan
912.000000	12.917039	nan
913.000000	12.882883	nan
914.000000	12.846635	nan
915.000000	12.811254	nan
916.000000	12.778029	nan
917.000000	12.746722	nan
918.000000	12.713899	nan
919.000000	12.683158	nan
920.000000	12.649881	nan
921.000000	12.615636	nan
922.000000	12.583161	nan
923.000000	12.550086	nan
924.000000	12.518564	nan
925.000000	12.488643	nan
926.000000	12.456998	nan
927.000000	12.423561	nan
928.000000	12.392254	nan
929.000000	12.361667	nan
930.000000	12.329049	nan
931.000000	12.297735	nan
932.000000	12.266019	nan
933.000000	12.231913	nan
934.000000	12.203117	nan
935.000000	12.172882	nan
936.000000	12.140535	nan
937.000000	12.109677	nan
938.000000	12.076463	nan
939.000000	12.043899	nan
940.000000	12.012601	nan
941.000000	11.977847	nan
942.000000	11.945275	nan
943.000000	11.917870	nan
944.000000	11.886942	nan
945.000000	11.855647	nan
946.000000	11.824884	nan
947.000000	11.793646	nan
948.000000	11.760722	nan
949.000000	11.730436	nan
950.000000	11.700826	nan
951.000000	11.670314	nan
952.000000	11.640128	nan
953.000000	11.608718	nan
954.000000	11.579646	nan
955.000000	11.551244	nan
956.000000	11.521215	nan
957.000000	11.491721	nan
958.000000	11.462139	nan
959.000000	11.433257	nan
960.000000	11.404798	nan
961.000000	11.377655	nan
962.000000	11.349270	nan
963.000000	11.321479	nan
964.000000	11.293604	nan
965.000000	11.266053	nan
966.000000	11.239004	nan
967.000000	11.210905	nan
968.000000	11.183998	nan
969.000000	11.156456	nan
970.000000	11.131127	nan
971.000000	11.104189	nan
972.000000	11.079416	nan
973.000000	11.053615	nan
974.000000	11.029959	nan
975.000000	11.006215	nan
976.000000	10.981409	nan
977.000000	10.957629	nan
978.000000	10.934420	nan
979.000000	10.911229	nan
980.000000	10.887880	nan
981.000000	10.865572	nan
982.000000	10.843104	nan
983.000000	10.821988	nan
984.000000	10.801491	nan
985.000000	10.781414	nan
986.000000	10.760749	nan
987.000000	10.740739	nan
988.000000	10.722108	nan
989.000000	10.703766	nan
990.000000	10.685626	nan
991.000000	10.668249	nan
992.000000	10.651367	nan
993.000000	10.634569	nan
994.000000	10.616859	nan
995.000000	10.600286	nan
996.000000	10.584821	nan
997.000000	10.570326	nan
998.000000	10.555594	nan
999.000000	10.540212	nan
1000.000000	10.526181	nan
1001.000000	10.513352	nan
1002.000000	10.500774	nan
1003.000000	10.484893	nan
1004.000000	10.471129	nan
1005.000000	10.459581	nan
1006.000000	10.447635	nan
1007.000000	10.435523	nan
1008.000000	10.424796	nan
1009.000000	10.411974	nan
1010.000000	10.400983	nan
1011.000000	10.390683	nan
1012.000000	10.380443	nan
1013.000000	10.369291	nan
1014.000000	10.358844	nan
1015.000000	10.347597	nan
1016.000000	10.335816	nan
1017.000000	10.324518	nan
1018.000000	10.313948	nan
1019.000000	10.303563	nan
1020.000000	10.293324	nan
1021.000000	10.284650	nan
1022.000000	10.275179	nan
1023.000000	10.266000	nan
1024.000000	10.258286	nan
1025.000000	10.249044	nan
1026.000000	10.240411	nan
1027.000000	10.233307	nan
1028.000000	10.225630	nan
1029.000000	10.218000	nan
1030.000000	10.212511	nan
1031.000000	10.205791	nan
1032.000000	10.199172	nan
1033.000000	10.191972	nan
1034.000000	10.186228	nan
1035.000000	10.180563	nan
1036.000000	10.175482	nan
1037.000000	10.170547	nan
1038.000000	10.164746	nan
1039.000000	10.159610	nan
1040.000000	10.155537	nan
1041.000000	10.151696	nan
1042.000000	10.148399	nan
1043.000000	10.144306	nan
1044.000000	10.139667	nan
1045.000000	10.137201	nan
1046.000000	10.132989	nan
1047.000000	10.129053	nan
1048.000000	10.125003	nan
1049.000000	10.122711	nan
1050.000000	10.119167	nan
1051.000000	10.116760	nan
1052.000000	10.114956	nan
1053.000000	10.114222	nan
1054.000000	10.111600	nan
1055.000000	10.108451	nan
1056.000000	10.107243	nan
1057.000000	10.103802	nan
1058.000000	10.102438	nan
1059.000000	10.100544	nan
1060.000000	10.100035	nan
1061.000000	10.099053	nan
1062.000000	10.098362	nan
1063.000000	10.097522	nan
1064.000000	10.096791	nan
1065.000000	10.095711	nan
1066.000000	10.095231	nan
1067.000000	10.094886	nan
1068.000000	10.094206	nan
1069.000000	10.094952	nan
1070.000000	10.094799	nan
1071.000000	10.094808	nan
1072.000000	10.093489	nan
1073.000000	10.093355	nan
1074.000000	10.093657	nan
1075.000000	10.093905	nan
1076.000000	10.095020	nan
1077.000000	10.095441	nan
1078.000000	10.094444	nan
1079.000000	10.094934	nan
1080.000000	10.095637	nan
1081.000000	10.094845	nan
1082.000000	10.094082	nan
1083.000000	10.092856	nan
1084.000000	10.094627	nan
1085.000000	10.093718	nan
1086.000000	10.093425	nan
1087.000000	10.091949	nan
1088.000000	10.091101	nan
1089.000000	10.090734	nan
1090.000000	10.090976	nan
1091.000000	10.090485	nan
1092.000000	10.090159	nan
1093.000000	10.089487	nan
1094.000000	10.088322	nan
1095.000000	10.087228	nan
1096.000000	10.085597	nan
1097.000000	10.085667	nan
1098.000000	10.084662	nan
1099.000000	10.084084	nan
1100.000000	10.082126	nan
1101.000000	10.081713	nan
1102.000000	10.081029	nan
1103.000000	10.080822	nan
1104.000000	10.079866	nan
1105.000000	10.079333	nan
1106.000000	10.076912	nan
1107.000000	10.076287	nan
1108.000000	10.076431	nan
1109.000000	10.076066	nan
1110.000000	10.074430	nan
1111.000000	10.074993	nan
1112.000000	10.075143	nan
1113.000000	10.073003	nan
1114.000000	10.072472	nan
1115.000000	10.071196	nan
1116.000000	10.070277	nan
1117.000000	10.070651	nan
1118.000000	10.069568	nan
1119.000000	10.068155	nan
1120.000000	10.067346	nan
1121.000000	10.067503	nan
1122.000000	10.068359	nan
1123.000000	10.069221	nan
1124.000000	10.067688	nan
1125.000000	10.062480	nan
1126.000000	10.059582	nan
1127.000000	10.055598	nan
1128.000000	10.053118	nan
1129.000000	10.053569	nan
1130.000000	10.054068	nan
1131.000000	10.053379	nan
1132.000000	10.054604	nan
1133.000000	10.062245	nan
1134.000000	10.079087	nan
1135.000000	10.097151	nan
1136.000000	10.111208	nan
1137.000000	10.122317	nan
1138.000000	10.136277	nan
1139.000000	10.156023	nan
1140.000000	10.177454	nan
1141.000000	10.201356	nan
1142.000000	10.226011	nan
1143.000000	10.250061	nan
1144.000000	10.273528	nan
1145.000000	10.295681	nan
1146.000000	10.309260	nan
1147.000000	10.313871	nan
1148.000000	10.310551	nan
1149.000000	10.305398	nan
1150.000000	10.299261	nan
1151.000000	10.295457	nan
1152.000000	10.293994	nan
1153.000000	10.295855	nan
1154.000000	10.300459	nan
1155.000000	10.309589	nan
1156.000000	10.325861	nan
1157.000000	10.347286	nan
1158.000000	10.371474	nan
1159.000000	10.398182	nan
1160.000000	10.425162	nan
1161.000000	10.451915	nan
1162.000000	10.482491	nan
1163.000000	10.514209	nan
1164.000000	10.545652	nan
1165.000000	10.577075	nan
1166.000000	10.608818	nan
1167.000000	10.639763	nan
1168.000000	10.672733	nan
1169.000000	10.707341	nan
1170.000000	10.744267	nan
1171.000000	10.783269	nan
1172.000000	10.822431	nan
1173.000000	10.862297	nan
1174.000000	10.904962	nan
1175.000000	10.948686	nan
1176.000000	10.996678	nan
1177.000000	11.052743	nan
1178.000000	11.118067	nan
1179.000000	11.194123	nan
1180.000000	11.278112	nan
1181.000000	11.362134	nan
1182.000000	11.442469	nan
1183.000000	11.507485	nan
1184.000000	11.553386	nan
1185.000000	11.576010	nan
1186.000000	11.576905	nan
1187.000000	11.555342	nan
1188.000000	11.511194	nan
1189.000000	11.452771	nan
1190.000000	11.384673	nan
1191.000000	11.311887	nan
1192.000000	11.242915	nan
1193.000000	11.185367	nan
1194.000000	11.138674	nan
1195.000000	11.106838	nan
1196.000000	11.086423	nan
1197.000000	11.074552	nan
1198.000000	11.071017	nan
1199.000000	11.071603	nan
1200.000000	11.076716	nan
1201.000000	11.084771	nan
1202.000000	11.093812	nan
1203.000000	11.103016	nan
1204.000000	11.112207	nan
1205.000000	11.117413	nan
1206.000000	11.120194	nan
1207.000000	11.120902	nan
1208.000000	11.119010	nan
1209.000000	11.113807	nan
1210.000000	11.107061	nan
1211.000000	11.097612	nan
1212.000000	11.086590	nan
1213.000000	11.074482	nan
1214.000000	11.060221	nan
1215.000000	11.043731	nan
1216.000000	11.025928	nan
1217.000000	11.005799	nan
1218.000000	10.985444	nan
1219.000000	10.964330	nan
1220.000000	10.941136	nan
1221.000000	10.917701	nan
1222.000000	10.893073	nan
1223.000000	10.867637	nan
1224.000000	10.842599	nan
1225.000000	10.818648	nan
1226.000000	10.794378	nan
1227.000000	10.770178	nan
1228.000000	10.746947	nan
1229.000000	10.724134	nan
1230.000000	10.702602	nan
1231.000000	10.681031	nan
1232.000000	10.660536	nan
1233.000000	10.641687	nan
1234.000000	10.623790	nan
1235.000000	10.605041	nan
1236.000000	10.588985	nan
1237.000000	10.573443	nan
1238.000000	10.559467	nan
1239.000000	10.546980	nan
1240.000000	10.535144	nan
1241.000000	10.524045	nan
1242.000000	10.513979	nan
1243.000000	10.505403	nan
1244.000000	10.498752	nan
1245.000000	10.492707	nan
1246.000000	10.486957	nan
1247.000000	10.481252	nan
1248.000000	10.476958	nan
1249.000000	10.473234	nan
1250.000000	10.468183	nan
1251.000000	10.463910	nan
1252.000000	10.459775	nan
1253.000000	10.454025	nan
1254.000000	10.447256	nan
1255.000000	10.441347	nan
1256.000000	10.433253	nan
1257.000000	10.425363	nan
1258.000000	10.418696	nan
1259.000000	10.410726	nan
1260.000000	10.401968	nan
1261.000000	10.394359	nan
1262.000000	10.387553	nan
1263.000000	10.380619	nan
1264.000000	10.374043	nan
1265.000000	10.366885	nan
1266.000000	10.359929	nan
1267.000000	10.352876	nan
1268.000000	10.346410	nan
1269.000000	10.339838	nan
1270.000000	10.332779	nan
1271.000000	10.325699	nan
1272.000000	10.319397	nan
1273.000000	10.314311	nan
1274.000000	10.309731	nan
1275.000000	10.305278	nan
1276.000000	10.300774	nan
1277.000000	10.296770	nan
1278.000000	10.293317	nan
1279.000000	10.290621	nan
1280.000000	10.288534	nan
1281.000000	10.286777	nan
1282.000000	10.286151	nan
1283.000000	10.285445	nan
1284.000000	10.285317	nan
1285.000000	10.284892	nan
1286.000000	10.285556	nan
1287.000000	10.286563	nan
1288.000000	10.288108	nan
1289.000000	10.290218	nan
1290.000000	10.292316	nan
1291.000000	10.294807	nan
1292.000000	10.298784	nan
1293.000000	10.301539	nan
1294.000000	10.303238	nan
1295.000000	10.306249	nan
1296.000000	10.309512	nan
1297.000000	10.312182	nan
1298.000000	10.315493	nan
1299.000000	10.318704	nan
1300.000000	10.320952	nan
1301.000000	10.323939	nan
1302.000000	10.327553	nan
1303.000000	10.331287	nan
1304.000000	10.336119	nan
1305.000000	10.341828	nan
1306.000000	10.346584	nan
1307.000000	10.352581	nan
1308.000000	10.359982	nan
1309.000000	10.366757	nan
1310.000000	10.374096	nan
1311.000000	10.382614	nan
1312.000000	10.390838	nan
1313.000000	10.400147	nan
1314.000000	10.410441	nan
1315.000000	10.421029	nan
1316.000000	10.432568	nan
1317.000000	10.444378	nan
1318.000000	10.456653	nan
1319.000000	10.470506	nan
1320.000000	10.486202	nan
1321.000000	10.502036	nan
1322.000000	10.517898	nan
1323.000000	10.534280	nan
1324.000000	10.552509	nan
1325.000000	10.571310	nan
1326.000000	10.590403	nan
1327.000000	10.609903	nan
1328.000000	10.632280	nan
1329.000000	10.654015	nan
1330.000000	10.676273	nan
1331.000000	10.700365	nan
1332.000000	10.724081	nan
1333.000000	10.747696	nan
1334.000000	10.771096	nan
1335.000000	10.794487	nan
1336.000000	10.819170	nan
1337.000000	10.843009	nan
1338.000000	10.865433	nan
1339.000000	10.888944	nan
1340.000000	10.914705	nan
1341.000000	10.938430	nan
1342.000000	10.958926	nan
1343.000000	10.981018	nan
1344.000000	11.008356	nan
1345.000000	11.029973	nan
1346.000000	11.045968	nan
1347.000000	11.080209	nan
1348.000000	11.116955	nan
1349.000000	11.147188	nan
1350.000000	11.184523	nan
1351.000000	11.233169	nan
1352.000000	11.284338	nan
1353.000000	11.323049	nan
1354.000000	11.385083	nan
1355.000000	11.435742	nan
1356.000000	11.457309	nan
1357.000000	11.464315	nan
1358.000000	11.469641	nan
1359.000000	11.471987	nan
1360.000000	11.475821	nan
1361.000000	11.513032	nan
1362.000000	11.543167	nan
1363.000000	11.546729	nan
1364.000000	11.555739	nan
1365.000000	11.584177	nan
1366.000000	11.597628	nan
1367.000000	11.624403	nan
1368.000000	11.671072	nan
1369.000000	11.703435	nan
1370.000000	11.736094	nan
1371.000000	11.792620	nan
1372.000000	11.838829	nan
1373.000000	11.871659	nan
1374.000000	11.895934	nan
1375.000000	11.924399	nan
1376.000000	11.948787	nan
1377.000000	11.972807	nan
1378.000000	11.989674	nan
1379.000000	12.024733	nan
1380.000000	12.060571	nan
1381.000000	12.129234	nan
1382.000000	12.202088	nan
1383.000000	12.263920	nan
1384.000000	12.313020	nan
1385.000000	12.341538	nan
1386.000000	12.362006	nan
1387.000000	12.385656	nan
1388.000000	12.419719	nan
1389.000000	12.413931	nan
1390.000000	12.389177	nan
1391.000000	12.397347	nan
1392.000000	12.405482	nan
1393.000000	12.386317	nan
1394.000000	12.379139	nan
1395.000000	12.406670	nan
1396.000000	12.415718	nan
1397.000000	12.368424	nan
1398.000000	12.323797	nan
1399.000000	12.332974	nan
1400.000000	12.368917	nan
1401.000000	12.370053	nan
1402.000000	12.315451	nan
1403.000000	12.285203	nan
1404.000000	12.268775	nan
1405.000000	12.260155	nan
1406.000000	12.228593	nan
1407.000000	12.196040	nan
1408.000000	12.170081	nan
1409.000000	12.137986	nan
1410.000000	12.096082	nan
1411.000000	12.035016	nan
1412.000000	11.972611	nan
1413.000000	11.944169	nan
1414.000000	11.922169	nan
1415.000000	11.876722	nan
1416.000000	11.819025	nan
1417.000000	11.765555	nan
1418.000000	11.743772	nan
1419.000000	11.722282	nan
1420.000000	11.688170	nan
1421.000000	11.638027	nan
1422.000000	11.595897	nan
1423.000000	11.571031	nan
1424.000000	11.546408	nan
1425.000000	11.508939	nan
1426.000000	11.474198	nan
1427.000000	11.442633	nan
1428.000000	11.421187	nan
1429.000000	11.392968	nan
1430.000000	11.360664	nan
1431.000000	11.340960	nan
1432.000000	11.322997	nan
1433.000000	11.302368	nan
1434.000000	11.278246	nan
1435.000000	11.254434	nan
1436.000000	11.231755	nan
1437.000000	11.214379	nan
1438.000000	11.203172	nan
1439.000000	11.182200	nan
1440.000000	11.166126	nan
1441.000000	11.148370	nan
1442.000000	11.135712	nan
1443.000000	11.116789	nan
1444.000000	11.098430	nan
1445.000000	11.091738	nan
1446.000000	11.084301	nan
1447.000000	11.060687	nan
1448.000000	11.036161	nan
1449.000000	11.017806	nan
1450.000000	11.011936	nan
1451.000000	11.002770	nan
1452.000000	10.983875	nan
1453.000000	10.959798	nan
1454.000000	10.937608	nan
1455.000000	10.919689	nan
1456.000000	10.902287	nan
1457.000000	10.880757	nan
1458.000000	10.856606	nan
1459.000000	10.833385	nan
1460.000000	10.812997	nan
1461.000000	10.790631	nan
1462.000000	10.768398	nan
1463.000000	10.743382	nan
1464.000000	10.720272	nan
1465.000000	10.697121	nan
1466.000000	10.676026	nan
1467.000000	10.653672	nan
1468.000000	10.627455	nan
1469.000000	10.602262	nan
1470.000000	10.585055	nan
1471.000000	10.567405	nan
1472.000000	10.544400	nan
1473.000000	10.522748	nan
1474.000000	10.498141	nan
1475.000000	10.474905	nan
1476.000000	10.456582	nan
1477.000000	10.441055	nan
1478.000000	10.425750	nan
1479.000000	10.410722	nan
1480.000000	10.396842	nan
1481.000000	10.385302	nan
1482.000000	10.371442	nan
1483.000000	10.356120	nan
1484.000000	10.341797	nan
1485.000000	10.328985	nan
1486.000000	10.317076	nan
1487.000000	10.306296	nan
1488.000000	10.293138	nan
1489.000000	10.280005	nan
1490.000000	10.267614	nan
1491.000000	10.256323	nan
1492.000000	10.245010	nan
1493.000000	10.234735	nan
1494.000000	10.226720	nan
1495.000000	10.219256	nan
1496.000000	10.213803	nan
1497.000000	10.209573	nan
1498.000000	10.207682	nan
1499.000000	10.208236	nan
1500.000000	10.209223	nan
1501.000000	10.212263	nan
1502.000000	10.217097	nan
1503.000000	10.223908	nan
1504.000000	10.231685	nan
1505.000000	10.239730	nan
1506.000000	10.248117	nan
1507.000000	10.257396	nan
1508.000000	10.268442	nan
1509.000000	10.280069	nan
1510.000000	10.290592	nan
1511.000000	10.301806	nan
1512.000000	10.312956	nan
1513.000000	10.324659	nan
1514.000000	10.336814	nan
1515.000000	10.348630	nan
1516.000000	10.360023	nan
1517.000000	10.370895	nan
1518.000000	10.382213	nan
1519.000000	10.393249	nan
1520.000000	10.403462	nan
1521.000000	10.414135	nan
1522.000000	10.424956	nan
1523.000000	10.435416	nan
1524.000000	10.446358	nan
1525.000000	10.457685	nan
1526.000000	10.467732	nan
1527.000000	10.477421	nan
1528.000000	10.487489	nan
1529.000000	10.497198	nan
1530.000000	10.506968	nan
1531.000000	10.516945	nan
1532.000000	10.526936	nan
1533.000000	10.535652	nan
1534.000000	10.544956	nan
1535.000000	10.554115	nan
1536.000000	10.562818	nan
1537.000000	10.569142	nan
1538.000000	10.576173	nan
1539.000000	10.583851	nan
1540.000000	10.591021	nan
1541.000000	10.598816	nan
1542.000000	10.606536	nan
1543.000000	10.616119	nan
1544.000000	10.626380	nan
1545.000000	10.638296	nan
1546.000000	10.652763	nan
1547.000000	10.667610	nan
1548.000000	10.684276	nan
1549.000000	10.702667	nan
1550.000000	10.721606	nan
1551.000000	10.740273	nan
1552.000000	10.758191	nan
1553.000000	10.774997	nan
1554.000000	10.790675	nan
1555.000000	10.805211	nan
1556.000000	10.816620	nan
1557.000000	10.826750	nan
1558.000000	10.835763	nan
1559.000000	10.843085	nan
1560.000000	10.848401	nan
1561.000000	10.851422	nan
1562.000000	10.853091	nan
1563.000000	10.852729	nan
1564.000000	10.850551	nan
1565.000000	10.847551	nan
1566.000000	10.843634	nan
1567.000000	10.838950	nan
1568.000000	10.833307	nan
1569.000000	10.827669	nan
1570.000000	10.822570	nan
1571.000000	10.817768	nan
1572.000000	10.813453	nan
1573.000000	10.810395	nan
1574.000000	10.807970	nan
1575.000000	10.806813	nan
1576.000000	10.805934	nan
1577.000000	10.805359	nan
1578.000000	10.806496	nan
1579.000000	10.808417	nan
1580.000000	10.810531	nan
1581.000000	10.814060	nan
1582.000000	10.816927	nan
1583.000000	10.821290	nan
1584.000000	10.825648	nan
1585.000000	10.830641	nan
1586.000000	10.835866	nan
1587.000000	10.841365	nan
1588.000000	10.845897	nan
1589.000000	10.850337	nan
1590.000000	10.854866	nan
1591.000000	10.859188	nan
1592.000000	10.864315	nan
1593.000000	10.868213	nan
1594.000000	10.872453	nan
1595.000000	10.878484	nan
1596.000000	10.884369	nan
1597.000000	10.890537	nan
1598.000000	10.896579	nan
1599.000000	10.903280	nan
1600.000000	10.911142	nan
1601.000000	10.919246	nan
1602.000000	10.928137	nan
1603.000000	10.935380	nan
1604.000000	10.942783	nan
1605.000000	10.950404	nan
1606.000000	10.957856	nan
1607.000000	10.964591	nan
1608.000000	10.969428	nan
1609.000000	10.974824	nan
1610.000000	10.978354	nan
1611.000000	10.979503	nan
1612.000000	10.979755	nan
1613.000000	10.979764	nan
1614.000000	10.979148	nan
1615.000000	10.976586	nan
1616.000000	10.973803	nan
1617.000000	10.970431	nan
1618.000000	10.965246	nan
1619.000000	10.960712	nan
1620.000000	10.955039	nan
1621.000000	10.950168	nan
1622.000000	10.945438	nan
1623.000000	10.941536	nan
1624.000000	10.936859	nan
1625.000000	10.932333	nan
1626.000000	10.928710	nan
1627.000000	10.925276	nan
1628.000000	10.921692	nan
1629.000000	10.918639	nan
1630.000000	10.914857	nan
1631.000000	10.911504	nan
1632.000000	10.906999	nan
1633.000000	10.902895	nan
1634.000000	10.897231	nan
1635.000000	10.891794	nan
1636.000000	10.884175	nan
1637.000000	10.876473	nan
1638.000000	10.867454	nan
1639.000000	10.859712	nan
1640.000000	10.851586	nan
1641.000000	10.841762	nan
1642.000000	10.832914	nan
1643.000000	10.824984	nan
1644.000000	10.817184	nan
1645.000000	10.809858	nan
1646.000000	10.802516	nan
1647.000000	10.796712	nan
1648.000000	10.788938	nan
1649.000000	10.781382	nan
1650.000000	10.774581	nan
1651.000000	10.766514	nan
1652.000000	10.755269	nan
1653.000000	10.744809	nan
1654.000000	10.734057	nan
1655.000000	10.721180	nan
1656.000000	10.708724	nan
1657.000000	10.692381	nan
1658.000000	10.675894	nan
1659.000000	10.657140	nan
1660.000000	10.637967	nan
1661.000000	10.617073	nan
1662.000000	10.594292	nan
1663.000000	10.571780	nan
1664.000000	10.548074	nan
1665.000000	10.524658	nan
1666.000000	10.502683	nan
1667.000000	10.482871	nan
1668.000000	10.464214	nan
1669.000000	10.445458	nan
1670.000000	10.430005	nan
1671.000000	10.416622	nan
1672.000000	10.412683	nan
1673.000000	10.414246	nan
1674.000000	10.424320	nan
1675.000000	10.442619	nan
1676.000000	10.470405	nan
1677.000000	10.503339	nan
1678.000000	10.535848	nan
1679.000000	10.565046	nan
1680.000000	10.587023	nan
1681.000000	10.593567	nan
1682.000000	10.583288	nan
1683.000000	10.554686	nan
1684.000000	10.514770	nan
1685.000000	10.468013	nan
1686.000000	10.426249	nan
1687.000000	10.396245	nan
1688.000000	10.385932	nan
1689.000000	10.395737	nan
1690.000000	10.423161	nan
1691.000000	10.461508	nan
1692.000000	10.503302	nan
1693.000000	10.541401	nan
1694.000000	10.570380	nan
1695.000000	10.588295	nan
1696.000000	10.590578	nan
1697.000000	10.581768	nan
1698.000000	10.562500	nan
1699.000000	10.540847	nan
1700.000000	10.517155	nan
1701.000000	10.492393	nan
1702.000000	10.471410	nan
1703.000000	10.452760	nan
1704.000000	10.432380	nan
1705.000000	10.412988	nan
1706.000000	10.391463	nan
1707.000000	10.367365	nan
1708.000000	10.340106	nan
1709.000000	10.311119	nan
1710.000000	10.280875	nan
1711.000000	10.249553	nan
1712.000000	10.216353	nan
1713.000000	10.179155	nan
1714.000000	10.138065	nan
1715.000000	10.092637	nan
1716.000000	10.040850	nan
1717.000000	9.986686	nan
1718.000000	9.929536	nan
1719.000000	9.873520	nan
1720.000000	9.820798	nan
1721.000000	9.777965	nan
1722.000000	9.745835	nan
1723.000000	9.728095	nan
1724.000000	9.724163	nan
1725.000000	9.732241	nan
1726.000000	9.749057	nan
1727.000000	9.771951	nan
1728.000000	9.798207	nan
1729.000000	9.825545	nan
1730.000000	9.851563	nan
1731.000000	9.874691	nan
1732.000000	9.894936	nan
1733.000000	9.909309	nan
1734.000000	9.917461	nan
1735.000000	9.919303	nan
1736.000000	9.915796	nan
1737.000000	9.907836	nan
1738.000000	9.896623	nan
1739.000000	9.884576	nan
1740.000000	9.874034	nan
1741.000000	9.864710	nan
1742.000000	9.858415	nan
1743.000000	9.855737	nan
1744.000000	9.853849	nan
1745.000000	9.856907	nan
1746.000000	9.860965	nan
1747.000000	9.866587	nan
1748.000000	9.872510	nan
1749.000000	9.877955	nan
1750.000000	9.884135	nan
1751.000000	9.889405	nan
1752.000000	9.894933	nan
1753.000000	9.899982	nan
1754.000000	9.906262	nan
1755.000000	9.915628	nan
1756.000000	9.924914	nan
1757.000000	9.935074	nan
1758.000000	9.946383	nan
1759.000000	9.957532	nan
1760.000000	9.966989	nan
1761.000000	9.974872	nan
1762.000000	9.980907	nan
1763.000000	9.983522	nan
1764.000000	9.983003	nan
1765.000000	9.979793	nan
1766.000000	9.976838	nan
1767.000000	9.972512	nan
1768.000000	9.967113	nan
1769.000000	9.961986	nan
1770.000000	9.955975	nan
1771.000000	9.949624	nan
1772.000000	9.943805	nan
1773.000000	9.937998	nan
1774.000000	9.933350	nan
1775.000000	9.929074	nan
1776.000000	9.925909	nan
1777.000000	9.922988	nan
1778.000000	9.919715	nan
1779.000000	9.916850	nan
1780.000000	9.911125	nan
1781.000000	9.905029	nan
1782.000000	9.896945	nan
1783.000000	9.887278	nan
1784.000000	9.879201	nan
1785.000000	9.870544	nan
1786.000000	9.859503	nan
1787.000000	9.847890	nan
1788.000000	9.836486	nan
1789.000000	9.826572	nan
1790.000000	9.817985	nan
1791.000000	9.811332	nan
1792.000000	9.805272	nan
1793.000000	9.801473	nan
1794.000000	9.798274	nan
1795.000000	9.795945	nan
1796.000000	9.793958	nan
1797.000000	9.791411	nan
1798.000000	9.788060	nan
1799.000000	9.784983	nan
1800.000000	9.785232	nan
1801.000000	9.788293	nan
1802.000000	9.787625	nan
1803.000000	9.781241	nan
1804.000000	9.774520	nan
1805.000000	9.772384	nan
1806.000000	9.776391	nan
1807.000000	9.777524	nan
1808.000000	9.772775	nan
1809.000000	9.770180	nan
1810.000000	9.773274	nan
1811.000000	9.780831	nan
1812.000000	9.785536	nan
1813.000000	9.786784	nan
1814.000000	9.785866	nan
1815.000000	9.789453	nan
1816.000000	9.792355	nan
1817.000000	9.788171	nan
1818.000000	9.784363	nan
1819.000000	9.787374	nan
1820.000000	9.797455	nan
1821.000000	9.797928	nan
1822.000000	9.784707	nan
1823.000000	9.764546	nan
1824.000000	9.747220	nan
1825.000000	9.742544	nan
1826.000000	9.744876	nan
1827.000000	9.738381	nan
1828.000000	9.733768	nan
1829.000000	9.736704	nan
1830.000000	9.735244	nan
1831.000000	9.732610	nan
1832.000000	9.725766	nan
1833.000000	9.721600	nan
1834.000000	9.725336	nan
1835.000000	9.738319	nan
1836.000000	9.752679	nan
1837.000000	9.757697	nan
1838.000000	9.758839	nan
1839.000000	9.762864	nan
1840.000000	9.771014	nan
1841.000000	9.779525	nan
1842.000000	9.784466	nan
1843.000000	9.769713	nan
1844.000000	9.754818	nan
1845.000000	9.755188	nan
1846.000000	9.764832	nan
1847.000000	9.785131	nan
1848.000000	9.794504	nan
1849.000000	9.781615	nan
1850.000000	9.764371	nan
1851.000000	9.753706	nan
1852.000000	9.743803	nan
1853.000000	9.747746	nan
1854.000000	9.757968	nan
1855.000000	9.749806	nan
1856.000000	9.747528	nan
1857.000000	9.756013	nan
1858.000000	9.755555	nan
1859.000000	9.760519	nan
1860.000000	9.769440	nan
1861.000000	9.765225	nan
1862.000000	9.758458	nan
1863.000000	9.753298	nan
1864.000000	9.762213	nan
1865.000000	9.772779	nan
1866.000000	9.780450	nan
1867.000000	9.809468	nan
1868.000000	9.834415	nan
1869.000000	9.854265	nan
1870.000000	9.868158	nan
1871.000000	9.887106	nan
1872.000000	9.891432	nan
1873.000000	9.899868	nan
1874.000000	9.895893	nan
1875.000000	9.885947	nan
1876.000000	9.878286	nan
1877.000000	9.873729	nan
1878.000000	9.863183	nan
1879.000000	9.837670	nan
1880.000000	9.814056	nan
1881.000000	9.795486	nan
1882.000000	9.759019	nan
1883.000000	9.719835	nan
1884.000000	9.671787	nan
1885.000000	9.594138	nan
1886.000000	9.512400	nan
1887.000000	9.426434	nan
1888.000000	9.336915	nan
1889.000000	9.238332	nan
1890.000000	9.137993	nan
1891.000000	9.027193	nan
1892.000000	8.897866	nan
1893.000000	8.756258	nan
1894.000000	8.623560	nan
1895.000000	8.497861	nan
1896.000000	8.382691	nan
1897.000000	8.270380	nan
1898.000000	8.143207	nan
1899.000000	8.011303	nan
1900.000000	7.869751	nan
1901.000000	7.721511	nan
1902.000000	7.595682	nan
1903.000000	7.476339	nan
1904.000000	7.360431	nan
1905.000000	7.245191	nan
1906.000000	7.117652	nan
1907.000000	6.989310	nan
1908.000000	6.876029	nan
1909.000000	6.781254	nan
1910.000000	6.703731	nan
1911.000000	6.620037	nan
1912.000000	6.539349	nan
1913.000000	6.456617	nan
1914.000000	6.366258	nan
1915.000000	6.276044	nan
1916.000000	6.207499	nan
1917.000000	6.145980	nan
1918.000000	6.085453	nan
1919.000000	6.025372	nan
1920.000000	5.981596	nan
1921.000000	5.924172	nan
1922.000000	5.860639	nan
1923.000000	5.811185	nan
1924.000000	5.773145	nan
1925.000000	5.734957	nan
1926.000000	5.697727	nan
1927.000000	5.667514	nan
1928.000000	5.638372	nan
1929.000000	5.608608	nan
1930.000000	5.583699	nan
1931.000000	5.563330	nan
1932.000000	5.545227	nan
1933.000000	5.529841	nan
1934.000000	5.517615	nan
1935.000000	5.507685	nan
1936.000000	5.502988	nan
1937.000000	5.502157	nan
1938.000000	5.502383	nan
1939.000000	5.505334	nan
1940.000000	5.507771	nan
1941.000000	5.515350	nan
1942.000000	5.520813	nan
1943.000000	5.529095	nan
1944.000000	5.541049	nan
1945.000000	5.556935	nan
1946.000000	5.570577	nan
1947.000000	5.589258	nan
1948.000000	5.608563	nan
1949.000000	5.625663	nan
1950.000000	5.644843	nan
1951.000000	5.665285	nan
1952.000000	5.688163	nan
1953.000000	5.712768	nan
1954.000000	5.735913	nan
1955.000000	5.759241	nan
1956.000000	5.782590	nan
1957.000000	5.806432	nan
1958.000000	5.830717	nan
1959.000000	5.853927	nan
1960.000000	5.878810	nan
1961.000000	5.901331	nan
1962.000000	5.925410	nan
1963.000000	5.949045	nan
1964.000000	5.971175	nan
1965.000000	5.993425	nan
1966.000000	6.013704	nan
1967.000000	6.035792	nan
1968.000000	6.058060	nan
1969.000000	6.080881	nan
1970.000000	6.101280	nan
1971.000000	6.122596	nan
1972.000000	6.146375	nan
1973.000000	6.167505	nan
1974.000000	6.189269	nan
1975.000000	6.211898	nan
1976.000000	6.234426	nan
1977.000000	6.257204	nan
1978.000000	6.281435	nan
1979.000000	6.304882	nan
1980.000000	6.329248	nan
1981.000000	6.353351	nan
1982.000000	6.378486	nan
1983.000000	6.402157	nan
1984.000000	6.425597	nan
1985.000000	6.449624	nan
1986.000000	6.473527	nan
1987.000000	6.496232	nan
1988.000000	6.518823	nan
1989.000000	6.541953	nan
1990.000000	6.564579	nan
1991.000000	6.585215	nan
1992.000000	6.605548	nan
1993.000000	6.625847	nan
1994.000000	6.644180	nan
1995.000000	6.662732	nan
1996.000000	6.681513	nan
1997.000000	6.697439	nan
1998.000000	6.712259	nan
1999.000000	6.726194	nan
